-1.939937802708727077e+03
-1.533059010408444465e+03
-1.240432865436421707e+03
-7.690622689901387048e+02
5.450154556391092910e+02
1.374821772161586068e+03
2.308327741849818267e+03
3.196491491985289485e+03
3.802291219191701657e+03
4.064625486139332679e+03
4.251422732534675561e+03
2.649624524601662870e+03
-2.092793955558479411e+03
-7.598925602891594281e+03
-9.162877544921222579e+03
-9.718730820043841959e+03
-9.960538692473439369e+03
-1.148936295461542795e+04
-1.167438201823624695e+04
-7.333701644500625662e+03
-3.004342015484121021e+03
-5.933329358064488588e+03
-1.951483071885410936e+03
5.400843835537255018e+02
2.793189937179326989e+03
3.842832453894133778e+03
3.684973365535715857e+03
3.685548994706215581e+03
4.645510757640610791e+03
5.131761515859681822e+03
5.393279788030681630e+03
5.172941587375867130e+03
4.451650281222638114e+03
3.572342106548702759e+03
2.002905006887762283e+03
1.264258649720259200e+03
5.292746795671819200e+02
-5.771566613199374842e+02
-1.112079239610476179e+03
-1.198552122339065363e+03
-1.686676312874388486e+03
-1.315461102639874298e+03
3.100643693616891028e+02
1.675849240657606742e+03
2.691849109098644476e+03
3.282065913193740471e+03
3.672535567206943597e+03
4.299219318235165701e+03
4.593037276969830600e+03
4.630918131605825693e+03
4.313761233063104555e+03
3.634465160115062645e+03
3.158056532902952313e+03
2.608530336033805725e+03
1.770751786572908941e+03
6.436202045118593560e+02
-1.119298490301800086e+02
-1.021959101537940796e+03
-2.258574509614031740e+03
-2.522805387966444414e+03
-1.629681099418720351e+03
-9.772849702018353355e+02
-5.884940997785375885e+02
4.368473943514885605e+01
1.834229719963619345e+03
2.520171169243119039e+03
2.799511352252008237e+03
3.442194317413445333e+03
4.085259163092529889e+03
4.487682348342294972e+03
4.706438566273965080e+03
4.595513201911148826e+03
3.957884304633269494e+03
2.885550171903585579e+03
1.418470371516744535e+03
1.063619717172772425e+03
1.219186077362564617e+02
-4.246854337912404844e+02
-1.217211932583456928e+03
-1.625699422247995471e+03
-1.588137600983454604e+03
-1.232472760505668475e+03
-3.356263849354594981e+02
3.594496415030717458e+02
1.467781330974481079e+03
3.265400473858854184e+03
4.070497111113367737e+03
2.051965585864023979e+03
-2.056183193794642193e+03
-5.145996442297453541e+03
-5.352068150058087667e+03
-6.224566984391240112e+03
-6.253534866409790993e+03
-7.019933211766629029e+03
-7.647769982343425909e+03
-8.898028549901473525e+03
-9.062732141167767622e+03
-9.182820469954358487e+03
-9.808298284984202837e+03
-9.851172829660359639e+03
-1.018446413583388312e+04
-8.821148138947717598e+03
-1.223057023551398970e+03
4.050895161057386304e+03
5.757750973644681835e+03
4.053642932453974026e+03
-6.763387393978561022e+02
-3.240114789378462774e+03
-3.344638665280460373e+03
-2.774884990876868414e+03
-2.400794465842589943e+03
-2.693322430010869084e+03
-3.554420879104507549e+03
-4.833070741505881415e+03
-5.598250114653366836e+03
-6.690875134619897835e+03
-7.966027499650495884e+03
-8.631670443442462783e+03
-8.741702480211140937e+03
-7.159157401025549007e+03
-2.742012627286697352e+03
1.448839540337007747e+03
1.914505084559936449e+03
1.344103700179103271e+03
5.723715475126879028e+03
7.178379587746348989e+03
7.830241321608573344e+03
8.477398411204612785e+03
8.003894747781104343e+03
4.892741999944068084e+03
8.110034190853577456e+03
7.864834361283966246e+03
6.443133030437611524e+03
4.942960927417479979e+03
3.390377773658440219e+03
2.228417018568271487e+03
1.185051070521101565e+03
3.604615816926987577e+02
1.387496382949791496e+02
1.511533544787348262e+02
-8.749730788718518681e+01
2.465755230332438828e+02
2.584359875140886288e+03
4.689171739485221224e+03
5.649343775014831408e+03
6.022970402877588640e+03
6.158139101462936196e+03
6.518833427468034643e+03
6.600226566615910087e+03
5.433318308955514112e+03
5.613992222475140807e+03
5.037372802273062007e+03
4.428355894305839684e+03
2.129796879514498414e+03
-1.867544776677149457e+03
-3.147680328790957901e+03
-2.659316665211015334e+03
-1.451849868739571775e+03
-1.480670975752082995e+03
-1.583287594104654545e+03
-1.452859523286667127e+03
-7.521465469567928039e+02
6.176883654359990032e+02
1.439380219640580890e+03
2.237823294546894431e+03
3.180087403148421345e+03
4.508246688583591094e+03
5.153280419052630350e+03
4.834234828108648799e+03
5.373042719143689283e+03
5.568558872306438388e+03
4.659649072112687463e+03
3.553827536038770177e+03
2.815117618086919265e+03
1.253620786875296062e+03
-3.136993171995311513e+02
-1.329748634612766637e+03
-2.124593426344167256e+03
-2.678308312642889632e+03
-2.245850750890987911e+03
-2.271265305570488181e+03
-1.606343853060175206e+03
-7.281752750334638904e+02
1.368210738979650785e+02
9.667525001193694152e+02
2.015671455910770646e+03
3.475578821503967447e+03
4.313411897701723319e+03
4.548142928241194568e+03
4.362776520823506871e+03
4.157268190649804637e+03
3.986598409042307594e+03
3.055776594501090585e+03
1.912717157377267768e+03
9.263437856301998181e+02
-3.103587074000192274e+02
-1.634425083926860907e+03
-2.746904880547887842e+03
-3.098882884962304615e+03
-3.045446392080645637e+03
-3.286713165510789167e+03
-2.756746603547278028e+03
-1.572484703322487121e+03
-1.558887930654757952e+02
1.295022053245398865e+03
2.191292211391929868e+03
3.170963893349814953e+03
3.250003882191430421e+03
1.242383171667899205e+03
-3.009946614371566739e+03
-6.015015956922239639e+03
-6.816846026295020238e+03
-6.958402820573569443e+03
-6.779699317092120509e+03
-8.127751988171045014e+03
-1.029377964214937310e+04
-1.165694085266908951e+04
-1.249517982420838598e+04
-1.321258808383690302e+04
-1.259130407566981921e+04
-1.192834101307763922e+04
-1.090371031489235247e+04
-9.755360377405057079e+03
-4.717275268102761402e+03
2.046516220044738475e+03
1.875995823089977648e+03
2.286174827311291665e+03
4.358046301547959956e+03
5.343755370351082092e+03
5.544294655751855316e+03
5.659602080387116985e+03
5.105701763171072344e+03
4.146590581572590054e+03
2.513374988071431744e+03
1.227048635787322837e+03
9.348721541783193345e+01
-4.665071773080909452e+02
-1.709066087411605395e+03
-2.470153581311899870e+03
-2.085759282191286729e+03
-2.213835494609457328e+03
-1.326364340955883335e+03
1.856168038170832801e+02
1.198084240335699633e+03
2.332156160804050614e+03
3.193998950457748833e+03
3.816661319850283689e+03
4.148175736001656333e+03
4.639452774690078513e+03
4.959412903550808551e+03
4.741112475925480794e+03
3.925712199565756237e+03
3.020230073094978707e+03
1.745580156948827153e+03
1.303720569982747065e+03
3.935250439443616983e+02
-9.761267778691587864e+02
-1.975148328663294706e+03
-2.720429663313187120e+03
-2.927959455072566470e+03
-2.637798947562633657e+03
-1.753926776239405854e+03
-8.600643914049379646e+02
1.138769185165070610e+02
1.320755223407091307e+03
1.994485224281032515e+03
2.748067437960915413e+03
3.287457703076104281e+03
3.500828567341741746e+03
3.448478481298423503e+03
3.109867974258655522e+03
2.711847425692115394e+03
1.909362544371019794e+03
1.582385849467464595e+03
6.190507802841251532e+02
-7.476102486405223999e+02
-2.163644833998142531e+03
-3.791786201623419856e+03
-3.797601066472996990e+03
-3.807969010735641405e+03
-3.415086101203831277e+03
-3.330226969638724768e+03
-2.300288418171272497e+03
-1.141100692317562334e+03
-1.756294549196280741e+02
7.391109765516511061e+02
2.006236422515911727e+03
2.903832285598192811e+03
3.343940772531555012e+03
3.529565181069778646e+03
3.320701654471140500e+03
2.921550941610744303e+03
2.107148059235727033e+03
9.584805760788204907e+02
2.704997026371656261e+02
-8.848170477056133905e+02
-2.131455016176831577e+03
-3.042282192666393257e+03
-3.704298808160197041e+03
-4.063715563426570498e+03
-4.354657952121763628e+03
-3.838194848166501743e+03
-2.643253659223231352e+03
-1.051675091897206130e+03
3.067059876851173499e+02
1.582911487388277010e+03
2.260977094071462489e+03
2.595014887557589191e+03
2.916087560110649974e+03
3.194044630602926190e+03
3.290807643708392789e+03
3.104431653119516341e+03
2.407976590196779398e+03
1.104391123902802747e+03
-1.903053177463468444e+02
-1.040097781770485426e+03
-2.018032773567264485e+03
-3.687275300913520368e+03
-4.104752036245457020e+03
-4.070311247021991676e+03
-4.026945715428049425e+03
-3.445823087555158963e+03
-2.534753004967989000e+03
-1.353680358731422075e+03
2.321573471224683090e+02
1.483568564384561796e+03
2.210549569215294468e+03
2.940077644881791002e+03
3.470301651657836373e+03
3.959304353380097837e+03
3.854107388457076013e+03
3.347832452017287778e+03
2.414359183009032222e+03
1.736886558367579028e+03
8.756230910150731006e+02
-2.545223479015666612e+02
-1.445912945517075286e+03
-2.612891749077547956e+03
-3.316642345499853946e+03
-3.433189648234235392e+03
-3.496542226051766647e+03
-3.422976763770288471e+03
-1.718616958004160779e+03
-4.474047472960962750e+02
-5.147582078455923238e+02
-2.160880785100417143e+03
1.614180696691136518e+03
2.840161192031886003e+03
3.052296351011185834e+03
3.315525362270898768e+03
3.348770392799704496e+03
3.400672877905502446e+03
3.096004232807549215e+03
2.387595288869124488e+03
1.796165946388308839e+03
9.007840758158213248e+02
-2.644777559514054133e+02
-1.483414232435679423e+03
-2.250448295679940657e+03
-2.285402546953062938e+03
-1.985883112538253044e+03
-1.430315119432714482e+03
-4.788412479546852296e+02
8.145158679325965068e+02
2.184932074672470208e+03
3.301048980508067416e+03
4.078719110074886430e+03
4.748993135734007410e+03
5.275792333592854447e+03
5.670960081832792639e+03
5.887499428285441354e+03
5.794576796649378593e+03
4.913405032688929168e+03
3.687004626317785096e+03
3.099675463155618218e+03
2.374212626106154403e+03
1.031730339521751830e+03
-2.011078635659643794e+02
-8.584089629451066230e+02
-1.008606088487852844e+03
-1.173218075178962636e+03
-1.380686717470960957e+03
-5.499985100196647636e+02
4.649593392255249000e+02
1.730167277002361743e+03
2.967620041699739431e+03
4.099578661733215085e+03
5.631662643465348992e+03
6.301205742188681143e+03
6.162169418457642678e+03
6.320474687666544924e+03
6.652074143037405520e+03
5.986997498357284712e+03
5.247406797781814930e+03
4.237275307348853858e+03
2.550433879906740003e+03
6.228403909527983160e+02
-3.007596410305111476e+03
-8.544898624665003808e+03
-1.243318897515333447e+04
-1.325450900150191228e+04
-1.254266442357917003e+04
-1.150673697522531802e+04
-1.069981098691489387e+04
-8.930718762053011233e+03
-7.458477767733205837e+03
-7.156908996759244474e+03
-6.214948054014802437e+03
-5.109569072037093065e+03
-4.250951930456159062e+03
-6.230577150307492502e+02
6.165404422676301692e+03
6.674355442695363308e+03
1.010497828993121743e+03
-4.352235411787990415e+03
-2.029606451584611023e+03
-5.730487708690924592e+03
-1.094488932716468662e+04
-1.224415314774957551e+04
-1.241035368359061977e+04
-1.269624276330762405e+04
-1.200194147772651013e+04
-1.128936060499313317e+04
-1.022106226501174024e+04
-8.783798977239997839e+03
-8.068686462256232517e+03
-6.759775853130158794e+03
-4.176961334582017116e+03
-2.168698877834192444e+03
3.782019887768532044e+03
6.616315448318106064e+03
1.522213950990562125e+03
1.982099788851665608e+03
1.816143545618546113e+03
7.273375756646535137e+02
2.396533454912739387e+02
6.229538422517530307e+02
1.586318414041636743e+03
3.028753453412165072e+03
4.020257513355283209e+03
3.799934458387805989e+03
4.135895738835975862e+03
4.968339156753899260e+03
5.986426892324120672e+03
7.028198820519281071e+03
7.642582740098875547e+03
7.427800920984922413e+03
7.760009495482749116e+03
8.316076100007834611e+03
8.275994837846074006e+03
7.228089512580061637e+03
6.473442346245793487e+03
5.927051792527811813e+03
5.168906658397044339e+03
4.340011003565647115e+03
3.467410961374084309e+03
1.996240232475997800e+03
3.408641923569152254e+02
-3.226570559378818643e+02
-5.886105680347199041e+02
-1.092201032747678482e+03
-7.285058625404690247e+02
-3.020485065116894248e+02
3.512620965220180551e+02
1.412657230742984666e+03
2.325666248983159221e+03
2.812620887702965319e+03
3.439521601569495942e+03
4.557232116056122322e+03
5.349584190744428270e+03
6.089446823022257377e+03
6.410973289314808426e+03
5.711356329635419570e+03
4.754554622803839266e+03
3.581822466992803129e+03
2.283201340598247953e+03
1.062253173617589027e+03
-4.401357518518774441e+02
-1.434185058773149876e+03
-1.820581425223456108e+03
-1.887192723250597510e+03
-2.480520751362659666e+03
-2.943707461974337548e+03
-3.264901422607500535e+03
-3.086891922684841575e+03
-2.349999378667878318e+03
-1.831231672201737638e+03
-1.087685186495318703e+03
-5.573999862685445805e+02
7.447097395020504109e+02
2.358624735990450063e+03
3.775357565859965234e+03
3.476933312151755217e+03
1.460331923517960377e+03
-4.513169678366528501e+02
-2.906056401257027574e+03
-4.235039452140896174e+03
-4.765294265231887039e+03
-5.845889167804609315e+03
-6.907842502247969605e+03
-6.877127694807869375e+03
-6.087792117732074075e+03
-5.033925387280084578e+03
-3.523517158269373795e+03
-2.213514278600649050e+03
-1.847907455004008625e+03
-1.357662684577358959e+03
1.362527044653943449e+02
1.855841847182183074e+03
3.144041900899338998e+03
4.554832922366034836e+03
3.744169370534344125e+03
1.374088972067163922e+03
-3.504248763211484174e+02
-1.028412638072990148e+03
-2.057911623050680191e+03
-4.301029775742150377e+03
-6.016861658643998453e+03
-4.739529096834463417e+03
-1.761083632421575658e+03
-1.425702476723765528e+02
2.129269260147052307e+02
1.441318130078630055e+01
-1.340209703509755627e+03
-3.268935930766047477e+03
-6.399711411211669656e+03
-6.541545685666998907e+03
-5.886524799978746159e+03
-5.384675205480642944e+03
-5.274042710217929198e+03
-5.275695823427111463e+03
-3.867663518146867318e+03
2.772015317802406116e+03
1.543317060887404295e+03
-2.150675953105436292e+03
2.565789158157218480e+03
4.713599328971838986e+03
3.518652770553326263e+03
2.206944373049583191e+03
1.338293247123366655e+03
4.476360150366336939e+02
-1.050677486978942170e+02
1.280684136712407621e+02
1.117951923958971747e+03
2.061585108121162193e+03
2.210937532933536659e+03
1.526003285510040541e+03
2.055820732132344801e+03
3.512330769698517543e+03
4.676475973383452583e+03
4.457243076390504029e+03
3.958528646422106249e+03
3.672297561968351602e+03
4.443532768643474810e+03
6.179149848425953678e+03
6.852080240059165590e+03
5.814248452299747441e+03
3.179599294643884150e+03
3.370215937932644010e+02
-1.339623362473193765e+03
-9.014348357367124436e+02
-4.844656733949968839e+02
1.262707613484300850e+02
1.938785114100869350e+03
4.505085314645924882e+03
5.563157159075321943e+03
5.453976688476715026e+03
5.521515472260018214e+03
5.828833789418066772e+03
5.602907952859648503e+03
5.181691867576614641e+03
4.191174555071679606e+03
3.163346887518145650e+03
8.802852121268924748e+02
-9.810162865398754093e+02
-1.231715603173544423e+03
-9.278093474991480889e+02
-1.208360379134673167e+03
4.655187555053350934e+02
3.285826043128720812e+03
4.181489444900978015e+03
2.905426638155567161e+03
1.270694493046053594e+03
-1.111639287124139628e+03
-2.172609211768217392e+03
-2.836205861518656548e+03
-3.909367133440774523e+03
-4.092014829777028808e+03
-4.827187446795452161e+03
-3.403848241012823564e+03
2.122016192943671740e+03
7.910450556556304946e+03
1.082453659318957216e+04
1.052831139250293018e+04
8.389800815363849324e+03
6.583048974615894622e+03
4.637943993995409073e+03
-7.355154582501877485e+02
-7.868241728944952229e+03
-1.664636989428942616e+04
-2.255489315591975537e+04
-2.145065870870484287e+04
-2.022846435795097932e+04
-1.928971115144103533e+04
-1.501216394640733961e+04
-8.946660731677446165e+03
-2.537140582594556236e+03
1.148437906196278618e+03
2.306091721954165223e+03
3.116844351879045007e+03
8.187167975870123655e+02
-1.086162851554599683e+03
-1.144666110125338264e+03
2.223236525721998532e+03
3.280591203483763366e+03
1.832446601340609959e+03
5.826800311439233155e+03
2.423628229797800486e+03
-7.375040898329111769e+03
-9.506187334464390005e+03
-7.651764669717274046e+03
-7.443788395589511310e+03
-7.831190517856888619e+03
-6.993833893888081548e+03
-7.151648187853435957e+03
-9.842557829456476611e+03
-1.346550540711993926e+04
-1.481537623374152827e+04
-1.345809335216991894e+04
-1.131554795003586150e+04
-2.997652648845443309e+03
6.073607881876711872e+03
7.744294048280586139e+03
9.904526555348365946e+03
1.294535023777194874e+04
7.629775487153713584e+03
7.281796048430745032e+03
7.196519084640596702e+03
5.384997426263414127e+03
4.620212298206170090e+03
4.018145866256734735e+03
2.347778704280598504e+03
8.791877883982674575e+02
1.039435955862104493e+03
3.029576009980986328e+03
3.802769308174432354e+03
3.454161104583795350e+03
2.103715372580614712e+03
1.128405570738234019e+03
2.347455945332562806e+03
3.788837422944445734e+03
3.967605661452727418e+03
4.062890982212911240e+03
2.731711601872777464e+03
1.527244485134376873e+03
9.967614216891320211e+02
1.902672140258009392e+02
1.208584292130321955e+03
8.615659097197044503e+02
-1.066768060623798874e+03
-8.324399216353220936e+02
-1.144517094898732466e+03
-6.359824730234981871e+02
2.235226639299226463e+03
5.276047826685188738e+03
6.200652583570747083e+03
5.421337563965188565e+03
5.611848609458193096e+03
6.829972216697636213e+03
5.732056439537166625e+03
4.162456276478248583e+03
4.118206662467782735e+03
5.539664034756182446e+03
7.194312508757885553e+03
4.726348841156585877e+03
1.092550961137250397e+03
-7.268180050079063221e+02
-5.190267431765794754e+03
-9.842366808445447532e+03
-9.276022332429251037e+03
-6.029634974371936551e+03
-5.251298170156786000e+03
-4.664516138468380632e+03
-3.324140416646807807e+03
4.395942144278690648e+03
1.339189345609792508e+04
1.161355970107802750e+04
7.743236130460114509e+03
7.235626118832828979e+03
8.658846797898959267e+03
9.696457931668293895e+03
1.001226008964492939e+04
8.812155628007731138e+03
7.231057927896374167e+03
5.399887639265570215e+03
2.678500253139721281e+03
8.479492754877168181e+01
-2.303208265179653154e+03
-2.857661745395965681e+03
-1.252669403331415651e+03
1.256935733740907466e+02
-6.236901650933826886e+02
2.602471393429273689e+02
2.691573971405279281e+03
2.943184165856084746e+03
1.199055138331394801e+03
2.217232617811153432e+03
3.688740641799562127e+03
4.045564891666000221e+03
2.954672734792937263e+03
5.679265794711946000e+02
-2.111732159658749424e+03
-4.119309703561591959e+03
-2.610814128556730793e+03
2.807867018068674270e+02
-6.352992024430956519e+01
-3.763843523054386424e+03
-1.017625402254975052e+04
-1.271902122546831924e+04
-1.528427270348390448e+04
-1.707008070227632561e+04
-1.523454733371015573e+04
-1.239565448530847971e+04
-9.209268749565904727e+03
-5.894486246667857813e+03
-4.169459343739587894e+03
-4.169067261520943248e+03
-4.490265700401451795e+03
-4.152242398834247979e+03
-4.514076450281598227e+03
-1.482916067805902230e+03
2.512210265750124108e+03
2.342276251563427650e+03
2.872729845368695010e+02
-5.364798424236822029e+03
-8.029033536121216457e+03
-4.531522889326697623e+03
-4.021318141795559313e+03
-1.287036250069167181e+04
-1.154269596542484578e+04
-4.815443266349252553e+03
-1.933707504943065032e+03
6.744346663611313488e+02
2.335018920688636626e+03
2.848059805968644923e+03
3.909560467531741324e+03
3.698452327509655788e+03
3.466736229911994997e+03
3.285370643191959971e+03
3.134395850006176261e+03
3.814910473150421240e+03
4.375925564675487294e+03
4.203486056705527517e+03
3.139504058878196247e+03
2.175968587741650481e+03
1.899906832466680953e+03
1.926290517303051502e+03
1.928994183356019903e+03
8.159297868549501800e+02
-2.979418006897204236e+02
-9.046884557198292214e+02
-9.803352045112725364e+02
-3.557746820732846800e+02
6.620985150605932859e+02
1.551226797686236296e+03
1.813566601410183239e+03
1.539074395843018692e+03
1.674722398230898762e+03
2.168710776529650502e+03
2.230240545157746510e+03
2.353293983656837554e+03
2.597799830200867291e+03
2.432846945414785750e+03
2.067569854594476055e+03
1.330028355686262785e+03
5.760510846327873651e+02
-1.675637093106170594e+00
-7.001225561525304784e+02
-1.155130861144504706e+03
-2.183755148538826234e+03
-2.774895223297037319e+03
-2.283373692218308861e+03
-1.326664288381375854e+03
-9.847616810054798862e+02
-3.336544108781073419e+02
-1.439212788629397188e+01
5.801458157168060552e+02
8.319949345256333118e+02
6.183467435589473098e+02
3.797495915346669904e+02
1.471976195433903968e+03
1.770660331977521309e+03
1.402279135741005575e+03
8.627445271114585239e+02
7.252588064037465756e+02
4.492305029122517368e+01
-3.901834031542482535e+02
-5.609959739663978553e+02
-1.356492472235062223e+03
-2.163706094856869640e+03
-2.434694710271055101e+03
-2.735442114590679921e+03
-2.598826940981683492e+03
-1.502685488511901667e+03
-4.530783496633925438e+02
2.109610969319562344e+02
1.007501930483692604e+03
1.578753566172292494e+03
1.796781952944594423e+03
2.167573580533147833e+03
2.266096602046187854e+03
2.226262371255795642e+03
2.038139639738816186e+03
1.728938087412986761e+03
1.397853643946748207e+03
6.809519680673590756e+02
-1.517962910722029903e+02
-1.190482356297567321e+03
-1.829114113411609651e+03
-2.327725334422716514e+03
-2.569319699774324818e+03
-2.506976561236861926e+03
-2.263630419754905233e+03
-2.070139677600912819e+03
-8.394119161829137283e+02
1.006491352185347807e+02
3.203589750542386128e+01
-2.311666001963329791e+02
-1.688371997453249662e+02
9.541220782230190025e+02
1.456797088813627397e+03
1.205216261744344138e+03
1.674245606501766133e+03
1.633818683156182487e+03
8.529510390044861197e+02
5.964780526308810522e+02
-3.368206115943400647e+01
-1.092426491929160193e+03
-1.539532724801028280e+03
-1.423961894566163437e+03
-1.600646844188904652e+03
-1.809566357436600811e+03
-1.171701648053120152e+03
4.501303101597419243e+01
3.345016258101898075e+02
3.487977816755458775e+02
3.947568566355122357e+02
4.249980379053035904e+02
7.943796586106323048e+02
1.116049453085167443e+03
1.286183390568743107e+03
2.092953821261553003e+03
1.703393693705095529e+03
8.456365994423780421e+02
7.897204629839800418e+02
4.387378288919226748e+02
-4.309484192469298591e+02
-1.169098833646486582e+03
-1.757165160131170751e+03
-2.464267434121008591e+03
-2.693409838825378756e+03
-2.194956328828218375e+03
-1.187163661039858880e+03
-1.711778955044161421e+02
7.351181422708926902e+02
1.097896851754723912e+03
5.301452660149626581e+02
8.771495636792484447e+02
1.900882147348701892e+03
2.290354034845073784e+03
2.295897309650731131e+03
2.478290115979260463e+03
2.634009108619188282e+03
2.126577368640217173e+03
1.521458998407257241e+03
8.975638614903243706e+02
6.713795743042354616e+02
-2.180117657625066840e+02
-1.168915307078767682e+03
-1.383965905298058033e+03
-1.445017555230597281e+03
-1.317017890221550715e+03
-1.245842319164626360e+03
-5.043020319682295849e+02
3.305471350945300060e+02
1.048385316660802800e+03
1.648249597641124865e+03
2.221504123113718833e+03
2.623347640938234690e+03
3.046431425885160479e+03
3.153846324243182607e+03
2.999548383830725015e+03
2.357415142646259028e+03
2.242480635116809026e+03
1.980600588887877393e+03
1.874763550522623973e+03
1.194853673593962867e+03
-1.152140501963018409e+02
-1.109418469174385564e+03
-2.013747912752226512e+03
-2.321317844981077997e+03
-1.762345419111335332e+03
-4.857375966475760265e+02
2.655942791341569205e+02
4.267618288928680954e+02
2.085723775026950534e+03
2.880294240649366657e+03
3.561444005907458632e+03
4.628225754670776951e+03
4.944593793260803068e+03
4.700601167721605634e+03
4.402221453473898691e+03
4.202359266860751632e+03
3.840086880868097069e+03
2.692144567253231344e+03
1.897607852002247455e+03
3.315747242045381427e+02
-1.415260858569900392e+03
-3.490899240763839316e+03
-6.548096285789189096e+03
-1.073315062570038026e+04
-1.335487706751696351e+04
-1.256036854016477810e+04
-1.158647941356953015e+04
-8.407221151868647212e+03
-5.368691057847678167e+03
-4.134670583407015329e+03
-3.350038507611485329e+03
-3.407906460749315556e+03
-3.361410383854730298e+03
-3.330596710875738154e+03
-2.833160987900348573e+03
3.090027802433372926e+03
3.424825022225262273e+03
-2.989490866472749076e+03
-9.351842870500417121e+03
-7.728539291172355661e+03
-5.796828644297398569e+03
-1.083453532019965678e+04
-1.380063705381066211e+04
-1.352220226503956474e+04
-1.029776516453654767e+04
-2.153555003126908559e+03
-3.727694589496647495e+03
-4.329854763517586434e+03
2.874819943368604527e+03
5.706231715314213034e+03
5.872480117162944225e+03
5.809656556423254187e+03
6.170875037196600715e+03
7.098191528727503282e+03
7.859668480264140271e+03
7.995459283109429634e+03
7.985623667229925559e+03
7.178203012469783971e+03
6.144126377182076794e+03
4.981224594581685778e+03
2.861453305634057415e+03
1.642098551036362096e+03
9.470756822961025136e+02
-1.087405370776206723e+02
-6.531052786842428759e+02
-5.197812383195562234e+02
-5.358344437471070023e+02
8.879702184008479549e+01
1.273217598381664629e+03
1.164683641339266387e+03
6.694425246656064701e+02
4.655780138685356064e+02
-1.159571350735833590e+02
-2.274059526024986155e+02
9.531183055506611481e+02
2.519902440965807273e+03
3.595183680613429260e+03
3.036253225291893614e+03
1.509146186353264966e+03
-2.491785295227013819e+02
-2.473964303664209183e+03
-4.160524162665661606e+03
-3.870510794510040796e+03
-3.808814066277285747e+03
-4.393391373904210013e+03
-2.707122700462768535e+03
1.061169752791815881e+03
3.621635873802610149e+03
5.307315999371699945e+03
5.514356628676767286e+03
5.535517101190650465e+03
5.389636577602305806e+03
5.503082152640786262e+03
5.651024162136717678e+03
5.348826197137655072e+03
4.803620156603483338e+03
4.304753352885438289e+03
4.444097386019871010e+03
4.661468788779833631e+03
3.759255082535362362e+03
2.196874037141252302e+03
3.575167591722229758e+02
-1.065806169543739315e+03
-1.788997706366079456e+03
-2.308006257549632664e+03
-2.438803759272256684e+03
-1.435194793310498881e+03
-1.810935137148125591e+02
5.435952045724527579e+02
8.958958985697335038e+02
1.308742597295011819e+03
1.481149096144519945e+03
1.375157498649012268e+03
1.946846669227044458e+03
2.434229871689518859e+03
2.548236369866029690e+03
2.121826254707706539e+03
1.410954005403929841e+03
6.007142558752921104e+02
-4.788763271354668518e+02
-2.042910278772491893e+03
-3.359387638617987704e+03
-3.317336811348636729e+03
-2.767808875630530110e+03
-2.092820590254043509e+03
-2.079280889280760675e+03
-2.143086547878058354e+03
-1.987222481177565442e+03
-1.365713823269367140e+03
-9.825479438775192875e+02
-9.927154589911408493e+02
-6.642112247522270536e+02
-4.609975003939829321e+02
3.688796689173539107e+02
1.964398102948377527e+03
1.654562126515749469e+03
4.212987441499195711e+02
-4.294438010826422669e+02
-3.440732697600078154e+03
-7.973543120842559802e+03
-1.298493148345839109e+04
-1.447901316679589218e+04
-1.400987074007934280e+04
-1.284145889118946070e+04
-1.266982883566759301e+04
-1.164096039807216039e+04
-1.051285993106306523e+04
-4.985512685086596321e+03
2.183058404028729910e+03
-6.833045437702505751e+02
7.597271503545955511e+02
4.137137762033858962e+03
4.709838502009145486e+03
4.114708821967610675e+03
3.679702230189169768e+03
3.826794416980380902e+03
4.045820766387907497e+03
4.197691695232423626e+03
4.130506281108773692e+03
3.608197738209848467e+03
2.759594683714850362e+03
2.039706865564606460e+03
1.814485521300566916e+03
1.330828362798443550e+03
9.026614389955894922e+02
7.470040989579808866e+02
1.509853718942628575e+03
2.374259426921111753e+03
2.766200683125909109e+03
3.449660595201373326e+03
3.878688396846302567e+03
3.957220828239860566e+03
4.503213238996180735e+03
5.104624899364224802e+03
5.208388957236953502e+03
5.019485490241242587e+03
5.150871324941788771e+03
4.806524567196692260e+03
3.739380737846903230e+03
3.551378224825618418e+03
3.168447339230544003e+03
1.949555063624077093e+03
7.506846902909704795e+02
2.538385639036596331e+02
8.798434317186599856e+02
5.156854784811328045e+02
5.304415510447282713e+02
1.052195309958808139e+03
2.445914014631361169e+03
3.238476455383238317e+03
4.247949346438433167e+03
4.857361494739611771e+03
5.090635984780278704e+03
4.754748083932331610e+03
4.159665344743239075e+03
4.001362029283140600e+03
3.491851805096516273e+03
3.401132974146042216e+03
2.867105381665261575e+03
1.589741176229024404e+03
1.166071427229381015e+03
1.048048838137419580e+03
1.123587132721736225e+03
9.536082652786526523e+02
5.051795847446859966e+02
4.443530393665479892e+02
5.921691853512077159e+02
7.796515589371683745e+02
1.273826763469698108e+03
1.270657137447850118e+03
1.392216559855363130e+03
1.921440349089387382e+03
4.004371823343483356e+03
2.413119138851327989e+03
-1.978398349085937525e+03
-6.354188253608249397e+03
-7.087198226336156040e+03
-6.969480350381499193e+03
-7.657017406642095011e+03
-8.152761024117971829e+03
-9.083817756542915959e+03
-1.001725959430781950e+04
-1.068707223968760445e+04
-1.104526378349931292e+04
-1.076882637074297782e+04
-1.033067895747229704e+04
-8.938715480635892163e+03
-7.289964709615618631e+03
-2.670425266902351723e+03
-1.571007465816391687e+03
-4.894602829332179681e+03
-4.609199479804655311e+03
-4.132775437903782404e+03
-4.557289819862251534e+03
-4.567477665209318616e+02
4.970848680002037327e+03
3.719468862413031729e+03
-3.307789738431874412e+03
-7.109951454603729871e+03
-7.783032391797337368e+03
-8.291030587983415899e+03
-9.818968664183115834e+03
-1.039182130737412808e+04
-9.417572150024487200e+03
-9.056233093734275826e+03
-5.881795629435086084e+03
-1.737198277386673226e+03
-4.009362194610216648e+03
-3.610197605659740020e+03
-2.067727893083730706e+01
6.396295412523400955e+03
3.568754602735720255e+03
5.847753822381947430e+03
7.531246748703724734e+03
7.895235827245047403e+03
8.084726176913064592e+03
7.663777553298236853e+03
6.451467520685681848e+03
5.385795314230999793e+03
4.536739048533194364e+03
3.196258730134862162e+03
2.355288589704825426e+03
1.822762804501759092e+03
1.828751875644888287e+03
1.753376806195112067e+03
1.903489201395029795e+03
2.741182830556751924e+03
3.796547206903337610e+03
4.815568055407481552e+03
5.460300765448921084e+03
6.022832692827837491e+03
6.199245840629723716e+03
7.308530687513465637e+03
7.357663879936953890e+03
7.359690373832706427e+03
6.912592365244823668e+03
4.273462765095948271e+03
3.852491911852234807e+02
5.789274000275238308e+01
-1.446553359339516646e+03
4.912186984937133047e+02
-1.735587712354167422e+02
-8.431511075633485461e+02
-9.065396551094172537e+02
-1.109970870164494954e+03
-8.975079265490840044e+02
9.802804605940787042e+01
1.117642644181751393e+03
2.179432045738913075e+03
3.433387250595745627e+03
4.501539031298825648e+03
5.357054977093180241e+03
5.388519835298709950e+03
5.349752669704041182e+03
4.640848724920173481e+03
4.349206506853155588e+03
3.738822094854805528e+03
3.049966782082033205e+03
2.166153391733674653e+03
8.216228366171927746e+02
-5.109391822555769522e+02
-2.116698822909412229e+03
-3.109934376460257681e+03
