2.992133673586037276e+03
2.748738004331427419e+03
3.112766649678629619e+03
2.944224753726075051e+03
3.896087212734053082e+03
4.292472505992883271e+03
4.461440544307964046e+03
4.361100173078134503e+03
4.169504942349876728e+03
4.191662285985891685e+03
3.968630832320945046e+03
3.823417315915753079e+03
3.886055053335310276e+03
3.364600326153818514e+03
2.697113722428699930e+03
2.763645409049507180e+03
2.220274672254391589e+03
1.053023183704444136e+03
1.148973876844682565e+02
-3.651562418130515653e+02
-3.411273534130229450e+02
-9.927665777444547146e+00
8.355957458945826488e+01
1.985817894727611872e+02
3.093574388454678115e+02
4.090626869788191584e+02
2.945810322811048536e+02
4.986940861681945307e+02
1.132416904984942676e+03
1.569938246698325884e+03
2.298452717486398797e+03
2.501970463473720883e+03
1.519716910818515544e+03
1.744785006746458293e+03
2.114159106585602785e+03
1.540785855823172824e+03
1.044662313186247275e+03
2.008537580742429611e+02
-2.448638335815150526e+02
8.512243085706066381e+01
-9.788427359365918790e+01
-4.817067726336175042e+02
-2.449643719166707854e+02
-1.276173980349123980e+02
1.528918593718291561e+02
-1.654679702359474334e+02
-4.796232598254780441e+02
-7.955617227941045257e+02
-1.312230045822031343e+03
-6.256259267529435419e+02
4.912128094956828477e+02
1.227315611229750857e+03
1.706760091208315544e+03
2.003528782424175233e+03
1.478595039442269581e+03
1.177994290749672246e+03
8.374298841905250868e+01
-1.095194492505751896e+03
-1.227805400087754151e+03
-1.405147705228218001e+03
-1.543164888081324762e+03
-1.077855909835051307e+03
-3.832264939696913757e+02
-1.322445373412519132e+02
-3.458542910918170037e+02
-1.009305976114174186e+01
8.670163707436184950e+02
1.301547055907881486e+03
1.284570984662521141e+03
1.266987377601671596e+03
1.224705163357928313e+03
9.626458333593520820e+02
6.078979119495807026e+02
3.164092005787801440e+02
1.660952791763589858e+02
-4.900537078107048501e+02
-8.480012304395560250e+02
-8.807634731234718402e+02
-8.513499197103018332e+02
-9.947839337939836923e+02
-1.266078490784547512e+03
-1.280298290791301042e+03
-1.382459190884988857e+03
-2.697652640000551855e+03
-5.739874116883424904e+03
-1.017008363126561926e+04
-1.074719897935385961e+04
-1.006325509633945330e+04
-1.017634953902534835e+04
-9.197593123208118413e+03
-7.900011111390678707e+03
-4.362549561920041015e+03
1.042738018785790700e+03
9.447439860694900062e+02
1.188469992808801635e+03
1.136234570193065338e+03
1.222585854427917184e+03
1.282382355068929201e+03
1.360597458909101761e+03
1.118218870371369349e+03
8.382636826280763671e+02
7.196797205691273120e+02
9.004158159797563030e+02
1.011398602985733305e+03
1.267533806745675747e+03
1.296901183902529738e+03
1.644505813366366965e+03
1.920146628439379583e+03
2.144683660964302817e+03
2.500109478725981717e+03
2.590419434456902309e+03
2.659634649058546074e+03
2.728685030961955817e+03
2.897534065286313307e+03
2.920176806285296607e+03
2.335519469559235858e+03
1.887487244662090006e+03
1.350120442038001556e+03
1.078292201942067095e+03
1.070934718468344499e+03
1.097964342920005265e+03
1.336159173876885461e+03
1.449451849693018858e+03
1.677797607874417963e+03
1.771316915714681954e+03
1.791106127280918372e+03
1.854086721424323969e+03
2.463170727933054422e+03
2.637493366933282687e+03
2.553046563618064738e+03
2.810739232668979639e+03
2.992438822250441262e+03
3.288292178209440863e+03
3.596212405282742566e+03
3.844985956822954904e+03
3.624546998212045310e+03
3.003930649377005466e+03
2.477247583072383350e+03
1.786529458400345902e+03
1.631645979733586955e+03
1.646276569767383080e+03
1.676165236738128897e+03
1.894481948144935131e+03
2.151491252783877371e+03
2.206089719183619309e+03
2.589211511438260004e+03
2.598621014403517620e+03
2.701396559944112596e+03
3.174873793947308968e+03
3.044085723702303312e+03
2.983997730440380110e+03
2.946565257167758773e+03
3.076621666085974994e+03
3.171205661952138144e+03
3.107299016471114555e+03
2.593897766447098093e+03
1.748929680315980704e+03
1.446360862811604875e+03
4.000826236791492079e+02
-2.379043671667814124e+03
-6.190328660231862159e+03
-9.884917156168274232e+03
-9.786983541007612075e+03
-9.554501906897563458e+03
-8.454326779495964729e+03
-7.712408848686225610e+03
-7.541690995659855616e+03
-7.398042087870130672e+03
-6.624550232255131050e+03
-5.657537222332074634e+03
-5.538060185821916093e+03
-5.708182630135833278e+03
-5.624778439211238947e+03
-5.455679468248369631e+03
-1.590828743456640723e+03
-1.625037233491257666e+03
-6.509273813745647203e+03
-7.335475711372861952e+03
-7.087721828618960899e+03
-7.383031463357238863e+03
-7.858420566717731162e+03
-8.021841811178403077e+03
-7.970105144058071346e+03
-6.805251991403220927e+03
-5.651232537198841783e+03
-5.431859895256864547e+03
-4.635006830688422269e+03
-4.396678384370787171e+03
-3.472997595384232227e+03
9.569230186366655744e+02
-4.979000035851983057e+02
-3.262176827417433742e+03
-3.621837962291399435e+03
-3.583986483455240432e+03
2.503482467451394768e+03
4.814748060832172087e+03
5.239828059651150397e+03
5.055653865389491330e+03
4.959264775393035052e+03
4.710652610409229965e+03
4.244779701403570471e+03
4.059639904504865626e+03
4.562368092027341845e+03
4.879009584870713297e+03
4.804600670749714482e+03
4.978295629478408955e+03
4.551986815446377477e+03
3.962623657433150584e+03
3.952314092143416474e+03
4.111219406496389638e+03
3.957453835876845460e+03
3.467972355136083479e+03
3.597919978318778249e+03
4.058508770634357006e+03
3.822312410071340764e+03
3.541094058245758788e+03
2.889834118044310344e+03
1.944482875465605048e+03
1.237979880169207263e+03
1.369235222753900189e+03
1.835241068659547182e+03
7.930712157920860363e+02
-2.245318370976828646e+03
1.273955857025677915e+03
2.738058836928069923e+03
2.984169719972075654e+03
2.833300560658788527e+03
2.738520357798722671e+03
3.081317936308232674e+03
3.260247282458075006e+03
3.115258997428310977e+03
2.829304505927693299e+03
2.467401806215757915e+03
2.646561245585871347e+03
2.681681628592569268e+03
2.633842081523112483e+03
2.088082339008811232e+03
1.536192307830632672e+03
1.339135850586974357e+03
7.120081056555087571e+02
-2.822930986012460508e+01
-2.093174546638944662e+02
3.413748870265097821e+02
9.755523119196907373e+02
1.694848304633875159e+03
2.064146849133387150e+03
2.161147303548435957e+03
2.054650697909110022e+03
1.970640296147577146e+03
2.387083403117773742e+03
2.174907584641491212e+03
1.958068087922223867e+03
1.746629520920295363e+03
9.385526154691377769e+02
-4.198835378849076427e+00
-1.525950062905355935e+02
2.943396159992914818e+02
7.416126163741917026e+02
7.291613915481714230e+02
2.719187595324811468e+02
-5.301140436038177768e+02
-1.031084505365492305e+03
-1.042984443686400482e+03
-1.907727610983232296e+02
7.285997390127208746e+02
1.096081700689679565e+03
1.738636275227576562e+03
2.026301115908007205e+03
1.580051990922758478e+03
1.231868127002760730e+03
9.697394599077351813e+02
6.136963014683291249e+02
1.002651464903560054e+03
1.733624382844139291e+03
2.581657274023032187e+03
2.290734835786179246e+03
9.077727184476980256e+02
-1.432872787576704638e+02
-8.424490198769135532e+02
-1.553762828265103053e+03
-2.033259592978470891e+03
-1.604939289642920357e+03
-1.216836130543047830e+03
-3.017932545126227524e+03
-6.388255039018657044e+03
-8.875869369917152653e+03
-9.100763840110241290e+03
-1.037297841903212066e+04
-1.057549089986984836e+04
-9.895197688097980063e+03
-8.858253211053459381e+03
-8.102673283113679645e+03
-7.914376569416318489e+03
-7.673358764650427474e+03
-7.817610697117017480e+03
-8.286174428516833359e+03
-8.725122320176120411e+03
-9.255426369046082982e+03
-5.072065974544188066e+03
-3.711308024170274393e+02
8.774073733479452812e+02
1.296536358470880941e+03
1.931247390597967069e+03
2.286537910554912742e+03
2.751458555425052054e+03
3.030081440654662401e+03
2.804304437726525975e+03
2.571115786569741431e+03
2.861523502452772846e+03
2.985514650179304681e+03
2.791122613729009117e+03
3.019437004047847495e+03
3.346454696699703163e+03
3.051217684708695742e+03
2.885763939876905170e+03
2.503065854412352110e+03
2.225137087208647245e+03
1.581922436447978725e+03
7.963920139665001443e+02
2.215580821834797121e+02
4.034675634602665468e+02
5.719902427480487006e+01
-1.282435798361699426e+02
4.250655950228724578e+02
1.038201826328667494e+03
1.315219296147058003e+03
1.204117841642097119e+03
9.849643244544342906e+02
1.518843263558424496e+03
1.955771510196461350e+03
1.740760193860342497e+03
9.407878845287282275e+02
6.489329656032051616e+02
9.842190859856507359e+02
1.122667689726108620e+03
1.275300975459133724e+03
1.021156708512640193e+03
2.652945491310927650e+02
-4.102725327041675882e+02
-1.356573869392388133e+03
-1.884574842724808150e+03
-1.964181528270706167e+03
-1.005854503879844742e+03
6.434932294838117173e+01
8.853763634368564226e+02
8.603766122620437500e+02
1.023252504182238908e+03
1.365975220437180042e+03
1.447488415644828365e+03
9.987560569513227620e+02
4.588848907485239579e+02
7.286616413608602443e+02
5.560831924497942964e+02
3.191740989961222112e+02
2.429706326827138980e+02
1.544810267717267891e+02
1.657456774842834193e+02
-2.361889174604047810e+02
-8.273142294128288086e+02
-1.207615470144413621e+03
-1.331093174176285856e+03
-9.547301366063622936e+02
-4.415226440691578773e+02
-2.974461785096638664e+02
-1.064685245686401203e+02
1.694395376277546745e+02
2.212883525543422536e+02
3.501182308156807039e+02
3.979927450977835406e+02
4.989074779059006914e+02
8.338750756534011543e+02
9.788806396319081387e+02
7.780082422300935150e+02
7.582791789801354980e+02
6.177149339609694607e+02
4.102873637821726902e+02
3.269861863253046863e+02
-2.061733179081581682e+02
-9.482372452319409604e+02
-1.245196812561599927e+03
-1.581047436200484981e+03
-1.950782641207935967e+03
-2.053406443396178474e+03
-1.593928275192991578e+03
-4.763751553721787673e+02
-2.406816509158457507e+02
-5.318452751091957680e+02
-2.848871221405773326e+02
3.102134312990705780e+02
2.974472195100820500e+02
4.677092311643024658e+01
-3.338377147351715735e+02
-1.703416516944948000e+02
5.272634772563230854e+02
1.002968979530286674e+03
1.331757130744290407e+03
1.053565714501165985e+03
6.013875466621341275e+02
-3.638343741181640780e+02
-6.341309755198853964e+02
-6.706188610820609028e+02
-5.002692136219795316e+02
-4.471170975314302609e+02
-6.212800573777241198e+01
3.147321500350739711e+02
2.103265757459863892e+02
1.606506706213985751e+02
4.117256311167781178e+02
8.774855517334333399e+02
1.138873377264926603e+03
1.193890706972987118e+03
1.565521890622354704e+03
1.640710218342981079e+03
1.794353625687811927e+03
8.061434968558750143e+02
-3.074355288360330633e+03
-1.577272150751600748e+02
6.375873412598416508e+02
9.967996148266959722e+01
-4.197886527670919463e+02
-8.477924619268445667e+02
-1.243069622499780053e+03
-6.369746248303024458e+02
4.317054301490553314e+01
7.495735024129128306e+02
1.187226759091751092e+03
1.289807892354100204e+03
7.986342802865646036e+02
5.672130564295072190e+02
1.117954063934475016e+03
1.701372161913715900e+03
2.365434099341819547e+03
2.890150787162512643e+03
3.475696740726385997e+03
3.386245068360012283e+03
3.240146435779401600e+03
2.532651894524491581e+03
1.769727690525531443e+03
1.343298991054267162e+03
7.394324606522455952e+02
3.977661244125316671e+02
2.961883269785785160e+02
5.809537143155631611e+02
9.574624526356109300e+02
1.421939856916552344e+03
1.781643033646879303e+03
1.741815424188552242e+03
2.324846323298504558e+03
2.597367468228801499e+03
2.659696737034729722e+03
2.701720175261117220e+03
2.996078436414985845e+03
3.495091841439315886e+03
3.562597573013023521e+03
3.373548485608505871e+03
3.344936620137417322e+03
3.418759923453586907e+03
3.107982150250272298e+03
2.344568033770428883e+03
1.812403861169219908e+03
1.812474517989003516e+03
1.930805767542022977e+03
1.924307071466830848e+03
2.141009354672407881e+03
2.768954368025315489e+03
2.519125225376540129e+03
1.928482748267473426e+03
-9.094998564158666454e+01
-2.794109711792361850e+03
-7.316068689515251208e+03
-7.736852834261625503e+03
-7.743380035489624788e+03
-6.831697772315250404e+03
-6.317762214482859235e+03
-6.366505826702260492e+03
-6.285920014850725238e+03
-6.593117343883627655e+03
-6.237285436545720586e+03
-6.612278608834836632e+03
-7.455397426051636103e+03
-7.867188834330259851e+03
-7.512783493384711619e+03
-6.625124807721877005e+03
-2.797153208632136284e+03
-5.336860154062283982e+03
-7.269239687657602190e+03
-7.061252956236674436e+03
-6.814824250810362173e+03
-6.332864930492209169e+03
-5.584317921857270449e+03
-5.448230883597537286e+03
-5.455543180514758205e+03
-5.087248841477916358e+03
-5.194253238374090870e+03
-5.101557042066306167e+03
-5.139149060912772256e+03
-5.337926052114678896e+03
-2.552809194214586569e+03
4.931744115565668949e+02
-4.184028016659813147e+03
-6.445399480732240590e+03
-3.997936952111519076e+03
2.002431527908925545e+03
3.567801772090243958e+03
4.078258291586565065e+03
4.858859349409331116e+03
5.212628284991691544e+03
4.728660957639450316e+03
4.595013898732172493e+03
4.917757079891597641e+03
5.193991665381900930e+03
5.455815607061244009e+03
5.778180081584510845e+03
5.531084851811106091e+03
5.435586017024296780e+03
5.389745598535328099e+03
5.123639829696946435e+03
4.361337891476919140e+03
3.405883663255061947e+03
2.937328602328239867e+03
3.097615356775029795e+03
2.740765020100574475e+03
2.294865502543069397e+03
2.301920129570921745e+03
2.331013146085785593e+03
2.635272450476444646e+03
2.488744453281613460e+03
2.748504344098439105e+03
2.904631399726363270e+03
2.976115193190888931e+03
3.072969750670382382e+03
3.279168274900514461e+03
2.977826149792421802e+03
2.599106215404758132e+03
2.813919980997191942e+03
2.489267525056071008e+03
2.004181094325607091e+03
1.729031473656334811e+03
1.197958343500787350e+03
8.188877123830409346e+02
6.030727117662731871e+02
2.467166389931291235e+02
1.516323752364243376e+02
1.909058126828317086e+02
3.347062760871040723e+02
7.869462082124146036e+02
5.726268328884566472e+02
5.097406688777446107e+02
6.942935391615611707e+02
1.094332467873769019e+03
1.310123175474242089e+03
1.386290321242280015e+03
1.434720999309914305e+03
1.473753818250217364e+03
1.627583755387090832e+03
1.293004512777623177e+03
1.272433812444621026e+03
1.376940634892326898e+03
7.324858404085580332e+02
-2.128972581620391793e+02
-7.901841152117621050e+02
-8.473842487984703666e+02
-1.053530063002559245e+03
-7.785787228698478657e+02
-5.334956964002471977e+02
-6.143309767110074517e+02
-4.370513707203490981e+02
3.381272076383420089e+00
5.159200604337567029e+02
5.215519861097245666e+02
4.813003421317264952e+02
8.511920593963790225e+02
1.252198876396264041e+03
7.562911001485338147e+02
1.945086107139312901e+02
-1.561607800261726027e+02
-5.497383786075462240e+02
-7.132810182052767232e+02
-5.167878533620230428e+02
-8.683201536921770867e+02
-8.609637530070710909e+02
-8.627362774739817723e+02
-1.245677623481972887e+03
-1.178810933512555266e+03
-5.361088559748482112e+02
-5.161226084593966590e+01
3.126366322955654482e+02
1.526706150330963396e+02
-2.146874276160655981e+01
-1.367952862909045848e+02
-8.839472447996870130e+01
-6.631957933775379388e+01
-1.426411823541006356e+02
-2.234450644787400364e+01
1.225831846161074026e+02
-7.038460814103332268e+02
-3.354670181582331679e+03
-8.561939850327094973e+03
-1.059672330578750189e+04
-1.090218356492755447e+04
-1.110136604599599377e+04
-1.044327355348783385e+04
-1.010590077471294171e+04
-9.841320614738460790e+03
-7.477584947288490184e+03
-1.877736724616989704e+03
1.021059273171810105e+03
1.623246719129589792e+03
1.625715066927160024e+03
1.738337000408429276e+03
2.001053845430213414e+03
2.101825997758921858e+03
2.038594945099747747e+03
2.132317587059555080e+03
2.127011395196183912e+03
2.324644244510308454e+03
2.179157433535907785e+03
2.116491051329313905e+03
1.528600714011874970e+03
1.212408941456687899e+03
9.598908697717813538e+02
7.600575992552529669e+02
5.808181067059139195e+02
4.061557840901654117e+02
8.330717280122720467e+02
1.075563821050616980e+03
1.478645917603696944e+03
1.410243500702418942e+03
1.565366316246510223e+03
1.890023690566535379e+03
2.210204789123120463e+03
2.249886087082425092e+03
2.290013007976146127e+03
2.510577984154193473e+03
2.318626430899601019e+03
2.045171486988007700e+03
1.895152864412310919e+03
1.660562635600177600e+03
1.216351909109085682e+03
5.655118938462027245e+02
6.900710743215124410e+01
4.470777634774447762e+01
-1.803317331068416252e+02
-2.910793467849496210e+02
-5.557045443633418813e+01
4.371617649735235887e+02
6.841758681292113806e+02
8.555247728556084894e+02
1.276227431537825396e+03
1.511240726022117542e+03
1.861529143904729608e+03
1.949109551510434358e+03
1.924954593761522119e+03
2.280109760456520235e+03
2.265607570687905081e+03
2.406513014266566643e+03
1.359748171206570987e+03
6.273289546961131009e+02
1.244023268266431392e+00
-2.584969015814331215e+02
4.660759830079345534e+02
3.529402860770304073e+02
-3.784593861531975278e+01
3.037796808354137852e+02
2.878076134777787161e+02
1.492066218759291303e+02
5.210183704633747084e+02
1.149271844186826911e+03
1.094975227822434135e+03
-4.888062827464408997e+02
-6.088043567986903327e+03
-5.506651274104924596e+03
-5.644461673726217441e+02
-2.170980590724079775e+03
-3.211597792163208396e+03
-5.039473405139738134e+03
-6.091599378402931507e+03
-1.631025654391189846e+03
-4.187164469234456874e+02
-3.337721699765132144e+03
-3.270050736689139740e+03
-1.640720435781451670e+03
-3.010691111396414271e+03
-1.129333875486359631e+02
-3.174368370688213417e+03
-1.596056627156583474e+01
-2.137755906470716127e+03
2.752752661429227601e+02
4.641703709317831681e+02
-2.254038961050564922e+03
1.374635352683866813e+03
-1.541717355517597298e+03
-1.450117080463692901e+03
-1.353471466996189974e+03
-1.273702819873378303e+03
8.481603773829773445e+02
5.201337400451943722e+02
-4.397628969116914277e+02
1.974462938659699375e+03
-2.196230971363903791e+03
-4.075825721801577401e+03
-1.071335269301740936e+03
-2.843736326758752512e+03
-5.098970007276762772e+03
-2.340584958706395184e+02
-1.081968257647567043e+03
-2.860672264031922168e+03
-2.032116295244318735e+03
1.244719351320357418e+03
1.845834021096853803e+03
1.740239269473440345e+03
1.993944645867299869e+03
2.495990315428097801e+03
2.664367509009181958e+03
2.975105652076351817e+03
2.902234772632841668e+03
2.829759210917100972e+03
3.009630145907166479e+03
2.481885317231988665e+03
1.768545015883102906e+03
1.330527115902269543e+03
1.273800057605956681e+03
9.974628659057174218e+02
7.495205519370155116e+02
9.811129570399950808e+02
9.493240991410140168e+02
1.044430618431618768e+03
1.636195399125569338e+03
1.569590804896135069e+03
1.534511175876900779e+03
1.855939322188718506e+03
2.356920851980349198e+03
2.131414045387092756e+03
-5.876874011844347478e+02
-3.971596236761963155e+03
-1.145800118250330343e+03
1.865650883927126415e+03
2.028856480892090303e+03
1.681462769384013200e+03
1.380312555714232531e+03
8.252751870701288226e+02
3.874282562852137630e+02
-9.180462067067215060e+01
-3.664490920502977929e+02
-6.636900768429408970e+01
5.389698446862531682e+02
7.563417777869511838e+02
1.325038689658003250e+03
1.560037051712788525e+03
2.090388851596480890e+03
2.071057966760778072e+03
1.964717570347075480e+03
2.177659398260348098e+03
2.716525718061267526e+03
2.945351420866898479e+03
2.772168144492647571e+03
2.466566051406020961e+03
1.783879954623923823e+03
1.064073218021030698e+03
6.217672531637207385e+02
3.638372125599822198e+02
1.778589882432056015e+02
1.865941896595299454e+02
1.917426354466375926e+02
2.244906269794389573e+02
4.988725731361115550e+02
7.651379690879334703e+02
1.397045758187478441e+03
1.507356099835623354e+03
1.639152305098297120e+03
2.034402377768164797e+03
2.258133944595742378e+03
2.348332713825574956e+03
2.158044938479819848e+03
1.969303785696954264e+03
2.236091173439174781e+03
2.125400820561338151e+03
1.904057669886912663e+03
1.736035911522758852e+03
1.292319486487406948e+03
9.468848674566237378e+02
7.747107106278039055e+02
4.897471445680822058e+02
5.070474258023068046e+02
7.815652782478451854e+02
1.141315319287929242e+03
1.686310380062301647e+03
1.686573128235034346e+03
1.486106020447497485e+03
1.453966221040508117e+03
-5.397558777963365628e+02
-3.646133455456435513e+03
-8.100249136385289603e+03
-8.988101902401424013e+03
-7.682694645014832531e+03
-7.619030322043158776e+03
-7.120136968556696957e+03
-6.610968360583935464e+03
-9.106629480103107198e+03
-9.376922128746711678e+03
-9.108676650080415129e+03
-9.468061294398225073e+03
-9.221237784891156480e+03
-8.706162772239129481e+03
-8.344848660836274576e+03
-8.008298435361181873e+03
-3.793515740949514566e+03
-4.527438059885967050e+03
-7.841987364736676682e+03
-7.457120423824054342e+03
-4.489866925899229500e+03
2.192795404496263018e+03
4.152855005269081630e+03
4.591348504204177516e+03
3.823278540326370603e+03
3.677687216513196745e+03
3.648619189266933518e+03
3.706049454170460649e+03
3.200999709151399202e+03
2.620554016145963942e+03
2.330643786656004067e+03
1.876255430157307501e+03
1.715554077640691503e+03
1.780511957948635654e+03
1.769977441417923274e+03
1.887997533456639985e+03
1.819841299672724517e+03
2.375485829726103475e+03
2.537813928683422091e+03
2.542854594957272639e+03
2.814775904684350735e+03
2.867536575216362053e+03
2.941214164072993754e+03
3.314868228394173457e+03
3.508424889380915374e+03
3.303876229296530255e+03
3.034310658103850074e+03
3.039649564479499077e+03
2.583775485622695669e+03
1.611669301390664941e+03
9.684819158698815045e+02
8.422865431175562207e+02
4.981155785878958113e+02
2.338983225658261631e+02
1.036620043520340317e+02
5.905647664977378781e+02
1.143777578750937664e+03
1.403259233484879360e+03
1.225111196772384346e+03
1.217339273632380127e+03
1.158868421171140199e+03
1.642614840019258963e+03
1.675486057745290054e+03
1.759671581741718455e+03
1.828505935860021282e+03
1.380789503022372628e+03
1.103546560571492364e+03
1.234976602758999888e+03
1.160170305299637448e+03
7.461930961748903428e+02
2.430433240003467859e+02
-7.735702684784735084e+02
-4.710641578812723310e+03
-3.048424115704436645e+03
-1.138980533431196136e+03
-5.311966827280118650e+02
-2.419694374239857098e+02
1.887378104259657619e+02
3.459998034732533938e+02
5.138619506434381492e+02
9.503612467924110661e+02
1.167442648086597728e+03
1.167065404079388145e+03
9.843401397150607863e+02
1.180370926932070688e+03
1.047146681857372641e+03
6.305861426701092114e+02
7.927277253611358674e+02
2.466046924008883821e+02
-5.158401974452211789e+02
-9.925537839807311684e+02
-1.344525809115011953e+03
-1.162916294148666793e+03
-1.356815003915031184e+03
-1.290095012962854526e+03
-1.165649016548928330e+03
-6.943497429805975116e+02
-3.081783800435867420e+02
-4.712579869340513028e+02
-4.396229283736526554e+02
-9.322212839788745953e+01
3.539770779020186069e+02
6.269996111286945961e+02
9.428705359612831671e+02
6.907001459215582599e+02
6.594147239897549753e+02
9.709534542002207900e+02
6.094650586413596329e+02
2.639592469526464811e+02
-2.196511919652332665e+02
-6.744414515437446198e+02
-1.165436935240345974e+03
-1.509623165863793702e+03
-1.467984176469996555e+03
-1.372587315167550742e+03
-1.300477195469761227e+03
-1.009512773858850665e+03
-4.986196029153942391e+02
-3.428439417314455113e+02
-2.322414150120263514e+02
-5.765097296004928928e+00
3.485630393942328737e+02
1.646638514264716946e+02
2.677008547678497052e+02
3.637266835781974805e+02
3.886569220514686549e+02
2.643941350238089285e+02
-2.991582847188188907e+02
-8.827963279206087464e+02
-8.925040394939796897e+02
-8.944783984908552839e+02
-1.242755240103133019e+03
-1.460268413696463995e+03
-1.775096659782989263e+03
-1.919367970270278420e+03
-1.712070974642459532e+03
-1.190221888387073477e+03
-9.959706402631968558e+02
-2.408661296129051607e+03
-5.059886744195671781e+03
-9.981094683952101150e+02
-1.266879914749440701e+02
6.714271891209535852e+02
6.206068891436016202e+02
6.834903211522166657e+02
8.967315301281436177e+02
9.991627766723030390e+02
7.960236683750932798e+02
6.461680294233848372e+02
2.376899870010005316e+02
-2.191698908570010076e+02
-4.502958951321611494e+02
-8.354072423573276183e+02
-1.044829547552757958e+03
-8.432509640585802799e+02
-4.550486621870975341e+02
-2.505166528678133204e+02
2.740843096374259176e+02
2.042856316617451853e+02
3.534266956965183795e+02
1.071906421431932358e+03
1.469955244534867916e+03
1.547878938329170978e+03
1.802835123176843354e+03
1.946049122055938369e+03
1.701185421438752428e+03
1.594821870126938848e+03
1.207564113446878991e+03
7.823042842803965868e+02
4.218601523174325507e+02
1.616408029514230407e+02
-1.675828498172126615e+02
-6.418914550787881126e+02
-7.121410404565058343e+02
-4.075025829544845806e+02
1.094716753813794412e+02
3.294246730833929746e+02
2.411644882215465771e+02
6.835304809669661381e+02
1.081547073162051220e+03
1.399235294918056525e+03
1.432546614211247970e+03
1.487548185055125714e+03
1.263184717203662331e+03
1.592329820187745327e+03
2.119020436883512957e+03
1.817228873426112159e+03
1.506947206927654406e+03
1.572179770973008544e+03
1.180878421785474302e+03
6.860096067582330761e+02
-2.094667745868577242e+02
-4.285601638351314477e+02
-1.663263239127189195e+02
2.951748325381255995e+02
6.629624908087465656e+02
7.950558014568409817e+02
1.226412289151594678e+03
1.502001910815439487e+03
-4.139572951804911582e+00
-4.158738772651056024e+03
-2.648726902303777933e+03
-1.944566288862679130e+03
9.895954031019446120e+02
7.118805269178894832e+02
-9.016060442074340244e+02
-5.698610745171151848e+02
-5.878842886741860639e+03
-6.266627220257070803e+03
-4.688304786092613540e+03
-2.089139614491045620e+02
-5.624225808141653715e+02
-3.545874983860848715e+03
-3.368285353184835003e+03
-3.312737450051357428e+03
-1.653176974470593223e+03
-1.856036537196987410e+02
-2.527946256813989294e+03
-1.046283617470662875e+03
-4.275624219105820885e+03
-3.790951499298537783e+03
-1.165254391844045358e+03
2.203437760177697783e+03
-1.144816018570204960e+03
-2.069890171534893284e+02
1.166906619281300891e+03
-2.505130686731929472e+03
6.498605088727257453e+02
2.056860704416521457e+03
-5.601391834210087382e+02
-1.904120051463163918e+03
-2.557080990441762424e+03
1.121931792701968789e+03
2.680913343904899193e+03
1.523795432853081365e+03
1.693633046388960338e+03
1.072466997520821451e+03
1.061284177420852529e+03
1.131107831349591606e+03
1.861942105615730270e+03
2.834849065750894169e+03
3.613825199010481356e+03
5.149861439299609629e+03
5.510989880813403943e+03
5.242225512296798115e+03
4.687555395845660314e+03
4.317997375509784433e+03
3.784534208668456358e+03
2.935186383989357637e+03
2.319973081314592491e+03
1.498863299424443994e+03
7.508439813033066912e+02
4.586784953717236846e+01
-3.571915139611039649e+02
-5.642896469620707194e+02
-4.901884973264073437e+02
8.423811044779301938e+02
2.244642147435220522e+03
2.297732570910378399e+03
2.151906591488391314e+03
2.111892705994716835e+03
1.653516096188692700e+03
7.189388554638999267e+02
3.081685371646423164e+02
-2.025022060262615469e+03
-1.914342335886902902e+03
8.661622520040680229e+02
2.128429074334972938e+03
1.800748777798803303e+03
1.242811445355372143e+03
4.042594894594057564e+02
-5.085537757664569085e+02
-1.516651039706588790e+03
-2.148357582958816238e+03
-2.075279291524116616e+03
-1.507161391548220536e+03
-1.368241265697672588e+03
-8.706430239516660095e+02
-1.168423690765756646e+03
-9.016490634018668970e+02
-5.624212970907065028e+02
-6.546443672899367812e+02
-9.223156942760409720e+02
-1.676496206256621917e+03
-2.073186966774638222e+03
-1.804400750084696938e+03
-2.161055291419878358e+03
-3.052044019715530794e+03
-2.401352929552754631e+03
-1.940987489295333717e+03
-3.488001270654916425e+03
-4.900406775495133843e+03
-3.598213436689014543e+03
-2.635426494050145266e+03
-2.932080907526411920e+03
-3.084065657006399306e+03
-2.195371905215637526e+03
-2.239007622721175267e+03
-1.394878655709668692e+03
7.900991102070727834e+01
7.486266657708799812e+02
1.590029031189057605e+03
3.011288721252572486e+03
3.737416422949247135e+03
2.610419965369646434e+03
2.231079474968194987e+01
-1.002853508730507428e+03
-8.510977318576095740e+02
-5.574131657932548478e+02
-1.610759548419205885e+03
-3.546127304744460616e+03
-4.199527617069423286e+03
-2.902031592935916251e+03
-2.039610661609755425e+03
1.827670307226240141e+02
2.678187961669253582e+03
4.707673566844625384e+03
5.851290623869991578e+03
4.426000702492770870e+03
2.418773185553971871e+03
2.996296451452744236e+02
-3.166362284185388035e+03
-5.988163313655680213e+03
-6.972725915053326389e+03
-6.160057226464104133e+03
-4.642163362637026694e+03
-2.955014441690798321e+03
-2.512617487402805182e+03
2.835091379735277769e+03
3.974485126726228373e+03
2.145102944980017583e+03
5.619920496238979695e+02
-1.287245664692514708e+02
-5.581020317161929825e+02
-4.421608029055940960e+02
-9.591065139440543419e+01
8.046950857658206360e+02
7.897583134292796103e+02
1.623489260496100712e+02
3.314420457346256512e+02
1.904054115985185035e+03
2.852133262132176242e+03
2.843700700631574819e+03
3.184797550159742514e+03
3.923368408212731538e+03
3.827517872402250759e+03
4.275317183579213633e+03
5.589747470690597765e+03
4.680794224597864741e+03
2.304473524560924034e+03
4.378199779814169119e+02
-2.982329718176437723e+02
7.373632913278595424e+02
2.315610306407672851e+03
2.154474665011749039e+03
1.328014600312307266e+03
1.138248482327116108e+03
7.930591778422822244e+02
4.445190460778727584e+02
3.457030849559675971e+02
1.614620001028481738e+03
1.771342866351968951e+03
6.229008352334689107e+02
1.295263339487297117e+03
2.763378785464914927e+03
3.120222037258413366e+03
2.569903681408453849e+03
1.918401494883841906e+03
1.718727813791813105e+03
1.556889137403971290e+03
3.608311044830973628e+02
-1.448459274570585649e+03
-1.802948016191718125e+03
-9.056334951611163433e+02
-6.095518456479937868e+02
-1.108670159767826817e+03
-5.109430869171707172e+02
-3.543912217156880047e+02
-1.038984206733662631e+03
-9.227749550533145566e+02
2.101724102552572049e+02
4.860012518546980118e+02
-1.613016915629003165e+02
-1.076701133614687024e+03
3.774107393952215972e+01
1.505043856639628302e+03
1.530203848165696627e+03
8.712370415449298662e+02
1.033179267613973252e+03
9.150360745160545548e+02
-4.722688411948920475e+02
-2.604880720767036564e+03
-7.443845624619913906e+03
-6.686725740650046646e+03
-4.203788562520203413e+03
-3.624101645943111635e+03
-1.685590452391706094e+03
-3.949234154514827878e+03
-7.237079978678943007e+03
-5.296220382900020923e+03
-9.356160402273123964e+02
-2.942262913654828026e+03
2.063837932836871005e+03
6.856651961641390471e+02
-8.637820869607426175e+02
-4.568550923392981531e+03
-3.576647161463937437e+02
3.019163462236695636e+02
-1.953817612802567965e+03
-4.828642267584081651e+02
