-1.483810475865032686e+03
-2.113334656138399339e+02
5.177156210567413837e+02
9.093209135411951820e+02
1.373420331526621112e+03
2.280022381921584838e+03
2.674149143648265181e+03
2.985757418100899940e+03
2.219800097054708658e+03
1.260179250350774282e+03
5.998481972642429128e+02
-8.242413325557279791e+00
-9.071335189428842796e+02
-2.018901191312393394e+03
-2.768584080879691555e+03
-3.052310783380052271e+03
-2.860096640135951930e+03
-3.018948345966173292e+03
-2.574908937085927846e+03
-1.502981962047384286e+03
-5.431404774926746768e+02
-1.590390397307448893e+03
-2.224805232874701233e+03
1.719272514415487194e+03
2.972798353648144712e+03
1.431301248706128717e+03
-1.320192928088114286e+02
3.533440980949282675e+03
3.541286474307880326e+03
3.205355883114176322e+03
2.542235494689515690e+03
1.325223019259445209e+03
4.053182371579261485e+02
-7.738588527622497395e+02
-2.102362698252982227e+03
-2.919872584508754244e+03
-2.759571459898999819e+03
-2.193700233161528558e+03
-1.104207174526864719e+03
4.855135794409569030e+02
1.529784619570944642e+03
2.946278202329742271e+03
3.363570552585002133e+03
3.929037074679808484e+03
4.869024254171996290e+03
5.565237687743051538e+03
5.889496468262557755e+03
5.595509672224767201e+03
4.640711298547402293e+03
3.267145777753315087e+03
2.565835972360934193e+03
2.048250927272112676e+03
8.437529156755795157e+02
-7.928440810121229561e+02
-1.285656692439189783e+03
-1.399720361698592797e+03
-1.444007720403915755e+03
-1.459469435493960191e+03
-1.179137740615029088e+03
-4.609617950127425843e+02
1.006117477958356062e+03
2.534246784460630806e+03
3.793409637235549326e+03
4.196626831594532632e+03
4.241976582502536985e+03
4.565524924788933276e+03
5.081346714875000544e+03
5.214442697680260608e+03
4.481826521087074980e+03
3.733523265852711120e+03
3.037564423438315771e+03
2.642942252094917421e+03
1.421649895699154285e+03
1.596925996370724476e+02
-1.082918155538840892e+03
-2.129209961676631337e+03
-1.819200046266232675e+03
-1.983870719011993515e+03
-4.207178476805768696e+03
-7.056009242640239790e+03
-9.370315246827878582e+03
-5.155034879107224697e+03
2.235862774915866339e+03
3.609454017632387149e+03
-9.081670680276641860e+02
-4.923923237693838018e+03
-4.779804680704430211e+03
-5.082464148477660274e+03
-5.571104409878716979e+03
-5.696583379246713776e+03
-6.602833056869527354e+03
-7.748028784024548258e+03
-7.770966897776427686e+03
-9.196009730512154420e+03
-1.050100939135600856e+04
-1.007490054230209535e+04
-6.234706613355129775e+03
-7.887474793355106158e+03
-1.067714392798057816e+04
-8.842634247995090846e+03
-8.638301467483953502e+02
3.157310343347567141e+03
3.988872314387443112e+03
4.301018582561639960e+03
5.055755852365090504e+03
5.368211247634146275e+03
5.537437477395439601e+03
5.559371447622316737e+03
5.114070596973333522e+03
4.652703224689445051e+03
4.097203057154993985e+03
3.173563510667360788e+03
2.156723276723133949e+03
7.137298479597843652e+02
-6.793711518315394642e+02
-1.538602314152377176e+03
-1.957922668409480593e+03
-1.658273242385534331e+03
-1.237652745120939926e+03
-3.199200103484234958e+01
9.907738917957693729e+02
1.720788578547662837e+03
2.534121186829040198e+03
3.316855461650775396e+03
4.194985610712766174e+03
4.711494191758401030e+03
4.865386541973760359e+03
4.739723540118172423e+03
4.358551901564637774e+03
3.857900103338799454e+03
2.862779907451262716e+03
1.775195995342341803e+03
8.201702257097849724e+02
-6.863123488038160076e+02
-1.841124616699627950e+03
-2.962309552581448770e+03
-3.246897649109275790e+03
-2.684881359805036027e+03
-2.085238881180891894e+03
-1.310898428613445731e+03
-4.128340153154263135e+02
6.809951835519925680e+02
9.985420397320242500e+02
2.001841173905252617e+03
2.979222012699930929e+03
3.120233529204330807e+03
3.219876490031215326e+03
3.383937355279477742e+03
3.002467569863169956e+03
1.606475554127546502e+03
2.437325968350085077e+02
2.404342874805043380e+02
-6.847321090839250246e+02
-1.824645915882111922e+03
-2.600482876752857919e+03
-2.842521377844049312e+03
-2.943696811546353274e+03
-3.371978356354632979e+03
-3.025355501005768019e+03
-2.139808191828315557e+03
-1.155305242144233489e+03
-1.068489111936800811e+02
4.186286764033819168e+02
9.212334687658018311e+02
1.555989928863353043e+03
2.462905456865279575e+03
2.645979651133638072e+03
2.336127468038742336e+03
2.060309594551857117e+03
1.559617513166524759e+03
1.066077701552804001e+03
4.737045413576598776e+02
-3.915024347087542651e+02
-1.765622465059285105e+03
-2.904791472024062386e+03
-3.266098249573969497e+03
-3.321631719800761857e+03
-3.621444447283887712e+03
-3.104512079397586604e+03
-2.317773981198482034e+03
-1.627098454993692258e+03
-4.124115803555383195e+02
5.413060401114737488e+02
1.094123988513145150e+03
1.205046806968214923e+03
1.338018664038980205e+03
1.630971201527642961e+03
1.726815152287940236e+03
1.594638374750489220e+03
1.432416967951781089e+03
1.042215849497555837e+03
6.921596380107191635e+02
-3.368365324369009954e+02
-1.628067446156891037e+03
-2.636656154541623891e+03
-3.365712977641973339e+03
-3.624279366891337304e+03
-3.431336964802029343e+03
-3.065789360528280667e+03
-2.519651787295309532e+03
-1.726855384965367421e+03
-1.113322698987777812e+03
-1.815199071790429116e+03
-1.269573065263777153e+03
1.060658546186556805e+03
1.732610017468760134e+03
2.486281576395941102e+03
3.084564677995821967e+03
3.002241598571445138e+03
2.418394829016116546e+03
1.679926826267609385e+03
7.947753798978084205e+02
2.602136992350309086e+01
-2.643377237217591755e+03
-6.537448928341850660e+03
-3.861361252545060324e+03
-3.406229298380339515e+03
-3.668423731358834175e+03
-3.580375799108666797e+03
-2.549041090254164828e+03
-1.359125860704356683e+03
-3.368040214316199013e+02
6.006627900940725340e+02
1.518305482670227320e+03
2.268121524874624356e+03
2.820029678070180580e+03
3.098107746150838466e+03
3.371645407751389939e+03
3.079187485659213962e+03
2.664206572594720001e+03
1.770165399301895604e+03
1.186163297676967204e+03
6.896960840693586192e+01
-9.490967076735740875e+02
-1.572188745325787522e+03
-2.490166182077950452e+03
-2.671506197571210578e+03
-2.789369703906099858e+03
-2.627882496381917463e+03
-1.466852586012388656e+03
-4.728953248659816495e+02
5.117773622111384952e+02
1.341899072432365301e+03
1.905876047052776130e+03
2.702231762102770517e+03
3.153454682329517254e+03
3.260307775832775405e+03
3.395128800896742632e+03
3.672845191931444788e+03
2.996972998744068718e+03
1.990906196058109117e+03
1.346477887701888221e+03
8.497302154490804469e+02
6.729642738194752383e+01
-9.246461862862819316e+02
-1.600364255854251951e+03
-1.741525209960252823e+03
-2.020281914016381052e+03
-1.670956973501145285e+03
-6.725269885392380047e+02
-8.478022608222322276e+01
6.053662138255128866e+02
1.729772091652342169e+03
2.594384239564906238e+03
3.522315969105229215e+03
3.639675918889744025e+03
3.466521086573987304e+03
3.247758102079473247e+03
3.378430284228445089e+03
2.941499684938898099e+03
2.849905785290527547e+03
2.201654502388240871e+03
1.368685441267315809e+03
5.629007056331530521e+02
-7.137175454200131526e+02
-1.384202431100458625e+03
-1.981523037177687456e+03
-3.047781013322768558e+03
-6.672901476020595510e+03
-6.355440050817579504e+03
-3.856883616814231118e+03
-4.099029940808924039e+03
-1.251614459496361405e+03
-1.546741968192691274e+03
-2.088877784907447676e+03
-1.074671505148450478e+03
9.160099410191510287e+02
3.932134754647075169e+03
4.481750313508572617e+03
1.535939922104181278e+03
5.607329286167982900e+02
-5.308899545259398565e+02
-7.720294576151474075e+02
-7.575734702463249448e+01
-4.678027124168076625e+03
-3.155741206259608589e+03
-5.545904992242418302e+03
-2.561522287314350251e+03
-4.852707872783215862e+03
-4.173402863200719366e+03
-4.194678602880490871e+03
-3.013524063408786333e+03
-1.592766313764736879e+03
-2.695398948206732257e+03
-3.525358637216460465e+03
1.858339651395108149e+03
1.749797699283104066e+03
-2.003380879479393073e+01
2.980878411133601276e+03
3.241740362970880142e+03
2.747654192579096161e+03
2.056585912219108195e+03
1.169486607103097867e+03
2.254210648706654467e+02
-1.167644736051758628e+03
-2.206852688129287344e+03
-2.931233799625465053e+03
-2.485831870397795683e+03
-2.105696793218214680e+03
-1.927800246591447149e+03
-1.523898970847508963e+03
-4.039852093651816745e+02
6.729167149954525939e+02
1.343852430332052336e+03
2.503874439059832184e+03
3.370123964664687264e+03
3.354697606904410350e+03
3.097636853160956434e+03
2.918745971299862504e+03
2.880061493722826526e+03
3.029733905491195856e+03
2.719749900368857652e+03
1.692908983448207891e+03
4.730901489545869936e+02
-6.866259532626877444e+02
-1.308766741930503258e+03
-1.596066092088459982e+03
-1.366056550695675469e+03
-1.468583752555528235e+03
-1.432495117492396275e+03
-4.946708389892244213e+02
3.160953498620509663e+02
1.969165386524879580e+02
-2.245418858486140152e+02
5.778248171918714888e+02
1.162175795182833326e+03
1.793530504365595561e+03
2.206861117717810885e+03
2.322141868883235475e+03
2.513255129491570642e+03
2.523458736199389932e+03
2.750780834266396596e+03
2.318461806337426879e+03
9.755039140540364997e+02
-6.325346173192870083e+02
-1.541601740917395318e+03
-2.041114032949413058e+03
-2.406584423811616944e+03
-2.881513385554100751e+03
-2.554839947007988485e+03
-1.717893455505614611e+03
7.127680596035527572e+01
1.632798481304532061e+03
2.033705735706971836e+03
2.477042685784181231e+03
3.641862701145319079e+03
3.968167227267257658e+03
3.963927152176848722e+03
3.679173950033993151e+03
2.956749658643700059e+03
1.908682829033017924e+03
1.038071439940901200e+03
7.299060564139502958e+02
4.104215376716035024e+01
-9.586954667281188449e+02
-1.960425616989007949e+03
-2.510274506008966455e+03
-2.102118327424365361e+03
-1.324903268836502320e+03
2.923560758864468312e+02
1.702661045546765308e+03
2.649163677589993313e+03
3.287812443325698496e+03
3.570584530842306322e+03
3.581476549574791079e+03
3.578420918332971723e+03
3.380427759019059522e+03
2.913472776516015983e+03
2.517465092406268923e+03
1.649444227367255280e+03
1.567424950209103145e+03
1.472377418267473331e+03
9.492704187272212266e+02
2.908708997079732228e+01
-1.082182159830340424e+03
-1.399658150601721900e+03
-1.720357845730450208e+03
-2.251308693623129784e+03
-3.848573566553444834e+03
-6.948067563370273092e+03
-1.030988896252559789e+04
-9.428137989491759072e+03
-7.862665503802282728e+03
-7.294362134833633718e+03
-6.460306497271723856e+03
-5.424529285169875038e+03
-5.298975738549607740e+03
-4.870453901751303420e+03
-2.758156759087787577e+03
2.924917553202897579e+03
4.672840606641284467e+03
3.717469867791462548e+03
2.835761555083728581e+03
2.003639675652398410e+03
1.241102144137400728e+03
1.570076399968014016e+02
-7.436962734410155917e+02
-1.752978601727221530e+03
-2.402885182175431964e+03
-1.772401588266972112e+03
-7.304634659753762662e+02
6.548897280614987721e+02
2.058691195827358115e+03
2.360025803687017742e+03
1.903903288429437453e+03
2.126364796952074357e+03
3.027427459739505139e+03
3.936046463926916658e+03
4.975175017379751807e+03
5.765855506400024751e+03
5.561155435901985584e+03
4.111029765900139864e+03
2.282402848980681483e+03
2.482673074380213620e+02
-1.936399707260053674e+03
-4.006708239772751313e+03
-4.794636191806379429e+03
-5.007192217305521808e+03
-5.086433357949113997e+03
-4.011317570054508451e+03
-2.191797075864155886e+03
-7.378765277816688695e+02
1.125431376337157161e+02
-4.444795520703993361e+02
-4.298842813159942580e+02
-3.696371408051635399e+02
8.226494649598438968e+01
2.744790576056761893e+03
5.542860946905204401e+03
5.958563153616632917e+03
5.068931065811360895e+03
2.893927629391760092e+03
1.875660697934118843e+02
-2.213154737110531187e+03
-2.756231085025372977e+03
-2.861679335848888968e+03
-2.718586447251471782e+03
-1.723969826747494380e+03
-1.482906763871518706e+03
-2.147356110610603992e+03
-1.397356242997350819e+03
9.087017532261766064e+02
3.293620580864873318e+03
4.477241208086819825e+03
3.811561569731477903e+03
4.559711549983032455e+03
4.565733154626263968e+03
3.632668396794018463e+03
3.889519578262492359e+03
4.145202975414495086e+03
4.520059473815786077e+03
4.570248285506425418e+03
3.400142688244770852e+03
-2.984352471330685148e+03
-1.668804405182798064e+03
4.796411837095669171e+02
-7.247765305545102819e+03
-4.904529595118930956e+03
-5.344218637000065428e+03
-5.282980269368576955e+03
-5.284919639111215474e+03
-6.533943454246622423e+03
-6.401029293302450242e+03
-2.841115778463435163e+03
-4.399166773146750529e+03
9.669164842962409239e+02
-2.669063637742017363e+02
-1.505481615403365652e+02
-2.504050061196533989e+03
-2.683831711920351495e+02
3.704532027802883931e+02
4.259434063596089800e+03
4.094653334659340999e+03
2.169098442371270266e+03
-2.163287810592853930e+03
-4.660573021981397687e+03
-2.022864698315094756e+03
-1.623141224933291141e+03
-4.927365607722713321e+03
-3.004513835221678164e+03
-6.159546956459123066e+03
-3.369510733070339484e+03
-4.520336405024844680e+03
-1.263991072652696175e+03
2.039536814321768361e+03
-7.697810701495185413e+02
7.012095733572116387e+02
2.162550048563320615e+03
5.050187854551539203e+03
2.820113848100258110e+03
3.155312621473703530e+03
6.281987999863549277e+01
2.092637807762997454e+03
3.825724389893337957e+03
1.681097856451528060e+03
-9.353120630823011652e+02
-1.309612855608224891e+03
-2.558040056672626008e+02
-1.518574762114206749e+02
-1.125843565683137285e+03
-6.547227987308458523e+02
2.985194461295670294e+02
1.941956011648431740e+03
2.848619906563896620e+03
4.592537760013725347e+03
5.798692164025699640e+03
5.986163214937033445e+03
6.513884193908229463e+03
6.745885648759028300e+03
6.182031400514947563e+03
4.814295018965059171e+03
3.285726487147539501e+03
2.685668303954238127e+03
5.293492704206953476e+02
-3.584464439785419472e+03
-2.259567018680088040e+03
-2.090093467146699822e+03
-1.333247440947753148e+03
1.431077036114743066e+02
-1.433504866337871704e+02
-1.234351904976534570e+03
-1.321768220795586558e+03
-1.276842815130683135e+02
2.121298072078298844e+02
2.142940749937203861e+02
1.251589447257771326e+03
2.211930825548730354e+03
2.424810160033053762e+03
1.274426106283279751e+03
-4.708041642452071756e+02
-1.707674468075214463e+03
-1.265658648720330348e+03
-4.421260238159017320e+01
9.979562494924924749e+02
1.182402404393758616e+03
1.132493233594706908e+03
2.496515216970906437e+01
-9.191335698269558634e+02
3.814862207544702954e+01
7.607657368220444596e+02
1.585908596184709495e+03
1.143013988083732102e+03
8.911903607129079319e+02
-5.156589538193055233e+01
-1.105681429211728982e+03
-8.286320750509695472e+02
-2.202950340202889095e+02
7.443391429760174560e+02
1.316218449232768535e+03
2.782322508191516590e+03
3.930673082553199038e+03
3.431363750927327146e+03
2.697384242617203199e+03
1.995651906520561852e+03
5.591091816068519620e+02
-1.111255042226822980e+03
-7.674646173850057949e+02
-8.995616249455374600e+02
-1.406587454460568551e+03
-1.395577907480538215e+03
-1.298486876527729464e+03
-5.153278018676107877e+02
1.363970722254455495e+03
3.967550026073974095e+03
4.369425345467002444e+03
3.976589627953775107e+03
5.024033501171858006e+03
5.611754413136888616e+03
3.079787876554629293e+03
-7.757672711904168636e+02
-5.368893696683933740e+03
-7.347596415142299520e+03
-7.722967862648345545e+03
-1.659976993860369021e+03
1.388375273868901331e+03
-1.907918002075422692e+03
-1.023984709616015425e+04
-1.076254728693114521e+04
-1.072603613017391763e+04
-1.162802021762606273e+04
-1.197055410125701019e+04
-1.055569124386296426e+04
-8.228329530883333064e+03
-6.757488636294597200e+03
-5.869118186719254481e+03
-5.368162348357103838e+03
-2.731610828391723317e+03
8.915690018670995869e+02
-3.694645384213917168e+03
-4.990229762334296538e+03
-4.351105025646629656e+03
-4.657178423983687026e+03
-5.944538037191620788e+03
-6.559186018925383905e+03
-2.637074235713057988e+03
5.018041350061330945e+02
-6.346122457281217066e+02
-2.100326698864505033e+03
-2.399408373904223936e+03
-2.303881323366691504e+03
-1.585667298060664507e+03
-3.647197860652711938e+02
1.210948570822521333e+03
2.715431777762324145e+03
4.665844722196527073e+03
4.665243196596399684e+03
4.439631889939247230e+03
5.460093427770297239e+03
7.187658573910110135e+03
7.902269422491181103e+03
7.353963650263915952e+03
5.431752358637596444e+03
2.495629775858956236e+03
8.934990799751512895e+02
-2.226986216348253436e+02
-1.329001754990367544e+03
-2.320440820275341594e+03
-7.799855495642890446e+02
4.863504827735130789e+02
1.719580978234852182e+03
3.207796522305196504e+03
4.038065369660233046e+03
5.274348185387520061e+03
6.019669496315460492e+03
5.525064465338660739e+03
5.618590369611998540e+03
5.269302350918483171e+03
4.700180918548279806e+03
3.521178981893498985e+03
2.817275772847167900e+03
3.106537347222434164e+03
2.241013701407160170e+03
1.586561694927678218e+03
1.025031572975215795e+03
1.763828269718669048e+02
-8.121737127197962991e+01
-6.222270335842896429e+02
-2.298587967969207057e+03
-2.848554900315872146e+03
-1.746361539393396697e+03
-1.148010570139300853e+03
-1.273473828435699261e+03
-1.856817604816279299e+03
5.911213983981455300e+01
1.287618505589136021e+03
1.952981451742306263e+03
3.566844839522858365e+03
3.948621225890101414e+03
4.524275576152282156e+03
4.524708704586031672e+03
4.296839347502294913e+03
3.036604071985419978e+03
1.655052028366331115e+03
9.161344868213650443e+02
-1.632185496995747940e+02
-1.566036256098746662e+03
-2.182485429656832821e+03
-3.136689933571879919e+03
-3.252707352419707149e+03
-2.742608096024101087e+03
-2.456360135540110150e+03
-1.462943268555687609e+03
-2.293797824712536340e+02
6.372840625024427936e+02
8.609989382717346871e+02
1.308706065611054100e+03
2.031422076435716917e+03
2.266111523923175810e+03
2.191760339748140723e+03
2.341369697933542739e+03
1.920948370948623960e+03
7.614820123175206845e+02
1.099277009348716803e+02
-7.528407549065535704e+02
-1.852935198413997568e+03
-2.686420457859543149e+03
-3.374468537790902246e+03
-4.847229589218275578e+03
-5.356761152044272421e+03
-5.038047995324913245e+03
-4.037040554478518970e+03
-2.638787079700785853e+03
-9.863187805733820142e+02
2.252769853014914645e+02
4.427527841294547670e+02
8.950594440106222009e+02
1.205277457422076850e+03
9.144407327886477788e+02
6.666090429765316685e+02
5.937951696925433680e+02
9.349622537909749553e+02
1.286927779530755060e+03
6.615751026726632062e+02
-8.213953399049876225e+01
-2.369357745126137615e+03
-6.481137043088893734e+03
-1.124446325508167320e+04
-6.216481267997911345e+03
-4.304400948176660677e+03
-4.119223074948041358e+03
-4.151027074208758677e+03
-3.248747517562419034e+03
-2.400370023230381321e+03
-1.312840862174570020e+03
-5.261443577477547251e+02
-1.098433826375675835e+03
2.613614180288041098e+02
1.782176098669830026e+03
1.693930733164840149e+03
-2.096238479072779683e+03
-1.631911761235553513e+03
-3.020708155996429468e+03
-7.881077860147351544e+01
-3.424446977761340804e+03
-1.458357814906880321e+03
-1.114397102873715312e+03
-2.198642194318775182e+03
-2.416086113585055955e+03
-2.650651620603763604e+03
-2.493429805986494557e+03
-1.930789439208655040e+03
-6.372931953890918066e+02
-3.351457513961341306e+01
1.073023129624022431e+03
1.835250401511644895e+03
2.197372332605059000e+03
2.297050345903704056e+03
2.103414342715478597e+03
2.520144510005934080e+03
3.426477057015255468e+03
3.670574348346012812e+03
3.205735048003530665e+03
2.247806232457595797e+03
1.331329688532296814e+03
8.414778252441618633e+02
5.165645187260689681e+02
4.302214848317262863e+02
-3.214141310460961876e+01
2.500966231635539572e+01
1.259656388979146300e+02
3.523957924616853461e+02
3.152589583842391221e+02
1.261095262816949116e+03
2.353650380425672665e+03
3.070973121063610506e+03
3.789969846019943816e+03
3.914096725657306706e+03
4.045191008203418278e+03
4.325547609324221412e+03
4.538795908386218798e+03
4.852928641200993297e+03
4.953279997475272467e+03
4.443962761936134484e+03
3.547883221336454426e+03
3.090933203883934311e+03
2.206185873993133100e+03
1.605747446845630748e+03
1.340571364943428534e+03
1.248725529453854733e+03
1.224138507258384152e+03
1.427880091405368375e+03
1.783954735944292224e+03
2.700498340945051041e+03
3.201688865847321722e+03
3.539528127507015142e+03
1.515094120213090036e+03
-1.751433038003731781e+03
-6.164919017776001056e+03
-6.494267000020367959e+03
-3.683590132775978418e+03
-4.292767317909660051e+03
-5.702186268579147509e+03
-5.487379658921810005e+03
-5.261942294319703251e+03
-5.744956981071123664e+03
-7.192703590053094558e+03
-8.328010231256124825e+03
-8.342674811415576187e+03
-7.772750175481195583e+03
-2.050281754282739257e+03
1.740831844860607362e+03
1.160746838524328496e+03
-5.243494958220144326e+03
-4.646836813411219737e+03
-1.374117351429365954e+03
-4.944163334864268109e+03
-5.388883536424064914e+03
-4.867174158985370013e+03
-4.324088241549953636e+03
-3.881734941925548355e+03
-3.574101852175939712e+03
-3.659097852051982954e+03
-4.450677021311550561e+03
-5.432648111280420380e+03
-5.836964711047038691e+03
-6.354781467789233830e+03
-7.056081673320286427e+03
-1.463820059639233250e+03
5.171595514857025364e+02
-2.450095887107679573e+03
-1.647830238753542531e+01
1.813094784304486666e+03
3.377608510575252694e+03
4.673102457687900824e+03
5.211620399810441995e+03
5.176185762778663957e+03
5.138784475067936910e+03
5.636478666611111294e+03
6.211402655996764224e+03
5.876570117285195920e+03
5.934969841109028494e+03
5.930672934457725205e+03
5.445757035857394840e+03
4.546062431220002509e+03
3.804619530470385143e+03
2.556545224151940602e+03
1.347745963057687504e+03
3.261827596316724112e+02
-9.118366181271595394e+01
4.415897254456007204e+02
9.054205300207710252e+02
1.290436174098007541e+03
1.639761310684866658e+03
2.144278796503944704e+03
2.622865210058431785e+03
3.530810283165963483e+03
4.263449956979757189e+03
4.716206368030237172e+03
4.152931137706676054e+03
3.988536621456598368e+03
4.203441881171697787e+03
3.866634278461199756e+03
3.563744073028707135e+03
2.182540965750213218e+03
4.492284518539566562e+01
4.174188802985539724e+02
-5.639242321771819206e+02
-1.405739243661097134e+03
-1.283106495658183121e+03
-1.438202338775055978e+03
-1.258054742194973187e+03
-7.356395650662406069e+02
-4.463283248844693674e+01
8.863309595517373509e+02
1.780962471134176212e+03
2.249271131860144123e+03
2.452026618118435181e+03
3.086039981659864679e+03
2.794353988319827749e+03
2.411317194279338310e+03
2.422520917463194110e+03
2.060846014012692194e+03
1.359897270602946492e+03
9.359769241726476139e+02
6.208558855531942982e+02
-1.478020762383393958e+02
-1.294063089573648313e+03
-2.198036053876282494e+03
-2.771817452933289587e+03
-3.157462452012094218e+03
-2.581046457447142075e+03
-1.650675833529092870e+03
-1.290200543503186054e+03
-4.875828179038556982e+02
7.030717119258953289e+02
1.666645262572815454e+03
2.713215988791802829e+03
3.472858930583784058e+03
3.940640815333276805e+03
3.290661112553753810e+03
2.552782236233192179e+03
1.528923398032264913e+03
9.730370524461390005e+02
8.130831795547509273e+02
1.188053065136577402e+02
-8.078195032648560527e+02
-1.053888114281267235e+03
-7.335263620268387967e+02
-1.000685699805809804e+03
-1.315369204985974193e+03
-1.676602551642339222e+03
-1.392294427854607420e+03
-9.624514305735638118e+02
7.503119020323612176e+01
7.191864943723625174e+02
7.180626221463752472e+02
1.094651806368376583e+03
1.901918300592979222e+03
1.665987298601738757e+03
-8.092288689178986942e+02
-4.856789769984286977e+03
-9.065664454679657865e+03
-8.816938651728984041e+03
-8.719541247956169173e+03
-7.609343034709298081e+03
-8.190469532429144238e+03
-9.530139095377606282e+03
-1.005033599277704525e+04
-1.089314027146090484e+04
-1.026808321798062389e+04
-4.181339323003323443e+03
-4.187024640988393003e+03
-3.763095753171685374e+03
-1.005106443230885560e+02
1.586852532207462673e+03
2.582959899014003440e+03
2.966912643724559530e+03
2.884795421923562117e+03
3.398703494727911220e+03
3.828694268045178433e+03
3.535747291747015424e+03
3.504925783332633273e+03
3.106305071043540011e+03
2.127843129520192633e+03
1.410597306920135225e+03
5.205411247269361183e+02
-5.383548175537246152e+02
-1.878040586528482663e+03
-2.566533877642315929e+03
-2.548830104053462492e+03
-2.318845937629072068e+03
-1.783490091352004811e+03
-1.786586471584270441e+02
1.014687043436505405e+03
1.378643710977841465e+03
1.661309027045745552e+03
2.086759550106077768e+03
2.393213232242006143e+03
2.448825487519214221e+03
2.525531572460474763e+03
2.325359556662871000e+03
2.066414547990517804e+03
1.516746717029305501e+03
7.193533714776801844e+02
-2.676261417006027727e+02
-8.632005060685168019e+02
-1.683406341157720362e+03
-2.097250390974924358e+03
-2.243749331590865040e+03
-2.411838753475889462e+03
-2.497475037009792231e+03
-1.592503905393167997e+03
-7.358670428096731939e+02
4.257644378818647368e+01
7.379403341451691176e+02
1.236340318692674145e+03
1.690896422989851771e+03
2.061607361392304028e+03
2.013566229531962335e+03
2.378865315429095062e+03
2.685510080908476084e+03
2.311688648870465840e+03
1.667607941120272699e+03
1.048382119387197918e+03
8.627886487402619764e+01
2.847940124065482905e+02
-8.510890703269208188e+02
-2.828387446917344278e+03
-2.996168377839941513e+03
-2.626381194287516337e+03
-2.618997923567967973e+03
-3.111943589978286582e+03
-2.150090959028565976e+03
-1.165478961073029268e+03
-9.209436679200568960e+02
2.716195528795931295e+02
1.323570567564017210e+03
2.077609703388349317e+03
2.273926176636884065e+03
2.165184493429407667e+03
2.252852598744444549e+03
2.020513484327258539e+03
1.467268053815860185e+03
1.134225543995871476e+03
5.392983826189057481e+02
1.354589681532651184e+02
-1.079347813591267141e+03
-1.561163185095277640e+03
-1.952029588132278150e+03
-2.249908522819690006e+03
-2.191835961009082894e+03
-2.194805726994468387e+03
-1.894827210922009726e+03
-9.628311961784662572e+02
-6.773642869787970255e+01
4.364027702686559564e+02
1.065536527317266291e+03
2.492722884551811603e+03
3.080970426767161371e+03
2.908252599276900128e+03
2.994506456712339059e+03
2.890663055008697938e+03
2.938683979767326491e+03
2.836479738662837008e+03
2.371032351302472762e+03
1.525274072643170939e+03
6.240922940974140829e+02
-4.596115578839699651e+02
-1.243838133903987227e+03
-1.739734369698164301e+03
-1.695401248409377331e+03
-1.226895836509215542e+03
-1.962421884212619716e+02
8.495832328540698200e+02
1.650555267393006716e+03
2.375622096882085316e+03
2.850710411667807421e+03
3.268751871075460713e+03
3.586678899591199297e+03
4.110449370445386194e+03
4.296996293107386919e+03
4.039219492800275020e+03
3.212048170640559420e+03
2.320373174159693008e+03
2.198048422425798890e+03
1.403953126127269115e+03
1.399611912832895939e+02
-9.120531812272243997e+02
-1.314158297932076721e+03
-1.063497164794748869e+03
-1.125230140290648023e+03
-1.207425783962376954e+03
-5.569233823150793796e+02
1.173411746186706068e+02
8.684340252624328969e+02
-1.303208650608035235e+01
-2.517591795660880052e+03
-8.547005627254768569e+02
-1.644185699537181790e+03
1.320376883212293251e+03
3.886748402771820565e+03
3.375381797306082717e+03
2.515069694579509360e+03
2.355183538340784708e+03
1.449976360257268652e+03
3.470571816044369484e+02
-1.247441012647680282e+03
-2.266047011265809942e+03
-2.543511952308170748e+03
-2.770749854375956602e+03
-2.280567376518396031e+03
-1.698108726946870320e+03
-1.598856407037139206e+03
-6.580603301935659601e+02
7.670952290962308098e+02
1.352704592282940212e+03
1.641922231466757694e+03
1.780062928703320722e+03
1.616392110927229169e+03
2.084639780411928314e+03
2.528770364726101434e+03
2.304673250346344048e+03
1.552641884799493255e+03
9.088866202493675246e+02
3.012373301772880154e+02
-3.430382437871101615e+02
-1.203249753123949858e+03
-2.157823316841560427e+03
-2.806355946483834941e+03
-3.130102085725930465e+03
-2.817313994232775713e+03
-2.824984420522123401e+03
-2.227069667721685619e+03
-9.986532539327621407e+02
3.171941151740247165e+02
1.338454754485011108e+03
1.923155520573440299e+03
2.205221692265856746e+03
2.659629777890757396e+03
2.723338359382833460e+03
2.488346608117440610e+03
3.159588400348836331e+03
2.978058227228419582e+03
2.112734416330442855e+03
1.178555716848552947e+03
6.484172774128001038e+02
1.232338623820351700e+02
-8.800249537488392662e+02
-1.370402114735046553e+03
-2.080887403382088451e+03
-5.201487949284544811e+03
-8.953205395839357152e+03
-1.143408903891407317e+04
-1.057509646014542341e+04
-9.598156739208348881e+03
-8.031181626001334735e+03
-6.169124581552281597e+03
-5.866993916546092805e+03
-3.321735275671133422e+03
4.068656689051188550e+03
5.387366256842495204e+03
1.112398362025521919e+03
-4.579400124750229224e+03
-5.709960731869436131e+03
-5.778189496198985580e+03
-6.440140898618718893e+03
-7.707790869228058000e+03
-8.898166827009603367e+03
-5.457244340303192075e+03
-6.978984576519659640e+03
-1.072035363128881363e+04
-9.828348389875587600e+03
-8.722887477897840654e+03
-7.452814888030168731e+03
-5.676041438374621976e+03
9.975492380451547660e+02
4.762031174304306660e+03
-5.204903875423430009e+02
2.348113030978888673e+03
6.571917102574545424e+03
8.572938311430585600e+03
7.966218558287881933e+03
7.311868323988291195e+03
6.372034928789945297e+03
5.261760112077126905e+03
4.480125816019946797e+03
3.355136512527318246e+03
1.947766967571859823e+03
9.500422051679818196e+02
4.621160811814667682e+02
3.520315287128036630e+02
2.128024760930045147e+02
8.885647562718072550e+02
1.934419933894195083e+03
2.810489858773073138e+03
4.011928240781095155e+03
4.895937459702126034e+03
5.515638623336463752e+03
5.810167599772030371e+03
5.927637914421426103e+03
5.783076783854387031e+03
5.840571782172372878e+03
5.265231025083643544e+03
3.763080539590339868e+03
2.478119209149520429e+03
1.857531311423290390e+03
6.823992909085742440e+02
-6.483000344151250829e+02
-1.659493641270800481e+03
-1.801059779605635867e+03
-1.738999063007171571e+03
-1.783214202857572445e+03
-1.581552449293426889e+03
-6.709322992026652628e+02
1.032656054836152180e+03
2.037390843275159341e+03
2.444491989163373091e+03
2.928529051374928258e+03
2.822912202735257779e+03
3.286311947479944592e+03
4.135804201156938689e+03
4.306288216269239456e+03
3.220020663759411491e+03
1.610129405885442338e+03
-2.594477548856084923e+03
-1.977711586290487276e+03
-9.135927817000973619e+02
-1.831593598391847763e+03
-3.063261384547070975e+03
-2.968520149113055595e+03
-2.556322190751041489e+03
-2.584813437330353281e+03
-2.162090661819916932e+03
-1.143080286215772958e+03
-3.246402123374809321e+02
5.342718944511570953e+02
1.242694063835652059e+03
1.895748957033720899e+03
2.563430905036292643e+03
2.850800461753408854e+03
2.872942588502796298e+03
2.720807591744892761e+03
2.253454529756929787e+03
1.602955978168755337e+03
8.263096092514101656e+02
-2.145078632199611661e+02
-1.190555288190755164e+03
-2.471850436310337955e+03
-3.060429711668493383e+03
-3.605369844303124410e+03
