6.568497976915488152e+02
3.158229243404336444e+02
3.578807310585702908e+02
7.131189498295079829e+02
1.273498521268649256e+03
1.695967231636347606e+03
1.480615118369237962e+03
1.453484600497286920e+03
1.920440956764645080e+03
2.591414675234313563e+03
2.242379985761741409e+03
1.367491633785737122e+03
7.089127919120633123e+02
2.205821949507257216e+02
3.734690014721580837e+02
2.144661815919911533e+03
2.992010433561824811e+03
2.620485269095329386e+03
2.327323928886027261e+03
2.199805122785939147e+03
9.752666443415849926e+02
8.023283331579908690e+02
1.497671058329733114e+03
1.156435365444927356e+03
8.632137968195721669e+02
1.015614078428775542e+03
1.614837424560972977e+03
1.924141859439701648e+03
2.298907384624802944e+03
2.546589042597418938e+03
3.128132404995942579e+03
2.794428753825040985e+03
2.192482424099516265e+03
2.083517807030730637e+03
2.430239934001371239e+03
2.402875823190373467e+03
2.015186832366752014e+03
1.262238357909518754e+03
5.098098669991094880e+02
9.959020000893656288e+02
1.553787003307892746e+03
1.371413979306880037e+03
7.432859942858049180e+02
6.753653511065997463e+02
1.556701683876213792e+03
1.509347780719439697e+03
1.038154706175035017e+03
1.014944776972959971e+03
1.045153443013462720e+03
1.114378533887287176e+03
1.255609363917880955e+03
1.411928361781413287e+03
1.536314385914900868e+03
1.939724848715915186e+03
2.248149271851590129e+03
2.623604115156831995e+03
1.689076508430852073e+03
1.116453178577759672e+03
1.707641418940736685e+03
1.541597212950895937e+03
7.273682994496722358e+02
-4.229861507672253538e+02
-4.673705172238746286e+02
2.061547073990776937e+02
2.224971320588491039e+02
7.636166989530820501e+02
1.303493719740084089e+03
1.653192500723675266e+03
2.352816924212291724e+03
2.113258201104330965e+03
9.544391741002335721e+02
1.472329012976663762e+03
2.421963341417673291e+03
8.339922576140170918e+01
-4.308312447082329527e+03
-5.914192872300551244e+03
-6.502280243070669712e+03
-7.603567715792840318e+03
-7.950042657554035031e+03
-8.381724374789357171e+03
-8.188593235305148482e+03
-8.207591168639599346e+03
-7.539699016173880409e+03
-7.416775227841007109e+03
-7.777816119156278546e+03
-7.355186473561786443e+03
-6.843502731764616328e+03
-5.890671341668839887e+03
-3.913853481602795910e+03
-1.539222517189212567e+03
-5.111658784342793297e+03
-6.239055809848908211e+03
-6.303308956978256901e+03
-5.193345604036137047e+03
-4.443050139919850153e+03
-4.073315530930328805e+03
-4.116326770678687353e+03
-3.643234124610720301e+03
1.391018565279312270e+03
2.276507386666778984e+03
3.103056238842045332e+03
3.567787014781730704e+03
2.860824558029504715e+03
2.624135925224944913e+03
2.899874658095825907e+03
2.905093619402653985e+03
3.219911124837729403e+03
2.743277632552102659e+03
2.570201975951039913e+03
2.635748939211098332e+03
2.057940237965374763e+03
5.177777438044968221e+02
4.174120096440934162e+02
2.034049527736316804e+03
2.575693083882182691e+03
2.201295812536838184e+03
1.635825723710791863e+03
1.893065964610320634e+03
2.271205936654870584e+03
2.286747732243222799e+03
3.092751626096943710e+03
3.413990302151098604e+03
2.793329956311980823e+03
1.929703475339928445e+03
1.478200863304986342e+03
1.470957997619768776e+03
1.057056405193673299e+03
5.505199642886781248e+02
8.214507079624988819e+02
1.306099999414933336e+03
1.560590856090882426e+03
1.733926840720235987e+03
1.987155349445724141e+03
2.124287804384482115e+03
2.352337376598224182e+03
2.548309911775691035e+03
1.807164150291034048e+03
9.950430986227447647e+02
4.252527210293702069e+02
3.428275600469077062e+02
3.777248485156748075e+02
1.986792898861774859e+01
-7.067881158248401334e+02
-1.161087140893495416e+03
-1.543031871234681375e+03
-6.805790988735931251e+02
-3.385904383013932488e+02
-7.327211989230354447e+02
-6.079674875303993531e+02
3.122267287127858708e+02
2.166969981408456931e+02
-1.231769999890290102e+01
3.295117883700991257e+01
-9.357391337595868208e+01
-2.965074248413778832e+02
-7.846593702241440269e+02
-1.280374178543946527e+03
-1.018744825433864548e+03
-4.538535646555628773e+02
-4.517690393212234312e+02
-4.473655535132796217e+02
-4.355197474153337680e+02
-4.040838450772361625e+02
-4.792482762578745792e+02
-3.120644149051034333e+02
-4.433822165209011814e+02
-2.282124905613575550e+02
1.562832921220777678e+02
3.061420897110754709e+02
3.655422998043695770e+02
8.936074011329121731e+02
1.058174436900896353e+03
9.663904310547386558e+02
1.129243613724706393e+03
9.555059684791458494e+02
5.999731097070026635e+02
4.716492967515016517e+02
-2.912714679285746797e+02
-9.567117888300487039e+02
-1.884657624605131105e+03
-2.300267432806739180e+03
-2.231675881096202374e+03
-1.468746476864483157e+03
-1.397309604977921254e+03
-1.395408409829378115e+03
-6.451406357276259769e+02
-3.327731670938176194e+02
-2.151061139066822747e+01
4.037990684670137966e+02
5.931008736062784692e+02
6.051376105325006165e+02
9.921874919163254845e+02
1.082504800932461421e+03
8.902221188549888211e+02
8.757194369844372659e+02
7.344065439473648667e+02
1.166936093749115315e+02
-6.742317119065803581e+02
-1.249458044605578834e+03
-1.929293865653277180e+02
5.024836173286256553e+02
5.038884112465075304e+02
2.125177910353303190e+01
-6.525573899539421063e+02
-1.785948350882906652e+03
-1.247405821005351982e+03
1.498747090825983541e+01
8.521360370768175585e+01
9.045664011992380438e+01
1.560221862614236841e+02
4.811166661027897931e+02
7.445179430833749166e+02
1.319111881765237740e+03
8.414269373607623947e+02
1.318198358615883990e+03
2.116724904170271657e+03
1.972671993938674632e+03
1.416575753128677889e+03
1.124248734057345928e+03
9.051102194397112726e+02
8.098531353385296825e+02
5.745300332606555003e+02
2.169807532624904240e+02
1.376957184516899133e+02
3.173576595367587316e+01
2.143275210630230845e+02
1.621736087385872054e+02
8.405814646454730337e+02
1.337916408772335217e+03
1.134138387357289503e+03
8.381862769504504058e+02
1.141957848151054804e+03
1.360596725276842790e+03
1.598169327676193916e+03
1.631096622916976230e+03
1.500958144852591204e+03
1.954161119928904554e+03
1.668829961500103991e+03
9.267503698126062091e+02
9.710893488264445068e+02
1.237238067942644193e+03
7.892579370129930112e+02
-2.191440222039938703e+02
-2.803746584440039555e+02
2.512261775372908801e+02
3.576213425521549993e+02
2.811786504604327206e+02
-2.882765372307217149e+02
-1.463262866690995168e+02
5.361755089004328738e+02
7.522242311685838558e+02
9.431301803827351478e+02
9.194733428298958415e+02
7.751849634934153528e+02
1.338970504547882683e+03
1.811979273463385198e+03
2.226222682621373224e+03
1.464696857770091356e+03
5.514495292940206355e+02
7.723353321335783903e+02
8.793567950821317254e+02
4.566821054691323525e+02
1.362881134932815712e+02
1.200871578745329344e+02
-7.419605175464754439e+02
-2.808000212688993088e+03
-6.257058764497802258e+03
-8.070956865682507669e+03
-7.160646926093705588e+03
-6.486031068141015567e+03
-5.935243552567075312e+03
-4.606507548960843451e+03
-4.263726401557986719e+03
-4.233685765981546865e+03
-2.483020920165558891e+03
3.395372321418653883e+03
3.831379423642150414e+03
-1.426709564220221637e+03
-4.079932568459674258e+03
-4.439402816989006169e+03
-4.655383488188642332e+03
-4.611068050230973313e+03
-3.315345614443203431e+03
-1.610160341799314438e+03
-5.293359799153809035e+03
-6.291728358572247089e+03
-5.596088591247064869e+03
-4.950695612761865050e+03
-3.895619252314557798e+03
-3.468430855269159110e+03
-3.145044918931510892e+03
-2.482981708137228452e+03
-2.636456098593971547e+03
-2.742979388298268077e+03
-2.166224702926765076e+03
-1.736270289657433977e+03
-1.469225879276060823e+03
1.256012740165378091e+03
1.963482837380212686e+03
-1.972785623524449647e+03
-2.855659529092339199e+03
-3.853964421924152703e+03
-4.110787609942760355e+03
1.135017337105429533e+03
3.919350540727938551e+03
4.950107560983277835e+03
4.799382115037956282e+03
4.606357248816059837e+03
4.814223391293686291e+03
5.265041556071872037e+03
5.355758171392910299e+03
4.809506476372138422e+03
4.318367954277640820e+03
4.657497864136816133e+03
4.092699794057161398e+03
2.953872909788217385e+03
2.617190386868323912e+03
2.568823535742953482e+03
2.642982112733521262e+03
2.494490272222100884e+03
2.168290879533331008e+03
2.118597961718271563e+03
1.651135292977286326e+03
1.877007166107309331e+03
2.910431536728591709e+03
3.114503747721680156e+03
3.048291422822911954e+03
2.841002836877962636e+03
2.156674580390651499e+03
2.362185709274854162e+03
3.076765599021830894e+03
3.297798597952082218e+03
3.159306571757225356e+03
2.167208774747683492e+03
1.320194154922098733e+03
1.276082469347253436e+03
1.595918130370920835e+03
1.533052154737455794e+03
1.054680892790185908e+03
1.517783759437231311e+03
2.413407021280282152e+03
-8.175007498411813458e+02
-1.638943806460748931e+02
5.071489541290136458e+02
-6.253112232856598212e+02
-1.320842061597247948e+03
-6.716275380107100546e+02
-4.844245216396952287e+02
-4.506764906673386690e+02
-4.543862156878998917e+02
-2.435884269620075600e+02
1.102466754404361154e+03
2.080188638671393164e+03
2.323458460871892839e+03
3.148115259782216981e+03
4.188874322134581234e+03
2.317169926354357358e+03
6.375006701040916823e+02
6.708380792445534553e+02
-2.625454478602543418e+02
-4.937380955255104027e+02
-3.769269414077282931e+02
5.710405123076644713e+02
9.342010343125913323e+02
1.133432493397223425e+03
1.270553978830008418e+03
7.955204750274173193e+02
-3.425070017017494024e+02
-8.241916291185191312e+02
4.867774648598729641e+02
1.706937099966211690e+03
1.929800085819191509e+03
1.772881055395513101e+02
-3.702474024265770822e+03
-5.553477887596387518e+03
-1.812666835565205702e+03
3.354928628631324045e+03
5.113151941387474835e+03
4.967980129159128410e+03
2.921446138402719043e+03
1.029514685006393620e+03
-7.087060412932599718e+01
-1.835730094610171363e+03
-4.671060329633662150e+03
-6.887777163307595401e+03
-6.726905741324831979e+03
-5.916612561749157976e+03
-5.269913800307775091e+03
-4.290805461062434006e+03
-2.960390431605798312e+03
-9.267565476680712209e+02
1.820817445338537937e+02
-8.829769231710022268e+02
-9.068827277964990117e+02
1.283434272394633581e+03
1.282887303290486443e+03
-1.383631977509186527e+03
-2.628063038066925856e+03
-4.951369485597231687e+03
-7.758497956136945504e+03
-9.702352459121415450e+03
-1.098603738787971815e+04
-1.190910508615739309e+04
-9.255685347216398441e+03
-6.907697402119032631e+03
-4.573155298860405310e+03
-1.180059659140041504e+03
2.709573612291218069e+03
2.012749954890320168e+03
-9.436237215466278485e+02
1.377479381008913151e+03
6.346075855780998609e+03
7.673104004894951686e+03
7.595515203370008749e+03
7.024285751882696786e+03
5.133405525514959663e+03
3.659874703135757045e+03
3.425595580556141613e+03
4.486573272708658806e+03
3.981822547348241642e+03
2.952329207513104848e+03
2.920992172195344665e+03
2.535899142830973233e+03
1.226110795386450945e+03
-2.024990050227496283e+02
-3.640255831700208091e+02
1.762425580557216335e+03
1.767838528205483954e+03
3.020261122824021186e+03
5.640610735109176858e+03
6.061818225840667765e+03
3.560908881365828620e+03
8.619843736730042565e+02
3.800528377858645399e+02
6.741562240007392575e+02
1.329202370168080733e+03
-6.073827986874209728e+01
-3.201651699918022132e+03
-4.092583958295484081e+03
-6.244901078290065470e+02
2.866642884733319534e+03
5.666724638232908546e+03
5.560689272504529981e+03
2.279599819976783692e+03
5.746104510667698406e+01
-2.527777902727455967e+03
-7.471063493697895865e+03
-9.576290263689803396e+03
-1.023646619217709667e+04
-8.377602184848810793e+03
1.126332433577657639e+03
5.278415021955610428e+03
1.333677708444933160e+03
-4.178205841715109159e+02
-3.430993666986910739e+03
-4.475879327945299337e+03
-3.069613965941474362e+03
-1.622287974554807022e+01
4.327483508823826924e+03
1.014668596781906854e+04
1.213839834574406086e+04
8.436638648517340698e+03
4.479365219516351317e+03
-2.284271594417928952e+02
-2.893675015982179502e+03
-2.003269666417005510e+03
2.597896562228148923e+03
6.387864172900333870e+03
1.048958584777514989e+04
8.079139917222989425e+03
-2.601330775268684192e+03
-7.828818005281242222e+03
-2.915334208080364988e+03
-2.928803294045499570e+03
-1.748184566799088998e+03
1.784652292519754383e+03
6.934766611510029179e+03
4.008317644262518087e+01
-2.767368985632474050e+03
-8.570446931010870685e+03
-9.231102749265397506e+03
-7.031364687385263096e+03
-8.630223939053708818e+03
-5.276602785475682140e+03
1.715465740795479860e+03
8.989789211351442191e+02
1.696095524424294581e+03
-7.250444581737461931e+02
-2.568443803665815267e+03
-4.223113961231443682e+03
-4.253077612920686079e+03
-6.422239459390926640e+03
-7.495603692150561983e+02
5.909949874425050439e+03
2.922404796813924349e+03
-5.634062580589180470e+03
-5.406480703818532675e+03
-3.294867663085125059e+03
7.723824149274685624e+03
7.485723142027070935e+03
2.599705320073190251e+03
3.609728276344767437e+03
-2.313049936048357267e+03
-5.413474090471013369e+03
-7.775337879328021700e+03
-8.197659699847132288e+03
-7.318473230519913159e+03
7.283027253139306367e+02
2.287708380230830869e+02
2.049963077543313830e+03
2.675791925285912384e+03
2.118084810258976631e+03
1.160825808575449628e+03
1.394985589010892454e+03
1.934666001125031926e+03
9.649390586722651051e+02
2.088218214897183600e+02
2.107298338345571210e+03
4.228468945942728169e+03
4.973436937584474435e+03
5.495284149766530390e+03
4.591006936422862964e+03
3.314706929788870184e+03
3.031478144485291978e+03
2.394130827798414884e+03
2.822584375953442304e+03
1.183871421396602045e+03
-3.843111731214212341e+03
-7.144521723546554313e+03
-9.338109679378756482e+03
-8.569725747524238614e+03
-6.494706395647017416e+03
-5.825486637501093355e+03
-2.596740152461768503e+03
1.591908546114420915e+03
6.012093620322341849e+03
6.297065121150154482e+03
3.301979003608251787e+03
1.032699981197762327e+03
-1.010418354214188184e+03
-2.191199771679372134e+03
-9.623530752685529706e+02
2.603170967133383783e+03
3.372366431484269924e+03
1.697853268475543018e+03
4.770954035750326511e+03
9.874269070271229793e+03
8.767001715459105981e+03
3.113939603909924244e+03
1.813459574818407191e+03
3.655192891730692736e+03
3.962141052144900186e+03
3.413300281598282254e+03
3.759328629293814629e+03
3.231539666445893999e+03
1.602738227382976902e+03
1.229966313550092082e+03
3.781245579903953967e+03
4.111550451395513846e+03
5.386948170516307073e+03
5.257837268500153186e+03
2.845963248354328243e+03
3.719223138229141910e+02
-8.243887760297833438e+02
-3.061138629140049261e+02
4.776635647142413177e+02
3.120590656484568512e+02
1.275846717476203594e+03
3.137972896328810748e+03
5.508375938157015298e+03
5.137934363712037339e+03
3.773651389930082587e+03
3.017557310515727295e+03
2.941613463502671493e+03
4.548744216760999734e+03
4.441792711226010397e+03
3.700775403374051166e+03
4.580936653719408241e+03
1.661154018434298450e+03
-1.113794774792379712e+03
-2.274069859155007180e+03
-2.497843150117143978e+03
-3.478156445204290321e+03
-3.607942306237141111e+03
-2.041120294218508661e+03
-1.683711576381750319e+03
-2.414858814803021232e+03
-1.624652367812919920e+03
1.525961143143227673e+03
4.839945281020506627e+03
3.316332095311099238e+03
-1.062876186480225897e+03
-6.711752701514771616e+03
-8.585318934407043344e+03
-8.719509710995002024e+03
-8.668340068406967475e+03
-8.759007138892548028e+03
-1.054563314231481490e+04
-1.158780306874183589e+04
-1.412589872087039112e+04
-1.609696557089650196e+04
-1.088485429080916765e+04
-5.899606238639112235e+03
-2.980290470452071531e+03
-3.727791814993778644e+03
-3.746186466245202155e+03
-2.789548639768454905e+03
-5.375015050428329232e+03
-2.933727690069626078e+03
-1.882639898096994102e+03
-2.149662752624356017e+03
-5.168072012035806893e+02
4.287717679316942849e+03
3.472190900630615033e+03
1.935859563391176380e+03
2.761638124209737271e+03
3.138586168923597143e+03
1.686719106675924422e+03
2.028852396829705185e+03
3.692726525702887557e+03
3.412310272618447470e+03
9.305713288429971044e+02
-2.399529101422086114e+03
-4.865981313769662847e+03
-4.203693884478190739e+03
3.038327333497232303e+03
8.261885960240280838e+03
7.421955949399838573e+03
4.619655017775883607e+03
2.932185152987853598e+03
2.242802483107720946e+03
2.913468400365937214e+03
3.486765052015491165e+03
3.473362814746731601e+03
3.259453155974793845e+03
2.876236800064742511e+03
1.896931627186115520e+03
6.165491529254959460e+02
-3.519543157864466139e+02
-1.533537148009957036e+03
-1.507095610601204498e+03
-4.055781396831971506e+02
-4.831240469659703081e+02
-3.807884799948591308e+02
3.844605989233700711e+02
6.235308622266683187e+02
1.713508546874967351e+02
1.389356300272405633e+02
-7.685198394478553610e+02
-1.772759266786884154e+03
-1.761927154196066112e+03
-2.358257613073100856e+03
-3.673619378416111431e+03
-3.765747286432779219e+03
-3.251644818532912268e+03
-1.777159779195914780e+03
2.323682571749186991e+03
6.734726124076755696e+03
6.488070119253352459e+03
4.493158340632136060e+03
2.871789567872964653e+03
1.723795429855838620e+03
1.892024253866222352e+03
1.413600126332994023e+03
1.234515317089535074e+03
4.637455213409832595e+02
1.824029363390914398e+02
4.451165973835934437e+02
-5.040590851752752855e+01
-1.079936256784009629e+03
-1.459247990564792190e+03
-1.170303328005270032e+03
-9.119729407045659855e+02
-1.595239623844288417e+03
-1.997127473393772561e+03
-1.891734789423839629e+03
-1.729884420211676570e+03
-2.377423882255740409e+03
-1.937408141152933013e+03
2.570829490163924902e+02
1.840132250920841898e+03
2.595808052012067492e+03
2.219983171278656300e+03
2.371549525128560617e+03
3.189891949919429408e+03
2.951957608958744913e+03
2.098490765347702563e+03
1.116626541315066788e+03
1.169676907862375174e+03
1.642793224283190057e+03
2.090828064314085623e+03
1.262699380894651767e+03
7.163862893916804069e+02
6.110567461254897808e+02
2.879351929593211139e+02
1.425909136360811999e+03
2.378574532313606142e+03
2.137917460090522127e+03
1.722979900520525916e+03
1.639981458349515151e+03
1.534212016177608348e+03
6.946699821207338346e+02
-1.056951565232257373e+01
2.038050101066180559e+02
5.786676761238541076e+02
3.329258967099652295e+02
-2.044966913245179398e+02
5.789097043396944287e+01
3.302439526176246432e+02
5.010363712840419907e+02
1.179207113484522324e+03
1.125988510322564025e+03
5.523616867907538790e+02
-1.188994139120133923e+03
-1.850399950115738648e+03
-1.195055554968063461e+03
-1.072136932118944287e+03
-2.000260337045403730e+03
-2.556990740394288423e+03
-2.839219849904953207e+03
-4.050777990906096420e+03
-4.721703992875131917e+03
-4.577212389512324080e+03
-4.098616077492210025e+03
-4.836965523107649460e+03
-4.849620508658050312e+03
-4.654773337794980762e+03
-3.890581661038981565e+03
-3.230275401841005532e+03
-2.953500581574047828e+03
-3.300463028825115089e+03
-2.377931279863001237e+03
-1.015318687240661689e+03
-9.765900790285962785e+02
-1.425062488522467902e+03
-8.428073689528322348e+02
1.674528297716827581e+02
3.014583977237655290e+02
2.468911955939296377e+02
3.743231515583043461e+02
2.861389358499725972e+02
-6.053955462679091397e+02
-8.885856736741656050e+02
-7.158528958792696528e+01
9.530173756383564978e+02
1.421285243437007011e+03
1.114940185664049523e+03
1.265132181748495441e+03
1.179151475274448330e+03
9.909439652546450361e+02
9.563273931978744713e+02
1.569430980656648444e+03
2.137297563575133154e+03
2.318636144314438297e+03
1.828235590472939293e+03
1.654071823246456006e+03
-3.297996678816227956e+01
-2.654209153059725395e+03
-4.679449783432053664e+03
-5.781125195470242943e+03
-5.369114544305138224e+03
-4.867723118939590677e+03
-4.459055170072713736e+03
-3.597344163421348640e+03
-1.366250043204622216e+03
1.387897295749997511e+03
3.152629077682510342e+03
3.446143721505959547e+03
3.336810331305016007e+03
2.532432075123464983e+03
1.302766536099010864e+03
7.072061235263367962e+01
-3.275248534721305873e+02
-1.391988057253306351e+03
-2.163919919010367266e+03
-1.825397008623843703e+03
-3.032344928791991379e+01
1.029236388034655647e+03
2.007421280650581821e+03
2.216201277249458599e+03
7.824080982381284457e+02
7.750503342341270354e+02
1.297029319945850148e+03
5.854590081980314835e+02
-1.367426334667813990e+03
-9.887091410070308939e+02
1.566561515551911270e+03
2.348150102788818458e+03
3.033910527424408428e+03
3.641946729612571744e+03
2.909923447176081027e+03
-1.421416840035762561e+03
-9.110432684829005439e+02
2.447226078888394568e+03
5.449558444745992347e+03
1.819920746229916404e+03
1.006380029175576283e+03
-1.869171714329369934e+03
-2.107982522012755908e+03
-1.703062910713985616e+02
-2.673018288554728770e+03
3.596123712014545504e+01
-2.369780030435738809e+03
-2.014487573346412091e+03
-3.660631773505448109e+03
-5.777979000206629507e+02
-1.469279987198108074e+03
-1.199324640187639261e+03
-3.540594563103850305e+02
-3.825511063449450376e+03
1.523936937748035803e+02
1.233736097394777062e+03
-1.974425959718958438e+03
-2.437287659239490040e+03
-3.207230475608369943e+03
-1.903189371424730325e+03
-1.353177794892571455e+03
-5.383140907841529952e+03
-2.640984543096332800e+03
-1.208679387379558875e+03
-9.433144236509047005e+02
-7.309336348872955114e+02
2.287476899646521815e+03
3.211923648463041445e+03
3.498312565331742462e+03
3.549546922214989991e+03
3.439408795454865867e+03
2.956012214418146414e+03
2.542447650222635730e+03
2.822742104096654657e+03
3.037829816040612513e+03
1.833506940911111087e+03
9.228904589892784998e+02
3.760076640435877380e+03
6.605877826111485774e+03
7.179514089788822275e+03
7.035114150561825227e+03
6.128585089972745664e+03
4.243934539980375121e+03
3.154254567865637000e+03
3.363431153366228500e+03
3.272244212245148447e+03
2.619676280165193930e+03
1.767688660442367564e+03
1.611071003481977641e+03
1.038679091813161449e+03
1.707474518930989689e+02
-4.922606313665328912e+02
-1.112958593348098930e+03
-1.256298392872974773e+03
-3.705031559631885330e+02
5.033620778019869704e+02
3.013879834951009684e+02
-5.895088771618122792e+02
-2.532326106474072276e+02
-9.296864928810035735e+02
-1.822590348075291331e+03
-2.505978922404402510e+03
-3.384553704250369265e+03
-3.626323613977992864e+03
-2.272631964503147628e+03
-1.419100382570324655e+03
-1.092541091599895935e+03
-2.076991078152915179e+03
-3.609247722088974569e+03
-4.713652345952197720e+03
-5.256061006661298052e+03
-5.076238965592034219e+03
-7.215163711115219485e+03
-9.196981346493341334e+03
-8.299595485029372867e+03
-6.530006621188645113e+03
-4.442402072668840447e+03
-7.007238695547125644e+02
2.003219699609467398e+03
2.982287653997887901e+03
3.487322862290297053e+03
3.712558148519670794e+03
3.542319151239868006e+03
2.818735338958486864e+03
2.312819723239277664e+03
2.154388734950759499e+03
1.289912027675892659e+03
8.643388968378312143e+01
-6.725712874262264904e+02
-1.205826548044831497e+03
-1.447208286379732499e+03
-8.908039741776566416e+02
3.542080310425800462e+02
4.295480689128272900e+01
-5.033186465861334113e+02
-3.295564534984915781e+02
4.473369481568502692e+02
1.060537122625513121e+03
1.526139309178546455e+03
1.406255140949868292e+03
7.120014212259092119e+02
3.773634271677669290e+02
1.682863390063775455e+02
-1.712225737687269600e+02
-2.701335577565989183e+02
-1.320371930817471593e+03
-3.203974437469064014e+03
-4.361902615775662525e+03
-3.849001430320141026e+03
-2.171957389905496711e+03
-1.377751450822079505e+03
-1.219421480779244575e+03
-1.567808355118502277e+03
-1.890782256518830309e+03
-1.634320861924740484e+03
-1.135397774164624479e+03
-2.488950342964856191e+03
-6.585203664134094652e+03
-1.049429966941398379e+04
-9.256775309470020147e+03
-6.549318341948799571e+03
-5.410897223221792046e+03
-5.796471663092333074e+03
-2.708089487300292149e+03
2.542350176415829083e+03
3.892942866988905735e+03
3.828853551587391394e+03
3.914099829571171540e+03
3.514681471970464372e+03
2.760721650902366491e+03
3.301347772559430268e+03
3.491658287015121005e+03
3.356650082912166908e+03
3.008374255551429542e+03
2.975946354506755142e+03
2.705447731406894036e+03
2.860944214031137562e+03
4.091479540593937600e+03
5.492162293315452189e+03
5.296975891547879655e+03
4.581834332218541931e+03
3.746907436518084978e+03
1.633273985340213812e+03
-1.609647125306908606e+02
6.911503817716550202e+02
2.259614035440590214e+03
2.295565989556141176e+03
1.875064291184236481e+03
1.864168195754784165e+03
2.691975328734827144e+03
3.305474873527499312e+03
3.419673360578281063e+03
3.488714088470428578e+03
3.271605686208204588e+03
3.294372275742839975e+03
3.350116733601097621e+03
2.575726904867254234e+03
2.150348627981687969e+03
2.058157758675875812e+03
1.916086202030338200e+03
1.519066567141487212e+03
1.051167476993390892e+03
1.195031011410582238e+02
-6.008820572148628116e+02
-1.429078641032338055e+03
-2.833105998882255335e+03
-2.898864174570880550e+03
-1.833244510389346260e+02
1.340409870970314842e+03
8.133902232470322815e+02
6.616579308896224347e+02
1.538181164347708545e+03
3.902059837592487384e+03
4.996318586147142923e+03
4.136033894344337568e+03
2.535166054956300741e+03
9.138015947749776160e+02
1.045842824973070492e+03
6.143699583183552022e+02
-7.718253565200262400e+00
-6.544829617066561696e+02
-9.667951497573484403e+02
-8.206942603680436150e+02
-2.432996529266535504e+02
-6.912209782764480170e-01
-3.588621014161336007e+03
-3.715167496431934978e+03
-3.062510531192965573e+03
-1.812804029379346275e+03
1.892917594218481554e+03
-1.230325765376694335e+03
-3.044949747142532601e+02
-1.778709326840681115e+03
-4.157667650079766020e-02
-1.716432979199526471e+03
-1.757888122603992770e+03
-2.393558900026893753e+03
-2.013492218206122743e+03
-2.559600192347897973e+03
1.070164205208122667e+03
2.848647894636737874e+03
2.437474512914701847e+02
-7.765214946904994804e+02
-2.399268808109656675e+03
-2.236645661786771598e+03
-9.157910890907952535e+02
-3.437727727570038496e+03
-2.683408043580142021e+03
3.202829838522927730e+01
-2.218497746703562370e+03
-4.618970643199112601e+03
-1.393445477311016475e+03
-4.509060703019431458e+03
-3.763872344595389677e+03
-3.100895996394915073e+03
-4.870094463404444468e+03
-5.320520037835955009e+03
-1.294085829475476203e+03
-1.922711275910951599e+03
-2.636411149303761249e+03
4.446474340894252464e+02
3.591935016827237632e+02
9.491844217237726298e+02
2.825132630485138634e+02
-3.029599592735617648e+02
5.736021256574946392e+02
-1.951013456619893077e+03
-2.920896411425995666e+03
3.179529891661522925e+02
1.352616302798434845e+03
8.131674775487557554e+02
-3.563812776591180977e+02
-5.651418981068106859e+02
-6.722722503329569008e+02
-8.367737813041578647e+02
-8.626895733447819339e+02
-1.791322828428003788e+02
1.416532074164265396e+02
1.369609254902155726e+03
2.240747345578350632e+03
2.284000160785391927e+03
2.424407111210836320e+03
2.855837063918037529e+03
3.063196965020666084e+03
2.428455581436075590e+03
1.676660949392413613e+03
1.014649810387724187e+03
4.791505190381136572e+02
1.750594401059056509e+02
7.282598630335712642e+02
6.311580064484306831e+02
-4.934369970147362778e+02
6.205927064417642214e+02
1.241148552641035167e+03
8.550535434583272263e+02
4.301346206186612449e+02
1.026533766686955460e+03
1.279330559650600435e+03
1.299575885837454052e+03
1.558400339201955376e+03
1.731424875041451060e+03
7.237721375246277375e+02
-4.867542293253342791e+02
-1.623237149960355055e+03
-1.352861201511534546e+03
-6.670188563834997240e+02
3.153890129584530655e+02
2.153644471603648981e+03
1.724859687383614755e+03
2.409232243029604490e+02
8.708336092183888013e+02
2.340399585792877133e+03
4.005701968821403170e+03
4.931132449205652847e+03
4.688376378394239509e+03
3.692514786097112392e+03
3.981492773937565289e+03
4.163853783300986834e+03
3.208341177147804046e+03
2.006338582812738196e+03
4.568546941262645191e+02
6.888363600127364350e+01
6.702231092343607770e+02
9.348654721159324481e+02
1.683879508696048106e+03
3.054573896401449019e+03
3.184691704735905660e+03
2.503135564207355401e+03
1.837947253365243341e+03
2.030133418642270044e+03
2.236630278373416331e+03
1.915486179908200029e+03
1.714863725430623617e+03
2.232745979950266701e+03
2.216816671449956630e+03
9.500823950523622443e+02
6.807117412213038961e+02
3.907165920640438230e+02
1.165190724975518833e+03
2.650259736203988723e+03
3.873922336878631540e+03
4.539091257118425347e+03
4.180839189024298321e+03
1.934268928114660412e+03
-2.283612481703050435e+03
-6.595888703136226468e+03
-7.639509579959977600e+03
-7.555362274092453845e+03
-6.033397857383535666e+03
-6.429603847415784003e+03
-7.129994340826055122e+03
-7.392638029746219217e+03
-6.287484140163576740e+03
-6.359377593193496978e+03
-7.394329930862165384e+03
-7.017391847770905770e+03
-4.775369130842135746e+03
-2.513192715516335284e+03
-1.293901362042855226e+03
1.312563950838197570e+03
-1.744762296673040510e+03
-4.276057144242906361e+03
-4.368248198903578668e+03
-4.091227346086970556e+03
-5.400847204209707343e+03
-6.762014432878689149e+03
-7.881718094372170526e+03
-7.708005087495153930e+03
-5.214880266460463645e+03
2.990380916295292835e+01
1.939439861701223208e+03
2.735570922624056493e+03
3.105184230162689346e+03
3.583336429670759117e+03
4.226905301557078928e+03
4.312980870267461796e+03
3.337650057428885702e+03
2.859992340992439495e+03
3.456034189767849512e+03
3.639807545222224689e+03
3.541308866110262898e+03
3.376562634064462145e+03
3.410607954262123258e+03
2.937512028336338062e+03
2.220299454443045306e+03
1.735053312257341986e+03
2.692853337495447249e+03
2.591589467129653258e+03
5.221712765998295254e+02
-1.110420624811235484e+03
-1.125968208576324514e+03
-1.529387291040628497e+03
-1.887709955023931116e+03
-1.622971114531455214e+03
-1.537106026147343073e+03
-7.340607155302664069e+02
4.952447766801649323e+02
2.127909310729067784e+03
3.889926760552290489e+03
4.123282352179001464e+03
4.101062550320643822e+03
5.086277920260864448e+03
4.375020511982008429e+03
2.172429586070075402e+03
9.694882490281917171e+02
1.844061640412387305e+03
1.817097880200324653e+03
1.193716049841178574e+03
8.989376435972534409e+02
2.657693776366295992e+02
-8.577108859641225536e+01
-4.447216136589169651e+02
3.638272105279392576e+02
8.870428662541511358e+02
2.023297794017254958e+01
-1.161281238375422049e+02
8.377049401484124473e+02
1.309304938694116117e+03
1.545754287026790280e+03
1.427328437738189905e+03
8.940138626848029162e+02
7.815594035102676571e+02
1.183837710223664772e+03
1.317898858003853320e+03
1.069722514215298588e+03
6.253095521706135287e+02
5.868585701815935352e+01
2.997686935937140333e+02
3.266043788182662979e+02
1.802253636627429501e+02
-4.243547427811764692e+02
-8.111396974450539119e+02
-7.480262829448247430e+02
-8.440482440016342025e+02
-1.284263807315896656e+03
-1.783729762391049690e+03
-2.178352948773703247e+03
-1.195115046088463941e+03
-2.199859192464528235e+02
4.502237415077946139e+02
4.584925501427435961e+02
4.936076437101260126e+02
6.833924516079028990e+02
1.399057291089869750e+02
