-1.688756375716986611e+02
-2.120391232843578564e+03
-4.880384667286630247e+03
-4.242788502485995195e+03
-1.765562370726383733e+03
-8.726278386847021693e+02
5.022439640247600323e+02
6.071402958721637333e+02
-7.009466419110160587e+02
-2.814136624910798673e+03
-6.816562065553082903e+03
-9.032076056722542489e+03
-1.477337491570512066e+04
-1.683229309176217066e+04
-8.821902005317047951e+03
8.046213187377185250e+02
8.777933664696893175e+03
1.083610251604177211e+04
1.008229019162451914e+04
1.142554338737309081e+04
1.361082862885842405e+04
1.274888160756139041e+04
7.937575956592197144e+03
3.855163898974686617e+03
6.857758721486519789e+03
6.615288838760176986e+03
1.799870151608818560e+03
1.316492700585619559e+03
4.960039089320694075e+03
8.061588783780746780e+03
5.939196745870000086e+03
-6.426264617424443713e+03
-1.576796022101226481e+04
-1.208954303651054579e+04
-7.648861817988128678e+03
-3.058112548369751039e+03
3.017301560804228757e+03
4.120583659044819797e+03
-2.941922932103557287e+02
-3.884978437320750800e+03
-1.681172481745603591e+03
4.822260491153790099e+03
6.369203018764860644e+03
4.861499350191401390e+03
4.767529555729290223e+03
6.783402357527535969e+03
5.515885773190825603e+03
9.151347895811632043e+02
-3.063065459860005376e+03
-1.207038216932298837e+03
3.467442205000750619e+03
6.010231077121886301e+03
6.410445070005058369e+03
6.990372881057416635e+03
7.116626580221487529e+03
5.345033016958523149e+03
2.106339054574458714e+03
-1.049239033853294103e+02
9.896654908053122313e+01
-3.959039310076048537e+02
-1.130477702231910143e+03
-3.626254918031258512e+03
-8.405235419748396453e+03
-1.075643465182108230e+04
-1.397175475030024973e+04
-2.014047147038170442e+04
-1.405039857463747285e+04
-7.634799159418736281e+02
8.336153356241873553e+03
1.232470432554206309e+04
1.042668490833278156e+04
1.129132375577457060e+04
1.436866975022974111e+04
1.412354175076957290e+04
9.913160156292964530e+03
6.143617826205594611e+03
3.298430385130839568e+03
-1.914613179405187338e+03
-3.791439222598575725e+03
-5.512042903130136438e+02
3.413907687889633053e+03
5.060842112586731673e+03
5.369621453796195965e+03
1.864303298963094903e+03
-2.719021632593906361e+03
-7.706463297897253142e+03
-8.726036848084335361e+03
-6.333680360639016726e+03
-9.559568504945169479e+03
-1.052973261674763489e+04
-4.188890516155897785e+03
2.747851711904686908e+03
5.476345714034686353e+03
2.648530230261504585e+03
-1.598537047387600069e+03
-3.213899822942344144e+03
-3.272605660454044937e+03
-3.453661501813477116e+03
-1.635189473865098989e+03
1.590033939992405276e+00
-3.486248612188730476e+03
-8.458569844375517278e+03
-9.666428706591941591e+03
-8.992933698997536339e+03
-4.484977848438912588e+03
-1.701513191425041441e+03
-2.488570952992194179e+03
-2.148113826305198927e+03
-2.019103015153960087e+03
-2.688447755805925226e+03
-3.212144974757240107e+03
-4.525331913088779402e+03
-4.647171492451841914e+03
-3.273712663090577280e+03
-2.615959818185937365e+03
-1.550922703838258258e+03
1.476525104389184435e+03
-4.055149756047836718e+02
-3.376206754490113781e+03
-1.832620416396240216e+03
2.060272011377143826e+03
2.319482232438811025e+03
-1.227954847306281863e+03
-2.445056188611990365e+03
-2.666658201095414370e+03
-3.096626367648941141e+03
2.789796025647580677e+02
5.369146094519133840e+03
6.776989301935334879e+03
3.189560586682688609e+03
1.741909379371012164e+03
7.620567879276478607e+02
-3.399993628348636321e+03
-7.718183091318548577e+03
-6.633570351588164158e+03
-7.992267169090209791e+02
2.030041342547909608e+03
3.532676866981984176e+01
-5.473464553906892434e+02
2.733975609543844712e+03
5.215411397569341716e+03
4.733007835703048841e+03
1.980624247784756562e+03
1.543225252657447982e+03
2.901014160495068609e+03
3.546960712786003114e+03
3.522053676416488543e+03
1.296607230487115885e+03
-1.533701632967966475e+02
3.309033673926999199e+03
7.594028568449587510e+03
7.379039623482002753e+03
6.291038928252610276e+03
6.754035056373428233e+03
6.859122762198063356e+03
3.066947427087415235e+03
-3.121625006325302365e+03
-9.291359340953520586e+03
-7.706023842336222515e+03
-3.340715461461804352e+03
-1.078372346050731949e+03
1.110018733627746997e+03
2.188580657472471557e+03
2.712489943367744672e+03
4.914917114403046071e+03
4.993031630513273740e+03
4.015684129919459338e+03
3.918742843981867736e+03
4.285350680140473742e+03
4.835758754527324527e+03
3.492694236115532021e+03
-1.824020101058335968e+03
-5.685253057167478801e+03
-6.785134406245052560e+03
-4.929504832965007154e+03
-4.772295902860117167e+03
-6.911658568784398085e+03
-6.725596306803983680e+03
-2.873046258725108601e+03
-2.510050534453716864e+02
1.631493113174546124e+03
5.032437214042999585e+03
3.997883055656004672e+03
2.494910782770797141e+03
4.017683305286314408e+03
5.822393076089817441e+03
5.762063376866966792e+03
5.113562738004023231e+03
2.900084002968785171e+03
1.256442823986594846e+02
-2.074785933018476953e+03
-2.891206335674152342e+03
-1.139654125923551646e+03
1.680944514833664925e+03
9.666129333241584618e+02
5.885616052872163664e+02
-6.515970951424209545e+01
-6.027996539924500894e+02
-2.736462000014180376e+03
-5.895103014044829251e+03
-6.051812375466262893e+03
-6.149544438439473197e+03
-5.318240401239176208e+03
-2.097160229532203175e+03
-5.134726322483385985e+01
1.317311366348875254e+03
7.387847588976195539e+02
-6.267889018145137925e+01
2.465013142479559519e+03
4.562889214527679542e+03
5.148852366073182566e+03
8.859096359019842566e+03
9.568775023552327184e+03
6.647660293202273351e+03
4.365345815386031973e+03
-6.103025008017935988e+02
-4.296210914628609316e+03
-6.094206462111915243e+03
-6.905172250449446437e+03
-8.808315688147631590e+03
-1.093465233514744432e+04
-8.370142949161538127e+03
-3.378844183995725871e+03
-1.168069882171089603e+03
8.482662123411247421e+02
2.899459518066570126e+03
3.629484711106693794e+03
3.632396330414723707e+03
4.721257450870762113e+03
4.974050238796038684e+03
5.453823311322776135e+03
4.666488724455750344e+03
2.130002801620964874e+03
5.953296228547964120e+02
-2.065894162247334862e+03
-5.269697252039722116e+03
-6.879754648703785278e+03
-5.057866531187052715e+03
-2.606973700325308528e+03
-4.371002697213681927e+02
-7.112201831934103211e+03
-1.421271979879146056e+04
-9.913051081504814647e+03
-1.945259055150186668e+03
3.574605574130649075e+03
5.267512847951650656e+03
3.881609731464815923e+03
4.298108272523142659e+03
7.231203986501775944e+03
7.482562507944518984e+03
6.499856867522294124e+03
6.903192860446365557e+03
7.029727216026838505e+03
5.376442243404759211e+03
4.701015431646952493e+03
3.929587336889331709e+03
2.739210898644107601e+03
1.253737698236484675e+03
-6.007163477831308001e+02
-2.015072462864017098e+03
-3.123607497990589309e+03
-4.344516665131997797e+03
-3.434734378889423624e+03
-1.908331041250625276e+03
-1.292180276008331816e+02
-7.712921113544706486e+02
-4.244461169797052207e+03
-6.408522249555222515e+03
-5.107513573583455582e+03
-1.577145172513473881e+03
2.189334850594661475e+03
4.754044095731939706e+03
2.626655284944763480e+03
6.421031363052850338e+02
1.284724504408681469e+03
3.101664249288845440e+03
3.438719335387034789e+03
8.567898296855050830e+02
-1.700913558852356800e+03
-2.819032161609964078e+03
-3.019567175947410306e+03
-3.688978386904177114e+03
-2.503052129614925889e+03
-1.092404626605412204e+03
-1.027270127312045133e+03
-4.010151094592453660e+02
4.763616491018121906e+02
7.327955196056089449e+01
-3.359313544355210070e+03
-4.354398397904144986e+03
-1.383886362076467776e+03
1.261001727893404677e+03
-1.026897214933024543e+03
-2.752850408208757472e+03
-2.101527686540371633e+03
3.325071987463535947e+02
6.342664553296007171e+02
-7.566877854688423213e+02
-9.668069132609590497e+02
-5.942749869050704547e+03
-4.427252698600812437e+03
-3.534398529840566425e+03
-4.031357823060232477e+03
-1.638850714925959437e+03
1.623437757572676901e+03
-2.503929105699109243e+02
-1.634761748672238582e+03
-3.107927234456118185e+03
-1.628790196059537038e+03
4.252788942471553128e+03
4.772845482574758535e+03
1.312426133278064526e+03
-2.718318459911246464e+03
-2.433216712571467269e+03
-2.923301224247372829e+03
-2.207224901486582098e+02
3.497518203277859357e+03
2.036455735256870412e+03
5.182967308531173103e+02
-4.606708847468956947e+02
5.834251518968775372e+02
-2.223344532105614235e+03
-2.287628762016418932e+03
-4.123149797723289680e+02
1.838520871865050879e+02
1.820024193978122639e+03
4.204895106831544922e+02
7.837378186042840298e+02
9.645624807346986245e+02
-1.230226559581439687e+03
8.162495769877088492e+01
3.036497236707750289e+03
2.354446089988739459e+03
1.172437790989922405e+03
2.421688015283672485e+03
2.809983435119798742e+03
1.837900175798027249e+03
9.233324744299000031e+02
1.204394554159997597e+02
8.924699488851494777e+01
4.370559837813403306e+02
-7.992425696343080688e+01
-7.844486328849209258e+02
-5.045895329464624410e+02
-6.035651168275641112e+02
-1.146896721144423736e+03
7.754012461691033877e+02
2.516660890059057238e+03
3.429634896353365093e+03
3.672495811220406722e+03
3.898701616570439910e+03
2.837448127280529661e+03
1.354536758920999773e+03
1.208868859905706813e+03
1.429478742821967217e+03
3.932391037390019619e+02
1.510800551122880506e+02
9.870854872599501277e+02
9.795892510179547799e+02
-4.875849611757520847e+02
-1.854444786760485613e+03
-3.176292003774587556e+03
-3.513345598913075264e+03
-2.654611293249395203e+03
-1.224894350581933850e+03
6.728997059375890331e+02
2.730888253574887585e+03
3.332071006981882874e+03
3.234538938389128816e+03
3.277202652619120727e+03
3.427930520936846733e+03
3.013717730899051730e+03
2.817565149117508099e+03
3.369265629944272860e+03
3.393929520223969121e+03
2.718805045866073215e+03
2.132584362853802759e+03
1.334144015327200577e+03
3.726275657810350026e+02
-4.167729468271319320e+02
-5.532662469621316177e+02
-5.589721084292344813e+02
-7.399339406546987448e+02
-1.131492468204473653e+03
-2.848660040629069385e+02
9.762004133278227300e+02
1.886139258803017583e+03
2.392861999660168749e+03
2.540325780259592648e+03
3.163815572970564972e+03
2.515386304084629501e+03
8.836291585865817524e+02
4.830494865251390593e+02
8.947927373432464719e+02
1.425220157975997381e+03
1.226186661389117489e+03
9.503200425352476941e+02
3.225754433208427940e+02
-8.158323925838944888e+02
-1.862707222934139963e+03
-1.763213607812924693e+03
-1.454500995737464564e+03
-1.338564952110036302e+03
-1.355315624650984319e+03
-2.254525661063374173e+03
-3.780218749243116690e+03
-4.899822615324601429e+03
-4.020420381112761788e+03
-3.681722532810756547e+03
-2.827646872783433992e+03
3.497257429198613181e+02
3.134350115689959239e+03
1.561548904046096141e+03
-1.893362782065186821e+03
-2.482329982061471583e+03
-3.136968345900298118e+03
-3.791625958483517024e+03
-4.752031682395039752e+03
-5.072236702548187168e+03
-6.053292464230423320e+03
-6.613145878040976640e+03
-5.532919173272010084e+03
-4.093488267820270266e+03
-5.889756194216343829e+03
-5.724729402563923031e+03
-5.454414360993926493e+03
-4.382794608693970076e+03
-2.533708776129682519e+03
1.432224374737551443e+03
3.108014940748701520e+03
3.817527010692692784e+03
4.131551800711552460e+03
4.004156045797814841e+03
3.917521356262408517e+03
3.679477735710653178e+03
2.808664932021687491e+03
2.034072184264431598e+03
1.112720517757897142e+03
1.274606756426411494e+02
-3.183957664595174037e+02
-5.137758917592074113e+02
-1.025876516542482477e+03
-1.170697615004036834e+03
-8.560977297317683679e+02
-1.719917548120981792e+02
7.282893070890635556e+01
1.085332152448884386e+02
7.681688306748797004e+02
1.761653452313915068e+03
2.495830658403451707e+03
2.794602055963422117e+03
2.465233654984848272e+03
2.492729501363129657e+03
2.481111889670426535e+03
2.359381015678841322e+03
1.751729558669570679e+03
8.282615016807743586e+02
3.737993331557486272e+02
1.923889260340296801e+02
-2.410143118760304048e+02
-1.123627108785213068e+03
-1.383359006481452752e+03
-9.161609078159381170e+02
-3.439157549258553672e+02
-1.545437952076252373e+02
3.467261338007198788e+02
6.419378887365700166e+02
1.229258792374179166e+03
1.763471382359333575e+03
2.140829283308418781e+03
2.303635359910081206e+03
2.784849625047988411e+03
2.917751830675382280e+03
1.555476242597110513e+03
7.660685896650643372e+02
1.019431027146536053e+03
8.716461027666226755e+02
5.765874098797306502e+00
-8.485497698230274182e+02
-1.814436306093748271e+03
-1.855633181589256310e+03
-2.584244993290162711e+03
-4.612423842735653125e+03
-4.116093732851150889e+03
-1.818197605451067602e+03
-1.043741278667557481e+03
-5.485842547149486563e+02
2.432704724460243995e+02
6.559613168256512381e+02
1.363713475331209338e+03
1.828540863742034162e+03
1.650552279075852766e+03
1.565813276541269715e+03
1.259217102855116082e+03
9.794762193573217246e+02
6.715189215614083196e+02
1.513060573164117102e+02
-4.684119060402421155e+02
-1.201442292821712499e+03
-1.894660764773489518e+03
-1.946503035526181293e+03
-1.678897249749277535e+03
-1.646539282710557700e+03
-1.592161234642791214e+03
-1.375890825646707754e+03
-1.082958492659442527e+03
-3.611335502975494478e+02
2.927691039205352581e+02
5.726659616177702219e+02
5.655685850698633885e+02
9.016447246934388886e+02
1.244861042929884661e+03
1.273195512545243901e+03
1.205680643218109253e+03
1.087367479403202879e+03
8.542616969970096079e+02
4.493630578599874639e+02
1.862271352431236693e+01
-5.159214251098667319e+02
-1.013473935615798496e+03
-1.268143275910455031e+03
-1.576979864874278746e+03
-1.760763136847126816e+03
-1.790239343559011331e+03
-9.524733150941674467e+02
-4.837231502677373101e+02
-1.072217221175988584e+02
2.069628841369691372e+02
6.449410463664213466e+02
1.269042660981632480e+03
1.959255490106684420e+03
2.101404932584751805e+03
1.903420316777331209e+03
1.763393618044910681e+03
1.453550649916734073e+03
9.978473117133299866e+02
-6.879782217683110446e+01
-2.105225161442538990e+02
-5.104376378968468089e+02
-1.230723758853785966e+03
-1.424458412075670594e+03
-1.848603119808669589e+03
-1.997230054217423685e+03
-1.896392989679437733e+03
-1.765075026653348459e+03
-1.090832807552713803e+03
5.272322709251752713e+02
1.576769039097352334e+03
2.137947924811473968e+03
2.259838144242633007e+03
2.638494353129558931e+03
2.677687120117799623e+03
2.599176826847225584e+03
2.446009501199688202e+03
1.782379627916607660e+03
1.374126711358789407e+03
1.096664466493112741e+03
7.362726007474921062e+02
2.990793445956052210e+02
2.014499418878754966e+01
-5.997268257713116100e+02
-6.908889479414601738e+02
-7.678462027700595627e+02
-6.206848518892145421e+02
-5.172559721127080365e+02
-5.639296334620572679e+02
1.189407016503716186e+01
7.924103120419783863e+02
1.360117063321257319e+03
1.959215004141194186e+03
2.404240402874471329e+03
3.043217462551146127e+03
2.823717215739352014e+03
2.406714214487909430e+03
2.224613852517414216e+03
2.356191567157941336e+03
2.222497750188910686e+03
1.152476951082001960e+03
5.627420447586843721e+01
-4.571894199234644702e+02
-1.008158912930710130e+03
-1.078627267892340797e+03
-1.059446629709014815e+03
-5.376769213681589008e+02
-1.852471915899601527e+02
3.127312168865211106e+02
1.024434557174544352e+03
2.038641218048790279e+03
3.218193864084571487e+03
4.095290652967648384e+03
4.299873448702574933e+03
4.031746222324939936e+03
3.383975441061526908e+03
2.764636829088011837e+03
2.329736371427862650e+03
7.162721080880559157e+02
-2.004815883820866475e+03
-5.110584426682035883e+03
-7.615039331563574706e+03
-8.431196307841242742e+03
-8.707120523505847814e+03
-8.688819164013533737e+03
-7.001278859952453786e+03
-5.511699335152869025e+03
-4.599043449237423374e+03
-4.336219540927612798e+03
-3.740195419366708393e+03
-2.857968715816267832e+03
-2.547419208216650077e+03
-2.071473900969656825e+03
-1.106181018308674311e+03
8.524298355761297898e+02
2.735489850099398154e+03
3.069677638381547808e+02
-8.332080774027338066e+02
-1.421980522882129435e+03
-7.824358374639679425e+01
2.562995598965118006e+03
2.035744691735910692e+03
-2.417115866495121736e+03
-3.998683697833254882e+03
-4.731056307503008611e+03
-4.843260938287537101e+03
-4.889289063979334969e+03
-4.656026306610729989e+03
-4.367347781000277791e+03
-3.859197737143814265e+03
-3.609536947587051145e+03
-2.360327506417785571e+03
-7.305708089213746916e+02
-2.267270310187619089e+03
-2.392348502764636578e+03
-1.916746061717431303e+03
6.295446652203154372e+02
2.743568978658363903e+03
3.697383879723313385e+03
4.077979239767360014e+03
4.016303995554349967e+03
3.247314594483354085e+03
2.316999507950552470e+03
1.390374749688185830e+03
9.213527875450027977e+02
8.299402047897920056e+02
1.315216849469574072e+03
1.718224591219742933e+03
2.270013363299105094e+03
2.619628698050588355e+03
3.070197275064575479e+03
3.169889407351470709e+03
3.589649739828404563e+03
4.314450856319408558e+03
4.607292091718768461e+03
4.599244918405664976e+03
4.115346578248173500e+03
3.762670553109214779e+03
3.301195554898744376e+03
2.645918258674615572e+03
1.980727239155773304e+03
8.376652039172155355e+02
1.518067897169931371e+02
-1.117881680359305108e+02
-3.290544793126235845e+02
-8.438894617076430222e+02
-5.132443241102374714e+02
-2.880045035331110057e+02
7.584808601682526330e+01
1.099253872270226793e+03
1.488044558694637999e+03
1.771390031606876164e+03
2.598405444863145931e+03
2.744055055499420632e+03
2.194342347299046196e+03
5.553777756271479120e+02
1.100143091600117486e+03
1.691643693554097581e+03
9.397669095909481030e+02
3.435674741659833558e+02
7.105426720636664584e+01
-6.088776646476446786e+02
-1.496152938114049448e+03
-1.996721677622624838e+03
-2.284800760611580245e+03
-2.197062274109654936e+03
-2.139497866569809958e+03
-2.151514182868639182e+03
-1.856479837082740460e+03
-1.153000747902694457e+03
1.039990230143414038e+02
9.854159468804955395e+02
1.778296901483799502e+03
2.582654494057273041e+03
3.032529745916062893e+03
2.893948139941359841e+03
2.687903850414906628e+03
2.556437677587968210e+03
2.010548852808528409e+03
1.195177583364518568e+03
4.343134411061503783e+02
-2.400772234414056783e+01
-7.368713651888937193e+02
-1.539318885500768602e+03
-2.093363798374485214e+03
-2.077035270756075988e+03
-1.790269024716935746e+03
-1.836107252291397799e+03
-1.449597083702564760e+03
-8.297489344982907369e+02
-2.065384836727626805e+02
5.090553566569175814e+02
9.210666391245293880e+02
1.037477356341978975e+03
1.424283115239837343e+03
1.120516085941705114e+03
6.991771348716386001e+02
5.081899600235342405e+02
4.235033969566771930e+02
1.011259694544063308e+02
7.004598028271719556e+01
7.429523048568408683e+01
-7.471745689569927436e+02
-1.550517760803723377e+03
-2.345769530449297235e+03
-3.003978542158024084e+03
-3.220141183033304515e+03
-2.990288226188731187e+03
-2.258374129422673377e+03
-1.880392379157724463e+03
-2.561289514433205568e+03
-4.018062051308193986e+03
-4.237703018891607826e+03
-2.948092609960843674e+03
-2.387335563051790359e+03
-2.494526182522735780e+03
-3.102650422298631838e+03
-3.818735704288586021e+03
-3.180774644809008805e+03
-9.816643569266321947e+02
3.685503962322886196e+02
1.459239920675405813e+02
-5.163980932849377723e+02
-1.667720787167604385e+03
-2.249189958606850269e+03
-2.098716380482015666e+03
-1.983375370549229274e+03
-1.690297973818716855e+03
-8.744325049834857282e+02
5.831867612195528636e+02
1.851591797569293249e+03
2.694907538062233925e+03
3.095120241728875499e+03
3.149247648658457820e+03
3.342252053500009424e+03
3.197090315460815873e+03
3.060003944215930005e+03
3.013031397911383920e+03
2.606982387573277265e+03
1.625675605022421678e+03
5.019620665124755305e+02
4.878935953216593191e+01
-2.646687316873075702e+02
-8.153098911809482843e+02
-1.712266064875138909e+03
-2.252628857243092625e+03
-1.927312428031262243e+03
-1.391324324407613176e+03
-9.017823733398346349e+02
-1.836230798294936051e+02
9.391461965605354862e+02
1.684526596670088793e+03
2.323482882219438125e+03
3.163026289235539934e+03
3.439519475409376810e+03
3.870245374255490333e+03
3.771100422700944364e+03
3.839723311146695778e+03
3.447998747496231772e+03
2.561166767035434987e+03
1.597206572959062896e+03
1.132828285647111898e+03
5.548740214274317850e+02
-3.207071053776646750e+02
-1.213001009066353618e+03
-2.310826133081209264e+03
-3.176352896755980510e+03
-2.918574170094385863e+03
-2.864338367074044982e+03
-3.243590518165413414e+03
-3.285321086702162120e+03
-2.430464361394380830e+03
-1.091876582033944942e+03
5.555836799315364942e+02
1.597994886448949046e+03
3.193451837287051603e+03
4.467082112427080574e+03
4.213714690256379072e+03
3.836041461757297384e+03
3.258795028157563138e+03
2.154033994052648268e+03
7.949897626141529372e+02
-8.653956152699880704e+02
-3.807439151235374538e+03
-4.781177018057405803e+03
-5.031078743625275820e+03
-5.288812752000801083e+03
-2.224571840454737412e+03
-2.429506205799021245e+03
-1.427773449374094298e+03
-4.984870997008762288e+02
1.415010552053885817e+02
6.637538547176197312e+01
1.184136997332242117e+03
1.847540811720507691e+03
3.048308529816947612e+03
1.410729319974240525e+03
1.334146609163547282e+03
1.087628130294564698e+03
1.972321188743436096e+03
2.424369756279983221e+02
6.785671362629545911e+01
-9.206749261309033727e+02
-8.516077292009879329e+01
-6.136316509741234313e+02
-5.950184939018940895e+02
-2.482375203286766009e+03
-2.223775289197077655e+03
-3.154983585555360719e+02
1.331745127861858862e+02
5.875360903318396595e+02
-7.339494687681649339e+02
-2.923840186454893342e+02
1.033089722519577890e+03
-7.198371837000564710e+02
-1.660279809665106086e+03
-1.018002941285518432e+03
-2.395874019701493580e+03
-2.301792974399396371e+03
-2.968682441550658950e+03
-4.527639924474817235e+03
-2.552157392446908489e+03
-4.057306834210640773e+03
-2.837582435590149089e+03
-2.771078511024208183e+03
-2.871185875671906160e+03
-2.134349498856721311e+03
-7.294569858886779912e+02
4.079414399117515586e+02
3.788939000594897948e+02
4.509023906122713470e+02
9.734354035052285781e+02
1.294370594978658801e+03
1.749700281100952907e+03
2.348424790291637237e+03
3.167421264215061001e+03
4.035376616224651116e+03
4.206353842178588820e+03
3.931718283475683165e+03
3.802612699540475205e+03
3.227042404145683122e+03
2.152914306249199853e+03
9.081121939280960760e+02
2.134765178403338837e+02
1.109223162937987581e+02
-1.713451157197479517e+02
-5.025426132173319616e+02
-8.320860116321014175e+02
-1.130880962445384284e+03
-1.024582073236593487e+03
-9.829942070112593910e+02
-6.603415456736350961e+02
-8.950463814199301282e+01
8.137480776898070189e+02
1.870889224785285705e+03
2.788895295900201745e+03
3.444994035517372140e+03
3.943449053513556464e+03
3.592005828853746607e+03
3.021814777512910950e+03
1.694011591177013315e+03
4.256173783873140906e+02
-5.313979449221172899e+02
-1.609310283970584578e+03
-2.169365378532421346e+03
-2.211406013827087918e+03
-1.830703547928725584e+03
-1.769853584093284553e+03
-1.865785473936075960e+03
-1.445764269053718408e+03
-5.945196570330754184e+02
1.628864506032021779e+02
8.525026375572153938e+02
1.651105910262150019e+03
2.772591810544759937e+03
3.718970031915189793e+03
4.519366109748043527e+03
4.761406864050492914e+03
4.388270832594877902e+03
3.516597992577328569e+03
2.276818332986894802e+03
1.234162879571874100e+03
6.403247678173813711e+02
-1.218064693995574146e+02
-1.062143700805233493e+03
-1.330056545925188175e+03
-1.660527216700590770e+03
-1.433987136501625855e+03
-1.222665276344471977e+03
-7.806357068730096671e+02
-2.956277536831783550e+02
2.470723079105094655e+02
9.952487465278564969e+02
2.179174497876360419e+03
2.229526838855238111e+03
1.710123498022311878e+03
2.560939311885553593e+02
-1.011221727019527520e+03
-2.029764040169985719e+03
-2.928020816056487092e+03
-4.610402731334083910e+03
-6.694101502581298519e+03
-8.939878543940083546e+03
-8.216620936640400032e+03
-7.745838475367298997e+03
-7.531651457061316250e+03
-6.742953073232868519e+03
-3.029422308986183452e+03
-1.588241826364989493e+03
-3.417627691579532893e+03
-3.285966717085475921e+03
-1.940090459998795041e+03
-8.243390130422759512e+02
-3.037321610910846204e+01
-2.418391083014395520e+02
-7.716716843139045068e+02
-1.170724126773457783e+03
-1.354786993665092723e+03
2.490734299274775481e+02
-7.608506489401675026e+02
-3.327608340083237181e+03
-1.674431051158702530e+03
1.708962472496309374e+03
1.435422931639540138e+03
-1.069218757967933925e+03
-3.162772252382801526e+02
9.969531474799938451e+02
8.426380165374234821e+02
8.305230062358884879e+02
9.998680484752972006e+02
1.600141906508861894e+03
1.874164965829816538e+03
2.035268341177651337e+03
2.470087880708815646e+03
2.729317839643673778e+03
2.670966419671746735e+03
2.731312415724463790e+03
2.982437059557550583e+03
2.493723295267061985e+03
1.930517339550576253e+03
1.707571678655719779e+03
7.539246179019717147e+02
3.969443806004987323e+02
2.662709672251771167e+02
1.712337075334106089e+02
-5.714996517945706067e+00
-8.345740083443286039e+01
-4.605943685243931895e+02
6.371238529328606859e+01
5.938760092931059944e+02
1.240227558294891878e+03
2.069082449259440182e+03
2.761835821224229221e+03
3.078157409896223726e+03
3.175393033888234640e+03
3.277998210712411947e+03
2.761529634641472967e+03
3.351828561178448581e+03
4.535106241089692958e+03
4.337726175346278069e+03
3.498168214892426477e+03
2.402969643509153684e+03
1.156031354864049035e+03
-2.232269726806056553e+02
-1.017542626946141354e+03
-1.789948575373693984e+03
-1.970337616268627926e+03
-1.491708594937554153e+03
-8.738846254106704237e+02
9.747114941923401554e-01
1.399325675202387345e+02
2.689373010079299888e+02
4.251700172961525368e+02
-5.334664596445131792e+02
-1.698449347337032350e+03
-1.875476785797626007e+03
-1.630928922108389315e+03
-1.185074133772804544e+03
-1.242641647637893811e+02
-3.260700903618500774e+02
4.686442176685320149e+00
7.106505699582063471e+02
6.184547609966573418e+02
-6.849147336628529956e+02
-1.670179599108562797e+03
-2.768337413809315422e+03
-3.662872393945262047e+03
-3.523739126234888772e+03
-3.330662739025966857e+03
-2.984196803785022439e+03
-3.002029096500384640e+03
-3.642878089468546023e+03
-1.127728025797217924e+03
2.595820780857873160e+03
4.483733693454202694e+03
4.290818862642826389e+03
2.657438763989098334e+03
3.325979884776597828e+02
-1.931177949892672245e+02
8.211236655878042257e+02
5.592946501479112840e+02
-8.411077062800096655e+02
-6.320212469181630013e+02
-2.379399027355872249e+02
-1.668899955234729532e+03
-2.812544599680314150e+03
-3.914593185304939198e+03
-5.189413796033352810e+03
-7.668259016102587339e+03
-1.086627219806747235e+04
-9.788214920986723882e+03
-4.405374294153194569e+03
7.930284848030732974e+02
2.105681340478583479e+03
1.896841999547759315e+03
5.124327543985496050e+03
9.269962501002006320e+03
1.033583124951122409e+04
9.560883766121070948e+03
8.032978779687354290e+03
5.958063453985336309e+03
5.757118901373655717e+03
3.012069852657131378e+03
-4.424817679577545277e+02
-2.495000836970485580e+03
-4.059087342644916589e+03
-5.783923186479362812e+03
-7.693044275557223955e+03
-8.603374216689438981e+03
-7.839226339193790409e+03
-6.099592605052242106e+03
-2.850610101584715267e+03
2.232273918479027998e+03
7.143364350569024282e+03
8.701487210650018824e+03
6.106413659884138724e+03
4.015000351131965090e+03
4.297437398650518844e+03
3.974804911547580559e+03
-9.387921183635635316e+02
-7.932379529088188065e+03
-8.615479711977828629e+03
-3.336959690107464212e+03
2.842315057688829256e+02
2.325338819251318455e+03
2.118165834843155153e+03
3.982674406629387249e+02
-1.312489683777586436e+02
1.608507126902906975e+03
3.623591605095748946e+03
1.768071240582305791e+03
-4.801143586060369671e+03
-9.238106750660917896e+03
-1.035855764065021503e+04
-1.126388890383506805e+04
-1.042356791873672773e+04
-6.945305660499555415e+03
-3.851314983764982571e+03
-3.765745201076744706e+03
-3.575621245602364979e+03
-3.942367276265786586e+03
-3.704630221326642641e+03
-3.533585335869899154e+03
-4.095557507567484663e+03
-9.163655842972668324e+03
-5.079971499274312009e+03
4.426623901692698382e+03
9.200225048978165432e+03
1.296025599462857463e+04
1.542520377351125353e+04
1.426015757528162067e+04
1.140046116213771893e+04
1.084221101267256199e+04
1.080305283168794995e+04
1.187008109176807920e+04
1.484934036248366647e+04
1.712683396325220747e+04
1.332066913898097482e+04
7.410661749897154550e+03
7.846704567811002562e+03
6.933943120511187772e+03
2.083767026283094310e+02
7.788235601122445395e+00
1.929083367251863820e+03
-3.292803479408638850e+03
-9.569553867758526394e+03
-1.111900286810030775e+04
-6.950434074071516989e+03
-4.069022859343407617e+03
-7.149827596261770850e+02
3.625067942637319902e+03
5.744490336937532447e+03
1.908016665041193619e+03
-3.521469319763940348e+03
-5.387882705511603490e+03
-4.293316234122906280e+03
-2.333949283693748384e+03
-8.368493658682048135e+02
1.617479229720092917e+03
2.762385138090104647e+03
2.750517830341083481e+03
5.260627787048840219e+03
5.902911482574301772e+03
1.195085313445260454e+03
-4.001616098117548518e+03
-5.366710326127676126e+03
-3.500340180671043981e+03
-2.822655476182254006e+03
3.033193130532241071e+02
2.748515184920428965e+03
-9.251688999790808339e+02
-5.695655302340538583e+03
-6.231067416799263810e+03
-9.583753843170056825e+02
-1.204168186862494622e+03
-4.594333059554415740e+03
-4.622987988087796111e+03
-3.711011342593672907e+03
-2.353421372067302855e+03
-4.581094354215735621e+03
-1.075783119186140175e+04
-1.636603248991516011e+04
-1.256360726686702947e+04
-1.813358798476072934e+03
-1.353181766864940130e+02
-9.350640802255330755e+02
-1.555558648378078942e+03
-1.855924957959485937e+03
-7.262599543554223374e+02
3.470992795108903692e+02
4.593960067965967937e+02
-8.837557381562928072e+01
6.195214948941838884e+02
-4.438858731681361860e+03
-9.358166848132623272e+03
-6.784098798375920524e+03
2.651527501895418027e+03
3.928723155918101838e+03
1.465283364627581705e+03
-2.611880188207714582e+03
-6.585617755762588786e+03
-2.120759802444130855e+03
3.886569809856152915e+03
5.620382290507724065e+03
4.230706419505273516e+03
1.816417625149461401e+03
3.233473627137221229e+03
5.189708635553199656e+02
-6.530067424820155793e+03
-1.236462129241824186e+04
-1.000953260701330510e+04
-9.971605185500273365e+03
-8.468876656795366216e+03
-1.725230218089745904e+03
7.143432308689690217e+03
1.182216906910182479e+04
1.231420253245422464e+04
1.023261818762743133e+04
1.072429160130151649e+04
1.411518522315663722e+04
1.108542204953215878e+04
5.709995596683413169e+03
1.313006684115797498e+03
-1.644618774313995289e+02
-4.829742845751292407e+03
-1.338076401924106722e+04
-1.620697579285229949e+04
-1.841298220487032086e+04
-1.325220103345943608e+04
7.647117614350814847e+02
9.710710162124036287e+03
6.018045241075555168e+03
3.405139864617460717e+03
3.378189247414775309e+03
1.778207250412343001e+03
3.573062204991272665e+03
5.465480601246421429e+03
4.688221679901928837e+03
8.307179612984888081e+03
1.088535533448882597e+04
1.176895966873230282e+04
8.754256609819018195e+03
1.143970586121019551e+03
