-4.397871603785630214e+03
-3.594410143213220294e+02
-3.712102965075877364e+03
-5.864800492705295255e+03
-6.833562766502250270e+03
-7.430460572007462360e+03
-8.952532193375707720e+03
-2.307739317457577272e+03
4.599046336314317159e+03
9.330797493617250439e+03
1.076443996474610321e+04
1.043587184489970605e+04
7.843005119186288539e+03
4.260936858105473220e+03
1.264698194831931005e+03
-5.575678751790526633e+01
-1.116505520055128727e+03
-1.454549973231539752e+03
-2.853866508820716263e+03
-5.815597993596590641e+03
-5.251778939875196556e+03
-1.291289347979781496e+03
1.854831547546584034e+03
2.615478076721271464e+03
2.312687551175626140e+03
1.804377120372987520e+03
3.317704017983568860e+02
-2.357125171965008576e+03
-3.737304862591877736e+03
-3.141750157349782057e+03
1.055710894256020396e+02
4.315947901175375591e+03
8.695937846776452716e+03
1.115251833387500301e+04
1.027456940416941143e+04
8.676476113434486251e+03
6.638957250782973460e+03
6.793323842287445586e+03
7.303178412733002006e+03
5.685610630118833797e+03
2.787270143293393630e+03
3.223783104510745261e+02
-2.618821942557474358e+01
1.771796683828284358e+03
3.087384912577019804e+03
3.422369812225133956e+03
3.100882567036954697e+03
2.780721815454010994e+03
2.661135738069013769e+03
1.962729332251061578e+03
-5.810807926473460157e+02
-4.255326457276919427e+03
-6.878386924214578357e+03
-6.557749759007043394e+03
-5.861851307417253338e+03
-3.780752396062373919e+03
-2.610923166122281032e+02
2.891198814887169192e+03
4.768631983935784774e+03
6.160105660189794435e+03
6.590565200281212128e+03
6.172051728154160628e+03
6.446579624807299297e+03
7.708112362256071719e+03
8.222705380884170154e+03
6.442294872606777972e+03
4.828867777061596826e+03
4.298500817173000542e+03
4.245134718080958010e+03
3.862751611690244317e+03
3.451304125252148424e+03
2.850798618493799495e+03
1.559303190008425418e+03
1.478391498818386935e+02
-7.455471747007298973e+02
-1.450858394489105649e+03
-2.001141135361964189e+03
-2.677414157671307294e+03
-2.949710795935996885e+03
-4.461061590253770191e+03
-5.925430770488981580e+03
-4.709735343539741734e+03
-9.009465427933686215e+02
2.035972879949616754e+03
3.354051346929001284e+03
2.319243655005889650e+03
-1.548447379087597710e+03
-5.569026067860177136e+03
-7.495534346011039815e+03
-8.503031461474016396e+03
-8.973429068075394753e+03
-1.042670077105888413e+04
-1.053973701215568690e+04
-8.621554453026406918e+03
-9.440137456571143048e+03
-1.037516685852203409e+04
-9.307876310534944423e+03
-9.845340682981050122e+03
-1.129153281098951629e+04
-1.235434915418996570e+04
-8.910718348071968649e+03
-4.409609398589233024e+03
-5.108039858962964900e+03
-3.072952177174022381e+03
-2.330326726860053441e+03
-2.595245886010083723e+03
-3.238611274421577491e+03
2.466630318004267863e+01
2.290617277732786533e+03
1.912264172752979675e+03
1.385604427807133561e+03
8.607214542865336853e+02
1.008684319989145251e+03
1.324530036294194815e+03
1.541285180720541575e+03
1.424969503098582891e+03
1.230656035149208719e+03
9.433186169943079449e+02
5.419807790132587115e+02
5.117258003179317143e+02
4.616102791603871651e+02
6.316717985040202166e+02
6.710055690878995165e+02
3.206611630862117295e+02
5.157000610924170587e+02
2.341144639415553854e+02
2.191097487633467367e+01
5.421415277218704887e+02
7.599110503965890757e+02
1.525394393353315436e+01
-4.498329969310657930e+02
1.867284261254312980e+02
2.348020918708095451e+03
3.942109309777400540e+03
4.131905271441851255e+03
3.492427949082786199e+03
3.221751258417502413e+03
3.823860651616524137e+03
4.606843815600175731e+03
4.471767573967615135e+03
3.935716780512819241e+03
3.893748060878254819e+03
3.686867950926178764e+03
3.891154503511248549e+03
4.019674719694002306e+03
3.214414788485722056e+03
2.923267915668008300e+03
2.965260465147339801e+03
2.969361860615412297e+03
2.795907424163390260e+03
2.771034902880144728e+03
2.995755273230092371e+03
3.229288773074395976e+03
3.343850378260941397e+03
3.472504914279259083e+03
3.446138804103262373e+03
3.226766738027221891e+03
2.940419721734729137e+03
2.512021560754026723e+03
2.355447538724700735e+03
2.300399797442730687e+03
2.445128447549579960e+03
2.708516320184004599e+03
2.651566941949408374e+03
1.440325052340074080e+03
3.388743648454268964e+02
-3.527559113735196092e+02
-1.042554060094591705e+03
-1.503578805278025129e+03
-1.804871642750913452e+03
-1.445399310210739714e+03
-1.021137787848360631e+03
-6.981105366771205354e+02
7.873735551714793246e+01
-3.785585302847444495e+02
-1.583057223305539083e+03
-1.947797672478704953e+03
-2.323761665317900224e+03
-2.186963009545883324e+03
-2.816446163881671509e+03
-3.542287226708261187e+03
-4.887477167076259320e+03
-5.148983083447879835e+03
-4.013772117348285974e+03
-3.302790519677280827e+03
-2.328110188598412151e+03
-1.268749733915292381e+03
-8.546957035883821163e+02
-1.080967581853576348e+03
-9.936536058503855884e+02
-2.087877622496132233e+02
5.116589334128381665e+02
1.416875660236600822e+02
-1.867481301333373551e+02
-8.747472082161283424e+02
-9.904289527560039232e+02
-8.097654872126155396e+02
-5.117279127029179904e+02
-3.432113381028575532e+02
-3.353173019047113144e+02
-5.291970638807111982e+02
-3.469496813800740824e+02
1.022210695414125894e+02
4.622450691232563713e+02
4.771874821332707484e+02
4.971458991308035706e+02
6.041569245617040451e+02
4.271811781815394511e+02
4.331176491884191364e+02
1.028548910296851489e+02
-1.327724272001642021e+03
-1.165641288816515498e+03
2.780177862816978518e+02
5.473033491788585252e+02
6.511729334236569002e+02
8.266119324850626526e+02
8.194947896666440101e+02
7.586529732716178387e+02
1.123098588849706857e+03
1.308890813517582274e+03
1.169913883685077508e+03
-5.369715935733763672e+02
-1.987895708762497406e+03
8.490676340641273327e+02
1.429067383560916824e+03
-2.421263646211331491e+02
-3.560578993875442848e+03
-3.246011132614127746e+03
-1.552619967405135185e+03
1.689505072841714082e+02
3.882765820039022060e+02
5.965004288632626412e+02
6.035245026325909521e+02
3.302643341118275657e+02
4.219797718983352866e+02
6.652575879559261693e+02
3.801402058755999747e+02
5.537951273553776588e+01
-2.531994555762836541e+01
-5.844384733060661574e+02
-5.665385681140268161e+02
-6.454874220310350097e+01
5.136210722583533652e+02
1.410128122397213247e+03
1.315469737764526826e+03
1.240901933445467421e+03
9.652041177352017485e+02
4.495175193861963976e+02
8.969601840356453692e+01
1.640547670968628040e+02
3.492768890587064448e+02
4.732130822774016679e+02
2.128749112079199222e+02
1.657148737068823436e+02
4.617013106945781828e+02
1.636059053609107536e+02
-4.472533811031559026e+02
-8.297215734972799055e+02
-8.609406229524488481e+02
-4.323612301329891920e+02
-4.210262767016665464e+01
-7.824888001569546248e+01
-7.887212378244724960e+02
-1.171267808713262639e+03
3.580129182132320125e+02
2.487871792814006767e+03
3.594323818044635118e+03
3.490577049480258211e+03
2.938737165834249936e+03
2.948938929493960131e+03
3.424355907650005065e+03
3.547980101306670804e+03
3.022711817200549376e+03
2.972610836333017687e+03
3.981596177068510315e+03
3.868713220008823100e+03
2.959133557055306028e+03
2.877617140852632929e+03
2.836880483837566317e+03
1.348891624444450372e+03
1.007800491735264501e+02
-2.614360498792558701e+03
-3.307475166139524845e+03
-3.596466934684024636e+03
-3.804171830183676775e+03
-3.162653307634765952e+03
-3.130069079768803022e+03
-3.992630390267820530e+03
-3.922450346218742652e+03
-3.626619839326743204e+03
-3.959033940518363124e+03
-4.052463770001292687e+03
-3.819778189119270337e+03
-3.272865868857861187e+03
-1.745830680868542231e+03
3.473424989135432384e+02
-2.920150884672184020e+03
-4.367161215136908140e+03
-4.318580791715206033e+03
-3.923495992522362940e+03
-3.683086776528472910e+03
-3.745354180616073336e+03
-3.530164245702681001e+03
-3.329369297670200922e+03
-3.558924249661340127e+03
-3.717812473199463966e+03
-4.134929606075766060e+03
-4.207042326988287641e+03
-4.021961287185600668e+03
-1.849658312245065645e+03
-3.293001516764717280e+02
-3.009896836965436705e+03
-2.695556209426456917e+03
2.045585485159271457e+03
3.652563105368959896e+03
3.701505938466541465e+03
3.214483104320971506e+03
2.839597861807198569e+03
2.570975107263854170e+03
1.921603342004287015e+03
2.023411614869733512e+03
2.013502258853078956e+03
2.030172592978410876e+03
2.702507126535147563e+03
2.801497024237120513e+03
2.885158119304210686e+03
2.188598112287217191e+03
1.302889646454018703e+03
1.380121729021239844e+03
1.624402047484132254e+03
2.090802739311476216e+03
2.491329021761072454e+03
2.427043109281397847e+03
2.510015606948442837e+03
2.384286796274413064e+03
2.178911540656889883e+03
1.653071354499741346e+03
1.231831315470035634e+03
1.204075472581472241e+03
9.595238700085246819e+02
1.262120331275949411e+03
1.340015290211546699e+03
1.420403639034034995e+03
1.665832160449111143e+03
2.116517972292016111e+03
2.159425102808013435e+03
1.778575863513533704e+03
1.184994193580012052e+03
1.132773587264677190e+03
8.269225313548686245e+02
-4.485611047677387120e+01
3.756799673387371854e+02
6.856475110381089735e+02
8.259068205111848329e+02
5.355812969554772280e+02
1.928537686880023614e+02
1.669015984952814335e+02
-2.750531159176392180e+02
-7.880720673653455606e+02
-7.686121712797478267e+02
-2.579014049691843979e+02
-4.148660831333617693e+02
-5.241235299880278831e+01
2.115138783135307960e+02
4.116383171273093922e+02
6.711308272425823134e+02
4.591492153275077044e+02
9.167580860837495038e+01
8.355354441073241389e+01
1.736858649125454690e+02
1.980462151646258917e+02
-8.839275964335477909e+01
3.240098797838764000e+01
6.845165486708029334e+01
-1.922213559882095879e+01
1.013588595214536525e+02
-1.958325342557041608e+02
-4.957583004808765281e+02
-4.774287922044132984e+02
-3.468817302751726857e+02
-1.511147848542128997e+02
2.027971425195109987e+02
2.129195890091772014e+02
1.822369937813364231e+02
5.666777540601445935e+02
8.842656098873485462e+02
8.800680282911674794e+02
8.460359041230550474e+02
5.660933464938827910e+02
5.130871560349780793e+02
3.099309050722599181e+02
1.496668483700643719e+02
2.233436993386143001e+02
3.289533790185629414e+02
8.124136913128779725e+02
9.726433092426015037e+02
8.956883263262376431e+02
7.115646697608043496e+02
4.322356728179813672e+02
4.526393274169427627e+02
4.406899295032986288e+02
5.603885079664529485e+02
-9.882000812342548670e+02
-3.197139088504380197e+03
-6.364468328813732114e+03
-6.826200595105287903e+03
-6.171386506387608279e+03
-6.290060951362467677e+03
-6.473291887010451319e+03
-6.543117884096713169e+03
-6.674557572865658585e+03
-6.459650739076740138e+03
-6.117469284902819709e+03
-5.676027292452717120e+03
-5.503353837699637552e+03
-3.798401667328279927e+03
-2.111252889402588153e+03
7.070640046380765398e+02
1.217491234826278969e+03
1.243955652664133822e+03
1.301442965840708894e+03
1.536991856670996640e+03
1.578620496081901820e+03
2.060293297969943069e+03
2.490968582646236428e+03
2.286589012943633406e+03
1.853150110222969488e+03
2.030542934418205959e+03
1.959724134776892015e+03
1.860665706662527782e+03
2.076277004421820493e+03
2.163566393865984537e+03
2.234572534965176146e+03
2.259217323303354078e+03
2.026491712485200424e+03
1.910289329407937885e+03
1.541673058782065709e+03
1.486642052875326499e+03
1.243247376077591298e+03
1.165399550622499419e+03
1.697894899593464061e+03
1.921698735734906450e+03
2.032787915693855211e+03
2.290136649086917714e+03
2.503754827874276543e+03
2.559662529230866312e+03
2.464824146687139546e+03
2.111177048832240871e+03
2.229663419379500283e+03
2.292347731870307598e+03
2.215180422941718916e+03
2.085180873174214867e+03
2.055319241370084455e+03
1.774512973419262380e+03
1.967748026092207965e+03
1.893016688847404112e+03
1.690350305626744330e+03
1.812759797364346696e+03
1.691224303198574944e+03
1.374706104927411161e+03
1.321145268131338071e+03
1.521572494878805401e+03
1.623008948939389484e+03
1.759477291942041802e+03
1.815008523116467359e+03
1.955583870171707076e+03
1.889154285721597034e+03
1.622009512735297221e+03
1.302081212124913691e+03
1.543183338990158518e+03
1.669355548833752209e+03
2.132602141651196234e+03
2.498899090058213005e+03
2.261252431139978398e+03
2.280710854044135885e+03
2.124254220003234423e+03
1.500923300788438155e+03
8.848018935679565402e+02
8.609549450003344191e+02
6.874681610137467942e+02
-7.149255479832532956e+02
-3.613096573542948136e+03
-6.789852403021594000e+03
-6.517968619826321628e+03
-6.020683268840812161e+03
-5.293114367445451535e+03
-5.063208862169635722e+03
-6.089842556274112212e+03
-5.860015137474313633e+03
-5.417717989424372718e+03
-5.546908590084632124e+03
-5.265637112239049202e+03
-5.305864854485849719e+03
-5.289480344050606618e+03
-4.172442283814464645e+03
-8.336924452764978923e+02
3.118258733746930602e+02
-3.796928668480201850e+03
-5.076978654775116411e+03
-4.903296235405818152e+03
-4.496878535327950885e+03
-4.644626452686826269e+03
-4.664503629137895587e+03
-4.534466608488593920e+03
-4.147462911386147425e+03
-3.667411967207169255e+03
-3.506313241819908853e+03
-3.493160138421456850e+03
-3.611899710722730106e+03
-3.486484152330594043e+03
-1.007952659582853471e+03
-3.432815366329636504e+02
-3.644319490786821461e+03
-3.948026452889053871e+03
-3.745389559186651240e+03
-3.295381671935833765e+03
-3.476986710406621114e+03
-3.619207527190333167e+03
-2.004968324566147658e+03
2.890832475019639787e+03
3.643165488476410701e+03
3.694872599374416495e+03
3.566940282619507343e+03
3.870459228167162564e+03
4.176579427745971770e+03
3.700337978295844096e+03
3.740710782765255317e+03
3.516700361300332133e+03
3.184357200168009058e+03
3.722714388474459156e+03
3.978812644013270074e+03
3.612549373147462120e+03
3.312028213444122230e+03
3.148331835400602813e+03
3.394432590162006363e+03
3.391392551356046170e+03
3.106329989902773832e+03
2.883279920989928087e+03
2.932469876110633322e+03
2.886767398546739514e+03
3.073108220861006430e+03
3.109453871086126583e+03
2.807584111628083974e+03
2.722805314890201316e+03
2.929342830256943671e+03
3.044252320670402241e+03
3.202148039902176606e+03
2.780297747507357144e+03
2.521527823071564853e+03
2.314095593558381097e+03
2.269594995162909072e+03
2.451073179867617000e+03
2.445673453910656917e+03
1.963459992641767030e+03
2.082509465021907545e+03
2.436735569269204916e+03
2.380837922165927012e+03
1.635227471364554731e+03
1.159954783714752466e+03
1.339558765989875155e+03
1.497241834595963155e+03
1.451835064470625639e+03
1.473513652286229899e+03
1.658555433897347712e+03
1.783383466265307334e+03
1.961198250178081253e+03
2.119127790615204049e+03
2.112733639908607984e+03
1.858582323718406769e+03
1.322230103248074101e+03
9.955340592968535702e+02
1.009260824515660829e+03
1.190642223574852324e+03
1.310729430268920396e+03
1.514639507260595110e+03
1.555245979884304006e+03
1.087563124905173936e+03
5.464456217292724887e+02
5.419135620321858369e+02
6.039569964427241757e+02
6.264350329508811228e+02
5.073691172471956747e+02
6.607576385599521700e+02
9.466157572564402471e+02
1.438954600840090279e+03
1.777696733155601123e+03
1.940840754605092570e+03
1.696346284747523669e+03
1.505175773698020976e+03
1.534344213939619294e+03
1.094799104955532812e+03
9.244800086634918443e+02
9.753400440435658538e+02
9.113847623689787270e+02
1.485617156395820757e+03
1.169960570135932812e+03
-7.395765140312429367e+02
-2.933072068322031100e+03
-6.306517169435437609e+03
-7.346921791605391263e+03
-7.561309437006140797e+03
-7.516756230419788153e+03
-7.126278946566826562e+03
-6.444786528037851895e+03
-6.139257035444054964e+03
-4.816738091458954841e+03
-5.357294819316323810e+03
-5.923882833739862690e+03
-5.778642977516106839e+03
-5.747627050339649941e+03
-6.041836974488363012e+03
-5.433256998084576480e+03
-2.275942115986293629e+03
-4.411913911923145861e+03
-5.975156282452069718e+03
-5.685687356849794924e+03
-5.623556905535975602e+03
-5.793783589907261558e+03
-5.974316633834945605e+03
-6.220222731624022344e+03
-5.920530553089147361e+03
-3.525269567034128158e+03
-1.003524024311585435e+03
1.576765337033717060e+03
2.363666134025660540e+03
2.617120797996572037e+03
2.782105923710823845e+03
2.542623813633582358e+03
2.338677533815818151e+03
2.316206234556637355e+03
2.427194476955259233e+03
2.096652629385383989e+03
1.714558847398440548e+03
1.853969166847036831e+03
2.285860806519632661e+03
2.325194444633714284e+03
2.089005263413608191e+03
1.469279136655815137e+03
1.278976250872517539e+03
1.033108265939154990e+03
7.886816279039112487e+02
8.466692937010203650e+02
1.012106845428088604e+03
9.410351920937633849e+02
1.343495225759376126e+03
2.120540736493141139e+03
2.117071254671053339e+03
1.741115721394227648e+03
1.306660045177209895e+03
1.279688207518978288e+03
1.471190980015553578e+03
1.334125182239350352e+03
1.285556638128303121e+03
1.312489941008329424e+03
1.719967942618598499e+03
1.554003663536918566e+03
1.000594111590028433e+03
7.227592172756949367e+02
6.154978627299235541e+02
4.499540673450981672e+02
4.872719639953969022e+02
8.165232087538728365e+02
7.814332345800315807e+02
8.839299290230576389e+02
8.601848264822654073e+02
8.734872206428162826e+02
1.069878670181457437e+03
1.333312022064165149e+03
9.958462763105189879e+02
6.354356412308958397e+02
1.290968171675529561e+02
4.468024422059597782e+02
4.243972614660206091e+02
6.170218950638127353e+02
8.164852497138055014e+02
7.515617050270767550e+02
6.744397825027514273e+02
1.795141769783117240e+02
1.357550816660208000e+02
3.138712833793582604e+02
2.877809844612262964e+02
6.153028574316063981e+01
3.361777716820225805e+02
4.167691051612546858e+02
6.332666604103580994e+02
1.049693995269312609e+03
1.484074909757217483e+03
1.335414576685569727e+03
1.127755506794584790e+03
9.521001244091590934e+02
9.804250409471426337e+02
5.037660493198456493e+02
3.511144914409529179e+02
3.085159859308337218e+02
4.619881283434892225e+02
8.195230087771958551e+02
4.801392641623787085e+02
-2.372052392870638187e+02
-5.344510958721575662e+02
-5.015984246039446361e+02
-4.596485194291481093e+02
-4.646493271946840196e+02
-3.225356952587389969e+02
1.906976186435009879e+02
4.580774242963950087e+02
8.386072988990998738e+02
8.063064519091001330e+02
7.312026892561567593e+02
9.623413092098702464e+02
6.087090960229926395e+02
3.413236279869914256e+02
-3.090832062230455435e+01
-6.498054237088550167e+01
-8.384623482069254408e+01
1.194585419408459472e+02
3.149579221834620171e+02
-2.353301156996221550e+02
-8.034118067996057562e+02
-1.210304584008619031e+03
-1.299978082108666058e+03
-1.331397554001256140e+03
-1.521610747714399622e+03
-3.011577580819936429e+03
-2.298267059796702142e+03
-8.456710695868022185e+02
-1.027910064448637399e+02
2.243155418509109893e+02
4.236266269838424705e+02
2.761270238127275434e+02
-2.090978147427341582e+02
-4.119894885370368343e+02
-6.787212806662452067e+02
-8.063352485381336692e+02
-3.788068879020294162e+02
-1.240097460878970196e+03
-1.582147994981196462e+03
-1.148002788854427081e+03
-1.081615493751403847e+03
-1.261975136267776406e+03
-1.190927675569088251e+03
-1.251486360694139876e+03
-1.550516390634554000e+03
-9.934338675736607911e+02
-2.733231050118593544e+02
3.011072860556865294e+02
5.488790764096445400e+02
7.000511182657561449e+02
9.858598571235802410e+01
-3.485669347945025152e+02
-3.707543686479939993e+02
-4.086106830977968229e+02
1.373702191652640749e+02
5.520738034006376438e+02
5.747364535886920294e+02
4.136067802456404365e+02
3.659148559867850850e+02
4.241141005139807021e+02
4.263169694121705220e+02
4.383625493045956887e+02
2.844910430132897545e+02
-6.570408917928840253e+01
1.889028697620851460e+02
4.603067594871704387e+02
5.567454758984262071e+02
9.219155749389436778e+02
1.124728500213311918e+03
4.922882775874596177e+02
-6.422613533684608456e+01
2.498712934929659184e+02
2.460041421931285015e+02
4.404202228070805347e+01
3.285345645603485565e+01
3.614534697805117958e+02
3.489688099860816806e+02
5.441501486669460519e+02
9.490974618564946468e+02
8.032070507693312038e+02
2.079383872782836704e+02
3.627909266520709508e+01
1.844213680249580634e+01
5.251627276819857570e+02
6.813987781595645856e+02
6.701880800548600519e+02
8.914647415719830406e+02
1.213323227311307619e+03
9.268485845018209375e+02
1.242933086392821906e+03
1.141591097629952401e+03
1.036824207383228895e+03
7.116543387352859327e+02
3.580159675139649949e+02
5.368884364962284508e+02
3.323019801504293582e+02
1.782736225714882607e+02
8.187819456557513149e+02
1.304911734810674488e+03
1.134746864010075114e+03
2.112287980159909466e+02
-3.354602750494706925e+03
-4.213716511723593612e+03
-3.290085696326779271e+03
-4.107813010025964786e+02
-2.125783149034879443e+03
-1.181083989833693295e+03
-2.346591958226159022e+03
3.267601141965400871e+02
-1.712940564791815177e+03
-2.215631719236848767e+03
4.746274265670369346e+02
-1.383224994905665653e+03
-1.226232916141235364e+03
-6.955167166057203758e+02
-3.876133206218672058e+03
-1.902997418069667674e+03
1.240027739415889755e+03
-9.759754026121322568e+02
-6.390909953496086473e+02
-3.012328643876551723e+03
-3.294587891653971838e+03
2.832195226201154128e+02
-3.030864004626977930e+03
-3.822826975225242222e+03
-5.568512594192295495e+01
-1.556436845025255025e+03
1.399074733099211585e+02
-8.266441064239385241e+02
1.980942270561101168e+03
-1.512629920181737475e+02
-7.482869736337997892e+02
-1.161122740622815400e+03
3.362349590365409426e+02
7.628027252427449412e+02
1.291540656293976554e+03
9.635135386145490202e+02
1.078794472119069724e+03
1.480358964612251157e+03
1.150188034792013241e+03
8.673041361538979572e+02
8.587592440398429972e+02
4.575275038438088586e+02
2.358640505370392759e+01
-3.141228130921136312e+02
-1.426034537331043168e+02
2.402406214678827325e+02
6.345864043400716810e+02
1.284469058961159362e+03
1.929818165340148425e+03
2.036632328759575330e+03
1.747983838559912783e+03
1.380812633335562396e+03
1.330047609192126174e+03
9.207085083573305155e+02
6.258293879225178671e+02
1.255180965573888017e+02
-2.030881298690061953e+02
-3.666471767505270236e+02
-3.092918901394986619e+02
-6.481654124380175972e+02
-1.372290444382156011e+03
-1.155650865069910651e+03
-5.913458660416333714e+02
3.176696324747284166e+02
5.463813397223516404e+02
1.026035989187341102e+03
1.340596210775385998e+03
1.315994081615878486e+03
1.467223225450801237e+03
1.709369117231828113e+03
1.377458985747096904e+03
1.248051150096529454e+03
1.073767299756143984e+03
6.484645977656737159e+02
1.818343063256042456e+02
2.179010661883893079e+02
5.636984272058313081e+02
9.092905515989915557e+02
1.159627142592058590e+03
1.277558782341086498e+03
5.378858129858867869e+02
1.137654032428653750e+02
4.798319105954540191e+02
6.380445014491933762e+02
7.903928205941050464e+02
1.120894301250694298e+03
1.345565456917555366e+03
1.317463237453318015e+03
1.101688276792533770e+03
9.322276830546386464e+02
7.271464232544374227e+02
8.624057291642138807e+02
6.768990300808072789e+02
2.335946760197810477e+02
3.713975750793704833e+02
4.962475379033069203e+02
3.514272871402394003e+02
-4.837340588950787890e+00
-4.396028482163414992e+02
-9.071725076856649821e+02
-1.009737576472499654e+03
-9.254723826793135686e+02
-3.256815952071104903e+02
8.415459067784764784e+02
1.003209125487366123e+03
1.341405181880763394e+03
1.471674674574159553e+03
1.556332206790948703e+03
1.479339274218634955e+03
1.136359559274371350e+03
1.247146414783595446e+03
1.044545788573560685e+03
1.087344271937335179e+03
9.833055978976317419e+02
9.296199637561112468e+02
9.313763187422540568e+02
8.896408801718016548e+02
6.274866329857833307e+02
8.896979321610484703e+02
1.852213832075758262e+02
-2.413964877322455777e+03
-5.750740954434783816e+03
-8.595883517558981112e+03
-8.386235700180197455e+03
-7.650854405574857992e+03
-7.732766705648703464e+03
-6.791064488510224692e+03
-6.241813902702187988e+03
-5.271983884394089728e+03
-4.851240704982382340e+03
-4.773784849933012083e+03
-2.321144762033340612e+03
-1.905962719518816471e+02
-3.142190873943863153e+03
-4.933011906843953511e+03
-1.638132028565370319e+03
2.224539179468642033e+03
2.549059542964476350e+03
2.135521837618967311e+03
2.144014211934058039e+03
2.108564464598434824e+03
2.163052577218509214e+03
2.131494428948547920e+03
1.961971216408216151e+03
1.829723366403446789e+03
1.911930405264145065e+03
2.348621320828357966e+03
2.766767258416115055e+03
2.740321329426426473e+03
2.726639577622746401e+03
2.486151889443687196e+03
2.312493605537769781e+03
2.478603642579092593e+03
2.157439924080835226e+03
2.003473804856523429e+03
1.802673758817436465e+03
2.034866737852084725e+03
2.116499316323667244e+03
2.294630700776133835e+03
1.709486813728320158e+03
1.644997343667050700e+03
1.338164803431416203e+03
8.540873442950138497e+02
6.758810050930760553e+02
5.898305106110555016e+02
6.320712560188308089e+02
1.181549785159958446e+03
1.722370680066842397e+03
2.294373656058957295e+03
2.147407288289428834e+03
1.719590726380882188e+03
1.633887873945623369e+03
1.326293075400640873e+03
9.837843319754781533e+02
5.002150311102101341e+02
1.871009629552210995e+01
-5.525950405617447814e+02
-9.126109227944268696e+02
-7.822453653649341732e+02
-1.368394391915788901e+03
-1.391063039368769523e+03
-1.161135612480996542e+03
-9.858315660714042679e+02
-8.791966865503324016e+02
-8.989243854156270572e+02
-1.260004296858974612e+03
-1.408417935161153309e+03
-2.460975457596339879e+02
1.547988988646502094e+03
1.690839576889480895e+03
1.146491404951247887e+03
2.619514305921770756e+02
-3.756888392673899375e+02
3.806891973843235064e+02
6.480653496961374458e+02
1.773825861608677599e+02
-2.492258540945526420e+03
-4.768798310617208699e+03
-4.221199236179693798e+03
-9.343662440810643375e+02
-2.144245155011500174e+03
-5.189879485130678404e+03
-6.220224715540726720e+03
-5.720224293571588532e+03
-3.643870083247652929e+03
-1.879170047563032313e+03
4.099857649593751034e+02
-1.822348030160130293e+03
9.958569697849264912e+02
-9.473486266956501822e+02
-1.700987178761889709e+03
-8.130279850807194180e+02
-2.269446017448180555e+03
1.906847258711683253e+03
1.020867780419259930e+03
2.148618247637160948e+03
8.940818631895388080e+02
3.192263397392348452e+03
6.111999288087657760e+02
-2.800965349867066720e+02
-1.059649938777142097e+03
1.389538697674925515e+03
1.575189139442506985e+02
-2.730677374711666289e+03
-4.501049025943049855e+03
-8.945313454196424345e+02
-2.304097303298833594e+03
-2.700740046665732734e+03
-2.102428254315098457e+03
-2.557128664126394142e+03
-2.407796835483998166e+03
-8.934634325147227401e+02
-2.490117472059210286e+03
-7.298058755878586226e+02
-2.513534522197095612e+03
-1.898234631359852756e+03
-1.937877160477496091e+03
9.674886959814775764e+02
1.382867190220807061e+03
1.415233789049250390e+03
1.095583996732872038e+03
2.239583128736241804e+02
1.313184045607812607e+02
1.028693102828349311e+03
1.601091842904700343e+03
2.311431881372064254e+03
2.474741263634934967e+03
2.927015181133908754e+03
2.566141358986924388e+03
2.195310245830768054e+03
1.815747159329205715e+03
1.095142507168362499e+03
-2.922921729352031548e+02
-7.005126454796441067e+02
-2.538665243439531025e+02
-4.121336745228711607e+02
-3.411360178034910291e+02
-3.958082367671322004e+02
-6.618773679281231637e+01
-5.284644424269915817e+02
-1.095675166909059726e+03
-1.856567910323820570e+03
-2.429577803176569432e+03
-2.338380073303480458e+03
-1.182390212694256206e+03
1.162158374278657220e+03
3.400691665359480794e+03
5.003098072994731410e+03
5.613704627107827037e+03
5.059204965319275288e+03
3.621625124993771351e+03
2.345328900819541559e+03
1.547014364226259204e+03
1.597319540248444355e+03
8.706118639365928402e+02
-4.586859730461725349e+02
-1.197781292778383431e+03
-1.065058218073359058e+03
-3.301596508132903409e+02
4.958051319068298994e+02
1.170340190771874859e+03
1.829251026997067129e+03
2.099728321013803907e+03
1.979494024230729337e+03
1.613968658799111381e+03
2.028461590267706697e+03
2.257414279703902594e+03
2.630815258405160421e+03
2.923524349671430627e+03
3.453234976300605013e+03
3.161953188539154780e+03
2.852622388969821259e+03
3.060257134173405120e+03
3.277762095471184239e+03
3.146014339177058901e+03
3.057990469557340020e+03
3.323661234898973817e+03
3.400966597156219905e+03
3.186926241926362309e+03
2.192531769260811416e+03
5.887001482872199176e+02
-4.206603347517985299e+02
1.863913318391334997e+02
1.289779550489170333e+03
1.726452711030343835e+03
1.496304803737021530e+03
2.319298536326481553e+03
2.588477386436790766e+03
1.609795210460820044e+03
1.299192006046404003e+03
2.746713139959894079e+02
-1.773819139510552532e+03
-3.490305970435485960e+03
-2.972810997620596481e+03
-2.318403877043770990e+03
-2.865183653465092448e+03
-3.669169085972274843e+03
-4.033355533117932737e+03
-5.493888029035486397e+03
-7.029874311485707949e+03
-7.843338990517727325e+03
-7.291288144546416333e+03
-7.320829806250188085e+03
-7.587983304438915184e+03
-8.100717422245732450e+03
-7.870132624851091350e+03
-6.010245938924944312e+03
-6.534031870811113549e+03
-3.859552105768847014e+03
-2.262854461336762597e+03
-2.648974818797842545e+03
-2.815883426929594862e+03
-2.628563457246521921e+03
-1.288974016261114912e+03
-1.932459690855293957e+02
-8.553500730363636251e+01
1.871680665904246723e+02
4.034917520421927293e+03
4.759685443523217145e+03
3.822363060895149374e+03
2.257939960611267452e+03
6.974260453142679808e+02
-1.318207997498758687e+03
-2.883961086674585204e+03
-3.015804304124153077e+03
-2.960735718888752672e+03
-2.207766259890890524e+03
-1.691859816511195731e+03
-1.744018706885877918e+03
-1.559163379605796536e+03
-2.806270999353433581e+03
-5.375398074193642060e+03
-4.817553502356266108e+03
-6.072120075265807770e+01
5.533089189460781199e+03
8.668854134056997282e+03
1.068457436814371613e+04
1.134625843843073199e+04
7.894898730036066809e+03
3.104403311368413597e+03
-2.157226537166593062e+03
-8.019854380388295795e+03
-7.836496618247140759e+03
-2.811126222391684678e+03
3.933277955820835359e+03
8.437688428630528506e+03
1.073818949392460308e+04
1.199884811314978651e+04
1.103871206613113645e+04
7.248784329407465520e+03
4.926116624010167470e+03
3.060768619854090048e+03
2.186798264510915487e+03
2.645166887149111517e+03
3.118578797103211855e+02
-2.957179305082154769e+03
-6.833564715585111117e+03
-1.020494726979960251e+04
-1.086918474273546599e+04
-9.298195006782407290e+03
-7.798133531976360246e+03
-5.737000050964888032e+03
-3.989694357982900783e+03
-3.114248283996831560e+03
-1.358610884297709390e+03
5.882198171543829631e+03
1.363227300753321833e+04
1.596372914138994020e+04
1.559963471279539772e+04
1.482188047844791618e+04
1.265693425292277789e+04
9.054627072168925224e+03
5.417573050622011579e+03
2.216685679032129428e+03
-9.771198843546828527e+01
-1.846501266013780651e+03
-3.837725709873633150e+03
-7.513297489839143054e+03
-1.217014983362060957e+04
-1.681816319020000810e+04
-1.901725078761820259e+04
-1.913138091210745188e+04
