4.542043108913182550e+03
4.139456907561394473e+03
3.155011837119560823e+03
1.640673794751306787e+03
6.943953849876079403e+02
7.800741739043661482e+01
-7.534145552618058446e+02
-1.035692583267024247e+03
-1.928713144454980011e+03
-2.512265560283111427e+03
-9.802487937330752175e+02
7.239969957852878224e+01
-3.281664528813062134e+02
-1.747388414800071530e+02
6.777663393472220150e+02
2.521366692965273160e+03
3.934969038622418793e+03
4.343452534697321425e+03
4.305827453758456613e+03
4.168261464877235085e+03
3.461848806381959093e+03
2.667694351564571207e+03
1.738630103530214910e+03
7.596106110611572149e+02
-7.996554561283232943e+01
-1.044812255867919021e+03
-1.599061897799002509e+03
-2.228953088625544297e+03
-2.412323128616309077e+03
-2.475686457026064090e+03
-2.086899772055488938e+03
-1.914956253934368306e+03
-1.457854299423887369e+03
-4.995458512714810695e+02
1.939536348440350935e+02
9.094833628518632622e+02
8.821847648168551359e+02
-1.659817788060182238e+03
4.627137147318140364e+02
9.806303140921316981e+02
6.498701394029816356e+02
9.557542045931800203e+02
8.600649226440858683e+02
-6.295514214467151533e+02
-8.795205861271480217e+02
-3.665805348657116269e+02
-1.300351603872896931e+03
-1.955473972817918821e+03
-2.240973614492802426e+03
-2.212708158852018187e+03
-2.259468432214257064e+03
-2.527314682380286285e+03
-2.217152572735009016e+03
-1.369885394099590712e+03
-4.324871606869280072e+02
5.967653233436353730e+02
1.293904378559140468e+03
2.453019617547602138e+03
2.656893707886431457e+03
2.218430524204414723e+03
1.111694398003196739e+03
6.927424571898091017e+02
9.996732297551697002e+02
-2.066080838806426243e+02
-1.230130076768237814e+03
-1.085637277207505349e+03
-1.531007304354677899e+03
-2.359355974054593844e+03
-2.722579247723624121e+03
-2.280607074538185771e+03
-2.131477720302524176e+03
-1.945273265152518434e+03
-1.617029643519981619e+03
-1.006828747564494392e+03
-1.166986552239188057e+02
1.291407371869181134e+03
2.024653652044879664e+03
2.411193234901725191e+03
2.360123947809579022e+03
2.068440780368337528e+03
2.036020481833593976e+03
1.096792241145566322e+03
3.085821229765049907e+02
-8.557196823372280505e+02
-1.622068670213592895e+03
-1.429262763390400778e+03
-1.872447713327208930e+03
-2.183669524364290737e+03
-2.188883903479859782e+03
-2.834086117518209903e+03
-3.600302867079522002e+03
-2.900462789841297763e+03
-1.713452828721990954e+03
-1.411391666925282834e+03
-2.485311379473839679e+02
9.970686674817907260e+02
1.897532336426802203e+03
2.335776940681736960e+03
2.524538103569420855e+03
2.118876853913107880e+03
1.655839964650492220e+03
1.203292397146658232e+03
3.291403063621606293e+02
-1.370367779234193222e+03
-1.658153720522128197e+03
-2.046739954805472280e+03
-2.286276113163930859e+03
-3.141606372521926460e+03
-3.351677760898960969e+03
-2.936542824039902371e+03
-2.950035733598410843e+03
-2.416119361836882945e+03
-1.538843077984075990e+03
-1.038428496364019338e+03
-1.979753497202917174e+02
9.565372551451788468e+02
2.031907783867673288e+03
2.555191287390307025e+03
3.166567556685889485e+03
2.865044897209642841e+03
2.293637248114048816e+03
1.470403267337909483e+03
1.051118369239229423e+03
5.367029295906745574e+02
-3.886723215149727366e+02
-1.174063017257487672e+03
-1.903930009826686501e+03
-2.430197369058424101e+03
-2.461580937085004280e+03
-2.037200963808384131e+03
-1.524315655707736823e+03
-1.231261772554815479e+03
-1.136090883122951709e+03
-6.496706646120408095e+02
3.962220886627853815e+02
1.343445938218779247e+03
2.036883790017548108e+03
2.524723906703578905e+03
2.975037068495864787e+03
2.331653864128474652e+03
9.486141306288837995e+02
7.548860798109899406e+02
1.922518092754586405e+03
1.446408609397607961e+03
-6.436927257519322438e+02
-2.562909260648458712e+03
-3.521315479202590268e+03
-3.359874112548096036e+03
-3.255615441009010283e+03
-3.949394624610446954e+03
-4.256078015429408879e+03
-4.001706437166919386e+03
-3.040288766586711517e+03
-2.330949307826838321e+03
-1.939835930669936488e+03
-1.663095286555550956e+03
-1.069539015943694267e+03
2.890809051194891595e+02
1.760741974830366416e+03
2.235386155221950958e+03
2.056087056134905197e+03
1.876968305209423079e+03
3.491355000011898255e+02
-4.184441533083583636e+03
-6.108782276272463605e+03
-4.569948382571753427e+03
-4.902274997478202749e+03
-5.606832187573689225e+03
-6.308531638439093513e+03
-7.579187464088310662e+03
-7.720655419791467466e+03
-6.199002933070933068e+03
-5.059052030160767572e+03
-6.357165574202152129e+03
-5.911442316680017939e+03
-6.635343476308732534e+03
-7.864818729839948901e+03
-8.348053002676786491e+03
-6.205229581132974999e+03
-5.994194750478016431e+03
-5.175497612041162938e+03
-2.694727982825678282e+03
-3.374310543691034127e+03
3.553506130189279588e+02
4.961108347492803659e+03
8.507005715744560803e+03
7.529107302477997109e+03
4.368898085054522198e+03
6.075061321875982685e+03
5.759517993273317188e+03
4.935560008221209500e+03
2.974389617194122366e+03
-1.250549352747504628e+02
4.489722047995535945e+02
2.976210977239979911e+03
4.804910912673290113e+03
2.785072220723985083e+03
2.444487491940872133e+03
3.416024756434400388e+03
2.059598558086119624e+02
-1.201554436797325479e+03
-2.073636197166960756e+03
-5.580663448328017466e+02
1.314790214386185880e+03
1.904200996366185791e+03
2.814533080371651977e+03
3.113127182037181228e+03
2.448777590627917107e+03
2.342544437723244755e+03
3.041531143752378284e+03
2.781798346285659136e+03
2.077382524056187776e+03
1.993461069265645619e+03
2.543206812467012696e+03
3.228448276674401313e+03
4.012055844871694262e+03
5.594224119328579945e+03
6.349601027157637873e+03
6.939554786288278592e+03
6.761469568973501737e+03
6.124770932011757395e+03
5.272757811403639607e+03
3.805358296241455719e+03
2.630731774921701799e+03
1.589765234411330766e+03
2.377102991845312374e+02
-2.256396749698114490e+03
-5.881636109374093394e+03
-4.490494204545242610e+03
-3.074117620047102264e+03
-1.717477630129196541e+03
-1.774496612406349186e+03
-2.383722345762883833e+03
-1.774514532724255105e+03
-3.029162516114905657e+02
1.853097618738608844e+03
2.611403046073521637e+03
2.482745241645918668e+03
1.921896096261976027e+03
8.785951806356548559e+02
3.004810001758048656e+02
-1.166638050652597713e+03
-2.594835345963025247e+03
-3.785232971979287413e+03
-4.474576511733290317e+03
-4.132408990056937910e+03
-4.647078888840550462e+03
-6.463077677168866103e+03
-8.606129422395171787e+03
-1.044446683892937654e+04
-9.926541101772667389e+03
-7.708478438604247458e+03
-5.372557102775087515e+03
-3.131978843288723965e+03
-1.208840199890298891e+03
1.728434743182141119e+03
5.499647662437827421e+03
8.041684536855767874e+03
8.938286506160964564e+03
9.429481802307149337e+03
8.871044707663229929e+03
5.891530139577654154e+03
2.023605204238507667e+03
-8.310573948829180608e+02
-3.473989889919700090e+03
-4.890433104905072469e+03
-5.704926485326745023e+03
-6.754642257991890801e+03
-6.289600595064658592e+03
-3.676455619038203167e+03
-4.900529736246338643e+02
2.337561254839220055e+03
4.739541748625223590e+03
5.572503787342342548e+03
5.495405248742308686e+03
6.516797422570301023e+03
7.663936638351288821e+03
7.961903466516361732e+03
7.194827590956408130e+03
4.610988509743360737e+03
3.187712774653226916e+03
2.407296158648491200e+03
4.034027306029046258e+02
-3.939222060519377919e+03
-8.127791481284108158e+03
-8.776478197732671106e+03
-7.539051663155399183e+03
-6.244267181410357807e+03
-4.787824428888015973e+03
-2.785889895042669650e+03
-8.064563130021016377e+02
-1.744611102785562935e+03
-2.473331204133037318e+03
-3.437372773610582044e+03
-1.104838049438474627e+03
2.011023956436122944e+03
4.934818662759394670e+02
-5.754776195854325351e+02
-6.114961851925133374e+01
-5.039957745718128308e+02
3.576374819041390651e+02
-3.215951409377964865e+02
-7.012577509732476756e+03
-1.112392506975136166e+04
-1.261731867091953973e+04
-1.020644928049677219e+04
-8.043646854066377273e+03
-7.086139567731826901e+03
-5.083148661986875595e+03
-1.515585068984431928e+03
2.853795221976384710e+03
5.343713524787875031e+03
8.256861464812105623e+03
1.118511405593185918e+04
1.109290051075944939e+04
9.528851665999636680e+03
8.367875832822572193e+03
7.181119256440345453e+03
6.872763150774005226e+03
4.819563742546005415e+03
1.689663318526177591e+03
6.372764251658613830e+02
1.371163416300947233e+02
-1.608739096724655155e+03
-1.078131152027589451e+03
3.811120865853871464e+02
1.335126089757608497e+03
1.515662425292932994e+03
1.392636691712131551e+03
3.931920889727741724e+02
-1.901731543621831861e+03
-4.395101201371946445e+03
-4.880947865829678449e+03
-3.883320603668187232e+03
-1.629339891914329201e+03
1.167051463671325791e+03
2.760859267207616540e+03
3.360133749494205858e+03
2.960175248125840426e+03
1.583228428192873253e+03
-6.018219418526163054e+02
-6.448723860196511168e+02
-2.194687658421088599e+03
-3.855953988957775891e+03
-4.803210514661225716e+03
-4.595156741536313348e+03
-4.832078146204768927e+03
-4.068968673523982488e+03
-8.342567209882622592e+02
1.886348319685295337e+03
2.959865584985415353e+03
3.356824797871949158e+03
4.910468163269147226e+03
6.536191492943133198e+03
5.610247876245849511e+03
4.708440022995334402e+03
5.819778530399603369e+03
5.180349840596662943e+03
2.895002421890347250e+03
4.394837398354557990e+03
8.127916834818634925e+03
6.524365747007082064e+03
2.399295067028942867e+03
1.803234698386426658e+02
-1.394488842764222454e+03
-4.001888559564434217e+03
-4.215642135653275545e+03
-3.084915307104993644e+03
-1.329014489214096329e+03
-1.104797037640104691e+03
-3.914140223844757429e+02
-2.048321812716069132e+02
-3.138525414490365620e+03
-5.441242609981642090e+03
-5.256183745722802087e+03
-4.999806188520386968e+03
-4.332186039840563353e+03
-2.178177402190617613e+03
-2.094560614232075750e+03
-2.803362294147572811e+03
-7.416237082023618541e+02
1.543771359969131481e+03
-7.110498205627800417e+02
-1.239173797325172245e+03
2.740462886351579527e+03
6.416103509499641405e+03
7.285752813761976540e+03
4.042497494692625423e+03
4.100962714891720395e+01
-1.699883522271817810e+03
-5.091627369001467969e+02
4.934864310554337976e+02
5.915443084770906523e+01
1.568591745165710790e+03
3.018838901521122352e+03
2.913981098377397757e+03
3.503256148395074433e+03
5.232726363058150127e+03
7.381427219565747691e+03
9.200334626709473014e+03
8.419669711389935401e+03
7.862471338450329313e+03
6.377642236999772649e+03
4.080132116973565644e+03
1.823724610871999630e+03
6.456945328863755549e+02
1.162237446766471294e+03
1.833252337238942346e+03
2.837746943735306104e+03
3.116713225238951054e+03
2.718075084439414695e+03
-4.070210400738935732e+02
-2.759571198726762759e+03
-2.629670692450917613e+03
-3.118343113524817909e+03
-3.240539683722423433e+03
-3.601164287757779221e+03
-3.942012863145474057e+03
-3.358938165371412197e+03
-2.148065335756134118e+03
2.717640191044063513e+00
2.527284484582849473e+03
1.336591633673230035e+03
-1.930970626879537349e+03
-4.836494548090669923e+03
-5.785085897417606247e+03
-5.075524294236555761e+03
-5.088824147012910544e+03
-2.741957742272223186e+03
-5.042883234362581788e+03
-9.479518991868517332e+03
-7.869021591995701783e+03
-5.963320624440977554e+03
-6.506210460255612816e+03
-1.056771509054774106e+04
-1.313791718529341597e+04
-1.072647576814666172e+04
-2.023853604124616368e+03
2.989683627194485325e+03
3.294571198590067070e+03
7.914459034450914032e+02
-2.629851815408374478e+03
-6.387331476026593919e+03
-3.514720082792134235e+03
-4.006694164120013738e+03
-6.111519911102258447e+03
-5.411031656766581364e+03
-1.181164333533505442e+03
3.418145965113491911e+03
6.661194035058241752e+03
6.039655585697294555e+03
7.549048561606017756e+03
9.147376773940035491e+03
7.868054785403645838e+03
3.942643842239371679e+03
2.413547039436482464e+03
1.585350879111185805e+03
-1.627502396282226300e+03
-3.446865142287819253e+03
2.526321337338805733e+03
1.309079857286812876e+04
1.781054196286901060e+04
1.610645380237446261e+04
1.368856607756736776e+04
1.170590427092406571e+04
8.074413447778265436e+03
3.296005368707670186e+03
-2.167317891684337610e+03
-5.990528914990555677e+03
-7.652663544854253814e+03
8.582714817622612600e+02
1.024423278213052799e+04
9.131219610525580720e+03
2.687161003176955546e+03
-9.829514270251177095e+02
-3.198086797999184910e+03
-2.306208725709952432e+03
2.351649929914417044e+03
1.004955546066865827e+04
7.553633289208747556e+03
2.654902963626288056e+03
-1.076737649277042550e+02
-4.009132107766947684e+03
-9.021387449849515178e+03
-8.048331119027198838e+03
-9.674530346485960763e+03
-9.551794539718184751e+03
-8.112206442350959151e+03
-1.330062512521536337e+04
-1.148311692565064186e+04
-8.762011267040978055e+03
-2.455372551713109715e+03
-2.451245575729647044e+03
-5.642447798252542270e+03
1.390035604938425877e+03
7.270232465302665332e+03
1.010713523969928247e+04
1.074968203802060270e+04
1.133185229010327203e+04
9.915581190891896767e+03
1.184897732346455268e+04
9.774041988598924945e+03
5.191651743544950477e+03
1.751758531225836350e+03
-3.762669075909456751e+03
-9.675615073183342247e+03
-7.499057572731839173e+03
-4.271234531248180247e+03
-1.818391280900514403e+03
-4.961600835426736921e+03
-7.213906077778701729e+03
-2.205350265258087347e+03
2.249634170216792484e+02
1.292823474035192248e+03
-1.240852556765570625e+03
-4.889006376027849001e+03
9.533561556432995303e+02
2.421435248674863033e+03
-2.685578608620614318e+02
-8.928595147691723469e+03
-1.271074131264871539e+04
-7.170973580835408029e+03
7.178598772158834436e+03
1.137284280905584819e+04
1.849747157072065193e+03
-6.809909004126884611e+03
-2.354402614662911617e+02
8.819046375339614315e+03
9.910541279069824668e+03
5.882981431593494563e+03
1.417043933927099715e+04
1.813797410554746239e+04
1.243035649996354732e+04
5.630494345820035960e+03
-1.470549741463897362e+03
-6.887644423530085987e+03
-9.379501145597747382e+03
-8.293254462122673431e+03
2.641887480812693411e+03
1.355697183172661244e+04
9.798435314954453133e+03
2.957341098666627204e+03
-2.276509563987685397e+03
-4.782356152223625031e+03
-3.666286858912323169e+03
-4.159396932418796496e+03
-3.817727976615999523e+03
-4.649468210902652572e+03
-5.097501936370731528e+03
-2.774836041275062144e+03
-4.498399953214550806e+03
-5.078468248573160054e+03
-3.269991836081390829e+03
-2.026736898875774841e+03
-4.018989758194191836e+03
9.501422315992630274e+02
4.907159176520795540e+02
-4.025527274248966023e+03
-7.275269296445887448e+03
-7.575899749241366408e+03
-3.188529121090985427e+03
-7.435394777265262746e+03
-1.759381003512506140e+04
-1.961661541308928281e+04
-1.115002912458719402e+04
1.817685444949167959e+03
8.342237866583051073e+03
-1.681565082297846175e+03
-4.130617372892904314e+03
5.466916260976719968e+03
1.032987393074125248e+04
1.031847577552420807e+04
8.166962554512314455e+03
6.497220659384664032e+03
7.525250353192913281e+03
6.027081613702472168e+03
4.234880177593538065e+03
4.867742776552875512e+03
2.570586412010261938e+03
-1.086723408834378404e+02
-2.023947237468926915e+03
-1.774413561577608334e+03
1.342816736755907186e+03
1.331762067670105125e+03
3.432002730383712397e+00
4.608165044858583883e+02
4.489221409883237470e+02
1.276825913069336139e+03
2.637661819738581016e+03
3.016294904196002335e+03
1.261573764582347621e+03
-8.935769075515013355e+02
-4.238206859174357305e+03
-7.931302157793694278e+03
-9.847800339833138423e+03
-9.181602609065903380e+03
-1.112066777673911383e+04
-1.232890328732973467e+04
-9.780408668977635898e+03
-1.777800294281075548e+04
-2.177164217452983212e+04
-7.839380432903804831e+03
4.926610509784551141e+03
6.247273168749288743e+03
3.070546981706700080e+03
3.827340014672449797e+03
4.037691251726188057e+03
-1.727519251869908658e+03
-5.533311007988993879e+03
-5.081758633942054985e+03
-1.456898079527632035e+03
-2.146960459921400286e+02
4.821057680773095058e+02
2.117478361892100111e+03
1.530443300386696137e+03
1.227114131926331083e+03
5.925038361561363587e+01
1.366633370981568078e+03
4.164650067382722227e+03
1.921535412695716559e+03
-1.320851261329167528e+03
-1.565527909511037024e+03
1.978658683549474517e+03
3.381539627522385217e+03
1.054009313238296045e+03
3.968844309833402804e+02
-3.289766537548136512e+03
-7.411022074623504523e+03
-4.756844373687655207e+03
2.255074143098267541e+03
7.666779173226831517e+03
7.874026375770551567e+03
5.659686623154531844e+03
4.119796641397718304e+03
4.484224843652230447e+03
4.465078766502196231e+03
3.200402859088176683e+03
2.196967298254805428e+03
2.289681119965920516e+03
5.788719587783643874e+02
-1.058563361414725478e+03
5.009530037191049132e+02
2.806304299863079450e+03
6.977631701207394144e+03
7.085214997503340783e+03
4.150108205823372373e+03
7.732016340507718724e+02
1.506261247166948806e+03
3.587224970871360256e+03
2.157157799586689634e+03
4.148460683844655819e+02
-9.357305314086358976e+02
-9.154868915140910985e+02
-1.577460898996031119e+03
-1.229803318023156862e+03
1.443651419128030682e+02
2.994004067014538577e+03
4.630294259483362111e+03
4.531161797560336709e+03
3.963686562186627270e+03
8.249921445420010286e+02
4.000727321216810992e+02
1.353774219847691484e+03
1.023918265629264511e+03
9.804251225859322858e+02
1.438184253982824657e+03
5.022342130536965783e+02
8.755235375589238629e+02
1.014201806009298139e+03
-9.773201447146853127e+01
-1.108492547633900813e+03
-1.548057319407485011e+03
-1.967504866146312224e+03
-6.198516433598445019e+02
2.860855343522762723e+03
3.355580133581926020e+03
9.181806043128368628e+02
-2.450524611617540813e+03
-3.902630939353421581e+03
-2.336911512896914246e+03
-2.586247876678041393e+03
-5.018652305358765261e+03
-6.212280510022489580e+03
-7.222335619102993405e+03
-6.323857768762736669e+03
-4.882150347781431265e+03
-4.928908774554330193e+03
-5.719957547594438438e+03
-7.385816848510818090e+03
-7.674587845749219014e+03
-8.075144697061197803e+03
-6.798187700722649424e+03
-2.186811430039253537e+03
-2.381419150955351597e+03
-4.361664761617611475e+03
-4.082455572341580591e+03
-3.771449541199024679e+03
-3.680446401115857952e+03
-3.938384927093920396e+03
-5.327189905324165920e+03
-5.763423148415688956e+03
-5.140893040477249997e+03
-4.229467747437182879e+03
-3.055447208632456295e+03
-2.504236905914290219e+03
3.459980344108138297e+02
3.004258381790055410e+03
1.976774839144158022e+03
4.663303177998209321e+02
8.085422048330393352e+01
-5.435490228600682713e+03
-5.149416028545754671e+03
-1.329054698618960629e+03
-3.271484299192550225e+03
-3.357447989849589703e+03
2.629836671646868353e+02
2.124163360436180938e+03
3.141609015308429662e+03
3.693604253517175493e+03
4.455603876136975487e+03
4.767708490896540752e+03
5.011970685885027706e+03
5.182600125524063515e+03
4.549672672839296865e+03
3.632296148991179507e+03
2.670484241767430831e+03
2.295173332650359953e+03
1.688429604522959607e+03
1.408050368558711853e+03
1.461751213757915821e+03
1.004033070066014602e+03
1.074890941835939884e+03
1.088299592120914667e+03
1.820503170686749286e+02
-2.651995099696192710e+02
1.932563626788665374e+02
1.292246246795849402e+03
2.285064075391690494e+03
2.675601729133314620e+03
2.907974236149888839e+03
2.994675473958051043e+03
5.826452662549285151e+02
1.156744449974664121e+03
1.474670121268121875e+03
2.997668371078734253e+03
3.737050457577624456e+03
1.713615784334861701e+03
-8.608447890178858586e+01
-1.288201922663285359e+03
-8.610152250287396782e+02
-5.482298827625762669e+02
1.433261199399287875e+02
6.276287836830338165e+02
1.148048299013400310e+03
7.228816945017616717e+02
-6.348375207457320357e+02
-3.540393324840196101e+02
9.114237963474927255e+02
2.482788133522527914e+03
3.442391413417924468e+03
3.028325891534980656e+03
2.418859364912407273e+03
2.387151637700817901e+03
2.044924777987218931e+03
1.049843132625938324e+03
1.934605303748137715e+02
-2.989533777523534468e+02
-6.601273087937585160e+02
-1.169093080338645620e+02
5.513353179685436345e+01
-8.107701527306018079e+02
-1.890278612923807032e+03
-3.103132430331075284e+03
-2.413962833361835692e+03
-1.179393861038185378e+03
-6.559009989195642447e+02
-1.887208921924109575e+02
7.929968297256129972e+02
1.903568347715262462e+03
2.409205402759356275e+03
3.032672932372175183e+03
2.928207964735354381e+03
1.763044597804588648e+03
8.561249053839312637e+02
6.502107713454755640e+02
3.399136424540299686e+02
2.537672151944882444e+02
6.249205426266532868e+02
-3.462805895079658853e+02
-1.992957277880535230e+03
-3.489764314705172637e+03
-4.335354890888280352e+03
-3.312548004742182457e+03
-2.777294642143812325e+03
-4.283706216643627158e+03
-6.920575189384894657e+03
-7.090986303651717208e+03
-7.013691583865411303e+03
-6.001292925643941999e+03
-5.440661388199695466e+03
-5.045700716801668932e+03
-4.831456732978496802e+03
-3.522799928825171719e+03
-3.549741914415273641e+03
-4.619037632109593687e+03
-5.686662699946500652e+03
-6.129749347549188315e+03
-6.344883918959259063e+03
-3.760986687640428954e+03
-1.626087877512821024e+03
-2.557084986833859602e+03
-3.222595641322156098e+03
-3.957038479295975321e+03
-6.813885528244411034e+03
-7.236694972282864001e+03
-6.454338861935924797e+03
-5.363899165776814698e+03
-4.878703975800216540e+03
-3.818982719592363992e+03
7.649942323375987598e+02
3.029855777964025492e+03
4.167816654087658208e+03
4.412322907728215796e+03
4.377754170965845333e+03
5.119487188754140334e+03
5.258127138069464309e+03
4.208745262038658439e+03
3.274633932310234286e+03
3.876225873068007786e+03
3.225752895371594150e+03
2.186297606810082470e+03
2.241766045324135575e+03
2.578493153308202636e+03
2.607647122659670913e+03
3.373115128944179105e+03
3.744207367890761816e+03
3.940050870870902145e+03
4.250725601925276351e+03
4.577115586701759639e+03
5.253054712817907784e+03
5.739812032656049269e+03
6.060538014594932974e+03
5.566124258502911289e+03
4.235642250452547160e+03
3.698060811552700216e+03
3.033358520747039620e+03
1.881493642706666833e+03
1.357658868618862698e+03
1.456976345989721949e+03
1.175545561785532755e+03
1.001485458425726847e+03
1.185739939325813111e+03
7.072010469117935827e+02
5.312208795442239051e+01
-6.650102966412696048e+01
5.640108498560774706e+02
1.520475189257931561e+03
2.512849652093223995e+03
2.612602305010811961e+03
1.507373944410132253e+03
5.297918494980930291e+02
1.467160514894792641e+03
3.686445008798436902e+03
3.580817746848749721e+03
2.686715363367801729e+03
2.120980696258284752e+03
1.477246421320914806e+03
-1.661852179556594820e+03
-2.151256309253707514e+03
-8.359944144753332012e+02
-7.070711009613823990e+02
-1.147225641844203210e+03
-9.777616428505712065e+02
-5.647308381795094192e+02
-6.535318013760709732e+01
3.591120531278953649e+02
1.669862303161225725e+02
-4.764334493453906560e+01
2.780320857514380464e+02
7.196270369453678768e+02
1.630112888867759466e+03
1.480742742132802960e+03
1.055333455170647312e+03
2.640707361402148763e+02
-4.570666924595765295e+02
-6.257330038224489499e+02
1.856475766451671916e+01
7.368715489775397032e+01
-1.311146004975010328e+03
-1.647852761142167537e+03
-1.580533975215057580e+03
-1.629374345605535837e+03
-1.717430773850094056e+03
-1.499659301665857811e+03
-1.302154624977696812e+03
-1.072065476217195965e+03
-3.652456242509270510e+02
4.102114724333607114e+02
8.889628696323252370e+02
1.434844155651215715e+03
1.571504097803650893e+03
9.870787556951859187e+02
7.827525923649022843e+02
8.214979148301532632e+02
5.558325392087183445e+02
9.349645734050477586e+01
-7.743502381248662232e+02
-1.329759203389764934e+03
-1.887838127987461576e+03
-1.805782989452252423e+03
-1.761633516195631273e+03
-1.916624770925825260e+03
-1.997929339922252211e+03
-1.768740349411195893e+03
-2.005069571219506770e+03
-1.986932215656784365e+03
-1.097391415561042550e+03
-8.625160450605898177e+01
2.872406285941982560e+02
6.258205456373643756e+02
8.984868524266594250e+02
9.151161519394723882e+02
1.530541497863518089e+03
1.443803892594788977e+03
5.535933012278110255e+02
1.409132445777526641e+02
-3.262343443675964068e+02
-6.319968636806546556e+02
-1.120538663562448846e+03
-1.599985120862839267e+03
-2.251556419195566377e+03
-1.774519227117674745e+03
-1.499775384210514630e+03
-1.476258018237710530e+03
-9.718081767631213097e+02
-2.943254583002546951e+02
1.990489755837716856e+01
4.997298926112213167e+02
1.288507125801710117e+03
1.997775376655189575e+03
2.419658384846203717e+03
2.363063945045416858e+03
2.254597426599314076e+03
2.036179082276417603e+03
1.407968673680526081e+03
7.778836105478153513e+02
-5.052589746026738382e+00
-5.609855126091866850e+02
-1.186217774243029680e+03
-1.465101138074972823e+03
-1.813310538168067751e+03
-2.364765309365845951e+03
-1.999531391593240642e+03
-1.513713291752262194e+03
-1.315332644239291085e+03
-7.903462701353540751e+02
-2.847619070970662847e+02
3.193059025171708640e+02
1.414756225814039226e+03
2.024564682310756325e+03
2.213831837091665875e+03
2.317651479386957817e+03
2.568489503108051395e+03
2.684234122294992630e+03
2.602106525725127540e+03
2.379103700940053386e+03
1.552105632221496762e+03
1.172375743276270896e+03
9.378665802431148677e+02
1.850785139075362906e+02
-1.147467451100435483e+02
-4.845940809660715445e+02
-7.466502766612122741e+02
-2.987972262115212061e+02
1.011314692621056963e+02
3.660382249973414446e+02
6.688517891939238780e+02
1.576593914548103839e+03
3.006303776965889028e+03
3.290045937052190766e+03
2.812878674800983390e+03
2.778820068367924705e+03
3.354920655620303023e+03
2.913127472463738741e+03
2.852474469070616124e+03
2.221959024233478431e+03
1.166534289804460286e+03
1.006280507108723214e+03
8.321891720107906849e+02
4.982458264661567569e+02
-2.704774407856381799e+02
-7.629359639813638978e+02
-6.941300877329514378e+02
-7.850648547550050580e+02
-1.858710905771316447e+03
-4.547961065605572912e+03
-4.058756614326292947e+03
1.290957496553505280e+03
2.438513258836120258e+03
5.407292272078259430e+02
2.734632443534862887e+03
1.239146418853440082e+03
3.099375313510151045e+03
-2.054623981564516271e+02
-2.150322450139316970e+03
-1.281212074953902857e+03
-9.722191021605644892e+02
-1.522323758312403697e+03
-3.088571439399644987e+03
-3.050886145850557114e+03
-1.888231898039212183e+03
-1.086476503377859217e+03
-2.797418994309000936e+03
-3.061378363464083350e+02
3.743415166062657704e+02
9.210317720426953656e+02
1.658030127526591968e+03
1.402480215903089857e+03
-1.825096791984592812e+02
9.661007294348672758e+02
-1.926597800006423540e+03
9.674913080386344291e+02
6.443568672475593075e+02
2.903068745734014101e+03
5.166772192544525524e+02
3.670627606215779224e+02
8.582889380284470917e+02
4.974280828934321335e+02
-5.547473549684386285e+01
-5.723519802978448752e+02
-1.367213560474786846e+03
-1.413059909000255175e+03
-5.667994461745410035e+02
2.936280954341595475e+02
5.582731446906518613e+02
6.132553343800561834e+02
1.246588681975671534e+03
1.845246276026122587e+03
2.427342451218119550e+03
2.898002781292131203e+03
3.332222035163946657e+03
3.369928300546409446e+03
2.996157141254952876e+03
2.745970990668617105e+03
2.384343416388963760e+03
1.435373547211587265e+03
8.022072990343772858e+01
-1.040142088087876800e+03
-1.765917526018257149e+03
-1.759233809462056115e+03
-1.405950605445707879e+03
-1.431729470177704343e+03
-1.410276484087650942e+03
-7.676885600734992749e+02
-1.238023989958716356e+03
-1.914323113470378303e+03
-1.341551604006472417e+03
7.913568837090103898e+02
1.863358690806182722e+03
2.182369413619254374e+03
2.977466179403059868e+03
2.822790229582280517e+03
2.356395980629145470e+03
1.528348227422478203e+03
8.373955975142609987e+02
6.870736306243213676e+02
9.158981020584121779e+01
-5.808184125724114892e+02
-8.861711881000361473e+02
-7.284922273607999159e+02
-1.080682696715209204e+03
-9.847870933505430457e+02
-7.797691145032069926e+02
-8.805796691313612428e+02
-1.037274200652074114e+03
-8.889750546065886283e+02
-2.789056462286599114e+01
1.234172547471782536e+03
1.813894815194458261e+03
2.378286264415750338e+03
2.548395881131131318e+03
2.463157026981314630e+03
2.324553049564393405e+03
1.968698548554810714e+03
1.774613412298761205e+03
9.231153043836916368e+02
-1.847534131774108914e+02
-1.165837034339733009e+03
-1.588303275900807193e+03
-1.565434748629266551e+03
-1.616411492559707085e+03
-1.697272004913600767e+03
-2.041892702586077121e+03
-1.985283346954629906e+03
-2.188575299618887129e+03
-1.853844558221748912e+03
-1.285109351206784595e+03
-7.102302047979749204e+02
-2.580858071366114928e+02
3.533297531761733694e+02
1.267060753086139357e+03
2.624040713667298405e+03
2.490163032903792100e+03
2.130343867666076676e+03
2.098508244996347912e+03
1.072543428140246533e+03
-1.584906180316692712e+02
-1.516613960807840385e+03
-2.159847643667701959e+03
-2.450172876334156626e+03
-2.475574418535225050e+03
-2.622138473844140208e+03
-3.523913492318888984e+03
-2.288920304717447834e+03
-8.841776737235508108e+02
-1.354576881251801296e+03
-3.469152883913205642e+03
-6.930898325186201873e+03
-7.514941683095358712e+03
-5.877459386544931476e+03
-4.613330447239813111e+03
-4.011470351106213457e+03
-3.711973662693951610e+03
-3.838834952869025528e+03
-4.505695832953895660e+03
-5.474909170246514805e+03
-4.685845123896155201e+03
-1.467426503154473266e+03
-7.885836055892589229e+02
-1.049270902121115569e+03
-8.905258215563284239e+02
-1.269631148972323672e+03
-1.792664477082126723e+03
-2.189488160496817272e+03
-1.583073071152597322e+03
-5.595292560674572542e+02
-2.647321204359206490e+02
5.562791845456528108e+02
1.558457669181958863e+03
2.693108155320458536e+03
3.462539952398960850e+03
3.710686002848489352e+03
4.382635938098411316e+03
4.589450961175402881e+03
4.306868718567599899e+03
3.399541320954883759e+03
2.296247167694772088e+03
1.527871705997528124e+03
6.984078399185023045e+02
5.580869956581344837e+01
-7.910571790860002466e+02
-1.518023144991111621e+03
-1.151077807358564542e+03
-9.813715470177810403e+02
-6.417860601840696972e+02
3.497926572353840129e+02
1.109273149494404834e+03
1.608622332300222752e+03
2.589942273022212703e+03
3.557327953541629995e+03
3.609836274476001108e+03
3.414557390383922666e+03
3.184490557444570186e+03
2.881638108854620896e+03
2.488924983573460395e+03
2.074321875840130360e+03
1.684894008621347666e+03
4.297005401485829452e+02
-7.143115984705738128e+02
-1.144251595382077994e+03
-1.043108433551898770e+03
-1.371870791486904409e+03
-1.859707570224026313e+03
-1.611552132594351860e+03
-8.333782325700940419e+02
-5.472321502735654803e+02
-6.403234038526611016e+01
5.153372055837573953e+02
9.330643193730587654e+02
1.890410857936964931e+03
1.443333504140624882e+03
2.176855090525501964e+03
3.015757667856290027e+03
3.155028435014402476e+03
2.762621109157114006e+03
1.688466845006172207e+03
5.755662894434365171e+02
-3.049246562363687190e+02
-1.559043927921594786e+03
-4.646777241692722782e+03
-7.074983270622879900e+03
-6.094452986453347876e+03
-4.370137741238328090e+03
-5.122864625842088572e+03
-2.594698489964274358e+03
-4.122860289538773941e+03
-3.291404709574285334e+03
-2.892085310740841351e+02
-1.525114055678513125e+02
-1.609441913704160697e+03
