1.172272299582358937e+04
1.003750550134510922e+04
8.498621083405390891e+03
7.446103675242609825e+03
7.197889094361543357e+03
6.442845232297484472e+03
5.191964078951947158e+03
3.996287139809972814e+03
2.881972513489485664e+03
1.650989060942863262e+03
9.182120110656692304e+02
1.494687030216050061e+03
2.000461109965931882e+03
1.109567863454964254e+03
-6.707795085504534427e+01
-9.765011807414496161e+02
-9.427534819827978936e+02
-9.606859739163717222e+02
-6.662201156642686328e+02
-1.792337131417276396e+03
-3.614040768532694528e+03
-2.942333594121560509e+03
-5.963097785968344624e+02
1.565106060426899148e+03
4.099953201621958215e+03
5.339151398067803711e+03
4.368636719024965714e+03
3.009411645955514359e+03
7.244827633181296278e+02
-1.076198221088446189e+03
-2.512741953201149954e+03
-2.687241061171763704e+03
-1.993665459758455654e+03
-1.680018902259336528e+03
-1.676396647542793971e+03
4.009700401438518469e+01
9.704432820309948511e+02
1.717704495095912080e+03
3.282879306276715852e+03
3.433947278745812582e+03
3.150984308411794700e+03
3.368041048745621083e+03
3.394024506289634246e+03
3.308748988463813021e+03
3.952135385261029569e+03
3.791320865947550828e+03
2.900297960285711270e+03
1.829921821030068486e+03
1.406002181713257642e+03
8.675315657016807336e+02
-4.358402599799278931e+01
4.455752433094946809e+02
1.446974856438688676e+03
5.616200660224417334e+02
8.252565833953045171e+01
1.239598535770093349e+03
1.735643781436814834e+03
9.885652182368448848e+02
1.234277760986391513e+03
2.060834679091318321e+03
2.673373762933431408e+03
2.529847465518684203e+03
1.966170364231461463e+03
1.653296632848277795e+03
8.761541297449368813e+02
-2.147316481503664363e+03
-5.021139569332573046e+03
-5.478364669652472003e+03
-6.776061457374740712e+03
-7.985327488380545219e+03
-8.738257867149261074e+03
-7.864968924713836714e+03
-7.111539644868383220e+03
-6.500955167559461188e+03
-6.029249979190207341e+03
-6.921505723157276407e+03
-8.058807106913709504e+03
-8.740196088181934101e+03
-7.012688051056315089e+03
-2.681249876672555274e+03
6.551625458586437389e+02
1.700412603316772447e+03
1.910516794021696796e+03
-1.145518565160135040e+03
-3.928750363333813311e+03
-4.810242957310935708e+03
-5.716002603821643788e+03
-5.271118981013385564e+03
-4.292627218882326815e+03
-4.759608417635931801e+03
-5.402122512315928361e+03
-5.866187334382295376e+03
-5.701900681392635306e+03
-5.237294506922050459e+03
-5.735423722995457865e+03
-5.336232279356448089e+03
-4.038727705239350144e+03
-7.159604070093821520e+02
1.850815301879931667e+02
8.624198534572776680e+02
1.816086553083890294e+03
2.343024326748892690e+03
2.959289509432687737e+03
3.195855749298510091e+03
3.353693721800734238e+03
3.068822618883119958e+03
1.879203455789172494e+03
1.039789868860024171e+03
4.185066849529473529e+02
6.823052220799673933e+02
1.460212740890638770e+03
9.052036728531696781e+02
4.943002092942161880e+02
9.534321586016584433e+02
4.234803880083301806e+02
9.614508451227046635e+02
1.587610748725616077e+03
2.198954059736549880e+03
2.873515456295870536e+03
2.680394396288437292e+03
3.121813370842116456e+03
3.415883588336262619e+03
4.085480236002162201e+03
4.347370107959784946e+03
3.686468908886868576e+03
3.448131435796500682e+03
3.163545714764831700e+03
2.052472153725381304e+03
5.279312810044584694e+02
7.000939489742780779e+02
8.486386457124636991e+02
6.773780224029545707e+02
5.063430635819011059e+02
6.939083929498212910e+02
3.618433140912655404e+02
-2.268674123808933984e+02
-7.231933612784612251e+02
-3.739374122616198974e+02
4.709069219902003169e+02
1.996174206709899408e+03
4.273009143918277914e+03
5.833754563266405057e+03
5.368286175645987896e+03
4.922583158971756347e+03
4.418687232696059255e+03
3.371596812289618811e+03
2.338241637513641308e+03
2.214564393108107652e+03
1.396416292625361166e+03
6.588163947101000986e+02
1.779698714724645185e+02
1.798546587518127637e+02
5.111928631640537333e+02
8.730954853135392568e+02
1.453635343321833261e+03
1.288823410843663396e+03
8.376574473280312532e+02
1.116209876946214990e+03
1.744479434274973073e+03
2.564428296119036986e+03
2.767119355529795484e+03
3.403679179206739718e+03
3.890142580692641332e+03
3.331581162717319785e+03
2.719111379826770644e+03
2.571700137720302791e+03
2.592361838331613399e+03
2.065099464925309348e+03
1.204871417925970036e+03
9.746553988802196500e+02
7.914088828096043926e+02
3.970629516924399809e+02
-3.813266397262841565e+02
-9.437374528148410491e+02
-9.861256381504549609e+02
-1.022457890436868183e+03
-7.698054000849967906e+02
-5.031668467999184600e+02
7.858459661851394173e+01
-3.834020888414145816e+02
-2.115080287000726003e+03
-4.012490472590834088e+03
-5.320651651123172996e+03
-3.895498943099839380e+03
2.210419778231700434e+02
1.049970304372793180e+03
-3.076868490699262566e+03
-4.408617532878425664e+03
-5.646281803437876988e+03
-5.796752326028216885e+03
-5.218966361258509096e+03
-5.324893003077520916e+03
-6.670521932319159532e+03
-6.994780447782892224e+03
-6.545681239850789098e+03
-6.350309350664912017e+03
-6.225708404987988615e+03
-2.407926520985300158e+03
6.899836158133891786e+02
1.408041214945066258e+03
1.653348480076114356e+03
2.683980651151175152e+03
2.855985850352898979e+03
2.662403378856428390e+03
2.788215801452937740e+03
2.142452137095000126e+03
1.798166023144193105e+03
1.859565022534752870e+03
1.194670032842291448e+03
3.652868443221296957e+02
-9.190727327494715837e+01
-7.688777975370497870e+02
-1.681727956624398757e+03
-2.797598664414311770e+03
-2.731478685455024333e+03
-1.553467408070825513e+03
3.585455305795123877e+02
1.019764396719008232e+03
1.315299115892637019e+03
2.253060114191818229e+03
2.697974665921850828e+03
2.750171770791333074e+03
2.854592915248907957e+03
2.891331771366260455e+03
2.392670971705241300e+03
1.518463746178140809e+03
1.352714480863698782e+03
8.334709601572513975e+02
5.615120849102720513e+02
2.965613024422499393e+02
-1.634168022121880597e+02
-6.261407580252541720e+02
-1.181583919298099545e+03
-1.920847996987347415e+03
-1.768859341550306453e+03
-8.598373295194518278e+02
-5.320154756448870330e+02
-4.335510701524169122e+02
6.560234745994587513e+01
4.888136914363021788e+02
9.202920618911559814e+02
1.285968333898405490e+03
1.427748416030485942e+03
1.815584579241784013e+03
2.009484865093375674e+03
1.707528136726913772e+03
9.749413207777486150e+02
3.709098322332982320e+02
-2.656952022013690566e+02
-6.023001549623679693e+02
-1.195985238264889858e+03
-1.615733121701133086e+03
-1.942707180684610194e+03
-1.881557267747574770e+03
-1.650527820598005064e+03
-1.482639422357483681e+03
-1.798834617505958022e+03
-3.702951441819497632e+03
-1.872856770536511931e+03
-4.074909023677617483e+02
2.221525268306245096e+02
5.680886699204060051e+02
8.304451571875857780e+02
2.613160165432951771e+02
4.097226329551966160e+02
8.356754476447001707e+02
6.771814966120167583e+02
2.501300066936364601e+02
-4.662982804403771553e+01
-2.231121790371585121e+02
-7.552716899159552213e+02
-1.317092553865707941e+03
-2.121558384446376749e+03
-2.579633897223079657e+03
-2.428394334178623467e+03
-1.867945513647607640e+03
-8.622372920420391438e+02
-6.914428646436957138e+01
-4.007314780425097069e+02
-4.710948190976577621e+01
9.216902585374466526e+02
1.210570160731966780e+03
1.580687301175839821e+03
1.545223909933806453e+03
1.452136539597936007e+03
1.216555619204219738e+03
5.665937264450917610e+02
4.042495737944838083e+02
4.214012085240250940e+02
1.948638293881317054e+02
-4.153218756620650538e+02
-1.130062830049848571e+03
-1.986428086340363279e+03
-2.105630404977203398e+03
-2.496842202583542530e+03
-3.169926257015169085e+03
-2.868648651872478695e+03
-8.899484225876612982e+02
4.140055404652277957e+02
2.252689403285419871e+02
-1.680350478468879487e+02
8.419318882789906411e+02
2.241161773593683392e+03
2.981835920473359238e+03
2.759037350472703565e+03
2.225373466090017700e+03
1.749771083485019290e+03
6.995377639412917006e+02
-6.586979870019834493e+01
-4.966155306066046933e+02
-3.569244513499697860e+02
6.465483904619176769e+01
-2.129426737296717249e+02
-6.453652380992115241e+02
-1.134151709395365515e+03
-1.264019360935868235e+03
-6.047646658191308688e+02
3.980659326683763766e+02
1.157410529346956764e+03
1.510822354871421794e+03
1.935777423453688016e+03
2.354183832586468725e+03
2.809659928875981677e+03
3.079618577213831486e+03
2.850343932879426575e+03
2.675572874330081049e+03
2.408554465690993766e+03
2.098144466763828859e+03
1.476410523881042081e+03
1.432466559591207670e+03
1.241600967243351533e+03
6.379509841141428979e+02
1.281925672722632328e+02
-2.614050210240320666e+02
-5.957034138666977015e+02
-5.503209798798045540e+02
4.593742136019615430e+01
1.472496720850359679e+02
8.937293443258151910e+02
1.443318706812704704e+03
2.017745161215895450e+03
2.320129813616212687e+03
2.871976570121082659e+03
2.981049904091466942e+03
3.399659950299180309e+03
3.049346990315953462e+03
2.198274984841980768e+03
1.963262405106747792e+03
1.474457625059855218e+03
1.034843776305791607e+03
2.916354430627849297e+02
-7.390056264225370342e+01
-1.988523363216224027e+02
-4.374505506413248668e+02
-6.409777527145823797e+02
-5.656113330758245183e+02
-1.282229392196174445e+02
-1.766944216753149419e+02
3.040983578048789582e+02
9.013397879069428882e+02
1.533677067197751740e+03
2.494275905330226578e+03
3.067486435876417545e+03
3.822072811382474356e+03
3.753764627898943672e+03
2.958992200418771972e+03
2.247642315895311640e+03
1.711567367846026400e+03
1.615826373095671443e+03
4.883001334504507440e+02
-1.852018743767096794e+03
-4.991956576429262896e+03
-5.963653134326438703e+03
-6.314074123818159023e+03
-6.722186789012826011e+03
-6.801866563216521172e+03
-5.824053667370957555e+03
-5.189905761681554395e+03
-5.223343841049132607e+03
-4.448375483570461256e+03
-3.440026374998635220e+03
-2.810939845212576074e+03
-2.672102866230214204e+03
-2.740514444200358867e+03
-2.069999979703909958e+03
4.085112180657836802e+02
-9.211231465790569928e+02
-3.468930748532178313e+03
-2.070686320141464876e+03
6.709908060396763858e+02
8.403151456962520172e+01
-4.131584052773332587e+03
-5.995978319039995768e+03
-6.217117546805176062e+03
-6.169782068097963929e+03
-6.528832493467367385e+03
-6.265071005276035066e+03
-5.644543459194163916e+03
-5.011326122237757772e+03
-4.675833864388634538e+03
-4.036107901656448576e+03
-3.242572324592928453e+03
1.959760425809395485e+02
3.224745281313713804e+03
2.976921697993682301e+03
2.081643252433346333e+03
2.897727471012404294e+03
2.361185926030997962e+03
1.268499091449134767e+03
8.157772325050392510e+02
6.738692334732394329e+02
3.548922139454278408e+02
-2.722521565905136072e+02
-1.677164694935091305e+01
-1.024761853421401412e+02
-6.200511250131933139e+02
-1.219513943760558050e+03
-1.141770002949000400e+03
-1.158650531276308357e+03
-1.094935598795456372e+03
2.565292326815581987e+02
1.591710366306482456e+03
2.556461658724635527e+03
3.166742701271520218e+03
3.374750687809592819e+03
3.183567242997146423e+03
3.014104345591479614e+03
2.331548711012476815e+03
1.494110096264403410e+03
9.298011490722416283e+02
5.436723570202135534e+02
-1.041775663767477340e+02
-1.206868218105777942e+03
-1.495475107990498600e+03
-9.309876988618520954e+02
-5.433008620106018043e+02
-2.233265971458955619e+02
2.028850247351780922e+01
6.574034774037939144e+01
1.370297115807894102e+02
3.450957407173364118e+02
9.550289318273875097e+02
1.741746670128982259e+03
2.162337992881332411e+03
2.058534177092667051e+03
1.499605397687714458e+03
1.154477566780808729e+03
5.700950236203560735e+02
-3.305630579261558637e+02
-1.072366165502512104e+03
-9.743689431721593337e+02
-9.346732286955999598e+02
-1.275109510178946493e+03
-1.385665479509290435e+03
-1.056899564131868829e+03
-1.244749871271665143e+03
-8.421513868614364355e+02
-1.029042576506063966e+02
1.998151777272593677e+02
5.939026479593860586e+02
1.308419555120829273e+03
1.438378094052150118e+03
1.518906478418450661e+03
1.769834001279837821e+03
1.885128153268307642e+03
1.947810118568773305e+03
1.787859423963289828e+03
2.063254802323955573e+03
2.006755756680033301e+03
1.867098294561095827e+03
1.947003619332670041e+03
1.586427254743638059e+03
8.413550169142141613e+02
1.175198376795050450e+02
-2.700230349570951489e+02
-5.862701648018871765e+02
-6.453419518075460246e+02
-3.231981937755829790e+02
3.592688063350498595e+01
5.659263106115720348e+02
1.046898537440498330e+03
1.497925377194063685e+03
2.099927050202600640e+03
2.450675776564370153e+03
2.669980470708685971e+03
2.707698604192949006e+03
2.757832835734473065e+03
2.548190438109944807e+03
2.325638107949254845e+03
2.255034636363459413e+03
2.772236950740056727e+03
2.836115268947999994e+03
2.291428523729513017e+03
1.636128378618631359e+03
1.534180223570107273e+03
1.686425065442164623e+03
2.061729866751355075e+03
2.325035747747065216e+03
2.537247969715939689e+03
3.519305324016814666e+03
3.915027027070583244e+03
2.947405534513765815e+03
1.685405116196956442e+03
-2.460551498876488097e+02
-4.161100583028493247e+02
2.132079095659887116e+03
3.619440549373756312e+03
7.539838519508538184e+02
-1.926387239839979657e+03
2.291584681270036299e+02
-4.555622155640874666e+02
-1.138667574145611070e+03
-1.785366145791488862e+03
-2.225669484691189155e+03
-2.892461492620471290e+03
-3.426183154023517091e+03
-4.079889617718385125e+03
-4.190526848861813050e+03
-3.384043438576730296e+03
-2.002445427349006650e+03
-3.538492134135076412e+02
1.560469932553085982e+03
3.568439369727297617e+03
4.750161519923392916e+03
5.491650769201709409e+03
6.291838268336400688e+03
6.307598784306656853e+03
5.897866099377891260e+03
5.588622944449422903e+03
6.666797085940644138e+03
6.920295574999673590e+03
6.112052474157925644e+03
4.064010390955942057e+03
2.027159345034762055e+03
1.136543455592714736e+03
7.531352847452725428e+02
2.778345737477899320e+02
-6.404199790869947719e+02
-4.416064694634659986e+02
3.422269503147588599e-01
-8.665062019010032373e+02
-1.666159399181249455e+03
-1.061516013015342196e+03
-2.905350344584992968e+02
2.207594940745684085e+02
-6.505975724790934009e+02
-1.344611058241930778e+03
-1.050236787708409338e+03
6.885820957855161168e+02
-5.470404109463718214e+02
-4.526112025966530382e+03
-6.267571748970995031e+03
-6.332344081509543685e+03
-5.917514731106424733e+03
-7.183217099802391203e+03
-8.057334390042179621e+03
-7.366625456753361505e+03
-7.778942075991376441e+03
-9.123355397130619167e+03
-9.019780767707878113e+03
-7.965998038871704921e+03
-1.167574377957091565e+04
-1.767111727930261623e+04
-2.140004891479119033e+04
-1.776239755486898503e+04
-1.440803171731632574e+04
-1.526790766340426671e+04
-9.154011891910982740e+03
1.987237936437821588e+02
2.706535672154147051e+03
-3.029301018120070239e+03
-4.822657231553032943e+03
-2.886567987770361015e+03
-8.055117321774624543e+03
-1.611625413422378915e+04
-1.866982384230853859e+04
-1.443669349783377220e+04
-1.057975222196288814e+04
-1.393083375884939051e+04
-1.244582318881038373e+04
-3.504628947944889660e+03
3.622944213787680383e+03
1.702205176480994123e+04
1.856183573609583982e+04
9.454432494448768921e+03
1.129733996265483427e+02
-7.095428037346243400e+03
-1.386565861794629382e+04
-1.376654611620775177e+04
-9.681005641876681693e+03
-1.446944610343910881e+03
3.734748231551371191e+03
3.181173729626458680e+03
5.779388888648925786e+03
9.527581928930152571e+03
1.344781722942642045e+04
1.099420634596732998e+04
9.678877516740112696e+03
1.774001077040229939e+04
2.519168012043695126e+04
2.694404123763542884e+04
2.400918231620368533e+04
2.173731504717253119e+04
1.637959169691654643e+04
1.223504511893637755e+04
7.807795805520107024e+03
6.147958193849422969e+03
7.276643607030446219e+03
8.899894796551887339e+03
9.311796530809764590e+03
9.082402911876868529e+03
4.330790474377108694e+03
2.660147800888745451e+02
-2.539876934620754582e+03
-4.508816543732710670e+03
-3.998761878013322075e+03
-8.842668137531813045e+03
-1.277446172426948579e+04
-1.334108455637935367e+04
-4.138480353630152422e+03
3.880397857927987388e+03
5.890658803180877840e+03
7.760422934539804373e+03
8.701739129797846545e+03
9.210641174695989321e+03
8.004040359038394854e+03
7.167041167594522449e+03
7.292824061719352358e+03
6.375668237770500127e+03
5.679490631930849304e+03
5.094276522530220063e+03
6.068022356977484378e+03
6.885655086369199125e+03
5.940150731767538673e+03
5.331387224637904183e+03
4.471463154770503024e+03
2.059313295458299308e+03
2.442883557851190744e+03
2.824203087246751238e+03
2.513273654240914311e+03
2.811037031904560081e+03
2.628628677723184865e+03
1.266627377803015861e+03
-1.702888492139371920e+03
-3.463569782413920620e+03
-1.059729931583716734e+03
5.673462867591699705e+02
8.628935521074716917e+02
-1.935895801571725769e+03
-6.120208547308600828e+03
-8.394178306622068703e+03
-9.605959652505378472e+03
-8.205624493951465411e+03
-6.729274515057520148e+03
-7.314022452129442172e+03
-2.732932246776632383e+03
1.375000404824051202e+03
-8.884600947655918617e+02
-2.835611884005368665e+03
-3.753607178651260710e+03
-2.484472158058876175e+03
-8.878239608670979806e+02
-2.804979627893008455e+03
-6.187413349398116225e+03
-4.173825641698988875e+03
-6.463082863577623129e+02
7.169126860458853798e+02
3.502709906231386867e+03
3.777942372565546066e+03
-4.684428376515388663e+02
-3.498650644252355960e+03
-3.384830410558362473e+03
-4.190029752432700661e+03
-5.529335245559946998e+03
-5.280870530356631207e+03
-2.817708711067968579e+03
3.840464600054473863e+02
2.783161871654427159e+03
3.169540210560815467e+03
2.277063427293750010e+03
2.372659985608155239e+03
2.184285097398998005e+03
2.928732570642325186e+02
-2.996732678545376416e+02
8.475881460422472173e+02
1.092569384835638857e+03
1.427162680303799561e+03
3.097279277919602009e+03
2.805852209402584322e+03
1.011777423695509015e+03
-1.719084616108469845e+03
-3.859863569612861738e+03
-7.146645499381010268e+03
-8.586546568299518185e+03
-8.854670776856637531e+03
-9.496082653216979452e+03
-8.508797117095386056e+03
-2.325871915368387818e+03
1.150534831845101962e+03
5.293476744545205293e+02
-2.070468470864791016e+03
-1.888946384802329476e+03
-1.800956507321459867e+03
-1.646559088749268767e+03
-2.462841569628430534e+03
-3.189906586502192567e+03
-3.919746595349306517e+03
-5.317508017873702556e+03
-4.627257989451994035e+03
-3.327041356271316545e+03
-4.748898351627029115e+03
-5.141949273810200793e+03
-6.511201220036823543e+03
-5.357742680864793329e+03
-4.939636585749180995e+03
-6.272789402838515343e+03
-7.014134366899195811e+03
-6.885708663686679756e+03
-5.176549186319307410e+03
-4.606779605550907036e+03
-3.188370908204803982e+03
-1.159245644176547330e+03
1.630631791350035428e+03
6.129223441323740190e+03
9.031486215856508352e+03
9.486540439558746584e+03
6.551384146043227702e+03
4.439986664780344654e+03
4.144326433853081653e+03
2.337470244902348895e+03
9.814759708795917277e+02
2.372997570734749786e+02
-3.160560823473553569e+02
4.994499992074091210e+02
-9.562204963330742657e+02
-3.008007251530443227e+03
-2.917851654434683041e+03
-8.807001951319269892e+02
1.393513219252799900e+03
3.132802106691102836e+03
3.588250712470658527e+03
3.794995055430227239e+03
5.618103775298943219e+03
6.424617366146560016e+03
7.003612319728284092e+03
7.072142833257709754e+03
6.316238806148498043e+03
6.037862813360209657e+03
4.832193394608905692e+03
3.749420804204644355e+03
3.304562500933621777e+03
2.595566380486700382e+03
1.416472266754737120e+03
7.953173055531156024e+02
2.631971121596061494e+02
1.052093940218507697e+02
-8.047112940566346424e+02
-6.445320924272006096e+02
2.894004507491142419e+01
6.301003226167129014e+02
9.311841883009888079e+02
2.660786004873198749e+02
7.365242693857834411e+01
1.050110732870606171e+03
2.456924208509875825e+03
3.286111338503033949e+03
3.543487637399002324e+03
3.824303484679619942e+03
2.512463524974909888e+03
1.430931162856193396e+03
9.147839713120844181e+02
-6.948947286769698621e+02
-2.282062903446438213e+03
-3.010649953065211321e+03
-2.244657583169057489e+03
-2.450445358754132883e+02
6.951725343727581503e+02
-3.709819954818568135e+02
-1.461494029759134037e+03
-1.087391492464761996e+03
8.049044391898647177e+01
1.450339140899338645e+03
2.235204509984149354e+03
2.502082626764048655e+03
3.088016803971124773e+03
2.941098215551834528e+03
2.173239883979393198e+03
1.384535782118213774e+03
5.541129971329177124e+02
4.741033398254332951e+02
1.384577007668000306e+03
1.210506094769540823e+03
4.988918301909299089e+02
-2.892290168277882572e+02
-1.521811710530210576e+03
-1.952957403571181885e+03
-2.009596853258685996e+03
-2.427489946538012646e+03
-1.892648617486726380e+03
-1.464273324512287900e+03
-1.142416382326097391e+03
-3.959661442976581611e+02
-2.366555771758966387e+02
-4.315421081230008440e+02
-7.108495466161879222e+02
-3.887442088588405227e+02
-3.300880632247580593e+01
2.407182509387820062e+02
4.743723280704655849e+02
-2.331086642026125162e+02
-1.726974049376249241e+03
-3.176135642785082837e+03
-4.072614939155003867e+03
-4.460574944665951080e+03
-5.455915481427884515e+03
-5.893600403200146502e+03
-4.905834579489675889e+03
-2.059824935765141618e+03
-1.634111890162421787e+03
-1.510329416783877150e+03
-1.566627684088416800e+03
-1.089539742030784055e+03
-1.096293448165069321e+03
-1.807574884734575562e+03
-2.873875766405896229e+03
-3.150627561831238836e+03
-1.352647403777219779e+03
1.054539219509530312e+03
2.341603251055457804e+03
2.094356616605267845e+03
1.477286916147261536e+03
1.214537627396882044e+03
7.747157943809143035e+02
2.473641076273701742e+02
3.215545983625974600e+02
4.555881671048965700e+02
2.409741071354028108e+01
-9.147186870357079158e+01
1.768918850144876842e+02
5.672405823702663383e+02
1.071230732719637899e+03
1.292643481289899910e+03
1.952612163100981434e+03
2.418074278902434344e+03
3.123046816344316085e+03
3.395055930591247943e+03
3.292811948424291131e+03
2.942759497612922587e+03
2.567589930506052497e+03
1.860722087031153478e+03
1.476965225275682769e+03
1.028112218596685352e+03
3.029268158097053742e+02
-2.930976687483471892e+02
-3.169741282553237625e+02
-5.475928759669037618e+02
-6.411113680886832071e+02
-6.802357414359501036e+02
-9.856259016742450285e+01
5.688568683701410009e+02
9.302765756648153683e+02
1.288785604057374485e+03
1.918518032469993386e+03
2.459879747534974740e+03
2.717783914938748239e+03
3.215260507246668112e+03
3.232313107536473581e+03
3.164149109585398037e+03
3.051995361145504376e+03
2.999606911167352791e+03
2.384866114271996594e+03
1.873714637171672166e+03
1.202905814046717069e+03
7.238724092459456187e+02
7.026092129462206231e+02
4.638493290279553776e+02
4.737362723619759208e+02
5.191579057154766588e+02
7.184541505679802640e+02
9.575908139250492468e+02
1.236638081088321769e+03
2.146105801197052472e+02
-1.373294728840529160e+03
-3.067217328384092980e+03
-3.198174334130142597e+03
-2.948140723659275409e+03
-2.470253828745912870e+03
-2.155467804383039038e+03
-2.529906654227048421e+03
-1.963628333318672276e+03
-3.072523809389090729e+03
-3.573584840278675983e+03
-3.932869555712204601e+03
-4.394238207824327219e+03
-4.434900187254988850e+03
-4.539757042521082440e+03
-5.342748284591884840e+03
-2.958825814527989223e+03
-2.985947619677824150e+03
-5.488988426468660691e+03
-4.941790581169583675e+03
-3.799444937577635756e+03
-3.597330955710303897e+03
-2.570364036535444484e+03
-2.439425544729096600e+03
-2.321288218875708480e+03
-1.571809264344297617e+03
-1.546981651228931923e+03
-1.994853869654487880e+03
-2.239689392653135201e+03
-2.502493571318418162e+03
-2.371084672496913754e+03
-1.079891784067586514e+03
-1.095978906301618508e+03
-3.819843201765049798e+03
-4.610376396363006279e+03
-4.191526385594420390e+03
1.649649881668425877e+01
1.276602822044172854e+03
-7.198830956384111914e+02
1.038289472752926486e+03
2.554711793061799654e+03
3.194273760568986290e+03
3.945212090098583303e+03
4.118445272645979458e+03
4.636180462150869971e+03
4.827780683711959682e+03
4.097206738129744735e+03
3.450260424108818825e+03
2.662101466837692897e+03
2.105864603412791439e+03
1.796414140247394698e+03
1.549584460671038869e+03
1.058396517014643905e+03
9.338881865782901741e+02
4.932073865545998501e+02
2.164620277369321855e+02
3.607319099026955769e+02
6.141321992908992797e+02
9.478548851396011514e+02
1.280831310525407162e+03
1.456906997778577534e+03
1.636308628266279584e+03
2.046085452113651172e+03
2.543164102714523324e+03
2.256738664106680972e+03
1.918984646056675047e+03
1.932001166831961882e+03
1.931797594002807273e+03
1.521513891958243221e+03
6.852258604947055574e+02
-3.470671384468262204e+02
-7.112162690092212642e+02
-7.262363317994363570e+02
-1.427393479833445099e+03
-2.017975192487094546e+03
-2.570574016104690145e+03
-3.405801998002034907e+03
-2.317702086369064091e+03
-8.302986820167212727e+02
2.214984385647424858e+02
2.758681806274472592e+02
1.150850262974433008e+03
1.717550497714537187e+03
2.101102263320773091e+03
2.094475350008157875e+03
2.282331189908348733e+03
1.835024584585749380e+03
1.070851748886023188e+03
-8.153343459813210359e+01
-1.574478001406949261e+03
-2.162568112158259282e+03
-1.466559324432125095e+03
-3.563369111466598724e+02
1.698834086068339104e+02
-8.800924008973953505e+02
-1.507209504494305520e+03
-1.266555915069509410e+03
-4.941681469516914831e+02
-3.990623362923203103e+02
-5.183909436616983157e+02
5.898696416820534978e+02
1.672898851859291653e+03
2.632089766934441741e+03
2.732517833711564890e+03
2.921023842527276884e+03
3.468786356287042963e+03
3.360828498969935481e+03
2.799093460957424668e+03
2.448534985517813311e+03
1.382979834837926319e+03
4.676618816787456581e+02
-1.393309514030204355e+02
-7.011571837217114762e+02
-1.052004444919682328e+03
-1.721853274248320758e+03
-2.280698377704300583e+03
-1.885441525734503330e+03
-1.379020475775218529e+03
-9.725717999989979035e+02
-5.381230753028345362e+02
-1.756334139277307997e+02
-7.597888191852565853e+01
-7.250667361326662785e+02
-3.569229037070769550e+02
1.154445401966908094e+03
2.056075733078218036e+03
1.957898712930915053e+03
1.681952312774187021e+03
1.153368020050548694e+03
7.730737064515532211e+02
6.460563874712656798e+02
-5.287352827976451408e+02
-3.173239896482991298e+03
-6.583567403768930490e+03
-7.037850875377628654e+03
-6.578077583835852238e+03
-7.107225713439142964e+03
-7.408252643842229190e+03
-6.543121516300682742e+03
-4.832892961938959161e+03
-4.090684491583679119e+03
-1.458563237946934123e+03
1.567408717274406627e+03
2.861583788252992235e+03
2.843022681297824874e+03
3.057514730426073584e+03
3.179944733262613681e+03
2.993529646626100202e+03
2.559211824567063104e+03
1.577863505821673471e+03
1.187316820712097979e+03
5.534353438867518662e+02
-9.783212182906233068e+00
-5.481688818816610365e+02
-1.817708692692918021e+03
-2.355518338760247843e+03
-1.340708616314009987e+03
2.066977004148609751e+02
6.016761854519816097e+02
4.542759098211871560e+02
8.974671628103847070e+02
1.214275578256593690e+03
1.612760278079997306e+03
2.080935849748666442e+03
2.196773548278018552e+03
2.244182674536268223e+03
2.282994083933535876e+03
2.302258646759403746e+03
2.236003436274827891e+03
1.730203381707555081e+03
4.268889204861189910e+02
-1.630527194811539857e+02
7.923186164695924845e+02
1.474021368601487666e+03
8.169733998366658625e+02
-5.477963202018802349e+02
-8.873042791904869091e+02
9.043906955475061977e+02
2.337307469241812669e+03
2.001466840998120915e+03
1.139845169069282520e+03
-2.561591913618090288e+01
-1.389734929163968147e+01
9.439979382597757649e+02
3.187020514666644885e+03
3.335203111557199918e+03
3.120597559396354882e+03
3.041217395165348535e+03
2.731047654203684033e+03
3.048007703886787112e+03
3.160039343901098164e+03
2.295122460411424981e+03
-5.881573374310949021e+01
-1.627994642104429886e+03
-1.730316786751857535e+03
-2.252730357803895458e+03
-1.597126327087237087e+03
-2.603602655909759960e+03
-2.962171348934514299e+03
-1.083819259265873370e+03
1.852521636446047523e+03
3.082814667486638427e+03
2.507897240053909627e+03
1.100690228388848254e+03
1.647256583727915086e+03
1.776599127431128863e+03
-3.552493101956544024e+02
-3.251095956284634667e+03
-4.733059524000363126e+03
-3.821165118392695149e+03
-5.429476694922858769e+03
-6.698027882657003829e+03
-5.409765076218565810e+03
-2.264712285273284124e+03
-9.688939064858249139e+02
-1.213165320532898050e+02
-5.394610042403675010e+01
-2.017536137177698379e+02
-4.397804778032992772e+02
-1.115042528418921393e+03
-1.063562947699194410e+03
1.006770761809359669e+03
3.179998248190323466e+03
9.621354832012617635e+02
-6.917781307926151158e+02
-8.257101550874242548e+02
-9.016721233656128334e+02
-2.302622235184109286e+03
-3.152485628431744772e+03
-2.936287716664240634e+03
-3.252161988177080275e+03
-3.642070993614006966e+03
-4.343011454684531600e+03
-4.281998464357346165e+03
-4.415079925575044399e+03
-4.962223507795703881e+03
-3.803363462668332886e+03
-1.302473625904953678e+03
-3.920515499460004321e+03
-4.841470519494923792e+03
-3.989339396700457200e+03
-3.313078019780181876e+03
5.184155768407415508e+02
3.512080187203032438e+03
3.874910493639995366e+03
3.668921960881962605e+03
3.438155627879128588e+03
2.774604348965977806e+03
2.135352251094980602e+03
1.588402582064445369e+03
7.686665431524374981e+02
2.071778995498663107e+02
-3.860465748958574181e+02
-1.066014847319042929e+03
-1.634771664739648486e+03
-1.626242218163566122e+03
-1.358413319735318510e+03
1.197830898116867644e+02
3.783844318214900113e+02
1.731467103911837967e+03
2.797900234640314011e+03
2.401866354318245612e+03
2.715475494157396952e+03
3.338785397702682531e+03
3.553832761832145479e+03
3.536472417842145660e+03
3.902850387202249294e+03
3.100982797239087176e+03
1.909817924390058806e+03
2.133106839747843821e+02
-4.155824130377315555e+02
-1.149865050027372035e+03
-7.474833648403440520e+02
-2.116291287420899039e+02
6.569497368113821949e+02
1.516157349807823039e+03
1.867882657671800644e+03
1.495179151255126953e+03
1.840111636403853481e+03
2.630611770296778559e+03
2.887714414674905584e+03
2.483419143406928015e+03
3.089666310859225177e+03
3.670487825282439189e+03
3.369052627021659646e+03
3.199236601501475889e+03
3.176985264235058366e+03
3.068284398749061893e+03
2.421084082289833077e+03
1.579491814504690410e+03
1.402364357899957440e+03
2.280622083108919924e+03
2.462448092825985441e+03
1.740224397721747209e+03
1.027104513121853870e+03
8.276532742563267675e+02
2.743250968398846368e+01
-5.847257400847111057e+02
-1.938012294005684737e+02
7.791646440655143806e+02
2.065208324042969707e+03
2.674313386846504727e+03
2.564496067897061494e+03
2.054787988905799921e+03
1.974184962368317883e+03
2.298755589394562776e+03
1.747442278502592444e+03
8.941805481913366975e+02
1.126964756724984682e+03
1.206719642723079005e+03
8.653977083848625398e+02
-2.919547366730652129e+02
-3.743937716483129634e+02
1.029845798792542553e+02
5.111390768271134561e+02
3.721171744880321057e+02
-7.840070415004303186e+02
-5.513048176413054762e+02
-1.238517991676542209e+02
