-8.001931975873116016e+02
9.464411550118326204e+02
1.632862762585084965e+03
1.794992978304653889e+03
1.483873431505874805e+03
1.207673302952078757e+03
1.314371656001182600e+03
1.287831213751677524e+03
1.138291728390306389e+03
1.082802747646377838e+03
3.030791589501853878e+02
1.358947261840293663e+02
4.782759120048236809e+02
7.412459628523554329e+02
2.588509690294118286e+02
1.298645181387371110e+02
5.382502674077300071e+02
7.594053573744619143e+02
9.453011385924495471e+02
1.276825759172240168e+03
1.508823472240940646e+03
8.207394749063882955e+02
1.037871821538748691e+03
1.147971563948432504e+03
1.343858164610554468e+03
1.970411684324047656e+03
2.009770924634259018e+03
1.940182665024029120e+03
1.991587734231163267e+03
1.718988887489185117e+03
6.222029231153064757e+02
1.250061564429072632e+03
1.659640964880549063e+03
1.809950935983345289e+03
1.662029744590967766e+03
1.986657936275333668e+03
2.125797989844574658e+03
1.639191328660794625e+03
1.537036521620178291e+03
1.230189509651859680e+03
1.139598094293422491e+03
1.401510441656113244e+03
1.535157451045783546e+03
1.376323857923522610e+03
9.215204707296211382e+02
1.064960028488145781e+03
8.769194435951211517e+02
1.091106505128198251e+03
1.210612736770772926e+03
9.716511609346879368e+02
4.012858422328913548e+02
1.191443074988193445e+02
4.181978885598715010e+02
1.017277442358801750e+03
1.180280838503855875e+03
8.452156483330321635e+02
3.251695453936411582e+02
7.180916630094028505e+02
1.028954146965171731e+03
1.032851703034798675e+03
8.208307489940025334e+02
6.145458805209474349e+02
7.848843865989490496e+02
7.150887445322148324e+02
5.871649959784022030e+02
2.209757715427274434e+02
-1.134673209155902782e+02
-5.513671612312629122e+02
-6.598004832997035010e+02
-2.127792226023162527e+02
1.327790340101178401e+02
5.608014776498305309e+02
6.662851683701256889e+02
7.231839546999722188e+02
8.464947919218540164e+02
9.293365135484999655e+02
9.767012076332227934e+02
1.268384468585538343e+03
1.560406284537476267e+03
1.452799645806117496e+03
1.838508086548672736e+03
9.366507292686623032e+02
-1.533808645896666349e+03
-4.812993848780542066e+03
-7.378928858120351833e+03
-7.169642925478457073e+03
-7.405154652509140760e+03
-7.780471326823825621e+03
-7.709570802176634970e+03
-8.109414222763824910e+03
-7.695997957052069978e+03
-7.129392073453379453e+03
-7.095657565573023930e+03
-2.797731058273354847e+03
8.545783243752493945e+02
-3.274544892068325680e+03
-6.718530717176642611e+03
-7.109356071789225098e+03
-7.271962336849559506e+03
-3.555397769686319862e+03
2.943434913525352385e+02
1.680232604533217227e+03
1.884204260691163654e+03
1.826265776422033014e+03
2.176360373305614303e+03
2.017471948799925713e+03
1.434757865131490462e+03
1.017224526328722959e+03
1.343916773368769555e+03
1.583905655184820034e+03
1.904124276299887015e+03
2.035602000307374738e+03
2.081376942686648817e+03
2.363414101543843117e+03
1.907752167088684018e+03
1.637480405471206268e+03
1.981500939510829994e+03
1.761765037886536675e+03
1.556395562289376812e+03
1.599446593693799741e+03
1.439928708370207460e+03
1.626836637446828718e+03
1.864223991975957233e+03
1.158199434585291783e+03
7.349323835300964447e+02
7.352928060414802758e+02
7.911611130328344643e+02
1.040624910401809075e+03
1.365694990193155718e+03
1.252392883477935129e+03
1.231865716443058773e+03
1.271164695521934846e+03
9.402594360199731227e+02
1.179117023668950424e+03
1.586724308856227026e+03
1.105228616317592696e+03
5.836756342928842969e+02
6.511292118744016761e+02
5.746198011402296970e+02
6.211759255026451001e+02
5.457744003387183511e+02
3.640886655588982990e+01
2.571458403128136183e+02
3.149998983683071287e+02
5.880076021693854500e+02
4.762643948287067701e+02
5.466916469803153404e+02
4.723877757813863809e+02
5.165006046093203622e+02
2.540271903570507561e+02
3.900505931702396651e+02
3.567388846411807890e+02
3.861507639480037710e+02
9.413394497176184359e+02
9.349923525138244713e+02
9.771925837295329984e+02
3.999196636175089452e+02
-5.828119611684602432e+02
-2.719092973605605152e+02
-6.844051337062353468e+02
-6.701737742008272107e+02
4.658214873973972203e+02
3.666185807272530610e+02
-1.677397565367766958e+02
-3.742701600608652370e+02
-7.929416436886123165e+02
-2.117434162357060359e+02
1.373478939183872001e+02
-2.307147283048551287e+02
-1.076937755887882986e+03
-1.664364323604826495e+03
-1.417992472582026267e+03
-8.107696577077390430e+02
-7.946179735556310106e+02
-7.214762468689534671e+02
-8.423830113988354924e+02
-4.252893729072463316e+02
-8.081680551892316089e+02
-5.960655388546807671e+02
-2.309130901887330651e+02
-2.846535020953826916e+02
-4.943125195119515070e+02
-5.528210167269101021e+02
5.381819046526047146e+01
2.484968236490578022e+02
6.121507751354484981e+02
5.808590126955022015e+02
4.816591279630295048e+02
4.065789585392097365e+02
1.627579718510296232e+02
-1.118299832119545840e+02
-3.001984570388396492e+02
-3.505541641505898838e+02
-6.709543127605045356e+02
-7.153209744930214811e+02
-5.386540361440211200e+02
-6.082616478423039297e+01
2.110784295183172219e+02
-4.720868197568498204e+02
-5.043611036273475179e+01
1.169556988124452914e+02
-6.797300283325936832e+00
-3.868489770406743844e+01
-2.236821871589276611e+02
-3.377739101752556508e+02
-3.770635553720611028e+02
-3.575360750567195964e+02
-1.562318772029010177e+02
-2.118014213044691019e+01
-1.473150070093943782e+02
-5.306472746968013325e+02
-5.682192072776249461e+02
1.858951650302026337e+02
3.856903400389266778e+01
1.007145886007615445e+02
8.332470494850242915e+01
3.153384131178023608e+02
4.577362115383064065e+02
4.655449405780728966e+02
1.478219403347886214e+02
-2.024670435628374889e+02
-6.502676050426997563e+02
-1.899503586238087109e+03
-2.279120543317726515e+03
-9.964825047981689750e+02
-1.057893811529681443e+03
-1.428836553557658590e+03
-1.407461133244255734e+03
-1.010977238678175695e+03
-6.861179167168455706e+02
1.625295641424933279e+01
4.355318328487907138e+02
1.160802543818275126e+03
1.760101604087334408e+03
1.945068908473190504e+03
2.127678955585295171e+03
1.831247089769095737e+03
1.877405938639390115e+03
2.444186641186096494e+03
2.664738605122937315e+03
2.963737034911646788e+03
3.428731235840843965e+03
3.243175672356520863e+03
2.894050527933531612e+03
2.713592627876023016e+03
2.311241554627182268e+03
1.909130997393350754e+03
1.412565911415732899e+03
1.677488634917140189e+03
1.695785250310300398e+03
1.546616446844453321e+03
1.497002835968887211e+03
1.402740270702773159e+03
1.782295318198113364e+03
1.213864556204998735e+03
1.080163024494807587e+03
1.176578503335930009e+03
1.554852363887509682e+03
1.702971135786825016e+03
1.619929971636276605e+03
2.144961459105790254e+03
2.487128248014344990e+03
2.846263359281195335e+03
2.429867076001125042e+03
1.722691646506875941e+03
1.824880838963082169e+03
1.832661212936182437e+03
1.442460215213725178e+03
1.817146219714476956e+03
1.710670915393652649e+03
1.600275084555236617e+03
1.656845872828363554e+03
1.061011348762758416e+03
8.726477299859139976e+02
1.907219164647943899e+02
-2.096980541807617556e+03
-5.842472641003781064e+03
-6.586381382793127159e+03
-5.837408499006897728e+03
-5.787772069441589338e+03
-5.909484164493806929e+03
-6.004905153402506585e+03
-5.659153920767742420e+03
-5.888009095687863010e+03
-5.928247316138277711e+03
-4.858616345899916269e+03
-4.512912340403656344e+03
-5.550257969381481416e+03
-5.786815692411536475e+03
-4.867748672723956588e+03
-2.061082762597069177e+03
-4.594772141393139464e+03
-5.681830804853685549e+03
-5.745484941176261600e+03
-5.194581703977743018e+03
-5.049886515274260091e+03
-5.234384344812490781e+03
-4.711616601772663671e+03
1.933599252167650491e+02
3.218966774760003773e+03
-1.425549962100929406e+03
-5.565130407254298916e+03
-5.393724513625485997e+03
-5.957202609575608221e+03
-5.838823020963693125e+03
-3.504671376560561384e+03
8.564498933898331643e+02
2.009792917838013182e+03
2.300599015080206300e+03
2.036843006378634300e+03
1.859579305320765570e+03
2.235956734433814745e+03
2.624215189298510722e+03
2.489347319210402020e+03
1.915949277009184470e+03
2.019151768946151378e+03
2.927070071694216040e+03
3.281201074180103660e+03
2.533591061766701841e+03
3.481372785192313131e+03
5.198559721075695052e+03
5.238540802016581438e+03
4.802447101232040040e+03
4.350201116597213513e+03
3.780510220195625607e+03
3.274039195360735448e+03
3.330692918375900717e+03
3.334710225063096004e+03
3.063593596476739094e+03
3.083557777711898780e+03
3.022630085249410968e+03
2.855518368928005202e+03
2.644945683529867893e+03
2.333208607880944783e+03
2.049652042137932767e+03
1.874765199850512545e+03
1.299578763003303720e+03
8.913337505262685454e+02
1.356233178666264621e+03
1.602286327265241653e+03
2.374668806023639718e+03
2.663435995732555057e+03
2.438829518912678395e+03
1.894241145345381256e+03
1.822309572016839184e+03
1.675389932008024289e+03
1.511802741756469231e+03
1.182428751714591726e+03
4.653654945351610763e+02
-4.828325498058252947e+02
-4.506604956506019448e+02
-4.854840008098554449e+02
-3.269537279296412180e+02
8.375138818972448007e+02
8.459364240937138675e+02
2.974557578243507692e+02
-1.248352479519118390e+02
-4.318562452728361336e+02
-9.046913497069933783e+02
-7.107545216249003488e+02
-1.121459548748904034e+01
-2.930769105174065885e+02
-6.123638322514964329e+02
-8.256376081693351807e+02
-9.563420426033726471e+02
-3.297766113210689696e+02
-1.034982665717058552e+02
6.161997667667516509e+01
1.606872599657059766e+02
-3.236810761143206037e+02
-4.303803123134114230e+02
2.300357044211089601e+02
-7.402546229014528478e+01
-6.308873532476992523e+02
-6.479223577039447264e+02
-3.340119336089572357e+02
3.189343742816821532e+02
-3.382364633343470928e+01
-6.195250493225975106e+02
-2.612860935463324950e+02
3.629111863809426950e+02
4.185569679188913028e+01
-1.105153275868698074e+03
-2.854073990712770410e+03
-3.821241368105022957e+03
-3.478805009492055888e+03
-2.329536384964045283e+03
-1.614400885101630365e+03
-1.155283151926404798e+03
-9.020491322010436761e+02
-1.039476290793424141e+03
-9.651286324969066754e+02
-1.379257791126936127e+03
-5.323334249110030214e+02
2.366575332972185777e+02
1.046946063040275249e+03
1.256322724044414144e+03
5.415319438899055058e+02
2.839352065322533036e+01
-1.482133739580737881e+02
6.428914470353936395e+02
1.474827561589565676e+03
1.221818025125958911e+03
6.236135688393757164e+02
-3.190656051542675868e+02
-4.595061943367980348e+03
-9.341184281754463882e+03
-9.007393601725116241e+03
-3.206910722468116091e+03
4.622256361789622474e+02
8.373514490336233393e+02
1.302515474380205433e+03
1.613560670737692817e+03
1.399316833946775887e+03
5.895692715723682795e+02
-7.908286631076431377e+02
-8.400027290149881765e+02
-1.432904499194644131e+03
-9.622537309308247586e+02
-4.039360873897093143e+02
-2.649095000827767308e+02
3.675810924148906338e+02
9.465363586159771785e+02
1.297877807600262940e+03
1.725577253851306978e+03
2.296474542565573756e+03
1.690413835775484358e+03
6.194178197125461338e+02
2.845070476603156067e+02
8.397524936188549418e+02
1.728448844919268367e+03
1.500614130075041203e+03
1.108083013971075843e+03
9.375812998578323914e+02
2.049717074708939890e+02
-3.137634909729388824e+02
-4.185981169087714875e+02
-5.484141701335263406e+02
2.037683438143536989e+02
1.471718106158542241e+03
1.549253536909020340e+03
-2.746164834868392290e+02
-1.374874452782576782e+03
-2.205310325323035613e+03
-2.672821375528040335e+03
-1.572638455228864132e+03
-1.798597305989434574e+02
1.157556768532142769e+03
4.177151580553476151e+02
-6.602670471867156721e+01
2.096770876035939182e+02
5.015501857616261532e+02
2.091178470849482437e+03
3.323117792397944413e+03
3.388189812378163879e+03
2.242605800949073455e+03
1.294437556084479411e+03
1.490013370740826304e+03
1.239417428680354988e+03
1.092520739214152627e+03
1.109108277953824427e+03
8.879023891191657185e+02
3.640981394996161384e+02
-9.591696335639844619e+02
-1.752002953999396368e+03
-5.217433466370432598e+02
9.306398587990249780e+02
2.363513349599133107e+03
3.865647819505000825e+03
3.978041159905234508e+03
2.855311667558990848e+03
2.433407628125846713e+03
1.472951192215688252e+03
2.254955109333850487e+02
-7.270726259171517540e+02
-1.078564120423372515e+03
-2.182670572570261356e+03
-1.914234042192309971e+03
-3.543365337228691487e+02
1.060974827409211457e+03
-1.635328665840156361e+02
-2.084796644720416680e+03
-2.398588815999967210e+03
1.345934836060359657e+03
1.633586821251886477e+03
6.134000878415502029e+02
-1.587680202387702593e+03
-2.863853126967177104e+03
-1.867096935839160551e+03
2.098651657857987516e+02
3.400867333905360965e+02
-2.931587931808552185e+03
-1.160126563681820926e+03
-3.468450783036989378e+03
-5.753963014275610703e+02
-2.079327609743696996e+02
1.585894942032525933e+03
4.689000933041498683e+03
2.433120871942549911e+03
1.669560781130179521e+03
-3.880253884935786118e+03
-6.547412833217114894e+03
-8.827127881008585973e+03
-7.271396192176277509e+03
-9.086281969899700925e+03
-7.305825699226994402e+03
-2.922024197609239764e+03
2.449133190787606054e+03
6.707795436671309290e+03
4.788048409546468065e+03
2.267718568517922904e+03
-1.303126208288430462e+03
-1.938504989436017468e+03
-2.212473217004925118e+03
-2.074129235889541633e+03
-2.431316893070159040e+03
4.416022286915486461e+02
4.921361107825329782e+03
8.631558752547967742e+03
6.878327894245493553e+03
1.141734567067962416e+03
-4.078219572309132673e+03
-7.210634590551400834e+03
-5.718406076856072104e+03
-4.961398291076446185e+03
-3.883743536365429463e+03
1.279610372913540914e+03
5.656786889317293571e+03
6.390974408859987307e+03
6.388272248242661590e+03
5.962412319788244531e+03
2.406525250408315969e+03
-2.072195530207152842e+03
-2.362956985278719912e+03
5.770756908298890266e+02
2.182311022264439089e+03
4.049854490541572886e+03
1.302441020670844637e+03
-3.453899634914621856e+03
-7.044912433893126945e+03
-8.690622115818619932e+03
-7.133197356396950454e+03
-2.661828383043514350e+03
3.774248954996932781e+01
2.923384720955037665e+03
4.032172991735195410e+03
4.725943312882894134e+03
5.796672745480452249e+03
7.377856218446845560e+03
5.751366841819950423e+03
4.898181486429624783e+03
7.371843654295579654e+03
1.028051413554779538e+04
5.992385888686653743e+03
-3.073867725048291391e+02
-2.727545261271461186e+03
-2.979121353403589637e+03
-3.272621398580122332e+03
-2.702531299738966936e+03
-8.653224097042779022e+02
-2.272595737089754493e+03
-5.904581249876563561e+03
-8.654584888096118448e+03
-9.549803873354749157e+03
-7.487937138509542820e+03
-5.039715109273542112e+03
-1.085360588427348148e+03
5.386883832844576318e+03
1.483929460422175680e+03
-4.571030846575487885e+03
-3.154821526417920722e+03
8.649013913560999356e+01
5.180704584911219172e+03
3.575709326667692039e+03
1.586711454439889849e+03
8.450457379159440734e+02
-7.425849864350254848e+02
2.285647916194163827e+03
7.281989444950007965e+03
1.207244172206576695e+04
1.327288796783308135e+04
9.697294059797455702e+03
3.812745361687324021e+03
-8.739158347407553720e+02
8.139034333442791080e+01
3.630812680903103683e+03
8.072296498860639076e+03
9.107652419157973782e+03
5.809795458567579772e+03
5.333894502327364535e+03
9.609003618544169512e+03
7.174097191745123382e+03
3.473438988961813720e+03
2.257034322495349898e+03
1.533784760033979637e+03
-2.176473927949539302e+03
-6.808848297329425804e+03
-1.269340612776075977e+04
-1.455599714662617225e+04
-1.230045628186270005e+04
-1.555062629268948149e+04
-1.464059356129902699e+04
-9.852419508110642710e+03
-4.938140424434913257e+03
2.798190190106415685e+03
5.382510481823184818e+03
6.637842324933105374e+03
2.957204285398833235e+03
-6.117232509153581304e+03
-1.010957417751617686e+04
-1.255897676979651806e+04
-1.390523765708554856e+04
-9.695538275421620710e+03
-2.102827316103160229e+03
4.162920239451849739e+03
4.776726261067939049e+03
2.507561824667309793e+03
-3.096775714010674392e+02
-5.181026946937173307e+03
-5.973410717382066650e+03
9.702485538938072978e+02
6.195034004871837169e+03
4.552851444509315115e+03
4.288590656187981040e+03
5.240271991942021486e+03
5.468496405908406359e+02
-3.882586655120118849e+03
-4.123022605622024457e+03
1.529457667305102632e+03
4.704949896226023156e+03
2.611470264409426818e+03
1.508972983967318896e+03
1.600434001657554518e+03
5.266817623444429046e+03
6.897133834965753522e+03
7.438404492083625883e+03
7.284723623116938143e+03
4.154122956481288384e+03
4.974534944130285112e+03
6.798970354378003321e+03
4.568490586017500391e+03
-3.069230275143475524e+02
-3.700112239686786324e+03
-7.491126352961382509e+03
-1.063413014049199774e+04
-1.320717416908536688e+04
-1.261034374756215038e+04
-5.035545129711508707e+03
1.892208420063230676e+02
1.104367714837982639e+01
7.718518957356764076e+02
5.235604464176623878e+03
8.351284949632272401e+03
8.777877622463262014e+03
6.383440926419282732e+03
2.568982716916674690e+03
4.024872021894851173e+02
-7.708588091808263698e+01
2.468455616094752259e+03
2.607039112436960750e+03
-1.210532276327808404e+03
-3.423124756220955533e+03
-3.569041222168811146e+03
-2.438110899256697849e+03
-4.099781220895644765e+03
-6.457460226501816578e+03
-3.548874699847754982e+03
7.407990309662350228e+02
4.447483929703422291e+03
6.378127787458879538e+03
5.446853437409664366e+03
3.888662916174619568e+03
-4.274123352785233578e+02
-4.506490214043760716e+03
-3.827409384797025723e+03
-2.133217007144347008e+03
5.000162671556871601e+02
9.923183238203398560e+02
1.739663363347983704e+03
3.174062138509203578e+03
4.957481384778792744e+03
4.545958688973987591e+03
1.425503941326972836e+03
-1.784851720729977160e+03
-4.337045603338096953e+03
-5.668133664646282341e+03
-3.233181754179051495e+03
6.968122605496403139e+02
3.577906141675765411e+03
4.393081231457805188e+03
2.961318090553602815e+03
1.934704039981145343e+03
1.678234077637616565e+03
3.079887168486437531e+03
4.819750027621630579e+03
4.227777594758612395e+03
2.035870832446428722e+03
-6.508613470714549294e+02
-3.254221737096569996e+03
-3.607233966416549720e+03
-2.318972735097570421e+03
-3.735420354532643159e+03
-6.975785901078180359e+03
-1.042019309193443223e+04
-1.309764120858681599e+04
-1.093895673867276128e+04
-3.121165894423441387e+03
3.540644696553410540e+03
6.710424418725758187e+03
5.064067250104618324e+03
4.785688401734011563e+02
-3.251957951082175441e+03
-5.574397050542425859e+03
-3.719725674615394837e+03
-1.559953380233368705e+02
2.907856413725044149e+03
3.766891666611920300e+03
1.062085963201138611e+03
7.163803232072028777e+02
2.544847555879174706e+03
3.878592193338278321e+03
7.414996667042428271e+02
-3.020656437681647731e+03
-2.726904564102313998e+03
-5.281169917487332896e+03
-7.523519031484292100e+03
-2.151913033876549889e+03
4.425728503111557075e+03
7.468362382123023963e+03
5.292056789782824126e+03
8.568687114205544049e+02
-2.176260151211591165e+03
-1.935384165915249469e+03
6.236594195865814072e+02
2.566532708491204630e+03
3.284210404295114586e+03
1.587896492316213198e+03
2.411848539700373294e+03
5.540264738808725269e+03
6.939850634595630254e+03
6.437012413445882885e+03
6.805049795810463365e+03
6.526254292286729651e+03
3.810811359837682176e+03
4.042682368798622861e+02
5.208205791950961157e+02
1.436070134726910055e+03
-1.338442424799092123e+02
-1.770442332407577851e+03
-3.458298630018721269e+03
-3.030771103733525251e+03
-1.498662923355611156e+03
-6.137903077283647235e+02
-7.349783962254628022e+02
-4.692507627359473190e+03
-6.250064725979013929e+03
-2.482753493865265682e+03
1.002981618712483964e+03
1.875105355091960746e+03
2.748431300627782548e+03
2.508547905728185015e+03
2.252726512603775973e+03
1.530697505296926238e+03
3.271574884909558705e+02
8.317784117045109724e+02
2.472733855033577584e+03
2.421603070431161541e+03
2.026109169478984086e+03
1.404826178696036322e+03
-1.936315799716030881e+02
-3.583500564518413739e+03
-6.149488682796871217e+03
-5.766539857332934389e+02
3.251627455281711718e+03
1.994167905230932547e+03
2.210944987453719932e+03
2.331369161406702460e+03
1.770820025652521053e+03
1.593636145282091547e+02
-7.360722350626177786e+02
-6.648467651093607174e+02
-1.908927260620725747e+03
-3.536339492326145773e+03
-4.141472632789242198e+03
-2.227353171602707789e+03
6.542416508795633945e+02
5.623279098580485424e+02
1.459923336450841362e+03
2.996337708498161646e+03
-8.372661263819863962e+02
-5.681142717482347507e+03
-4.409593531243382131e+03
-2.047537179227291062e+03
-3.259978499676268711e+03
-4.557547855395314400e+03
-2.075026700173907102e+03
2.252616451330998970e+01
3.280032350725582546e+02
-7.568333787702900963e+02
9.247036589130793800e+02
-6.092331747638082788e+02
-8.637457536490883285e+02
-2.276754318228481225e+03
-1.813221505381156476e+03
-8.520089460622735089e+01
1.334228808512679279e+03
3.808341342110231381e+03
1.032085257589195862e+03
-6.028122720738323324e+02
-3.033644835375199023e+02
3.211021462974897986e+03
2.669618122523968395e+03
4.892383335307654306e+02
-4.205240978644308598e+03
-3.544824121342485341e+03
-5.353556508327338634e+03
-2.746507864277608405e+03
-2.052399501125246388e+03
-2.761012011357078336e+03
-3.277337702189864558e+03
-2.397462603946975378e+03
1.920345200484918223e+03
3.592961206909427801e+03
2.205186565236888327e+03
-2.653108710871515541e+02
-5.276971037566556788e+02
1.138304635130791212e+03
1.684177990330326793e+03
1.377049895955724139e+02
-2.485333800953932496e+03
-3.323426679491172308e+03
-8.274268892430437745e+02
-1.439331184215380688e+01
-2.202192703008201136e+02
1.450756565850941115e+03
3.037334119401989938e+03
3.222414388633912495e+03
2.675227286168787941e+03
3.148191531486349049e+03
2.026671716747928713e+03
1.709713567071691841e+03
3.156889307149194792e+03
4.556913230877573369e+03
3.511612299079525656e+03
7.592437874852938648e+02
-4.238195835572034866e+02
-1.358758380726161931e+03
-3.018997797274427285e+03
-1.225013233039916486e+03
6.293947854982662875e+02
1.663060599553175280e+03
1.634937407873937218e+03
-8.471128410197260905e+01
-2.546753496674187772e+03
-3.924685184760593984e+03
-3.867645505630872321e+03
-1.954983902375037815e+03
-2.762349083262092790e+02
9.123199186943567156e+02
1.898313845320466044e+03
2.174661465785287419e+03
1.065075870339086123e+03
-5.272947508881896965e+02
-1.292265638594197753e+03
2.149442031624337517e+02
9.055477306713906955e+02
9.120396504806855091e+02
2.824322484118234115e+03
1.967391146745102333e+03
1.667762865076202843e+03
1.728827010784895947e+03
1.884647127603091576e+03
2.451948805835654639e+03
2.429927391431511296e+03
8.755237006277143337e+02
-1.170538626219140639e+02
-1.810620170702551945e+02
1.051834077428124829e+03
2.261635010701889769e+03
1.927813282653291708e+03
1.830284261420769781e+03
1.028978308161581708e+03
6.163611747336267399e+02
6.654950290684298579e+02
4.780884218516100077e+02
6.146231220616728024e+02
6.291670129287970212e+02
5.251371162064690452e+02
4.774946911817694968e+02
4.361414487525690902e+02
-5.802711382265658813e+02
-1.999629822158295383e+03
-1.417847820196432849e+03
2.540996710686546294e+02
3.824569391437042896e+02
-4.740823405073685421e+02
-1.824609813633853719e+03
-3.383810732331150120e+03
-1.667400312440607649e+03
9.975488194543150939e+02
1.824131949744060194e+03
2.044377771082046820e+03
9.392633634293662226e+02
4.425572463187536414e+02
-4.410142647277466743e+00
9.840236579531108418e+01
6.663328767351472379e+02
9.252950295519349311e+02
1.269952394540710429e+03
9.043181339194038628e+02
9.953460023222906727e+01
-8.451550529776674239e+02
-2.091580208648885673e+03
-3.179839068679202683e+03
-1.544051204627910010e+03
-1.734475084694658335e+03
-5.519964544031065088e+03
-9.221172873322580926e+03
-8.480164100797754145e+03
-6.989130732421316679e+03
-6.538144098424138974e+03
-4.799003260062941081e+03
4.533830906064150099e+02
1.463522472767043382e+03
1.826219591044878371e+03
1.419429552598546024e+03
2.068197992693497781e+03
2.056817870573256641e+03
1.477284354400038865e+03
2.548834870338104110e+02
2.877025057981467171e+02
8.013553397531155724e+02
6.456965906364306420e+02
4.386440021189267213e+02
4.293033250953820925e+02
6.526111437908874677e+02
2.805253896381097434e+02
5.049987370125111283e+02
1.207092623009284125e+03
1.171058977582775242e+03
1.215986844914510129e+03
1.041899077405681510e+03
8.637294673247441779e+02
1.229155628038528903e+03
1.336005850152919038e+03
8.772679597440710495e+02
1.250790212341215124e+02
-3.833963204962054192e+02
-1.098219505882631211e+03
-1.992399060272270390e+03
-1.971044028922346342e+03
-1.529243579134137462e+03
-1.546868139335322439e+03
-1.153742647486722490e+03
-1.987822334927863608e+02
1.085019767612298438e+03
1.692546132248415461e+03
3.008637455481028155e+03
3.586514990242550084e+03
3.281336476048149962e+03
3.294216833965954265e+03
3.622137693340270289e+03
3.818712956124350512e+03
3.689378161650640777e+03
2.930100007562442443e+03
2.198036234768937447e+03
1.229563881587497690e+03
5.109521147547995952e+02
-2.517769691782143582e+02
-9.826531184506663976e+02
-1.475031560403723461e+03
-1.693098736956856328e+03
-9.728799678551224588e+02
-1.912397727724824108e+02
-3.048733250768947869e+02
2.161129502662149378e+02
1.307527617311068298e+03
1.407369348624517215e+03
6.750459829876114100e+02
4.870665705456836037e+01
8.300500361340672271e+02
1.458289905673185331e+03
1.562451032153982169e+03
1.376939769432371804e+03
1.137534394668792629e+03
1.081426215461490756e+03
1.273041590386991402e+03
7.636225557495774865e+02
-1.068479895947420744e+02
1.883739066442793160e+02
-2.867844287861597877e+03
-5.370526645538421690e+03
-5.258594735008784482e+03
-4.246811384901509882e+03
-1.189367254176236884e+03
6.553345344493686753e+01
-1.769996143964815246e+03
-2.991814129704695461e+03
-1.795953556418948665e+03
7.686679226220937835e+02
-1.922717444987694535e+03
1.820034021768988737e+02
-1.121416182687852825e+03
-2.550033817250874563e+03
-1.580679888856199568e+03
-3.115318819028246253e+03
-2.558747141678860544e+02
-2.199495683360730709e+03
-4.301285404764207669e+03
-2.375209712093570943e+03
-1.666202468676806120e+03
-2.057893938806513688e+03
-2.756419125276304840e+03
-1.809197695373565466e+03
1.120748272717914233e+03
2.066582323559116503e+03
1.727302297872782219e+03
1.596000277966943486e+03
1.783709402961389287e+03
1.674458006991290176e+03
-5.436828746081584995e+02
-5.767789391151135305e+02
1.270048041695799839e+03
-1.716051858588474033e+03
8.409630960571904552e+02
1.318065196023685758e+03
-1.162625601738281148e+03
4.960940397573242535e+02
1.310239265200140153e+03
1.017143883886879848e+03
9.098423440784454215e+02
8.437029932599812128e+02
8.546593523945440438e+02
7.796945902348065829e+02
6.378913693532874731e+02
6.043437208127226086e+02
4.220067413305040986e+02
2.608448541308669633e+02
4.009870040027416849e+02
5.394646603080716432e+02
8.982874756830717615e+02
1.233145778411931133e+03
1.137713842700733494e+03
6.814038491450700121e+02
4.184265307269193954e+02
1.725473478340957456e+02
1.732014397333971942e+02
-1.743915910744525206e+02
-3.019473546907292416e+02
2.338651658637733135e+02
8.901210614830429222e+02
1.475530088643846057e+03
1.421035047085943916e+03
1.207614515637096247e+03
1.095226842520530226e+03
5.873354538037884822e+02
1.192574012385051901e+03
1.466012802265306391e+03
1.468021411281403289e+03
1.704351114414151880e+03
1.791631431213460473e+03
1.584044935321973753e+03
1.502756648737084788e+03
9.812853989614826560e+02
1.650387313985513913e+02
2.329580306743435614e+01
-1.044894585583012798e+02
-3.683728325246223676e+02
-5.102058547646106490e+02
-5.736023727463294790e+02
-9.964028469086970290e+02
-1.334120895989881319e+03
-1.140704477797759409e+03
-6.013217681756513002e+02
-1.347784254491067202e+02
5.036368109773208630e+02
1.543565831385201591e+03
2.425652797539158200e+03
2.768269451478515293e+03
2.863909069928784902e+03
2.403736761622635640e+03
2.404791683163963171e+03
2.331878997016649464e+03
2.341851317466488581e+03
1.786760569901196504e+03
1.031747312416098111e+03
2.189439614251458579e+02
1.152178125312405825e+02
-8.974886978999431619e+01
-3.168452159367104741e+02
-3.010132511998297105e+02
1.557004984432734140e+01
-5.315038924427365430e+01
-2.660313023854037624e+02
-5.230278549083013786e+02
1.478043822301865191e+02
1.225556205030079127e+03
2.023215616460937099e+03
2.308624502500364088e+03
2.141739746168076636e+03
2.395803530086146566e+03
2.656942051189620088e+03
2.762062835508341323e+03
2.418182427845440998e+03
2.039421022210136925e+03
1.865416913892652246e+03
1.080138070236007252e+03
-5.713643928124954527e+02
-3.142020099804935398e+03
-7.064710641106001276e+03
-7.926357510995887424e+03
-7.784028416620797543e+03
-8.069717945715586211e+03
-8.131625323683270835e+03
-8.013798106147404724e+03
-8.017222228427722257e+03
-7.744908588582178709e+03
-6.574825334869636208e+03
-7.367795177246393905e+03
-6.783707478343458206e+03
-6.636887757713553810e+02
2.237051745897919773e+03
2.412903843537026660e+03
2.062718680868901629e+03
2.322280044730971895e+03
2.460796467762621887e+03
-6.217815158673010956e+02
-3.099512138024359501e+03
-1.078403369408418484e+03
8.515430190490283167e+02
1.094428621905453156e+03
1.007396197375975589e+03
1.012434904781562864e+03
1.108445619122025619e+03
1.174335730035869119e+03
9.231198079121581941e+02
6.708877308158237156e+02
8.546494517617543352e+02
9.694700051069262372e+02
1.040394723389533738e+03
1.054382212359036203e+03
1.140463938506579098e+03
8.535883683825461503e+02
8.377997930150173715e+02
9.961483914030440019e+02
1.081647026369015293e+03
8.352589771973434836e+02
7.490941630401815701e+02
1.083242833398506491e+03
1.229559839599460247e+03
1.203938719548280915e+03
9.454870061229519251e+02
9.243139421826437001e+02
9.365115112129496993e+02
1.173122236164592778e+03
1.024901395381745260e+03
8.987524431541427248e+02
1.094805461920737343e+03
1.077053553136146320e+03
1.281683617386602918e+03
1.215728392972381243e+03
1.241163393773759026e+03
1.049930153753398827e+03
9.060083916083132181e+02
1.000422698835898018e+03
1.096199087656462780e+03
9.234099724950673362e+02
8.971080014602476922e+02
9.723097604254674025e+02
7.940574109201727424e+02
5.393990512521925211e+02
3.871192207592912382e+02
1.853186658445009698e+02
1.361947335754948654e+02
2.728242934364383245e+02
-1.428900517606811036e+02
1.171498984545308701e+02
3.720443315133923079e+02
8.937549771327745702e+02
6.921826056936857867e+02
4.673294192332360808e+02
2.619972289584013652e+02
-3.457248075259236657e+02
2.070649559243258295e+02
-9.359476076784389420e+01
-1.566860544141503340e+02
2.398663873865215805e+02
2.199914557925658301e+02
-2.123426589939641360e+02
-5.608476232369282144e+01
-9.925764847535877777e+01
-4.488930143486514908e+02
-2.539555707865500835e+02
3.265799153279216398e+02
-2.053060447255595307e+02
-7.096729991870838603e+02
-9.874587854791866448e+02
-9.826460674166813760e+02
-9.772229314631562147e+02
-1.071174796295313854e+03
