1.898040940694735809e+03
9.718618474346740186e+02
6.963068913304963417e+02
-6.321239961586071558e+02
-1.961821923766236750e+03
-3.283202604289697319e+03
-5.223798992238030223e+03
-6.858045274780569343e+03
-7.556314241142164974e+03
-8.390001226197669894e+03
-9.068605448500393322e+03
-1.026557770735557460e+04
-1.109031236308334519e+04
-1.115603902912643935e+04
-1.160713772620488089e+04
-1.049691203493797002e+04
-9.691587111419312350e+03
-1.023338813959036997e+04
-1.122566844515285084e+04
-1.257075455650415461e+04
-1.348789572200504881e+04
-1.416336107872474531e+04
-1.487045848708379526e+04
-1.559138449455018781e+04
-1.606926800679086045e+04
-1.672726323949590369e+04
-1.831172817301761461e+04
-1.831084859278973090e+04
-1.838460028708999380e+04
-1.870707674493094601e+04
-1.867132830263070719e+04
-1.842052622752321622e+04
-1.758375787064338510e+04
-1.704215378849798071e+04
-1.746468507499751649e+04
-1.812914225723292475e+04
-1.793353937482183755e+04
-1.848300971310275781e+04
-1.827352444677580206e+04
-1.779104331951978020e+04
-1.821547450499523256e+04
-1.859473387972040655e+04
-1.912666072629696282e+04
-1.951708375618806167e+04
-1.965892202649833416e+04
-1.950010235145690604e+04
-1.828242455757695279e+04
-1.703273032317159596e+04
-1.579070252373721814e+04
-1.485117852038259662e+04
-1.393992780444123309e+04
-1.249958830684267377e+04
-1.137693546823276120e+04
-1.128773055732268222e+04
-1.061186684590641926e+04
-1.022131843089292306e+04
-8.353812496617254510e+03
-7.379819613045354345e+03
-6.136793087571170872e+03
-4.607617787153988502e+03
-3.215819013158048165e+03
-2.649897818386703875e+03
-2.786318973170957179e+03
-1.952889301500120609e+03
-1.241701887188664386e+03
-1.828049892398625161e+03
-2.018348439567628702e+03
-1.245262878979564675e+03
-4.363920909823779084e+02
1.209656261514767039e+03
2.143431093316216902e+03
3.383049713843943209e+03
3.969770146641982137e+03
4.500306548717288933e+03
4.394027436796242000e+03
4.568384038166442224e+03
5.129248895533693940e+03
5.624607811720857171e+03
5.153028852806592113e+03
5.250173908255524111e+03
5.966061373057837045e+03
6.530461817132934812e+03
6.817669439683138989e+03
8.403068826957258352e+03
9.883957510322943563e+03
1.112721326714842871e+04
1.223107620503814360e+04
1.285792727193421342e+04
1.309495588833009606e+04
1.335330635533518398e+04
1.340671984056415567e+04
1.339158405955694252e+04
1.304234181572651505e+04
1.301141598205717855e+04
1.299918573009660940e+04
1.333508239927782597e+04
1.392252925908291400e+04
1.474289865268406902e+04
1.530060064714914006e+04
1.543706054876159033e+04
1.594066140304231885e+04
1.631153284865160822e+04
1.664997440258114148e+04
1.698250953537441092e+04
1.712835918315879826e+04
1.635580970374602111e+04
1.341718430208498103e+04
1.060094680551667079e+04
7.766400388631202077e+03
6.930701208982104617e+03
6.491944958757198947e+03
6.956430082068716729e+03
9.623658836423730463e+03
1.108989645748432486e+04
1.069648083528101233e+04
1.123465964310238087e+04
1.647271811677186633e+04
2.049187825405953481e+04
1.992748466679065314e+04
1.483575893993482532e+04
1.034371392291278971e+04
9.110819531044737232e+03
8.381331906323448493e+03
7.628488451815584995e+03
8.865398787599324351e+03
1.181227570470678256e+04
9.400279903443106377e+03
7.112595446940151305e+03
6.410379102673199668e+03
6.128846148166795501e+03
5.405181807638013197e+03
5.304465569720875465e+03
5.411806233523312585e+03
5.022415470784663739e+03
6.400489059387805355e+03
3.801206843528458194e+03
6.934737843818536021e+03
9.823116510721536542e+03
9.227398892605233414e+03
6.140706826910996824e+03
6.318107866479328550e+03
5.831813003688072968e+03
3.831948225229035870e+03
2.941574346214866637e+03
2.007850471212673483e+03
7.959331068193318970e+02
-7.031573524667295487e+02
-1.864337407152125252e+03
-1.855529065042541333e+03
-2.000634425115043996e+03
-1.932496161335860052e+03
-2.174079217628080187e+03
-2.903360450006381143e+03
-3.904234216142123842e+03
-3.710635273689139467e+03
-4.469450288047439244e+03
-6.467617498151381369e+03
-7.167087551424137928e+03
-7.927768596880728182e+03
-8.881648318546645896e+03
-9.537521104026009198e+03
-1.021527922790202865e+04
-1.132795597921786066e+04
-1.229347558107222721e+04
-1.365672321977033971e+04
-1.525256392965323539e+04
-1.582994015656676675e+04
-1.513277023420695878e+04
-1.425892821250860288e+04
-1.535333115737659864e+04
-1.698597181853014990e+04
-1.762463733357169258e+04
-1.861714134941392695e+04
-1.981856110040503700e+04
-1.874589680213005704e+04
-1.693698397686396856e+04
-1.576441122029031067e+04
-1.557397954409306840e+04
-1.562543085705071462e+04
-1.520777764267651946e+04
-1.569789479857891638e+04
-1.735435068766120094e+04
-1.849333679482556909e+04
-1.864917872993394121e+04
-1.911332229978825490e+04
-2.029756099425547654e+04
-2.054684558294633462e+04
-2.037803302384677227e+04
-1.956208372289725958e+04
-1.863208744460550588e+04
-1.817499252278967106e+04
-1.751769489811382664e+04
-1.686892632063080600e+04
-1.551136099324153656e+04
-1.447193009561606414e+04
-1.403443830482699377e+04
-1.282169212032094765e+04
-1.044446304187916576e+04
-7.349654567950035016e+03
-4.354026093596449755e+03
-2.725399333704254332e+03
-1.450683268313922554e+03
-4.508212569248520936e+02
4.551185146008896254e+02
-3.565554135285422532e+00
-2.934751470695509283e+02
-1.363804469681844012e+02
2.929319769367226058e+02
8.856058337833633232e+02
6.718151322447222356e+02
9.099052628523031672e+02
1.061041729510547157e+03
1.700376227962338362e+03
2.670153281600008540e+03
3.743466135998366099e+03
5.811436083040108315e+03
8.216205061044553076e+03
1.078394902964652829e+04
1.366004952722059170e+04
1.562972757503596767e+04
1.682204265101726196e+04
1.768811031496635042e+04
1.819814372693651967e+04
1.818049527082020722e+04
1.810530390522844027e+04
1.806174616781744407e+04
1.775986377277252541e+04
1.674281297383582933e+04
1.525084147348276019e+04
1.469833998123675883e+04
1.463355790811137376e+04
1.410559977031277776e+04
1.427560675565525889e+04
1.522862768476375277e+04
1.495366258402590211e+04
1.451485992842690030e+04
1.326346433129849356e+04
1.171777344008240652e+04
1.314993668635091126e+04
1.410202419971144445e+04
1.154608600783170004e+04
1.283231841149344109e+04
1.432797715603375218e+04
1.422709970534666900e+04
1.412984749115010709e+04
1.424735002599968357e+04
1.283674696679219414e+04
1.334545010464767620e+04
1.356808492973440843e+04
1.236055312819652499e+04
1.165467277479454606e+04
1.136088951809866739e+04
1.111305056758053433e+04
1.064609728763335988e+04
1.013977855503490355e+04
1.049091158446639383e+04
1.100627435910983695e+04
1.169473047540582593e+04
1.134207654692522920e+04
1.110313801534860067e+04
1.109597806627038699e+04
1.146334934997587516e+04
1.161696839446985541e+04
1.149166952220199892e+04
1.094923630024866179e+04
1.105733301620072416e+04
1.090272546156576391e+04
1.029215809555121450e+04
8.492304341968980225e+03
7.449852365983405434e+03
6.754456797974332403e+03
6.099886499739465762e+03
6.472699226788971828e+03
7.807541267983307989e+03
8.372207530542827953e+03
8.747365806598480049e+03
9.275642491838922069e+03
9.833661447865260925e+03
9.206016985233376545e+03
8.165228710736733774e+03
7.751817197207918070e+03
7.934289083413777007e+03
7.763226857665664284e+03
6.912323910377867833e+03
6.482014571997516214e+03
6.425899962771089122e+03
6.945649393433431214e+03
6.857888036671069131e+03
5.970154266205892782e+03
4.918019477643427308e+03
4.381103182852287318e+03
4.494156035899418384e+03
5.077815909775985347e+03
4.939385970893242302e+03
4.357421477216305902e+03
3.247417846583269238e+03
2.746862418227311537e+03
2.336208219406993976e+03
2.096873017247753523e+03
2.100409409406448049e+03
1.702227523048238481e+03
7.695095107585659662e+02
4.226316438475357700e+02
-3.719330113201637005e+02
-7.966330055474975325e+02
-1.319699599728924795e+03
-1.445402418296726864e+03
-3.308845303995019549e+02
1.803472156382114008e+03
4.024027682212124546e+03
4.654600466351287650e+03
2.483966504650496518e+03
-1.141662893568706977e+03
-2.748092381789408137e+03
-3.218601757917560008e+03
-3.999887601579754573e+03
-4.299583368406446425e+03
-4.536016234114087638e+03
-4.833609027642684850e+03
-6.110732232983501490e+03
-8.136896734245233347e+03
-9.317439716231923740e+03
-8.752802408195830139e+03
-7.990467119463442941e+03
-7.530029158258808820e+03
-6.797945174691583816e+03
-3.475541856010640913e+03
-4.162189032104065518e+03
-7.689453649665861121e+03
-7.939663813087594463e+03
-8.472028508200717624e+03
-8.868418168532214622e+03
-8.414767921713393662e+03
-8.265319409733278007e+03
-7.868587823989484605e+03
-7.208033157145135192e+03
-7.152275003457712955e+03
-7.232970419660636253e+03
-6.814576189550100935e+03
-7.002274802012428154e+03
-6.860481846363272780e+03
-2.173705001916986021e+03
1.268291268791480888e+03
1.122295501373590241e+03
-3.085889981138582243e+02
-2.558768246648931381e+03
-1.475564154252187109e+03
-1.755927720741968642e+03
-1.527745584961782924e+03
-1.245990689967878325e+03
-1.715739630209376855e+03
-1.922906839563089534e+03
-1.328245131500508023e+03
-1.042783700533211459e+03
-4.164982524147920913e+02
2.422034850093889872e+03
5.388151338639920141e+03
5.468049628625301011e+03
4.567935975428721576e+03
5.434052052839608223e+03
5.739558686120180937e+03
5.054994882085154131e+03
4.286985611624863850e+03
5.977659707810835243e+03
7.765027825073928398e+03
8.468036671565541837e+03
6.523459630939491035e+03
3.646297422040229776e+03
2.237419118999382590e+03
9.334154058098324640e+02
4.972194185819438985e+02
-5.012712919117278716e+02
-1.451299700034894840e+03
-2.931350711066185795e+03
-3.644867298027987999e+03
-4.433536247028491744e+03
-5.172877984410333738e+03
-6.753039922363097503e+03
-7.870849376295773254e+03
-7.257318472381881293e+03
-6.746433578685845532e+03
-6.315575824048129107e+03
-6.946896865100335162e+03
-7.560861900199243792e+03
-8.527296562501178414e+03
-8.649218936327964911e+03
-8.860510045665423604e+03
-1.000495762273700529e+04
-1.180825405443673480e+04
-1.289014915038429899e+04
-1.259752611354690453e+04
-1.227412670334134964e+04
-1.206998092091116814e+04
-1.277839398059984887e+04
-1.415959376656808126e+04
-1.526110843728341388e+04
-1.632927520933796768e+04
-1.574502517444139085e+04
-1.507217561326469149e+04
-1.623345462656596283e+04
-1.718364529616785512e+04
-1.698668708174463973e+04
-1.739930769555070947e+04
-1.812129095057820086e+04
-1.924951368977831225e+04
-2.033694951708898589e+04
-2.036649079189654731e+04
-2.044908320073447976e+04
-2.147159336917259134e+04
-2.249691622895148976e+04
-2.290810744380456526e+04
-2.252739359000364493e+04
-2.188279466528531702e+04
-2.072939289714096958e+04
-1.949549893709700336e+04
-2.013928011710728606e+04
-2.014204308632415268e+04
-1.924216871770752550e+04
-1.935494236126300166e+04
-1.951365910639134017e+04
-1.925678902169728826e+04
-1.850171721728874036e+04
-1.854094537420674533e+04
-1.792215371190184669e+04
-1.733906200723580696e+04
-1.728330548231650027e+04
-1.762448750809631383e+04
-1.735237415994258117e+04
-1.567383402452263908e+04
-1.537670295997357425e+04
-1.710987766045624085e+04
-1.963362281309347964e+04
-2.018019803942395811e+04
-2.044363092228769892e+04
-2.001320433524026157e+04
-1.919920221287501045e+04
-1.718691630406376862e+04
-1.053667644546912379e+04
-8.166801995764462845e+03
-1.240492637786805244e+04
-1.355590228878610833e+04
-1.272057482659377456e+04
-1.208806264462053696e+04
-9.022017440894469473e+03
-1.613061088474108146e+03
5.861980068927185812e+02
3.577573884653584741e+02
1.123307178178862159e+03
3.209787005124419920e+03
5.725755929184330853e+03
6.739143035021794276e+03
8.027513374306444348e+03
8.968408926196667380e+03
1.054026987345177258e+04
1.162532584986523216e+04
1.421672781692881472e+04
1.710273356184340082e+04
1.847484679411595789e+04
1.853940371119827978e+04
1.862860041094061671e+04
1.930548911163283992e+04
2.133511428204298863e+04
2.290647618397530096e+04
2.481447782234582337e+04
2.624105420099994808e+04
2.633017957615887281e+04
2.682672832925835610e+04
2.688437126997328960e+04
2.719383492726018449e+04
2.860786087827541996e+04
2.946002136078390686e+04
2.974296022692926272e+04
3.019309024455189865e+04
3.015994025019846231e+04
3.075804301193475840e+04
3.188173234695476640e+04
3.147358379288635842e+04
3.041618374665198280e+04
3.004901917046640301e+04
3.063755683296893403e+04
3.097035540644873254e+04
3.142292771675916447e+04
3.026174828914784302e+04
2.750325446320728952e+04
2.465500186612437028e+04
2.414453517628682675e+04
2.494824969633975707e+04
2.475967112946658744e+04
2.413735292377132282e+04
2.274264245380013017e+04
2.019399274691048777e+04
1.717095417167697087e+04
1.424812006727729386e+04
1.295114563565487515e+04
1.203156234452600802e+04
1.013974584100398897e+04
6.863398137422639593e+03
3.408509412820948910e+03
2.499501263102446046e+03
2.270012764818648066e+03
2.355937383260840761e+03
2.695034923833552057e+03
4.164067065372761135e+03
1.049526901028599059e+04
1.689563187542450396e+04
2.366107758093647499e+04
3.024361738143909679e+04
3.308642266039872629e+04
3.438857359743836423e+04
3.653120813771537360e+04
3.758768034117787465e+04
3.775536780051481765e+04
3.694149115312640060e+04
3.620048985160225857e+04
3.427402696030090738e+04
3.264778506024903254e+04
3.312248101756618416e+04
3.301281857849904918e+04
3.184267638769203404e+04
3.043703966474795016e+04
2.920893596756884290e+04
2.757454818230725141e+04
2.600806537024469799e+04
2.475576027091195647e+04
2.223107985369735252e+04
1.946357637840953612e+04
1.668680568949775625e+04
1.450950576619901767e+04
1.258745305767176615e+04
1.052144726747126151e+04
9.185363981116373907e+03
7.853178405762027978e+03
6.079988693188568504e+03
4.778064241627448610e+03
3.708818306024115827e+03
1.714802681726515857e+03
-1.308413628982228829e+03
-5.415157220278730165e+03
-1.016975420536656566e+04
-1.504336194507806249e+04
-2.081094739699596175e+04
-2.686851227603861116e+04
-3.246588753404886666e+04
-3.732492443201528658e+04
-4.251225926158355287e+04
-4.702540448025223304e+04
-5.085881822840543464e+04
-5.276382581779434986e+04
-5.310276996089418390e+04
-5.491890618318352062e+04
-5.669921627318897663e+04
-5.753269411215696891e+04
-5.760722775744304818e+04
-5.861665065353615500e+04
-6.037270668405286415e+04
-6.133118822358196485e+04
-6.301165753620563919e+04
-6.883762299476435874e+04
-7.709742355606191268e+04
-8.609536873387059313e+04
-9.601273170534921519e+04
-1.040648441002861655e+05
-1.107479178631875693e+05
-1.136020420680974639e+05
-1.143623143050812650e+05
-1.172367327505409630e+05
-1.171953121342309460e+05
-1.122508538525869808e+05
-1.102927877483925113e+05
-1.103356910012053704e+05
-1.079621082879477617e+05
-1.074778646249317389e+05
-1.085475402096763864e+05
-1.077196605487079069e+05
-1.069227562734417734e+05
-1.056303164990997466e+05
-1.039557575810025446e+05
-1.004964229965565610e+05
-9.798079327475636092e+04
-9.565638387681763561e+04
-9.457555464530586323e+04
-9.418262561335079954e+04
-9.192270706956638605e+04
-8.985589742105784535e+04
-9.008159034185028577e+04
-9.116863520747798611e+04
-9.129953712611972878e+04
-8.619766511765870382e+04
-7.444637110203341581e+04
-5.852109603030020662e+04
-4.183730193343025167e+04
-2.470351985578894528e+04
-7.805236891704294976e+03
8.287094551224701718e+03
2.527687439232415636e+04
4.708947481311667798e+04
7.352934741474541079e+04
1.030419845465239196e+05
1.323923765642443323e+05
1.547805495668687217e+05
1.571817853727060719e+05
1.403232459270855179e+05
1.290893325290512439e+05
1.298678064477357693e+05
1.321076573184319132e+05
1.341687903468717413e+05
1.347659938785610138e+05
1.351041123428889259e+05
1.374708423545784317e+05
1.379056991719149228e+05
1.361862284036328201e+05
1.365049720665181230e+05
1.374081026135260472e+05
1.374598315183746454e+05
1.354895716761179501e+05
1.309935701752615132e+05
1.215027688765008497e+05
1.103071469955263747e+05
9.658163224929841817e+04
8.454899795932664711e+04
7.476374186930991709e+04
6.631042116541226278e+04
5.916552775629458483e+04
5.514166398975945776e+04
5.357126313007304270e+04
5.261647448013727262e+04
5.334740891841130360e+04
5.412699994249771407e+04
5.558919024368959799e+04
5.919171206923346472e+04
5.954548905028824083e+04
6.173797219009628316e+04
6.715947948895260924e+04
7.256438030021115264e+04
7.128308348633776768e+04
7.047561129213753156e+04
6.985317998834233731e+04
6.596869321699031570e+04
6.118172674538631691e+04
5.640418693566699221e+04
5.157674775557925750e+04
4.555793598524595291e+04
3.876410670821703388e+04
3.113856125049684852e+04
2.490958419809903353e+04
1.914036197260293557e+04
1.099987516584038349e+04
4.539976143605885227e+03
3.775498896829765272e+03
2.978191948944569049e+03
-2.791152005543960058e+03
-9.007889752102566490e+03
-1.273265117772002486e+04
-1.519105496796489206e+04
-1.835188421804682366e+04
-2.230689237407330438e+04
-2.500976655359841243e+04
-2.939544657128254767e+04
-3.297201471665278950e+04
-3.620348065293893160e+04
-3.938693381500922987e+04
-4.248053365362642216e+04
-4.533062411742322729e+04
-4.790162922965227335e+04
-4.920494609809635585e+04
-4.921391817843689205e+04
-4.935905602833339799e+04
-4.993495060932847264e+04
-4.998026849113195931e+04
-5.042069085010447452e+04
-5.129998096959564282e+04
-5.146087634974335379e+04
-5.237003083389229141e+04
-5.418427371902201412e+04
-5.548450298526984261e+04
-5.617245242806636088e+04
-5.736895511598978192e+04
-5.795603402252655360e+04
-5.867570498410101573e+04
-5.992688975404751545e+04
-6.107762978320394905e+04
-6.114087446772939438e+04
-6.128651403145479708e+04
-6.188447323961164511e+04
-6.193675518972399004e+04
-6.141247718041024200e+04
-6.009951778808744712e+04
-5.916168572423639125e+04
-5.908084409161463554e+04
-5.737308627579277527e+04
-5.707840297844412999e+04
-5.707272229165944736e+04
-5.579158985234909778e+04
-5.413592566551421623e+04
-5.150421030055051233e+04
-4.944602010056629661e+04
-4.965640410806408909e+04
-5.315712658816289331e+04
-4.987901048532316054e+04
-4.273633214444372425e+04
-4.432560151156477514e+04
-4.090767762882958777e+04
-3.633063127705879015e+04
-3.455976840444986738e+04
-3.106380240384751960e+04
-3.021946983007650852e+04
-2.548225328517578600e+04
-2.124401323830199544e+04
-1.753180190022803072e+04
-1.347885550100015098e+04
-1.045340336279722032e+04
-9.288520097563110539e+03
-8.974097471661698364e+03
-6.987095360349367184e+03
-3.571476570612609976e+03
4.490984179824115472e+02
4.088877738416020293e+03
6.219143567494901617e+03
8.075259560521892126e+03
9.286756502235968583e+03
1.075028081918327189e+04
1.375250718969878289e+04
1.673717288265937896e+04
1.872609733660614438e+04
2.029017332898814857e+04
2.282930879396786258e+04
2.462746833066990803e+04
2.684381720579617831e+04
2.785955213679838198e+04
2.891388497513442417e+04
3.035507532165446537e+04
2.995746179063724048e+04
2.957345119846560556e+04
2.955068573325197940e+04
2.913987061689663824e+04
2.801269256358885832e+04
2.717079476226433690e+04
2.663305185663396696e+04
2.614830247599156792e+04
2.490056754843918679e+04
2.378408837886550828e+04
2.278705742632437978e+04
2.141148720241670162e+04
2.110651900140958605e+04
2.141641691224373062e+04
2.071153192895715983e+04
2.038736016851904060e+04
1.938845024262767402e+04
1.889441580600095040e+04
1.877983180633693337e+04
1.742120991118819074e+04
1.592818082690435767e+04
1.505462287751390431e+04
1.469247504426487285e+04
1.459958179947231656e+04
1.396567963685099494e+04
1.351057283368987555e+04
1.228402227251216027e+04
9.687923351587798606e+03
9.405296308820657941e+03
1.182872159120143624e+04
1.371124105686936855e+04
1.383978816398916388e+04
1.530839920972410800e+04
1.634842595901217283e+04
1.643118152420250044e+04
1.719383399346693477e+04
1.838868009356602488e+04
1.797501763892956660e+04
1.701229455537386821e+04
1.762194638709912397e+04
1.793142054811564958e+04
1.841408163914160468e+04
1.795513826218618124e+04
1.792203981201603165e+04
1.814929555411263937e+04
1.794938109256223470e+04
1.796171763802504211e+04
1.832179673181317048e+04
1.807309291174984537e+04
1.794903098285761371e+04
1.710617268008957035e+04
1.619506655150390543e+04
1.621023716574632635e+04
1.631801904899850342e+04
1.678583703505813537e+04
1.765417783342851908e+04
1.711638755984639283e+04
1.563577078357353457e+04
1.438675213257931500e+04
1.398667533281027681e+04
1.370182360699752644e+04
1.300559393576490402e+04
1.308946119258409271e+04
1.288587008849589256e+04
1.228519201739266828e+04
1.199175047820209329e+04
1.135886789946733188e+04
1.143188449351831696e+04
1.105907775958829734e+04
1.048352869755502434e+04
9.616403079435234758e+03
8.348794979411568420e+03
7.967777473209360323e+03
7.438222926611097137e+03
6.603002107952508595e+03
6.661135911535714513e+03
6.524459652867622026e+03
6.157823024896608331e+03
6.350051441945391161e+03
6.857968740520667779e+03
5.968414814043200749e+03
5.606087678839121509e+03
4.785734014354661667e+03
4.437482099516196286e+03
5.332302567082668247e+03
6.147034927904110191e+03
5.884445581811582997e+03
4.480045179924605691e+03
3.039349862203266184e+03
1.692606976828534016e+03
1.110068345664796425e+03
-5.157683828236251884e+02
-3.356702116098556871e+03
-5.148815633339532724e+03
-7.593777787510866801e+03
-7.003383274741384412e+03
-7.781266301344341628e+03
-8.861019966873102021e+03
-9.146493077736404302e+03
-9.384775868044209346e+03
-9.555789898807586724e+03
-1.019558023001788206e+04
-1.073012533760365295e+04
-1.161948451510433006e+04
-1.232975799485312382e+04
-1.221902355461810839e+04
-1.121828149510492949e+04
-5.407560897662671778e+03
-4.911140991007186130e+03
-8.767114408257401010e+03
-9.929464760309041594e+03
-1.009929988379257884e+04
-1.047578218441257741e+04
-1.023559460582458632e+04
-9.311699817244476435e+03
-8.779993299548061259e+03
-8.833022523278641529e+03
-8.533291536629998518e+03
-7.895384894470655126e+03
-8.108929420212167315e+03
-8.543497597847364887e+03
-8.823061674518998188e+03
-6.650722113937740687e+03
-2.453493743880977945e+03
-5.562181288185083758e+02
-5.721109984862292777e+02
-2.162046469762182369e+03
-1.205607204247073469e+03
-3.561544627810686734e+02
-4.597941530169144926e+02
-7.790438178380885859e+01
-2.407499559361616548e+02
-2.885040916618090137e+02
-2.133990471438180805e+02
-7.788789997182345815e+02
-1.805017189597111837e+03
-1.568878089316097430e+03
-1.421946953129079020e+03
-1.644562487136401387e+03
-2.015897112531760513e+03
-2.145080820531652535e+03
-1.875099136176908587e+03
-1.684687937002890294e+03
-1.723720352016686547e+03
-2.072997606815019481e+03
-2.206672008504178393e+03
-2.090026796932570960e+03
-2.689340301299081148e+03
-3.496910269139764296e+03
-4.161110292584883609e+03
-4.485323608369520116e+03
-4.744946920710391169e+03
-4.992491439565648761e+03
-5.154385693969321437e+03
-6.153928198039400741e+03
-4.598732920611165355e+03
-3.614694577839292378e+03
-4.646227437882364939e+03
-5.854006108254736318e+03
-6.300071461705973888e+03
-8.481366896731769884e+03
-6.708618176273003883e+03
-4.725542126208929403e+03
-5.784815285974851577e+03
-5.697357838330569393e+03
-4.953074386591878465e+03
-4.495187427234903225e+03
-3.999221486397827903e+03
-3.728723928539674944e+03
-3.662456400817784925e+03
-3.791366545120785759e+03
-4.189669220097698599e+03
-4.358371922479080240e+03
-4.454746452193670848e+03
-4.556227492593792704e+03
-3.747121546100968771e+03
-2.610413326378231886e+03
-2.758551201177833718e+03
-3.392037877647303503e+03
-3.746538799019559065e+03
-3.647319564582006024e+03
-3.296671551345742955e+03
-3.116928948463887082e+03
-2.883049462796315311e+03
-2.382269310766756462e+03
-1.478850598282465853e+03
-3.079628178437435508e+02
-9.689059632299023406e+01
-6.385118890576621453e+01
-1.170028950845605351e+02
1.734238744076935745e+02
1.721753561348814401e+02
1.620637756330757497e+02
1.519470346684105380e+02
1.425878536922436126e+02
-6.416318063098511004e+01
2.163251589011275300e+01
-2.711771350938672072e+02
-4.497299560419035629e+02
-5.110891967310843711e+02
1.926727370477135821e+02
1.744370936272576955e+03
2.505861392167222675e+03
2.854978548554001918e+03
2.753668879733488666e+03
2.125933199914516536e+03
1.603751398595378078e+03
1.532977478818290365e+03
1.600593832070140479e+03
1.897585868734711084e+03
1.988877205393785061e+03
2.056382419158009725e+03
1.741006198655686603e+03
9.697399450768589304e+02
-6.283452523757350718e+02
-3.638376664348827035e+03
-7.242164987048502553e+03
-6.489670149861808568e+03
-4.784953518330306906e+03
-5.701033397782943211e+03
-7.339784699490756793e+03
-6.945181664041699150e+03
-4.342003903747923687e+03
-7.298803243835502599e+02
-5.335275066812612749e+03
-6.565425220804223500e+03
-6.012480151499044041e+03
-3.306688784890111947e+03
5.890128078750414886e+01
1.259581848560005938e+03
-7.386049657074518109e+02
-4.727273742958071125e+03
-5.341560063839579016e+03
-3.389332376862354522e+03
-2.404461298802623332e+03
-2.293798547859220434e+03
-3.213008658752287374e+03
-1.252730181697975468e+03
1.382354552428302441e+03
1.617361598623735745e+03
2.023357592772043972e+03
1.642495153528663877e+03
4.691326650334599435e+02
-3.882556594260215093e+02
-1.360390518896853337e+03
-9.320005384567534747e+02
-2.848550976027235606e+02
-7.527636383907570234e+02
-6.564129181648399936e+02
-7.874212299623967510e+02
-1.296378030279523045e+03
-1.349036531976993729e+03
-7.530325682981491582e+02
-1.021152440212313905e+02
5.622358706190593693e+02
8.534138800501715139e+01
-4.725509341539239472e+02
-1.141070562032836051e+03
-2.056951973132740477e+03
-2.728860870939466622e+03
-2.843388612799950351e+03
-3.347112596929579922e+03
-3.241696882955152887e+03
-3.473850828350115989e+03
-4.668229477376076829e+03
-5.300364461566683531e+03
-5.391935057587927986e+03
-5.234585828046274401e+03
-4.390863971741718160e+03
-4.354443740557218007e+03
-4.553068894084899512e+03
-4.355479011904682011e+03
-4.442383754035666243e+03
-4.219490369129540341e+03
-4.352227177929316895e+03
-4.639184501398410248e+03
-5.258950144518264096e+03
-5.032262870776155069e+03
-4.344758647024968013e+03
-3.976871462203233477e+03
-2.773679170690139927e+03
-1.769037013469976273e+03
-2.554769494133927310e+03
-4.277548690126336624e+03
-4.744953719666393226e+03
-5.456145857996279119e+03
-4.997214342029245927e+03
-4.766976033326416655e+03
-4.447265577520847728e+03
-4.534080313203759943e+03
-4.449409903951039269e+03
-4.067152701943535249e+03
-4.034206539338942548e+03
-4.870431753287233732e+03
-5.332538830487862469e+03
-4.701299061778363466e+03
-4.338672928799398505e+03
-4.194565005176326849e+03
-4.401988883280500886e+03
-4.543850011401879783e+03
-4.665107650945311434e+03
-4.623719274737351043e+03
-4.797587036180281757e+03
-4.980720952097996815e+03
-4.968153642436582231e+03
-5.103804284339588776e+03
-5.361736985332893710e+03
-4.970936750508906698e+03
-3.777398396697400131e+03
-3.453295956909682900e+03
-3.066801129341385149e+03
-1.979095305860412509e+03
-7.923759828370251626e+02
-6.276526082539503477e+02
-3.918741603998082041e+02
1.893230800851383577e+01
-1.633487014706559535e+02
-6.148617017383847951e+02
-3.996633366660496449e+02
1.660260613414804709e+02
6.820135437580707958e+02
1.280159202847878305e+03
1.305249471495872285e+03
1.764033331063906644e+03
3.172276084146654739e+03
3.848780494046247441e+03
4.104363815949105629e+03
4.408842898335563405e+03
5.139012140022818130e+03
5.751534488843403778e+03
6.763210413213005268e+03
7.488802978586569225e+03
7.085932354803845556e+03
7.096340842567256004e+03
7.803715361568866683e+03
7.896744878885016078e+03
7.872049733702903723e+03
7.870401153622057791e+03
7.372404663286651157e+03
7.697792070948949004e+03
8.267287140975786315e+03
9.245421147586557709e+03
9.787814545185834504e+03
9.903222951350991934e+03
1.002944346821446743e+04
1.036120339805318326e+04
1.045106557660668659e+04
9.516497337713281013e+03
9.264111569445194618e+03
9.649618823216071178e+03
8.645079567271284759e+03
4.772952962548145479e+03
5.121274151291039743e+03
7.142434863453302569e+03
7.869379305317386752e+03
7.805672238270570233e+03
7.696096576438920238e+03
6.782515736379801638e+03
6.201357077962044059e+03
7.181927914207373760e+03
6.944735158504558967e+03
6.500221205489598105e+03
5.846754116910527046e+03
5.181093904496835421e+03
4.247687654487120199e+03
3.924464852636456271e+03
3.520364114769993648e+03
2.644753387586030840e+03
2.756097024172504462e+03
2.594989063275012086e+03
1.605173379062877530e+03
-5.162315101006979603e+02
-2.038727727040774880e+03
-2.228194144560665791e+03
-2.561366014256652761e+03
-4.472249716812928455e+03
-5.624988296356186765e+03
-6.306683721179770146e+03
-7.094703760182354927e+03
-7.458716909955207484e+03
-8.112401010806469458e+03
-8.926905230046719225e+03
-9.266370707310317812e+03
-9.750393806682290233e+03
-1.000268343850956808e+04
-1.077872682142267695e+04
-1.147955307127894957e+04
-1.205366653685709753e+04
-1.279734022282722981e+04
-1.347097822056417499e+04
-1.425309311252779480e+04
-1.420601282976754737e+04
-1.379402326625933529e+04
-1.428851574743446508e+04
-1.504779928916698191e+04
-1.537411581386508260e+04
-1.628179729737509479e+04
-1.705925421382483910e+04
-1.791581257302625454e+04
-1.806472657219582834e+04
-1.772230874397086882e+04
-1.708787462662687904e+04
-1.666570444672117446e+04
-1.687007406034927772e+04
-1.773715658475290911e+04
-1.778217111413339808e+04
-1.679137767396571871e+04
-1.629002298867509853e+04
-1.654830311394471573e+04
-1.822438900659292267e+04
-1.902754762951095472e+04
-2.131406478796386364e+04
-2.132778230542967140e+04
-2.048194063395854391e+04
-2.005865516592868880e+04
-1.412315599987895803e+04
-8.307553267982011675e+03
-6.956766491467543347e+03
-1.158023723019027784e+04
-1.310412317073423401e+04
-1.216229767743946286e+04
-6.876923764432423013e+03
-7.011388813251755892e+02
6.679978052244641731e+02
-4.409534053389115797e+03
-6.611730372376924606e+03
-5.197627378432939622e+03
-3.838269048130524880e+03
-3.044704159172754771e+03
-2.350925308600178141e+03
1.529114101308773797e+03
5.689461860847794924e+03
8.491072940532740176e+03
7.008938363158166794e+03
2.779200105703153895e+03
6.456956452091824758e+03
9.324283487532702566e+03
1.037320189589172878e+04
1.078670813649840966e+04
1.243789913470216743e+04
1.425989827413046987e+04
1.550478732311476415e+04
1.702168838321833391e+04
1.718666270558657197e+04
1.673382217184490582e+04
1.638030777463950290e+04
1.636819845865951538e+04
1.677355809254250926e+04
1.711861383099519662e+04
1.752264364658629711e+04
1.760190805832738624e+04
1.739343513827201241e+04
1.781517636313795811e+04
1.897528746184772899e+04
1.949914456320430691e+04
1.974902835220546694e+04
2.096818236988116769e+04
2.195677291463186702e+04
2.185598629806417375e+04
2.119228953773135800e+04
2.053800785899280891e+04
2.000535391969045668e+04
1.985257483579860491e+04
1.951693406148966824e+04
1.951274148296302519e+04
1.934028432576204068e+04
1.905986003896296097e+04
1.856989486415695137e+04
1.796377487104646207e+04
