2.666607106543925056e+03
3.106424556846635824e+03
3.063071473047531526e+03
2.765576717786365862e+03
2.040983760108416845e+03
8.652849956593397565e+02
-1.225619035543504793e+02
-7.806452081916136194e+02
-1.085051025630205913e+03
-1.071897563907914446e+03
-1.026260351140802868e+03
-5.709974327068805451e+02
3.289957013265853334e+02
1.338789975707930807e+03
1.649307476699059407e+03
1.252584928736972870e+03
1.344648392980549943e+03
1.566331578388576190e+03
1.859530357352045257e+03
2.025284324038763771e+03
2.337699215280684257e+03
1.938853973262758018e+03
1.841631418093088996e+03
1.731954699912645538e+03
8.528083541334673328e+02
-1.523769951339956151e+03
-4.815814903939121905e+03
-6.604386689082582052e+03
-6.516550521766957900e+03
-6.008417639789482564e+03
-6.194935530422724696e+03
-6.401822541765597634e+03
-5.410261643764164546e+03
-3.718186430598894731e+03
-2.165624061631287987e+03
-2.001571777821125124e+03
-2.507946881295800722e+03
-2.583778825277365740e+03
-2.718072288442028366e+03
-2.474851193464195603e+03
-9.060747255533741509e+02
7.452457120421119043e+02
2.076085277774355291e+03
1.396514630283064434e+03
-2.695447630037798717e+03
-4.436815494688293256e+03
-5.159583527974225035e+03
-5.400803777248700499e+03
-5.708560318093303067e+03
-6.074881904042120368e+03
-4.755796569065504627e+03
-5.572856501471546835e+02
1.917746548316524240e+03
2.986392355595605295e+03
3.302656217975227719e+03
3.022571337819810196e+03
2.697235075431656696e+03
1.801609604410896509e+03
2.073665094736350966e+03
2.514357248857769719e+03
2.579666192600757313e+03
2.631713877489463812e+03
2.508471319666691215e+03
2.370956258714840715e+03
1.454245079659109706e+03
2.823893604614737001e+02
-4.146575993198664492e+02
-4.479782752407140833e+02
-3.535774234975083914e+02
-4.855173148000255310e+02
-4.877807122437585576e+02
2.657368873031281282e+02
9.181989598197043279e+02
1.224637995176401091e+03
1.250020183041686778e+03
9.913981915923006909e+02
8.638361247776045957e+02
1.061387545794080779e+03
1.121033201460805458e+03
1.367687756221006794e+03
1.648331641083526620e+03
2.087998405363914117e+03
2.009740770020518084e+03
1.939616642421940242e+03
1.596815026059160800e+03
1.117290930482024351e+03
1.950859131994230609e+02
-4.836942611168555572e+02
-6.938853007693658128e+02
-9.676525895118660401e+02
-1.399042499294892650e+03
-1.495946880522665879e+03
-7.263149256590829737e+02
5.500480719006056916e+02
1.858118866201229366e+03
2.236439994917587683e+03
1.667824228403882216e+03
1.350757369408242084e+03
1.189542409915528197e+03
1.597148872112461504e+03
1.847566245549353880e+03
1.907363999952692666e+03
1.762668490894989418e+03
1.770573680470459976e+03
1.245995166481470505e+03
-6.799171388653594761e+01
-1.263377837304114109e+03
-1.594226164486631660e+03
-1.574653229372029955e+03
-2.415713542198725918e+03
-2.048380951237964837e+03
-8.225624748228037788e+02
3.358397422013266009e+02
9.108869080690494684e+02
1.364570218565531604e+03
1.345883786839541472e+03
8.548892653123414220e+02
5.705387462318720964e+02
5.197862318563819599e+02
6.946784665807482497e+02
7.572446266742396119e+02
9.284716285634779069e+02
6.934027412832695063e+02
3.056009231891384292e+00
-9.315588601654108061e+02
-1.738436876914284767e+03
-2.054655328149914112e+03
-2.102256818696084338e+03
-2.270233383052966929e+03
-1.871701280229153099e+03
-1.496600942086195346e+03
-1.231893799058449531e+03
8.041646897510076997e+01
1.586344309563909519e+03
1.986894579298852705e+03
1.106077120383863303e+03
-1.190355476589818267e+02
1.574412116821304997e+00
9.585818638550493631e+01
-1.072352226878088004e+02
-5.577360306202824631e+02
-2.106236385540757112e+02
6.560992673710233021e+02
1.737426973592892182e+03
1.726388815949140280e+03
2.030346582396874169e+02
-1.681745245154402710e+03
-4.843971852703575678e+03
-7.676715505565395688e+03
-8.474101433822066610e+03
-7.970123821412043071e+03
-7.045743859406031333e+03
-4.707952408493247276e+03
2.572830979947640344e+02
1.985004066297030477e+03
2.095201503440704073e+03
1.359888581470507688e+03
3.204566227162511183e+01
6.497171876037847369e+02
2.217012069074617102e+03
3.120616806107157572e+03
2.687547148796747479e+03
2.164756935234135653e+03
2.435262552013533423e+03
2.411121958133395765e+03
1.267466473307000570e+03
1.034296858770500194e+03
1.247237514325423490e+03
1.545983667645004061e+03
1.207520770278860709e+03
-2.039755408954661107e+02
-1.262669506953448490e+03
-6.691968102221497929e+02
6.683769770863733584e+02
8.327832219963987654e+02
5.812119505324210422e+02
3.136921475729042754e+02
4.810910495618834943e+02
7.646340803368894967e+02
1.272310073731963485e+03
2.293067631497160164e+03
2.547110166409298017e+03
3.020133349276899480e+03
3.298806462650170943e+03
2.928200241001263294e+03
1.740977520972939374e+03
6.642796009696818373e+02
-5.107512498587335017e+02
-1.249263390511186117e+03
-1.540579477704309966e+03
-1.734627504347264676e+03
-9.401587749375519252e+02
1.865636035328972184e+02
1.562806704359662263e+03
2.249623209802532983e+03
2.371879129276595904e+03
1.973537870043062640e+03
1.459777413245910793e+03
1.123569016428943996e+03
1.893984912347364798e+03
2.727772144927687350e+03
2.608053547468593479e+03
2.232625366265641333e+03
2.145545930966397464e+03
1.363844921949653553e+03
6.754108814038967239e+02
5.841675625246228947e+02
2.122084805956906735e+02
-2.955313819285239560e+02
-6.252047909179051430e+02
-5.888834154365808899e+02
7.652337778339403940e+01
9.850831771694806775e+02
1.713839148836465256e+03
1.991869388411451837e+03
1.067209437685641433e+03
6.928037684047604898e+02
6.556387949209797625e+02
1.138713191743264588e+03
2.220045190591413757e+03
2.927568482408755244e+03
3.341281030019305490e+03
2.834238386260460629e+03
8.114638967249026109e+02
-2.488055821308001669e+03
-5.051379739093075841e+03
-6.230549756438086661e+03
-7.114599213403267640e+03
-7.125626612862151887e+03
-7.465690747217742683e+03
-6.691780604227318690e+03
-5.609747499614502885e+03
-5.174503422162098104e+03
-3.985974662442892168e+03
-3.487135730836406765e+03
-3.534959319165257511e+03
-3.270479141076003089e+03
-2.062648468234358461e+03
5.226129125648761828e+02
-4.836969743446650796e+02
-2.524576079521859356e+03
-2.891955743900324705e+03
-3.170776252398302859e+03
-3.227972385850604041e+03
-3.045528987848550969e+03
-3.883534868599168476e+03
-3.732054588426799910e+03
-2.561469224798156006e+02
5.301301520429773291e+02
-3.572311677309026436e+03
-6.380408919365851034e+03
-5.464114364644227862e+03
-3.691404726829202446e+03
-2.504288806038488929e+03
-1.237697468985668820e+03
2.466490372600507726e+03
4.657412899621928773e+03
3.964020919410664192e+03
3.326314605273087636e+03
3.250382890724438312e+03
3.479200309817389552e+03
3.619776741825999125e+03
3.549256183667740061e+03
3.546863518168750943e+03
3.679758863778555678e+03
2.947778685907708223e+03
1.481736332412195907e+03
4.946128825490175132e+02
-1.136200428550454262e+02
-3.692230251057572445e+02
-8.911577763809580119e+02
-5.882401354520835639e+02
1.333735139111762237e+03
2.555734552021546733e+03
2.131825482750482934e+03
1.602903453629952082e+03
1.666074642842137337e+03
2.261456840157984971e+03
2.769015882928929841e+03
2.857791722510007730e+03
2.459709924660155593e+03
2.922918176588894767e+03
3.619410754974912379e+03
3.879641559067818434e+03
3.891498518488776881e+03
2.448930122817561823e+03
5.767136245938178263e+02
-1.369109659488119917e+02
-3.770948306465042492e+02
-5.888878920433975281e+02
-1.222148243684228646e+03
-1.574150365453049517e+03
-5.785965710828962756e+02
-1.823981098749904675e+02
2.874642335649980964e+02
1.154977889276199903e+03
1.619909071991829251e+03
1.057241598245161640e+03
3.980931660137317749e+02
6.416364636747855457e+02
9.980658538547972967e+02
1.506451706921037839e+03
2.076504061880401423e+03
2.447254807595981219e+03
2.546503334517030453e+03
2.076541920276906239e+03
1.151229963267702033e+03
-2.687558176307412623e+02
-1.370629003348475862e+03
-1.711157295777402851e+03
-1.750560471226119262e+03
-1.451964857301674783e+03
-1.632545925684170527e+02
1.285875690761077749e+03
2.380509441015820812e+03
2.879489412437590545e+03
2.340749501534814954e+03
2.042207769954693504e+03
1.784920081867464887e+03
1.463265611355624287e+03
1.207494218717160038e+03
1.516516669015541538e+03
2.053066707110115203e+03
2.028910289018979711e+03
1.747105156680244363e+03
8.295548367102188649e+02
-7.849731504029294911e+02
-1.939476909019622326e+03
-1.984100450515577904e+03
-1.849426594035874359e+03
-2.212012307975706335e+03
-1.570010865628842339e+03
-7.454497979256226472e+02
5.885267293863411169e+02
2.097909423146344125e+03
2.823748970744746202e+03
2.132998756451587724e+03
1.931917974837903671e+02
-1.843191703005580166e+03
-3.589251176240307814e+03
-3.515426593544240859e+03
-3.708952677363370640e+03
-4.059134767116534476e+03
-4.260232829917643357e+03
-4.049740541893223508e+03
-4.841172435581123864e+03
-5.565604981189751925e+03
-5.693757537242595390e+03
-6.035532653103698976e+03
-3.865214722086084294e+03
-5.818553766069145468e+02
-3.212588630217861123e+02
-3.145303262606899807e+03
-4.647990132922936027e+03
-3.908179593109538473e+03
-1.222571041889752905e+03
1.140189705510017120e+03
-1.443888117015804028e+03
-8.561062957294598164e+02
1.135370477803007589e+03
1.325569155175022161e+03
2.244515346957290603e+03
3.183269909883310447e+03
3.603842085663201942e+03
3.304098072656624481e+03
2.636938151580421163e+03
1.425320993436416074e+03
6.600187771357047950e+02
2.397721585451254498e+02
2.054318220496361675e+02
-3.181327394496192440e+01
5.020409600236058623e+01
7.465914108409489245e+02
1.470363122601861733e+03
1.788522826001983276e+03
1.995154512804502701e+03
2.192302459127441125e+03
1.763947229876020856e+03
1.546125189428679960e+03
1.331823960244641285e+03
1.607904363885853854e+03
2.258307069525777024e+03
2.504057566740588754e+03
2.167251928321455125e+03
2.215074094754625094e+03
1.628548783075936626e+03
1.372659069329858539e+03
9.994611115872818345e+02
-1.989394996360988710e+00
-9.500973169981475621e+02
-1.567023682788073074e+03
-2.054393149337887280e+03
-1.660961648664774884e+03
-4.827383676474204890e+02
8.580680988780679854e+02
1.902358618028545834e+03
1.694158719979605166e+03
1.029576634460345986e+03
2.006304304501574052e+02
-2.170555704314317680e+01
1.765253415824057299e+02
6.673838341975979347e+02
8.650109986123642329e+02
7.375273371892064915e+02
6.441343153752176249e+02
-1.801328915231114820e+02
-1.151410779765415327e+03
-1.823812176521716538e+03
-2.760211306563356175e+03
-3.792667867896103871e+03
-4.481464369079557400e+03
-4.585250179403392394e+03
-4.067908289533244442e+03
-3.277525354910477745e+03
-2.125952902211678065e+03
-2.102780419537223224e+02
1.117394320060747305e+03
1.029134677776852186e+03
1.900804563194074319e+02
-4.217418495103941041e+02
-4.113900531907965501e+02
5.810881425743334603e+02
2.253776523438429194e+03
2.703662252604240166e+03
2.237759168403599688e+03
1.055033771103167282e+03
-1.114399684932756145e+03
-3.314371523140249337e+03
-4.353942990906898558e+03
-4.686271472107058798e+03
-5.692439862034816542e+03
-6.814303013309124253e+03
-7.134735974002029252e+03
-7.133602686573655774e+03
-6.410836893694441642e+03
-4.075445416108215341e+03
-1.313967670432743375e+02
3.212345919571096601e+03
5.741967215464426772e+03
7.366447677408069467e+03
7.177594775932995617e+03
5.931383510552024745e+03
5.093951771658998041e+03
4.598332486400409834e+03
3.746637420938402556e+03
2.323906989438095479e+03
5.651834024051283905e+02
-8.805287244244137810e+02
-2.215308466980830417e+03
-3.219214350163714244e+03
-4.422302087994914473e+03
-5.129502958894959193e+03
-4.639703922418100774e+03
-2.967778282414697969e+03
-1.244726025756393938e+03
4.075387389955535582e+02
1.773008451750009726e+03
2.102689136632091504e+03
1.743672637870608696e+03
4.929650911686812833e+02
1.325018614796861414e+02
2.002730522843724827e+02
1.553172686442580357e+02
7.296675501395653782e+02
1.305312284621938943e+03
6.783020260078484398e+02
-7.653271636627817998e+02
-1.623673933051481299e+03
-2.352861058259554738e+03
-3.127934562949165411e+03
-3.308920420691246363e+03
-2.921813355968661654e+03
-2.211428140398954838e+03
-1.356800901811897802e+03
-2.629671674208649961e+02
1.250981839024602777e+03
1.948927984002030598e+03
1.686859069583149449e+03
1.705766452742252795e+03
2.611727961472983679e+03
3.302830170242059012e+03
4.261117740922959456e+03
5.206539094664418371e+03
5.151142047773005288e+03
4.052897100769115241e+03
2.218690002572498543e+03
7.460845476208859850e+01
-1.118490378052522601e+03
-2.065712901753143342e+03
-2.858149221878779827e+03
-3.232889728637499502e+03
-3.349973782155180288e+03
-4.032440234394695835e+03
-4.325387703275045169e+03
-3.511898220556287470e+03
-2.824010025538981154e+03
-2.152735414513286287e+03
-1.076098559959700424e+03
-1.480583394427651172e+02
1.431368993839894983e+03
3.703156094624543584e+03
5.141172060072569366e+03
5.974381601830013096e+03
6.068641513636027412e+03
5.913634537412069221e+03
4.885678824350952709e+03
4.389954386181647351e+03
3.702039029294607644e+03
2.146721747675238475e+03
3.732022652460458971e+02
-1.263507954341990171e+03
-1.787599957971585582e+03
-1.041478885304712094e+03
-9.653334299992867500e+02
-9.149397650200209000e+02
-4.172592415905589860e+02
-8.794317719415191732e+02
-2.375563249345972054e+03
-3.398778320082285518e+03
-1.905030574426971043e+03
2.178707319275963982e+03
5.013317485789835700e+03
5.963713145919550698e+03
6.678899743221293647e+03
7.455824863577299766e+03
5.041472727237183790e+03
2.569763142945712843e+03
1.138629204701050639e+03
1.142986565973228153e+03
8.296602718621362555e+02
1.280625243472333068e+03
1.489014970377060081e+02
-1.665528045416686211e+02
1.076218661110525545e+03
1.036155891054407675e+03
1.536211282750267401e+03
7.374139528968619288e+02
5.497823316313355235e+02
-2.288740600684518995e+03
-1.457170882347952556e+03
-1.312542959287751955e+03
-1.918822618670702411e+02
-1.646118826102125013e+03
-9.242645351041280719e+02
-2.481402109054040920e+03
-3.924582444397976360e+03
-2.663827401863335126e+03
-4.928121114077907805e+03
-4.993502038557937340e+03
-4.766078522947058445e+03
-3.936744417203678495e+03
-3.279583551097526652e+03
-5.559817693363802391e+03
-7.099459222272605984e+03
-6.915319279786267543e+03
-4.164261828781367512e+03
-1.934701866008117221e+01
1.714458356177930227e+03
1.495157751798652725e+03
2.508709903698811104e+03
1.317939205160600523e+03
4.002699949505259610e+03
5.349095210451379899e+03
4.522310078482937570e+03
4.553464934762578196e+03
7.168528782865345420e+03
6.343383535039561139e+03
2.831007891068907156e+03
-6.447055316974586958e+02
-7.408664273085780678e+02
-4.075106359339685582e+02
-9.716639369345595014e+02
-2.299200559088147656e+03
-5.522010390157474831e+03
-8.833057236738117354e+03
-7.693278167716749522e+03
-2.484643020099085334e+03
2.054912107145952177e+03
3.595465836436292193e+03
2.606014193170591625e+03
3.042592247896168828e+03
2.566269812786368675e+03
-1.540886710998034005e+03
-6.538867213049724342e+03
-1.404270507570214977e+04
-1.743538052856840659e+04
-1.545182242644950202e+04
-1.529694928283303852e+04
-1.573981830814668501e+04
-1.822939122806772139e+04
-2.110367508998333506e+04
-2.410868935616114322e+04
-2.835942409044553642e+04
-2.579869970566617849e+04
-1.492330315037654327e+04
-2.532193870540424086e+03
7.426681937253357319e+03
1.698437064076025854e+04
2.515111937924454469e+04
3.180705921103028595e+04
3.384219983036309713e+04
2.992053534813649094e+04
2.413514609166948867e+04
2.102105395621824937e+04
1.923827482815933399e+04
1.429992186253332875e+04
8.435842626479430692e+03
4.501997486150106852e+03
6.958426191340164451e+02
-5.124484418762017413e+03
-1.025031228258304873e+04
-1.217758949977490556e+04
-8.566178433312907146e+03
-3.596053478413524317e+03
-1.524870137853672759e+03
-1.268644817041620627e+03
-1.375079317918729771e+02
1.269825246945350955e+03
3.070118835306167512e+03
5.578280990036248113e+03
7.918397711888404956e+03
1.014955112834644933e+04
1.163774286015434518e+04
1.183206723703987700e+04
9.765627066187638775e+03
5.391521399142099654e+03
2.269752399029373464e+03
8.383544970398276064e+02
2.003936825657910390e+02
-9.471655883435414580e+02
-2.199325611264534018e+03
-2.318993790092859399e+03
-1.504134308784077575e+03
-7.966601425005669626e+02
8.435552973719501324e+02
2.335563977480921949e+03
1.562402591099442134e+03
-8.629057383451843180e+02
-3.803334514036630935e+03
-5.888724910588975945e+03
-5.722982032176510074e+03
-5.420117753219916267e+03
-4.706088301433079323e+03
-2.978956486907186445e+03
-5.969805507225445496e+01
-9.351974722473022439e+02
-3.973331862153600014e+03
-3.563106095148936220e+03
-1.182476118205524699e+03
8.555278893904981032e+02
1.599799691337304694e+03
8.902970596733547382e+02
-2.499324221491045535e+02
-7.728020177244344495e+02
-5.542043569193377834e+02
-1.509784455379232213e+02
-2.613272373732728227e+01
-3.826993222708286453e+02
-1.072649541031232957e+03
-1.467905537102790049e+03
-1.581378225868477557e+03
-2.072104608377439035e+03
-3.265084806134268092e+03
-5.371273196497417302e+03
-5.909663797974997578e+03
-5.749150062346423510e+03
-5.992667538902118395e+03
-4.270281464809748286e+03
-2.331090831972905562e+03
-2.610068238357093833e+03
-2.225181738562284863e+03
-1.330442964724820968e+03
-7.440225283336986877e+02
2.140302511175966345e+02
1.564857232362508057e+03
3.011522470096223969e+03
4.469023482704754315e+03
4.918397154212852911e+03
4.836596529429220027e+03
4.940555041868981789e+03
5.355364871147799022e+03
5.139065980077064523e+03
5.368695644555462422e+03
6.243284449480257535e+03
6.084852201794578832e+03
4.962355212556689366e+03
2.992816158756545974e+03
1.001296269347804468e+03
-7.041773534195797311e+02
-1.484600672965100557e+03
-1.509071652283583717e+03
-1.910720712071036360e+03
-2.058751996829610562e+03
-1.348359126555194962e+03
1.166468703813987077e+03
4.088731789705357642e+03
4.530477361448650299e+03
3.577862861695938136e+03
2.811014715210059876e+03
1.702920984481381993e+03
1.091603315158181204e+03
7.550677920853820524e+02
9.683397930774137876e+02
1.039377558150396908e+03
8.921065168537039654e+02
2.175617505029037204e+02
-1.110225790720070336e+03
-2.600203244015441214e+03
-3.693387440220958524e+03
-4.173872982946436423e+03
-5.347806261559405357e+03
-5.791264057679698453e+03
-5.382365556886789818e+03
-4.665113885735089752e+03
-3.559419808842518705e+03
-2.567246218460071304e+03
-2.108511536697187239e+03
-2.702234504624560941e+03
-3.109456080649981686e+03
-2.644171311078750477e+03
-2.638418614789140065e+03
-2.179202650028034441e+03
-9.425210705514000438e+02
-3.533728620782383700e+02
-4.837683383995800455e+02
-7.087156975294639096e+02
-1.223197361780257097e+03
-2.047305949729218810e+03
-1.709096222706605204e+03
-1.183612917657374965e+03
-4.828778977021991636e+02
-7.968512126791582162e+00
5.697897398153565973e+01
8.796085540846158324e+01
1.350423361554011024e+02
5.983122076792433290e+02
7.077011455710385235e+02
-3.768479789703118286e+02
-2.168371617111180512e+03
-2.305857916629192005e+03
-2.397243654893627081e+03
-2.810474759172226641e+03
-1.927516572432508156e+03
-9.573522707611072065e+02
-2.005694488145372034e+01
-1.565250789558992928e+01
4.138657652274890211e+02
5.154971977677797668e+02
1.882030618459892821e+02
-6.159989738545340288e+02
-8.691900706944009016e+02
1.105486571131965547e+03
3.179746050806837161e+02
-1.993776887205376624e+03
-2.094780295691222364e+03
-1.703054868558750968e+03
-6.126944865074694917e+02
-3.373807516042869281e+01
-2.591403451345533426e+02
-8.078521473949630263e+02
-1.007880276791376332e+03
1.821744859340265748e+03
2.889057921887642351e+03
-6.540720525003683861e+02
-3.512656487593237216e+03
-2.012580522490880867e+03
7.652361454223114379e+02
2.911783772653554024e+03
4.167944347413302239e+03
3.040583294590743208e+03
2.643705771860171808e+03
3.408282948056312307e+03
3.724244514895939119e+03
3.794590397723585284e+03
2.839435463699858246e+03
2.881787547297197307e+03
4.236440383771584493e+03
5.260083824629441551e+03
5.047786974235567868e+03
4.492641496430018378e+03
3.987616089036891026e+03
4.100663036710709093e+03
4.141001690527361461e+03
3.573600551532294503e+03
3.283353016529856177e+03
3.279140923909774756e+03
3.308970980476641216e+03
2.577696760200303743e+03
1.424369555483647218e+03
5.480675727811697016e+02
-1.322472283616723985e+02
-1.048544938159550838e+03
-1.623962163204349508e+03
-2.154425083086716768e+03
-2.155939864077785387e+03
-1.439301567862150023e+03
-8.827680868975336352e+02
-3.082694420137678435e+02
3.797745924803291473e+01
-2.418449182730338975e+02
-4.578158604368668421e+02
-6.768117036600948495e+02
-9.277982246761796432e+02
-1.263132272163087237e+03
-1.746849651802002427e+03
-2.008932327224172695e+03
-9.623749960427369388e+02
-3.512491697402637101e+02
-1.934574061976397388e+03
-4.243200975579651640e+03
-5.499165009348530475e+03
-5.294647504974895128e+03
-4.838955580284371536e+03
-3.448140221738110995e+03
-1.209106567384307709e+03
1.390910673782196227e+03
2.136646686107799269e+03
7.276022088451185255e+02
-3.135205459238772505e+02
2.864340883716519670e+02
1.864547705489288774e+03
3.381459472179199565e+03
4.197085175039806018e+03
5.149815716267937205e+03
5.125717343595411876e+03
4.716733182680287428e+03
4.078564138987143451e+03
2.622165208408392573e+03
1.875534165789055123e+03
1.026728812783752346e+03
2.698911591632850673e+02
-1.858984678980566514e+02
-8.880579484063264317e+02
-1.289027683259284004e+03
-4.318321104076459847e+02
5.556932935312324844e+02
1.314714354103615506e+03
2.499140560479166652e+03
3.606068422873825057e+03
3.497859844510137918e+03
2.446662657584702174e+03
1.922776595443295491e+03
1.948915175336118637e+03
1.996588448850121267e+03
1.806884456381670361e+03
1.932811148442395506e+03
2.256572301854325815e+03
2.347279343814837375e+03
1.341944654415250625e+03
3.267291116057501199e+02
-4.388714455920764976e+02
-2.322717889164034659e+03
-5.006250438274716544e+03
-6.777529001336351030e+03
-6.571703950560651720e+03
-5.449778733517692672e+03
-4.576744702459347536e+03
-3.868256670722687886e+03
-3.814817137758105218e+03
-4.392141253337503258e+03
-5.174272431043437791e+03
-5.664283341239046422e+03
-6.225859343643362990e+03
-6.290859475471634141e+03
-3.437344423642036872e+03
-2.487187539614555135e+03
-6.101035652988960464e+03
-8.441838969570017071e+03
-7.569821912856266863e+03
-6.548404326500668503e+03
-6.741763042521658463e+03
-4.766702926461374773e+03
-2.977127868148101697e+03
9.798901203393388641e+02
2.826339276184993651e+03
3.364235621047985205e+03
4.137534955765895575e+03
4.745247378216497964e+03
4.194383072992375673e+03
3.170036757234021024e+03
2.788359460785354258e+03
3.204568061154256156e+03
3.397935972066766226e+03
3.138449934649726856e+03
3.384027973197467418e+03
3.274657696941028007e+03
2.619479443260612697e+03
2.101531018865159695e+03
1.182788874934226669e+03
6.012509708158321473e+02
2.449636712434895003e+02
-1.208658305246699882e+01
-5.598810231923829406e+02
-1.041294369578638452e+03
-1.380125161890748586e+03
-4.652089489925552925e+02
8.015164279905651483e+02
2.054945435725803236e+03
2.929142466337013047e+03
2.819119162460453026e+03
2.248845716146100585e+03
1.743215176681358798e+03
2.149519218524872940e+03
2.256938263416250265e+03
2.560276273215004494e+03
3.060386413690735480e+03
2.849303285151947875e+03
2.092187996520562592e+03
1.404232532269186322e+03
5.049928865197741601e+01
-1.203021772039579218e+03
-1.276333113896409259e+03
-1.344432369451263867e+03
-1.796294457567767950e+03
-1.872824144101719867e+03
-1.392956998783944300e+03
-1.314875909832609864e+02
6.765702788298184487e+02
4.761081234745988127e+02
1.992668659354127954e+02
-2.055199751762758069e+02
9.075182649084912612e+01
8.430330520581397877e+02
8.423599422206903000e+02
-2.004592074636943835e+02
-4.933633394692381557e+02
4.876602886646318247e+00
1.100147816919946081e+03
1.265312732353295814e+03
4.843875081850907236e+02
4.131752422051525997e+01
-6.699115071603337128e+02
-1.657332643370465803e+03
-1.826049580195238377e+03
-1.498901381659362869e+03
-9.027322425407429591e+02
1.274506553805191800e+02
9.926264407175249289e+02
1.604885522844286470e+03
1.242249991057556599e+03
4.196901524565753334e+02
-3.777115905205251920e+02
-3.808838734383174938e+02
-3.477031434504685308e+02
-2.311322025783115635e+02
8.348553797993981789e+02
1.266297181000815954e+03
1.021141153485175096e+03
1.823167631966393287e+02
-8.072032976465364982e+02
-1.386450884406761588e+03
-2.076566905327018958e+03
-2.604680757673314929e+03
-2.760750936574034313e+03
-2.453633479661345518e+03
-1.987275676788144892e+03
-7.615438092177557792e+02
4.365591746577895265e+02
1.516988888843856103e+03
1.604733939874306998e+03
6.738142864268352241e+02
-1.187431791491346615e+02
-4.619977600703401777e+02
-4.739449423298761985e+02
-2.265782486252150250e+02
2.840572629516445318e+02
7.199123127575195440e+02
9.690816348462899441e+02
1.915182167276824430e+02
-5.258407681556237776e+02
-8.750829809870543841e+02
-1.385235630210296904e+03
-1.920400129331975222e+03
-1.915773370486693921e+03
-1.862252157180862696e+03
-1.636772508976631343e+03
-9.053996775283253555e+02
3.728353348893615475e+02
9.048640045259928684e+02
5.906512816359019098e+02
5.952159846925586635e+02
6.395413110351822752e+02
9.375798241482526691e+02
7.632866516756768078e+02
6.836314157728781993e+02
7.273965570939168401e+02
1.132528632255408411e+03
1.350972001946928913e+03
7.537405639388401823e+02
-4.431818015537240854e+02
-1.853045203127590867e+03
-1.872577446759949908e+03
-1.546875495036398661e+03
-1.760997530432563508e+03
-1.816048787192653208e+03
-1.237762678730675361e+03
-3.665115479879635814e+02
3.999349412599403308e+02
8.406106339100319929e+02
9.431980626007139108e+02
8.127313700608511908e+02
5.492131343727086232e+02
4.724843379476874361e+02
9.594789792151088932e+02
1.547185661490650318e+03
2.117452831206870087e+03
2.286441247730552732e+03
2.073075156580826842e+03
1.373950862852536602e+03
2.173542027300400719e+02
-4.304536625619433607e+02
-1.126763250241452852e+03
-2.005611209490287138e+03
-2.072304631385343328e+03
-1.625716244137557624e+03
-4.130495159389352580e+02
6.161291095788486700e+02
1.479672931728710637e+03
2.213127230480867183e+03
1.903787955520802143e+03
1.229930825109176112e+03
1.018502917030879985e+03
1.495089765965198922e+03
1.953360382032286225e+03
2.119446327341274809e+03
2.215350481069238867e+03
2.149447198155384285e+03
2.007425462587893435e+03
1.763376695670675190e+03
7.272666940130200146e+02
-2.602986224006768268e+01
-3.354926092928909611e+02
-4.191803042432010784e+02
-8.942308467359763426e+02
-5.046833803346441982e+02
1.215266246249511397e+02
8.094627687945284151e+02
1.653155836568669201e+03
2.440566457541641739e+03
2.577720503043096414e+03
2.192751711532946047e+03
1.800724920613809900e+03
1.403523028020436186e+03
4.509937851902437700e+01
-2.474532124133024809e+03
-3.469308175288067105e+03
-2.982166567366867184e+03
-2.786143468046033831e+03
-3.447223718012517566e+03
-4.344366560140520960e+03
-4.636597804303993144e+03
-5.072968882168830532e+03
-5.100575014787920736e+03
-4.296461954224809233e+03
-4.693593161228759527e+03
-5.075875694400260727e+03
-3.895195174648863940e+03
-2.804389680279028198e+03
-7.043672040857677530e+02
3.567561271378816627e+02
-2.477070975222761717e+03
-3.202798404079015654e+03
-3.185416976456665907e+03
-2.845031073405164534e+03
-2.135633551709823678e+03
-2.112023939678242186e+03
-1.787103710671715362e+03
-1.713892433436533793e+03
-2.210455679508511821e+03
-4.248176477277776826e+02
1.940965846980629067e+03
3.480622412041456215e+01
-4.351378019136913281e+03
-4.771437184008427721e+03
-4.602217581733990301e+03
-2.581596892398623368e+03
-7.426410717935335697e+02
-2.399414651502067954e+03
-2.019870530006870922e+03
9.690498744219775062e+02
2.501360387341694604e+03
3.074168650773000081e+03
3.199544178865752201e+03
3.686501373040086492e+03
3.671101731877813563e+03
3.786288003680765542e+03
3.613172240072812656e+03
3.943834883050202734e+03
3.455306395707556476e+03
2.398661414286968011e+03
1.766927649320644832e+03
1.190992973352566651e+03
3.708713756843893066e+02
-1.953992623822908286e+02
-2.958722140255928252e+02
3.124988269233168126e+02
1.161840121203928220e+03
2.236288418691995048e+03
2.834854500396630556e+03
2.719538501288452608e+03
2.457429531358330223e+03
1.845597580055482013e+03
1.594058102500665655e+03
1.990777813781885015e+03
1.990703092155718423e+03
2.192839794294874082e+03
2.947223466977100998e+03
3.137965172156355948e+03
2.391476840228801848e+03
1.241882608648085807e+03
1.114184141977994713e+01
-6.798843255319198988e+02
-1.174309536306779137e+03
-1.030115505883579544e+03
-9.943254336484023952e+02
-7.298651186577442331e+02
3.334574409085353750e+02
1.079706989125605560e+03
1.705933087406664754e+03
1.567109772769611709e+03
9.072286083674636075e+02
5.902456417859607427e+02
1.336084325388797424e+03
1.924976960861000407e+03
1.750705376870594819e+03
1.709120886640416302e+03
1.635414066118687060e+03
1.837702514047123032e+03
1.425759595684380429e+03
6.495223845736566091e+02
-2.570257842369630339e+02
-7.218690837873082273e+02
-1.010104759086657054e+03
-1.230851728752916870e+03
-1.376145956906393394e+03
-1.066859889766236392e+03
-3.018761430777569785e+02
3.657835658514067063e+02
1.001043006876523123e+03
1.308936811638963263e+03
1.139529112976630131e+03
7.237792127011532557e+02
7.857629982138088280e+02
3.225134259172806424e+02
-1.570759304086454620e+02
-2.630767202388580586e+02
-2.534774565273204985e+02
3.287734839836858214e+02
9.956350256829929322e+02
5.311264443452658952e+02
-1.747427642402898869e+02
-7.559669045985002640e+02
-1.045713936746386253e+03
-1.348098051747240106e+03
-1.222140961010926048e+03
-9.227869541176848998e+02
-1.049409560867703703e+02
7.794177814568434997e+02
1.504272817834882972e+03
1.354604781346423806e+03
1.164456888021292571e+03
7.717585681943895679e+02
3.684482586768144188e+02
4.644838282330595689e+02
1.063893059236274667e+03
1.302736557585373248e+03
1.248008986538890895e+03
1.281634893871161694e+03
1.005528129660427339e+03
1.146634315379104265e+02
-8.889405531666186562e+02
-2.448381683181265544e+03
-1.920694840320211597e+03
-1.831977585372760814e+03
-4.483280038348951166e+03
-7.554487710138128023e+03
-7.322532009161519454e+03
-6.156403350824441986e+03
-5.189221668478610809e+03
-4.416156207980179715e+03
-4.283957658834640824e+03
-2.915536335933792543e+03
-5.400192873500228643e+02
1.199448540444813943e+03
1.770768037083637410e+03
2.200965861579827560e+03
2.205134938956040060e+03
2.401198614382657979e+03
2.308124455927197232e+03
7.109664220110042834e+02
-2.572491066961548540e+02
-1.605928460198804544e+02
-3.001321102802450582e+02
-7.149653025635525410e+02
-9.601581490172173972e+02
-7.657070491177574922e+02
-3.504704269102967942e+02
3.961823129938562005e+01
3.254248470819445060e+01
1.702538259571952892e+02
