3.617548491291353457e+03
3.111998194808330027e+03
2.057996846879677378e+03
1.483397868041984793e+03
1.332757995035384511e+03
1.274195212422828718e+03
5.758970859507066962e+02
-9.413974692420035808e+02
-1.266878224275071716e+03
-1.370382099022719331e+03
-1.562988103992574224e+03
-1.404783335249296897e+03
-1.048797536899265651e+03
-4.101168279850054432e+02
6.773397621459686206e+02
1.524380103153162736e+03
2.165480487630695734e+03
2.922887838435296999e+03
3.544344407597298868e+03
3.568897137126385587e+03
3.405760167944771638e+03
3.163666721126003722e+03
2.467363690689757732e+03
1.695006211638092964e+03
7.209980740776403536e+02
1.671925893293097829e+02
-1.174855094693984512e+02
-3.101355234548919952e+02
-9.459470051968331745e+02
-1.173045990246419024e+03
-1.016554117131484986e+03
-1.166657403820675654e+03
-9.374289939254531419e+02
-7.600256636782095256e+02
-9.147742122440165247e+01
3.630236488961223813e+02
5.963697843626833901e+02
1.253517102820522950e+03
1.624404157716075815e+03
1.925996101572685575e+03
1.932100316361829528e+03
1.809453263094778322e+03
1.651983022184161655e+03
1.142562536284587850e+03
3.659627337629022463e+02
-4.329265498210722285e+02
-1.068195545196432477e+03
-1.297990059755549055e+03
-8.265591683870303541e+02
-7.170214792537858557e+02
-9.714800238447063521e+02
-1.636079834642739115e+03
-1.730961002683195829e+03
-1.139239755807538586e+03
-4.919752735383864888e+02
5.377739807568797232e+02
1.085896254864318962e+03
1.275161587546817827e+03
1.292578283200094575e+03
1.094056408240335941e+03
1.322376062217941353e+03
1.538407303731515640e+03
2.123044510156548313e+03
1.491208108347072766e+03
-1.248270091602705406e+03
-6.379576103503585728e+03
-1.089080255646281148e+04
-1.105607582578676556e+04
-1.085144812180702502e+04
-1.024722194405563823e+04
-7.380508332944647918e+03
-3.265524624082978335e+03
-1.652270646961639841e+03
-5.779655929992563870e+02
1.232336631163352507e+02
8.043784939633593467e+02
1.208374306078033442e+03
1.660138523641516940e+03
2.151523068138464623e+03
2.345470201403588817e+03
2.449921295171006932e+03
2.535818914160680833e+03
2.638069867865604010e+03
2.185530084175510638e+03
2.251046218444048918e+03
1.929463749058773374e+03
7.186840431010905377e+02
-6.139832992329370143e+01
-5.678243126617015832e+02
-8.886693901043045116e+02
-1.064118843098009393e+03
-1.207255438064546070e+03
-1.580116251099274223e+03
-1.203765857094032526e+03
-4.612899222366687013e+02
6.123235146686357666e+02
1.579009854601727511e+03
2.092781981233836177e+03
2.927663970694777163e+03
3.790569723801947021e+03
4.021462498247688472e+03
4.260324143288959021e+03
4.003161549997740622e+03
3.447008885538328286e+03
2.701735574826082029e+03
2.070232673925561357e+03
1.307459634457981338e+03
3.493936353673629469e+02
5.031175818799704658e+00
4.233281934985758994e+02
4.031605504353870515e+02
7.085823017956921603e+02
9.026825503121082193e+02
1.339412809951618783e+03
2.093677318868387374e+03
2.697535597044494352e+03
3.620032288889779466e+03
4.505207379552200109e+03
4.741155525873899023e+03
4.727942118773201400e+03
4.782521879657309910e+03
4.770910112152627335e+03
3.882180152967696813e+03
3.978310443477664649e+03
3.783284460844940440e+03
2.573210299546723945e+03
2.060135754676692159e+03
1.565066047490553956e+03
7.680623441965335587e+02
2.990878526327990130e+02
3.642727622473415749e+02
4.667271232353110690e+02
5.594427916914480647e+02
9.804765098606873153e+02
1.412980741905982995e+03
6.260467572488111045e+02
-3.637364618586468168e+03
-3.310280263608044606e+02
-1.977899020111084155e+03
-2.740263528315864505e+02
4.437202186590445194e+02
3.340581215032295404e+03
1.103718746272592853e+03
-1.997811294988119926e+03
-2.369276823772042917e+02
-1.097605001195031264e+03
-9.307762899812416890e+02
-2.829358660527085704e+03
-3.378156466965986510e+03
-4.543101529600528011e+03
-2.767102082215132668e+03
-7.525037994618868652e+03
-2.931672295110061441e+03
-1.774891204846182063e+03
-4.551491572578306659e+03
-3.961267046341946752e+03
-4.605524764502339252e+01
1.030273383186089404e+03
1.641902925598586080e+03
-4.392242047200176103e+01
-1.699983146258021634e+03
-2.721940407018707901e+02
1.926535688933063511e+03
-1.458650423605869946e+03
7.834548584150865054e+02
-2.133090136764582439e+03
-5.455146005189264542e+03
-5.099619927264260696e+03
-3.090377953254043859e+03
-3.773237111331233791e+03
-5.952088739841446113e+03
-5.358709988452542348e+03
-5.191911517483165881e+03
-2.779573742285338994e+03
5.495138586084374310e+02
1.068563648099156808e+03
1.401681816004399707e+03
2.645937075098750029e+03
3.315545040850241094e+03
3.446739846357167153e+03
3.340690812329665732e+03
3.359564158167646838e+03
3.217432003657036148e+03
2.558501841026521106e+03
2.035818041351627016e+03
1.864662976284583237e+03
1.928044818323840218e+03
1.329851923422683967e+03
6.547073434800613541e+02
4.863137700952666478e+02
-1.007205444465543849e+02
-1.004032968919074307e+02
3.825833405047461042e+02
7.387670388833865900e+02
1.306860703759966327e+03
1.800687502767445721e+03
2.625838291760862830e+03
3.029032711344691052e+03
2.834488387444754153e+03
2.399231125482564039e+03
2.607832117674769961e+03
2.593240398632369761e+03
2.358345839964117204e+03
2.693404072690242629e+03
2.665901623706346072e+03
2.575266990966627418e+03
1.724161019322984885e+03
9.928205056250518510e+02
5.962143728370583631e+02
2.961482582768157386e+02
-6.598552562728223165e+02
-1.010855352667177158e+03
-6.763655414901793392e+02
-7.592714170377842038e+02
-5.849742875270015929e+02
2.222322410629589058e+02
1.120630143091510263e+03
2.102727029410807518e+03
2.066065627767976821e+03
2.399512599055785813e+03
2.453099617044298157e+03
2.634556528521212385e+03
2.159257093399011865e+03
1.484965738176341119e+03
1.125789029715603647e+03
4.275175140897364372e+02
-5.158662268648021154e+02
-1.204420865354946955e+03
-2.097922044856623870e+03
-2.127532509491577002e+03
-2.101495629120359808e+03
-2.034893237575151261e+03
-1.710755597345291108e+03
-8.111938503682478085e+02
-1.623772916793395282e+01
6.621435230380358234e+02
9.350171193613051628e+02
1.349431912139287533e+03
1.864341560781025009e+03
2.191596805368646073e+03
2.356172805216715460e+03
2.523054290202896937e+03
2.098180110259262165e+03
1.735412922205265659e+03
1.019692611791596391e+03
7.999080220150201512e+02
4.189905336633028128e+02
-3.321473855575290202e+01
-3.658364284494043659e+02
-6.858824951829446945e+02
-6.194190084010457440e+02
-2.886005873564308217e+02
-2.354129382635705667e+02
-1.565009459476609891e+03
-4.110439748598679216e+03
-6.227685776759519285e+03
-5.385850375715972405e+03
-4.606996103381572539e+03
-4.118172398015169165e+03
-2.726488325472641463e+03
-1.740116904398574661e+03
3.079802400290627247e+03
5.587167511396850387e+03
4.149631714567003087e+02
-2.667948782200131518e+03
-3.781334281465019558e+03
-4.424282899074276429e+03
-4.941965560303269740e+03
-5.642833409393806505e+03
-5.843252893771190429e+03
-4.025986894025640140e+03
4.682735443003968712e+00
-3.356745456171963269e+03
-6.848577210539835505e+03
-6.625759655690309046e+03
-5.495432671047266012e+03
-1.458503319891106003e+02
3.015905963881326898e+03
4.488496589155976835e+03
9.508728134092540131e+03
9.278675937566056746e+03
8.915368610854677172e+03
9.175309138747285033e+03
9.179113832799241209e+03
8.560020355876637041e+03
8.067200191478664237e+03
7.745308758368744748e+03
6.381192016205394793e+03
5.321922461327767451e+03
3.911359878996645421e+03
4.232473134192860016e+03
3.145085205407309331e+03
1.622157109503001493e+03
1.130804742626719644e+03
1.235981114492119104e+03
2.811796019602976230e+03
3.883397816609856363e+03
3.187804739131076531e+03
2.609121207062353278e+03
2.022243488246668221e+03
6.189838564228703035e+02
-1.006935250156891897e+02
-5.245761167503980005e+02
-7.386278258096532454e+02
-2.283881770871330446e+03
-4.069372980172299322e+03
-4.804160047419028160e+03
-5.817196962490262194e+03
-7.633439142013665332e+03
-9.841876588896291651e+03
-1.106644795979886112e+04
-1.075813537535753858e+04
-1.053684542730620888e+04
-1.198846118593395659e+04
-1.198284757405413802e+04
-1.120983565256654219e+04
-1.068926962975044262e+04
-1.005298125461434392e+04
-9.859820417671646283e+03
-9.625703943615304524e+03
-9.198306433212879710e+03
-9.379334731535584069e+03
-9.493398097672761651e+03
-1.004519153083923811e+04
-9.921589550544855229e+03
-9.684343865162922157e+03
-1.010332679041529082e+04
-1.083242793375613837e+04
-1.147859053346260225e+04
-1.148370617203479924e+04
-1.136850643656893953e+04
-1.129977134191071127e+04
-1.155819443503989169e+04
-1.076526396697993914e+04
-1.026358939416039357e+04
-9.602857303072090872e+03
-8.832813768903421078e+03
-8.060240707280603601e+03
-7.175754685030149631e+03
-6.018887607167864189e+03
-5.259122698654537999e+03
-5.133237494426525700e+03
-5.295901601446953464e+03
-5.827725731781672948e+03
-5.636352976655181010e+03
-5.004294761715700588e+03
-4.954347679176758902e+03
-5.209386712836641891e+03
-5.576196264774584051e+03
-5.661650047084966900e+03
-5.661757978439029102e+03
-5.533612529735656608e+03
-5.529195755179743173e+03
-4.854583398285882140e+03
-3.453712909852505618e+03
-2.943364160057263234e+03
-2.019435773957120546e+03
-9.876958606746942451e+02
-3.602951501482818344e+02
5.906967646582115776e+02
1.179194314854722052e+03
1.547398805211425724e+03
1.559373104950722336e+03
1.942167425233552649e+03
2.368789980488893434e+03
2.228195950679948055e+03
1.530059868988623066e+03
1.335124752478759547e+03
2.176324294880375419e+03
3.322614981456009446e+03
3.179805769132299247e+03
3.185676324082706742e+03
3.278992460171739367e+03
3.563467526203568468e+03
4.975896311281203452e+03
6.757075310849161724e+03
7.562764002238711328e+03
8.183697843513681619e+03
9.088545363278046352e+03
9.276058835437692323e+03
8.831901733096739918e+03
9.434729374087430188e+03
9.640241534363527535e+03
9.716027988367763101e+03
9.675672476028084930e+03
8.682789872120731161e+03
8.555917156666382652e+03
9.243539479484672484e+03
9.226147546316715307e+03
9.152243374451043564e+03
9.538320065716146928e+03
1.070184561644406494e+04
1.123531034896222627e+04
1.255876957812849832e+04
1.394010328707970257e+04
1.440810919001794537e+04
1.384118760308074889e+04
1.444880549800604240e+04
1.585677161194005566e+04
1.598049787700437446e+04
1.628926854352903320e+04
1.678466781339745285e+04
1.599768567010350125e+04
1.395966093201806507e+04
1.342726591016793645e+04
1.287825943160172574e+04
1.101137124403668531e+04
8.957040406579637420e+03
7.427554278346206956e+03
5.927659767078851473e+03
4.896304751345533987e+03
4.333844563304557596e+03
3.857470350263377895e+03
3.320375927975922423e+03
3.228101389801819096e+03
3.827164176698394840e+03
5.097101304932369203e+03
6.280190267023745946e+03
6.724453500840514607e+03
6.672488061288245262e+03
7.224320456347034451e+03
7.042763168574138945e+03
6.903291237547281526e+03
5.696938706415517117e+03
4.029836990855047134e+03
2.768216570899161070e+03
1.178964698372553357e+03
5.746078375728999390e+02
1.215916365176980918e+02
-5.230642346233984199e+02
-1.276612982126702263e+03
-1.296363702324447559e+03
-1.259860091613961231e+03
-1.990510832068590162e+03
-2.439733940955374237e+03
-1.736804674876311310e+03
-1.173003538952887084e+03
-5.395977498944481567e+02
-1.838696206738673027e+02
1.614003444450574534e+03
3.005855435615894294e+03
3.949461680563615573e+03
5.233596050936605025e+03
7.639126956417003385e+03
1.073798701440381046e+04
1.163005542024835995e+04
9.095156867654153757e+03
7.178280327654635585e+03
7.331367067589260841e+03
7.197431176427161517e+03
6.357462691216127496e+03
7.143556831043063539e+03
7.291874380582298727e+03
8.035487361273799252e+03
8.200580132548298934e+03
6.527399310901877470e+03
2.247292786164477548e+03
2.429439051242375626e+03
3.138077639961514251e+03
6.464569515135651272e+03
3.751194715400574751e+03
5.868322797577228812e+03
4.736431512711242249e+03
1.878984873222417264e+03
3.055384442878639675e+03
-7.448551194527565258e+02
1.275725703089772196e+03
-7.229820362682190193e+01
-4.028404415030610380e+03
-6.640070216311067270e+03
-5.561651630602567820e+03
-9.582495793631560446e+03
-8.360986748471364990e+03
-1.313040571340649149e+04
-1.293805178515309490e+04
-1.011913169119779013e+04
-1.220392722191982102e+04
-1.316857255392027037e+04
-9.788267823247921115e+03
-1.282609759022839899e+04
-1.209318226728865193e+04
-1.319467411823330804e+04
-1.597264583005628629e+04
-1.555919492732273466e+04
-1.763338399374376604e+04
-1.649621202689554411e+04
-1.724679203000038251e+04
-1.912817917824837059e+04
-2.075941702914662164e+04
-2.297254093213570013e+04
-2.502560389482029495e+04
-2.640263308052374123e+04
-2.742160659711299013e+04
-2.727245038844936062e+04
-2.617907958252940807e+04
-2.644143463918823909e+04
-2.687140434694322539e+04
-2.633192679418513580e+04
-2.574195335058814817e+04
-2.606235838974999933e+04
-2.639908838800932790e+04
-2.657999685085433157e+04
-2.715206573729983938e+04
-2.840222873505565440e+04
-3.024340614350327451e+04
-3.131964090710976961e+04
-3.185884399404864598e+04
-3.383202709474779112e+04
-3.435220917725819163e+04
-3.581536862473092333e+04
-3.640548409029818140e+04
-3.580140308913154877e+04
-3.507521147612028290e+04
-3.400584847357817489e+04
-3.258327117266660935e+04
-3.178247648737018608e+04
-3.155556770970444995e+04
-3.150329921387212016e+04
-3.143435898305734736e+04
-3.099126105499636469e+04
-3.231464736326661296e+04
-2.805543625258201064e+04
-2.219281094183257301e+04
-1.575196950213760283e+04
-1.213622784120683900e+04
-1.104181644010909804e+04
-4.133030285258222648e+03
2.982577148691068942e+03
6.357600742868908128e+03
7.704925079843063031e+03
1.204395771039322062e+04
1.711233468785103469e+04
2.077655061600689805e+04
2.549403644382549828e+04
2.781615944677808875e+04
2.862317004878656007e+04
3.173909802299829244e+04
3.694969127645150729e+04
3.781930839656917669e+04
3.456921167373418575e+04
3.490969709238459473e+04
3.820602079549001064e+04
3.862537024222145556e+04
3.812791090285389510e+04
3.891784673721838044e+04
3.894924922277533187e+04
3.906818626456118363e+04
3.773354876891787717e+04
3.566744230704291840e+04
3.475284693848802999e+04
3.359062647313479829e+04
3.352158732163153763e+04
3.554544489813467226e+04
3.796898315748668392e+04
4.224209221067470935e+04
4.585955346873858070e+04
4.688009153958773095e+04
4.667945079674541194e+04
4.871224137970407173e+04
5.119902933844139625e+04
5.354137232514123752e+04
5.609688451490899752e+04
5.732310267810870573e+04
5.816145488483593363e+04
5.820934186591316393e+04
5.777222765701034950e+04
5.768953642617782316e+04
5.670758248266741430e+04
5.600751916436754254e+04
5.490561476076859253e+04
5.345725255202709377e+04
5.209161092361245392e+04
5.043178531539272080e+04
4.925186421892038925e+04
4.789598967969406658e+04
4.572225420933710120e+04
4.402581520518627076e+04
4.086377318626757915e+04
3.615822795272721851e+04
3.131523577458016734e+04
2.862986571848755193e+04
2.665711061084672110e+04
2.392090298749647991e+04
2.242520733109664798e+04
2.105602845663956032e+04
1.603643304750520110e+04
1.035225308816209690e+04
3.066364498993134930e+03
-4.750269946639371483e+03
-1.062073180332165794e+04
-1.545024182330485201e+04
-2.008484018034003020e+04
-2.578967416977503672e+04
-3.325485102165093849e+04
-4.051548517901272862e+04
-4.621866374161455315e+04
-4.989048441939406621e+04
-5.400100191980353702e+04
-5.805726235981957871e+04
-6.188128615323120175e+04
-6.435210620747432404e+04
-6.307989601701709034e+04
-6.105277572863113164e+04
-5.905373570762721647e+04
-5.569879000361503131e+04
-5.206297091072078183e+04
-4.869533958081204764e+04
-4.699789079911274894e+04
-4.561058804396818596e+04
-4.632443489857446548e+04
-4.805848777780692762e+04
-4.775771290148718253e+04
-4.667193401573824667e+04
-4.328905548383019777e+04
-4.172698808366034791e+04
-4.178555959172451549e+04
-4.388857010020557937e+04
-4.415679063169090659e+04
-4.353200174649470137e+04
-4.198787494290572067e+04
-3.975112668804261921e+04
-3.615048019340541941e+04
-3.429358964529526565e+04
-3.479000900316151092e+04
-3.443737146792604472e+04
-3.287539784197628614e+04
-3.124977034060492224e+04
-2.955699768843030324e+04
-2.825054474277708869e+04
-2.741689716328981012e+04
-2.612157736084863427e+04
-2.476708780040386773e+04
-2.331380150374371078e+04
-2.150101021255724118e+04
-2.011601442452870106e+04
-1.887916843407093984e+04
-1.674067703731050278e+04
-1.466349039031711800e+04
-1.279393495059756788e+04
-1.065323303997071162e+04
-8.678482190860100673e+03
-6.632734091348983384e+03
-4.683987451299515669e+03
-3.034325528204140937e+03
-1.962862086477305411e+03
-1.323508699854914312e+03
-7.472135499121227440e+02
-7.539602987897507091e+02
-2.619665999138710049e+03
-1.681265456072449979e+03
-9.626489457880734335e+02
-8.076336051234649176e+02
2.205044412664027732e+03
5.451703619887988680e+03
3.216585413747249277e+03
8.821935543666264493e+03
1.210721288293362340e+04
9.341764043012579350e+03
1.131594177194119038e+04
1.388125850847767833e+04
1.853829413065908011e+04
1.631041109973929997e+04
1.739014791671704734e+04
2.298606643547914791e+04
2.081569349269451050e+04
1.926353390122556448e+04
2.246013971880749523e+04
2.137106256483967081e+04
2.057287151369081039e+04
2.112309124743922439e+04
2.146935524065476420e+04
2.338124817302049632e+04
2.503331454781556749e+04
2.477510220184098580e+04
2.214924221433433195e+04
2.274244719708327102e+04
2.571847509733260449e+04
2.663393693657143740e+04
2.217657618103877030e+04
2.346211721165017661e+04
2.392132317896713721e+04
2.307290597178009557e+04
2.488057655747087483e+04
2.535408229352455965e+04
2.780504249759520098e+04
2.297012552284760750e+04
2.249104315690682415e+04
2.554050503494804434e+04
2.486012606487015000e+04
2.359454213039621027e+04
2.249947007299999314e+04
2.176557849016024920e+04
2.097545526795577462e+04
2.021082608646817607e+04
1.932130903288262198e+04
1.914557254264975927e+04
1.921015357619050701e+04
1.906370340529947134e+04
1.858286925563453042e+04
1.865022602847444432e+04
1.891015599447170098e+04
1.881104223147882294e+04
1.778652684128937108e+04
1.653571644022369946e+04
1.505822930324341905e+04
1.398747066462035582e+04
1.201594443051991402e+04
1.039723322444563200e+04
9.464691015503480230e+03
8.180771589667278931e+03
6.779854969305279155e+03
5.348386905285467037e+03
5.223897747944558432e+03
4.945087681389725731e+03
3.998976138812784939e+03
3.480954541272227743e+03
2.851323528418412025e+03
1.924350092648209284e+03
2.059055246755995086e+03
2.023136113277016648e+03
1.338008129918932582e+03
1.381602431316693355e+03
9.375274238944330136e+02
2.027385807309737800e+02
-6.492273759086162954e+02
-1.765567502763100265e+03
-3.065527523238456979e+03
-4.119836681879356547e+03
-5.223917554304297482e+03
-5.772084833490357596e+03
-6.219779104368702974e+03
-6.950463862972629613e+03
-8.018086209367786068e+03
-8.421240694083449853e+03
-8.823604735292927217e+03
-8.819694763397588758e+03
-8.723760129422928003e+03
-8.661059160714294194e+03
-8.499547226318753019e+03
-8.823877513648874810e+03
-8.941769568790841731e+03
-8.611311354918943834e+03
-8.278729577172136487e+03
-8.093325363187816038e+03
-8.135277024170160075e+03
-8.249795558167912532e+03
-8.409073522928089005e+03
-9.127403415172893801e+03
-1.005609900004580595e+04
-1.104448930639115497e+04
-1.148798719842056562e+04
-1.171498829664239020e+04
-1.132868657441985124e+04
-1.096638015520606132e+04
-1.071752649933780776e+04
-1.028350452220797160e+04
-1.001661828683038766e+04
-9.107183723900432597e+03
-8.236600383965815126e+03
-7.365217212276604187e+03
-6.166300260462150618e+03
-6.053140235952634612e+03
-5.415188701843690069e+03
-4.987873192283333083e+03
-4.865535495006332894e+03
-5.034650342927528072e+03
-6.967539413764592609e+03
-9.298683253808467271e+03
-1.372663099799777046e+04
-1.509788203000547219e+04
-1.558488640215643136e+04
-1.559909744611970564e+04
-1.485884654726544613e+04
-9.124530115262103209e+03
-4.998510832539092007e+03
-6.953264651510267868e+03
-1.134115612097651683e+04
-1.227030311903193797e+04
-1.177758376089692683e+04
-1.063661703905314971e+04
-1.032191169779003030e+04
-9.792656164049158178e+03
-8.699017767445751815e+03
-8.155922197895682984e+03
-4.850811079425778189e+03
-5.079820942152293355e+03
-9.315136968647306276e+03
-9.965371220640547108e+03
-1.011198578718606768e+04
-5.486241532581546380e+03
-2.179533580978860755e+03
-1.859934345903817302e+03
-1.913536831829202583e+03
-1.741754722584639239e+03
-1.472010108234381050e+03
-1.041129674950766002e+03
-3.398851614129002314e+02
9.133366590444043709e+01
4.711788733726575629e+02
1.090722931173286952e+03
1.602979076575881663e+03
1.998735744168343899e+03
1.974980289943596290e+03
1.937685668050534332e+03
2.034922819111903664e+03
1.833752039799762770e+03
1.849032071986684059e+03
1.583834345140388905e+03
1.457115187270231218e+03
9.176845479061991000e+02
1.284979928592934186e+02
-1.555832853551831647e+02
-2.264694270511442369e+02
-2.609184049392707152e+02
-7.802136952292601180e+00
1.828338157208932273e+02
6.500741856635877411e+02
8.680266703453177115e+02
1.128756569487834213e+03
1.937495994936255556e+03
2.122442069189810354e+03
2.130898353981538548e+03
2.072087795303842540e+03
2.427169827673592408e+03
2.390462829712323128e+03
2.314169332427212339e+03
2.196545270238966168e+03
2.959791574242469324e+03
3.569056099655956587e+03
3.138597945252897262e+03
2.889673962336507884e+03
1.774870629488043051e+03
1.297659295258766861e+03
1.317423807114334522e+03
1.272020070558920679e+03
1.465315891954052631e+03
1.780730298878024087e+03
2.690514295280987881e+03
3.183859931210686227e+03
2.846179930037281792e+03
2.463713540538117286e+03
3.534828633427812747e+03
3.943423797848388858e+03
3.795577233354129021e+03
4.146644102261633634e+03
4.214040282300063154e+03
3.629922000803762785e+03
3.497575989236001078e+03
2.905337294548634418e+03
2.309563347607508149e+03
1.495781417442130760e+03
9.263271558915165542e+02
7.243483008598719834e+02
7.950199835531955159e+02
8.526705727489342053e+02
1.453567099848250109e+03
2.295973866339080814e+03
2.579014640902837527e+03
2.646600036386824286e+03
3.007806983700801538e+03
3.424738863385390232e+03
3.629412461447268925e+03
3.417877571227028056e+03
3.267196264927923949e+03
3.516542249521494796e+03
3.164030273442383987e+03
1.982886125112366244e+03
1.052304097377397284e+03
3.722235978508672360e+02
-5.328760896306398109e+01
-8.353856569205922824e+02
-1.822940339330551524e+03
-2.187849563167824726e+03
-2.460827983149858028e+03
-3.043844916567799373e+03
-3.031945559020376095e+03
-2.447140586421306580e+03
-1.912471412018757292e+03
-1.597106836544092630e+03
-6.399383387723609076e+02
7.962728962387070624e+02
2.001498730128612806e+03
2.416626450586406463e+03
1.948581209958352929e+03
2.020304534350801305e+03
2.009775984274090433e+03
1.059020402379709139e+03
-5.058001945934002208e+00
-4.195541844385822401e+02
-8.995784140983599855e+02
-1.333257012743847554e+03
-2.421610993495990897e+03
-3.846699373570014359e+03
-2.516696879418655499e+03
-1.626698324719350921e+03
-1.791673936410397573e+03
-1.718792780586738900e+03
-1.137093280853559236e+03
-6.846582561959443183e+02
-1.564500125332649993e+01
2.358009608821222685e+02
7.576416716778411455e+02
1.281865962069652369e+03
1.506318619092865674e+03
2.448920041948245853e+03
2.036731219550008973e+03
1.748527201546440210e+03
1.566176720097655334e+03
1.053608245386310273e+03
7.639115499787062902e+01
-4.777028978074051793e+02
-9.344278293241090978e+02
-9.665499625701539799e+02
-9.480542468441298070e+02
-1.066627066444828642e+03
-1.201673658685554983e+03
-1.032345741113555960e+03
-7.770366672325724267e+02
3.776312590047288609e+02
1.068336310373062361e+03
1.445571851986550882e+03
1.710759294292997993e+03
1.803785225527428111e+03
2.016139137675137817e+03
2.567000869377196068e+03
2.336261127290868899e+03
2.332694612013106507e+03
2.356124957389325118e+03
2.099257395045885914e+03
1.538944430194055258e+03
8.681306252053938124e+02
2.339515624685531918e+02
2.790884170166814897e+02
2.051824311280162476e+02
2.813093239432915311e+02
9.798073077309003338e+02
1.570190530927819282e+03
1.686395886159281872e+03
2.136461039769083527e+03
2.718098698085175783e+03
3.191305568829425283e+03
3.474794596386498597e+03
3.777059955401140087e+03
4.157748972876102926e+03
4.352472478962080459e+03
4.012342573767117756e+03
3.182289973575399927e+03
2.210282136893431016e+03
1.165272191344662360e+03
8.261602911078909983e+02
1.499035311800590478e+02
-5.345556142625586062e+02
-8.913760090436447854e+02
-9.646089772973003846e+02
-7.592100710929113347e+02
-2.072397823445332676e+02
-7.657797222812984046e+02
-2.814869070392022877e+03
-6.384535283526332023e+03
-7.140765541694750027e+03
-7.007561117013760850e+03
-6.547920731778816844e+03
-6.404879868258474744e+03
-5.896363857996279876e+03
-5.215404464332057614e+03
-5.031058364494239868e+03
-4.912349261248993571e+03
-4.991270457354356950e+03
-5.621812121484485942e+03
-5.728091086676016857e+03
-6.503121018115190964e+03
-6.122796701856375876e+03
-2.401175190635008676e+03
-5.020286870989438285e+03
-6.923058386567528032e+03
-6.659588760950296091e+03
-6.437882959638621287e+03
-6.136763126205768458e+03
-5.909331699022243811e+03
-2.553558502519710146e+03
3.614687904759892263e+03
2.896480846147397187e+03
-2.837177161828023600e+03
-3.700226168593002058e+03
-3.711616344002983624e+03
-3.574352438439827893e+03
-3.038458469754501493e+03
-4.354929319706081515e+03
-1.674711828667181635e+03
2.718271956946421142e+03
-1.998616974572055227e+01
-4.859436025554416119e+03
-6.149128476195502117e+03
-6.155076149873041686e+03
-5.892214543506825066e+03
-8.734960876540379786e+02
6.881940838656699952e+02
9.319190908659406887e+02
4.335697472197191928e+03
5.336581168817805519e+03
5.675628746067888642e+03
6.358952477662736783e+03
6.984555535553858135e+03
7.067486659020135448e+03
7.059860020565887680e+03
6.694761929474433600e+03
5.966256910136976330e+03
5.242325611027396008e+03
4.944998233522259397e+03
4.942341401068111736e+03
4.533371513860565756e+03
3.976040637294680892e+03
3.205428037180880892e+03
2.973651921074200345e+03
2.522764120415648449e+03
1.956791017475328090e+03
2.055817714816970238e+03
2.643870219514829842e+03
3.152085774377412690e+03
3.911520222123335316e+03
3.913253149829675749e+03
4.329302678421182463e+03
4.901735928543204864e+03
5.429800998271841308e+03
5.576968189978022565e+03
4.916592955234915280e+03
4.227536179982713293e+03
3.524816575286721672e+03
3.391450036448044557e+03
2.851397722156156760e+03
2.561421826787044211e+03
1.043880381627623592e+03
-3.913690242144452469e+01
3.292726177719934526e+02
2.831677006398684284e+02
-8.420629439153017870e+01
-2.457841072678727130e+02
1.756464965408507624e+02
1.051386051754027449e+03
1.237160235864713513e+03
1.964036398548942088e+03
2.631632806124263425e+03
3.413427700087617723e+03
3.773000742009222449e+03
3.564230433818033816e+03
2.818164192120320422e+03
1.938423385648619387e+03
1.262328195525752562e+03
7.501912060983727315e+02
1.770148201401461208e+01
-9.302444054453951594e+02
-1.332606643988503492e+03
-1.454322498095202718e+03
-1.751352716746922624e+03
-1.595616475627444061e+03
-1.549078264019089602e+03
-1.050646490877106544e+03
-8.972039125228883449e+02
-7.277192593523133155e+02
-8.005517016201382319e+01
4.638635772007889386e+02
1.028091104467414425e+03
6.846704160392408767e+02
6.466358782278265380e+02
7.880054431909895811e+02
4.388296465088322975e+02
-1.707623067116580842e+02
-7.207321775436408871e+02
-7.311971543216487817e+02
-7.270503638725108431e+02
-1.581249618244149133e+03
-2.178721828818106133e+03
-2.342417076049744992e+03
-2.432336198120243353e+03
-2.817314562476857191e+03
-3.244358620538124342e+03
-3.591548058509130897e+03
-3.057737870726312394e+03
-2.552966428889415511e+03
-2.211230671025535685e+03
-1.379420321197360863e+03
-4.704021280004191681e+02
4.199297330238816244e+02
3.225837564114074780e+02
-1.492534604473907393e+03
-4.468457663778288406e+03
-8.175305357548708344e+03
-8.758165926772930106e+03
-7.933208026216280814e+03
-5.171496413247443343e+03
-1.013210383304589959e+04
-1.077010263969782318e+04
-1.107344724820585179e+04
-1.047794516580657728e+04
-1.081259769344089909e+04
-1.080244459448777161e+04
-1.052564111121297356e+04
-9.058925653909594985e+03
-3.029327578781439115e+03
-3.387289100471189727e+02
7.620218222494693237e+02
1.687779269242055761e+03
1.702334938262626792e+03
1.960432420994555969e+03
2.550077061652323209e+03
2.403444860977585449e+03
2.688363355883068380e+03
2.843691700802460673e+03
1.996281878188120572e+03
1.452150366091956585e+03
1.076128085939532184e+03
6.300128308744223204e+02
4.156683636444529384e+02
7.106132089710345667e+01
3.539722039442445833e+01
1.977693599016264727e+02
2.999707895083888616e+02
9.177815815986670032e+02
1.785090623928355399e+03
2.605986514614919997e+03
3.190433144330434516e+03
3.948282462989412579e+03
4.245703613981620038e+03
4.356656748365986459e+03
4.237809567097025138e+03
4.816948192479680984e+03
5.299976569086293239e+03
5.316879352967047453e+03
4.107428127705848055e+03
3.067368253839304543e+03
3.025466261725737695e+03
2.602589661162880475e+03
2.602558555490769322e+03
2.779236064233053185e+03
2.474475855989081083e+03
2.092220653928113279e+03
2.302336583248271381e+03
2.896806394601041575e+03
3.574430109520390943e+03
3.892962704739271885e+03
4.101434398113101452e+03
4.247820154311019905e+03
4.843948915393822972e+03
5.407759192334287945e+03
5.647067708366941588e+03
5.389716022152649202e+03
4.693612225889592992e+03
4.138642445791064347e+03
3.509543517675400835e+03
2.461401795588781169e+03
1.127252310215560328e+03
1.111438286693909731e+03
4.896999934753569619e+02
5.819727026979838911e+02
1.263983424555842475e+03
1.472452923217577563e+03
9.983294689068284242e+02
8.225269860638112505e+02
1.500835978203154127e+03
1.567145509555595481e+03
1.313467314832954116e+03
9.396169890144633428e+02
1.750603643745253066e+03
2.458352754643823573e+03
3.450735477448858092e+03
3.830672490481493696e+03
3.881112172361801640e+03
3.165960494018440386e+03
2.188149869397966086e+03
1.573513700525939385e+03
2.829325638788889705e+02
-2.837066476146463856e+02
-1.074967629279285717e+02
-4.085207679733953228e+02
-9.897753511162923132e+02
-1.087476911980379782e+03
-7.086546042141003454e+02
-6.203123707741110593e+02
-2.504527797163372611e+02
1.939219894097327881e+02
6.188256127604277026e+02
1.404183749087198748e+03
2.417988263745317909e+03
2.840193603782459377e+03
2.972768111815500561e+03
2.982701843573489441e+03
1.938045599843369473e+03
1.149865493011031504e+03
5.190996988192499657e+02
-6.372766945116354691e+02
-1.159243139396483684e+03
-1.944789515649889609e+03
-2.431029909523221704e+03
-3.113912042417910470e+03
-3.475322844778656417e+03
-3.491290426275058053e+03
-3.284796438769306860e+03
-3.119804139708277944e+03
-2.954172639894806252e+03
-2.379712007034693670e+03
