6.087784755240272716e+02
9.257982801984487651e+02
1.682077437065430786e+03
2.105817710389468175e+03
1.959841098244877685e+03
1.656607326447216565e+03
1.740395253021226608e+03
1.935500621262302502e+03
1.627853300616988918e+03
1.373206965738787176e+03
8.454199387037839415e+02
2.477799514588650709e+02
-5.956795973715067021e+02
-8.914303792533144133e+02
-7.055920542120184109e+02
-8.078522506619667638e+02
-7.124959602268518211e+02
-8.051839359882568203e+01
5.372277368530425292e+02
1.745579928064783189e+03
2.494530362227884325e+03
2.634306261232956331e+03
2.666939715466305188e+03
2.525927499307285871e+03
2.450534162475874837e+03
2.253331126444322763e+03
2.328607189093646866e+03
2.334562198950229231e+03
1.935206273182024461e+03
1.232342386674461750e+03
2.088740180353749167e+02
-6.463135885629436643e+02
-1.046271979877842796e+03
-1.545207126394276884e+03
-1.171963950923504171e+03
-3.497418367790774028e+02
-4.058001628830962204e+01
1.023531879455079093e+03
2.008595827006740819e+03
2.560712195543566850e+03
3.054840672130992516e+03
3.227978534207325538e+03
3.373127439373367451e+03
3.261260081095826990e+03
2.905384340031463125e+03
2.923514114591561793e+03
2.793658273100604220e+03
2.716777472934110847e+03
2.333945251533456485e+03
2.158179518347253179e+03
2.040326151432885354e+03
1.494276008052895577e+03
-2.089380829467348235e+02
-2.501273625344715128e+03
-4.597805248582983950e+03
-7.488561678413582740e+03
-7.257576817728555397e+03
-6.789786859193987766e+03
-6.151144492890920446e+03
-4.791664599477654519e+03
-4.111282866948914489e+03
-3.887966536655060281e+03
-3.224599949848746292e+03
-2.382123208919412718e+03
-1.781572795896297521e+03
-1.789902998449697407e+03
-2.139231506702530623e+03
-2.854522201298094387e+03
-1.727836238812024249e+03
1.081772074143565533e+03
-5.086484876708570368e+02
-4.983086253758006933e+03
-5.608544455804423706e+03
-5.546991102609546942e+03
-5.695339351261753109e+03
-5.850650413256951651e+03
-5.626960323546200016e+03
-5.168272293933773653e+03
-5.006497657473043546e+03
-4.465539379335634294e+03
-3.523333305720152111e+03
-3.308861233959528363e+03
-3.179090217406799638e+03
-3.056917927503235205e+03
-1.213313070291035416e+02
1.381607731039998271e+03
2.019932727110189489e+03
2.499721186025962652e+03
2.604818811870469744e+03
2.354246843801774048e+03
2.762205333539023286e+03
2.867760942710208838e+03
2.518864719189853986e+03
1.716428170509539541e+03
1.279431801939619163e+03
1.067927647997749546e+03
9.929742268128235310e+02
1.192430767163679320e+03
1.785468177632610832e+03
2.376203928938438366e+03
3.028787520337138176e+03
2.833249410474229080e+03
3.151596053808942997e+03
3.557895336860968200e+03
3.657205151543036663e+03
3.943579697789405600e+03
3.953958218523918731e+03
3.409309498518582132e+03
2.882693597188319472e+03
2.589154041262819192e+03
1.764741465281704905e+03
9.175676723824557257e+02
5.167073440005806333e+02
2.641035712749371100e+02
-1.612807449354425842e+02
-4.884554498961200011e+02
-8.844640827816475621e+02
-4.890918060323846248e+02
4.028512563077647428e+02
1.295394410435200598e+03
1.961518219831930082e+03
2.323194019285855575e+03
2.531423807060751642e+03
2.815301442422321088e+03
2.577947174550696673e+03
2.328492065268379065e+03
2.280927080237817336e+03
2.293294643375792475e+03
2.043556686792806431e+03
1.649842044911189760e+03
1.186136013884607564e+03
8.024406143385192536e+02
1.036578367255342670e+02
-4.814200077776658304e+02
-1.236357419148373083e+03
-1.585164767084637106e+03
-1.616786649531173907e+03
-9.782785740466237030e+02
1.587463034960055985e+01
9.708107110160576667e+02
8.095864978808505157e+02
6.662974697734553047e+02
4.260730155147679170e+02
5.598316054885681297e+02
8.595342842115387612e+02
8.341331397615969081e+02
9.165144081661281916e+02
4.817946878419662653e+02
-4.997198327439568288e+01
-7.028042384523112105e+02
-1.145675587888514428e+03
-1.838480414480856098e+03
-2.535250139252440931e+03
-3.222113540757817645e+03
-3.124172016971298490e+03
-2.572476697644050091e+03
-2.653074806419688684e+03
-2.445920431388273755e+03
-1.505027038981469786e+03
-4.930287643663321262e+01
1.367348566487111157e+03
2.108933161776270936e+03
2.505429751290720560e+03
2.769829607245662373e+03
2.642255289344961511e+03
2.374653155003120446e+03
2.050943969895052305e+03
1.892086238104499444e+03
1.688929944167339499e+03
1.224540859683527970e+03
1.013903679283544420e+03
1.461105060377351776e+02
-9.708711997143990402e+02
-1.648069866308512019e+03
-1.653517201111409577e+03
-1.678470629555988580e+03
-1.597096458805101975e+03
-1.504269061235784648e+03
-8.068928246071155854e+02
-3.559477543961214110e+02
2.786579717557409595e+02
-7.260317624469907969e+02
-2.616064522331898388e+03
-5.504367136070179185e+03
-5.720033090738238570e+03
-5.248320987774988680e+03
-4.656316080717874684e+03
-1.209061487109756854e+03
6.745489698529673888e+02
1.059522395203601263e+03
5.576360222632793011e+02
-7.930696602396767503e+02
-9.584360942263535890e+02
-9.665479193953256072e+02
-1.496600774179500149e+03
-1.813630382030678220e+03
-1.892716754009905117e+03
-1.508988726806502655e+03
-7.704842955227761649e+02
2.249766075524968301e+02
1.077528582063612248e+03
1.740137243221829522e+03
1.937743535983081983e+03
2.122205735096217722e+03
2.135574434984241634e+03
2.126893875398053751e+03
1.863105229737740956e+03
1.516193235008179727e+03
1.332366299013124717e+03
1.277695837411031107e+03
1.018977673677987468e+03
2.431016557782670588e+02
-6.240761245412722928e+02
-1.114684048224623666e+03
-1.382760488161663034e+03
-1.767279502947483707e+03
-1.692301560415800168e+03
-1.246725971685065133e+03
-4.825252993125128569e+02
8.821602150150799559e+01
8.303716307389693156e+02
1.231948584003567476e+03
1.537074171658500291e+03
1.525862014547469016e+03
1.430187916477221279e+03
1.686998264447627434e+03
1.987341118406397982e+03
1.863328028471097696e+03
1.747827868323304756e+03
1.568808408190273894e+03
9.612498983954841378e+02
3.250226140904180738e+02
-4.049222418228415563e+02
-1.075438619395871228e+03
-1.271360597220554837e+03
-1.056683663745654258e+03
-6.176910955627719204e+02
-2.356098543716072413e+02
3.467357180294562227e+02
5.026181194101097844e+02
1.180137638985849890e+03
1.868135061566895047e+03
1.831473075532839403e+03
1.510165609534042915e+03
1.101353924087475889e+03
6.020128858805522896e+02
1.423957464205985161e+03
1.123292252284738652e+03
1.024291858911172085e+03
1.099071655958334077e+03
1.287606001743776915e+03
7.367244800867886170e+02
-4.474601202130003941e+01
-2.439817715669311156e+02
-1.179029816983606679e+03
-2.196855570110630197e+03
-2.397221814669949708e+03
-4.485609575428631615e+03
-6.235068695827780175e+03
-3.185728608655234893e+03
-2.666790591676312488e+03
4.173959020817499521e+01
-1.874273796701984793e+03
8.825868354054389897e+01
1.379374498952139675e+03
-7.667236181051333688e+02
-1.709047000237957036e+03
-1.545487298636303422e+03
1.415984624179476896e+03
-1.378322318712730805e+02
-2.390261511641701418e+03
-4.050360974219516265e+03
-3.883995273139273195e+03
-2.598040785856117509e+03
-3.295337372181472347e+03
-2.880709939299026246e+03
-2.913079638086430805e+03
-2.340414578493867793e+03
2.689811102329315418e+02
-1.205051391664637549e+03
3.833460404970542754e+02
-6.228463941228386602e+02
-2.476115061347178198e+03
-9.402404426134287405e+02
9.617705938340097873e+02
1.549983378502271080e+03
3.297362414100909973e+03
1.514860683122330784e+03
3.762326820511440928e+03
1.763574280314418502e+03
1.302589923853993696e+03
1.604459849575467615e+03
1.012182507873252462e+03
4.699111771754090228e+02
-3.839144066274875655e+01
1.164260588594714250e+02
2.325396541563077619e+02
4.009317629354638939e+02
7.804376114171823247e+02
1.375712084463510564e+03
1.899638898573103688e+03
2.197261081279319114e+03
2.428227932260127545e+03
1.741667105830670380e+03
1.358424631232637921e+03
1.651288364370276440e+03
1.259027222365658872e+03
1.143573253031269587e+03
1.495358961567312690e+03
1.807065264763718460e+03
1.563802517962440788e+03
1.081375051264500598e+03
1.814720450001971415e+02
-9.626970946456448246e+02
-2.290810723578127181e+03
-3.394294833410295723e+03
-3.276404022436161540e+03
-2.668620121441318588e+03
-1.536002764424704992e+03
-7.624089000548166268e+02
-2.260658441287688447e+02
2.375168702624495381e+03
2.867455693986190454e+03
2.953798732901724179e+03
3.034301863588633296e+03
3.062701481258389776e+03
2.545985775181941335e+03
2.073714171721879666e+03
1.479445005018247002e+03
5.866982237718448232e+02
-3.662642281955380774e+00
-6.143859155443157078e+02
-5.265809233738027615e+02
-4.914769590762800249e+02
-5.888915145835454723e+02
-8.733867342178211857e+02
-8.979127133764593509e+02
-8.194238047429627159e+02
-5.885044568090494295e+02
3.482019948031629610e+02
1.170449824650322398e+03
1.912238556084670336e+03
2.853682186338974589e+03
3.699115602408769973e+03
2.972601645236358763e+03
2.172471159460504623e+03
2.621046458407988212e+03
2.732199375634218995e+03
2.198817194175192071e+03
1.055342672908953318e+03
2.886368850128108079e+02
-2.263235037388386388e+02
-7.468625417880787154e+02
-1.442197264517189296e+03
-1.244280250980450774e+03
-2.172921621466340184e+03
-2.519766997815234390e+03
-2.323516510217503765e+03
-1.726283353600807231e+03
-6.172331907628133649e+02
2.775241494728716702e+02
1.650963063416475507e+03
2.500123767437657534e+03
2.009304721444810411e+03
1.480579627996811041e+03
7.468360665914958645e+02
3.370171056094691835e+02
9.724193882011370533e+02
2.128637412812718139e+03
2.924097266393662267e+03
3.000625642408572730e+03
2.920413784733958437e+03
1.531709845897140667e+03
2.788345771050310304e+02
-7.265275732425726574e+02
-1.847562495463070036e+03
-1.965872859679302110e+03
-1.404592719425393398e+03
-2.104752561953506756e+03
-4.096124682773283894e+03
-4.855873016509413901e+03
-3.931790037488895450e+03
-3.701872816627575048e+03
-3.679317257032784255e+03
-4.123193337709672051e+03
-3.813366039518619345e+03
-4.182589091079778882e+03
-4.757954122343665404e+03
-5.018764216095662050e+03
-6.084885786209060825e+03
-6.433331259380163829e+03
-6.411250474165420201e+03
-4.979435632270989117e+03
-2.634740045523987646e+03
-2.754086213512374343e+03
-2.507724108392980725e+03
-2.305818108557564301e+03
-2.069397972207981184e+03
-1.823001967423440206e+01
1.377685876529245888e+03
2.610584375363019717e+03
3.340822808479880678e+03
2.920470537160273580e+03
2.115074955847925594e+03
1.487595150248266009e+03
5.050019800618817385e+02
2.002929479625910858e+02
1.793339625178251708e+03
3.144059352945665523e+03
3.536426460925976698e+03
3.359629302594498313e+03
3.001721124586444148e+03
1.686441288007360754e+03
3.357576792269459816e+02
-1.214985152183172659e+03
-2.135543408174838987e+03
-2.091151054983233735e+03
-1.683890450426134066e+03
-1.695633101308155574e+03
-1.520441017511516065e+03
5.205899229200289255e+02
2.131369350331321129e+03
3.356923895313293542e+03
4.007623116577104611e+03
2.396628009015643329e+03
1.103898984319738247e+03
-4.758247835121514981e+02
-5.339961767438568359e+02
1.386122570185491156e+02
9.515687187741169737e+02
2.368117968693543844e+03
1.786877345749006054e+03
-1.244368070128551608e+03
-3.222219760019743262e+03
-4.321918231853026555e+03
-5.425657508907570445e+03
-4.454421817934936371e+03
-2.696383196490353839e+03
-1.144532372674002772e+03
2.501595646928034057e+03
5.643362770934547370e+03
6.133466051087217238e+03
5.548274174305829547e+03
4.410715690241717311e+03
4.207539909851219818e+03
4.330990698427440293e+03
2.025670277632089665e+03
6.417471291413172594e+02
2.182065338534970124e+03
3.400470181784937267e+03
3.153328481834760169e+03
2.841808002264023344e+03
2.481045524010497957e+03
9.967851053384578108e+02
-1.597334143395228011e+03
-2.958489317831697917e+03
-2.300637049893759013e+03
-1.451872801992164796e+03
-8.131511846381391706e+02
-1.574335376373895770e+03
-1.924407774315026927e+03
-1.676514642662468987e+03
-1.756435520155773247e+03
-2.580200556385343589e+03
-1.593826420527203709e+03
2.057016318478459198e+03
4.218361487125008352e+03
5.188760508228182516e+03
4.928218115965715697e+03
3.826042484080440772e+03
2.017330173924421388e+03
5.281114663648833130e+02
-7.904433770305781763e+02
-3.663689792775892329e+02
1.107627834108384832e+03
1.390658144561876270e+03
4.908899662256683172e+01
-1.670443957954522375e+03
-1.773818482575683447e+03
-3.749248432591268170e+02
2.072330269023159701e+02
-2.075457010609391091e+02
1.205211203995663141e+02
1.636565271738528054e+03
1.935772369554419583e+03
2.246175473626858093e+03
2.042682354483202289e+03
4.051943176442032950e+02
-2.223411997614856318e+03
-2.974189883011215898e+03
-1.432014972123047983e+03
1.579382224632696762e+03
1.289116471557822933e+03
-2.366968232090840957e+03
-4.684781338097125627e+03
-4.031419933639167994e+03
-1.458166330900808362e+03
1.718335063756056798e+02
-3.003929016176587652e+02
-9.598563642765136592e+02
3.051281605526255092e+01
4.108089683699142824e+02
-1.678979089574824002e+03
-3.821072591149577420e+03
-3.225969245573695844e+03
-4.514677323204387562e+02
2.386283273328510404e+03
4.013046680169335559e+03
4.026692036367123819e+03
6.821093661918121143e+02
-3.745876580643780017e+03
-8.416930308377504844e+03
-1.081069053564255591e+04
-7.560846461076294872e+03
-3.824205932526348079e+03
-4.065746418123466128e+02
6.715696281670317376e+02
1.187498644697554482e+03
-5.959133397411626447e+02
-1.392404457081964438e+03
-1.926322798523522351e+03
-4.415254306568616585e+02
1.085313515411705112e+03
4.046159455214058653e+03
7.910959379018426262e+03
9.322345801229261269e+03
6.687670176617494690e+03
2.776168382008589560e+03
-8.311898071925835438e+02
-3.700443387012327548e+03
-4.586743307646022913e+03
-3.230156407225986641e+03
4.180115376490867334e+02
5.191888803036686113e+03
6.145405345248733283e+03
4.744224773989823916e+03
3.900364662154542543e+02
-5.783092944879716015e+03
-6.686034104215654224e+03
-4.600758843486280966e+03
-2.317609160167862683e+03
8.592430907830905653e+02
3.749767823965118168e+03
6.014818727573274373e+03
6.486713500286550698e+03
4.536208964913537784e+03
1.404407549085228538e+03
-5.769541989844583441e+02
-2.657369188451596983e+03
-3.705996815006540601e+03
-4.742861369341655518e+03
-3.831961193515347077e+03
-4.934872226251882807e+02
3.528641123038507430e+03
5.933454026969567167e+03
3.858662156413444791e+03
-9.876522805936180021e+02
-7.182435741007728211e+03
-5.447655422939571508e+03
-1.649276694454926428e+03
9.216827674719980905e+02
6.051898518511321754e+02
-3.176683648853699196e+03
-9.213887092088725694e+03
-1.142347886413632841e+04
-6.034475283963530273e+03
1.264183626592980772e+03
7.450513550222503909e+03
9.323530865942835590e+03
3.363255246756318684e+03
8.316782249835741823e+02
6.491928536436043032e+03
1.136708867596648997e+04
1.027408378410998375e+04
7.730890039481823806e+03
7.316407681078869246e+03
3.972662434831833707e+03
1.766579876673809849e+03
7.509785603877886615e+02
-8.849308317478602248e+02
-1.981114507818090260e+03
-5.056604624810733185e+03
-6.652189247041117596e+03
-5.293674824575163257e+03
5.717183371076580443e+02
4.909074173058635097e+03
9.447641257602643236e+03
4.247324197639250087e+03
-4.019159524579034041e+03
-2.788016868734558102e+03
2.050992932458806081e+03
-3.475946550274591829e+01
-1.298439457696795671e+03
-1.420260990597700356e+03
4.081949708546132570e+03
1.871308295998002677e+03
-4.449300081569324902e+03
-8.868022216896011741e+03
-1.384880246033832009e+04
-1.603250054540352903e+04
-1.796605276988501646e+04
-1.594137407586664813e+04
-8.945361194766859626e+03
-8.671290272462510984e+02
7.866137851465351559e+03
1.063747904944396578e+04
1.172228282670773660e+04
1.326350250878227234e+04
1.087697928812845930e+04
4.880785448927556899e+03
-1.734975981853510348e+03
-6.867402083821893939e+03
-8.069378572738481125e+03
-4.883928256352545759e+03
-3.252040249710727949e+03
-2.894745261793464579e+03
-3.774061677156661062e+03
-5.520068039085246710e+03
-6.887792599570846505e+03
-4.492149651172473568e+03
-9.510131674817558860e+02
1.932676630640016356e+03
5.093092092825556392e+03
1.296127548792938614e+04
1.712013914202050364e+04
1.457654216513392203e+04
8.950588749731336065e+03
4.284506522084764583e+03
1.973313849034046143e+03
3.601800911310527681e+03
2.039853106627972238e+03
-1.928484669639484537e+03
-9.238752252619001410e+02
-1.617276776564475313e+03
-3.178808958986151993e+03
-1.959340263804284859e+03
-2.668792421566443409e+03
-1.153188162455859583e+03
7.433088887585316797e+02
4.727338699264044521e+02
-8.897366216212295740e+02
-1.054981231164302017e+03
2.061945203666292400e+03
4.523026557796217276e+03
3.181290731702973972e+03
2.850828773296502277e+03
2.132438356903704062e+03
-1.475998977680785401e+03
-2.878325660961416361e+03
-2.314621135413355205e+03
3.462510351819024663e+02
6.902284602057418397e+02
-1.137902715364325104e+03
-5.250229157480847789e+03
-7.332727176228701865e+03
-1.039756208047095788e+04
-1.070470253025476086e+04
-5.754171552957534914e+03
1.231965083581411363e+03
3.649808988571837745e+03
5.448383959631145444e+03
7.017730393423637906e+03
8.634940636505685688e+03
8.853993148710565947e+03
7.390731544295465028e+03
4.810110997699449399e+03
3.944236630828881061e+03
4.320110602376720635e+03
1.463696894779101967e+03
-3.530900565690959411e+03
-4.761689522735155151e+03
-1.918664437962806005e+03
-8.968570555368776240e+02
-5.733828006175810970e+02
1.114721609735595393e+03
1.986432444673647979e+03
1.463712861730042960e+03
-1.186662207591077049e+03
-4.691756471244470958e+03
-4.183571674508950309e+03
-1.254025679841380679e+03
1.663116587088703454e+03
1.009864166040834789e+03
-6.563786445987300795e+03
-1.424494898871501755e+04
-1.673069161134515889e+04
-1.641806676037504440e+04
-6.469188677222196930e+03
3.099055661432521447e+03
6.677832225157874745e+03
7.738042363686684439e+03
6.988692931890326690e+03
6.054812954368433566e+03
2.568281516076225671e+03
-3.915057108852283363e+03
-7.104326388906009925e+03
-7.946797244051446796e+03
-1.108251373934998810e+04
-9.032371618085659065e+03
-7.253271701631139877e+03
-4.862135888630849877e+03
7.719352639375130138e+02
7.608995932592644067e+02
2.130973251628148319e+03
2.890959574395588447e+02
-3.330007079433236868e+03
-2.529284087877433649e+03
2.623859840499895313e+02
6.028856061414780925e+03
1.000506617624480350e+04
1.049308790675630553e+04
9.162012674464072916e+03
8.695712555677129785e+03
6.845018892204401709e+03
5.153887867737297711e+03
4.595323793868775283e+03
4.191397686135353069e+03
1.346021122968872305e+03
8.801499884959432620e+02
-5.092093369733055397e+02
-2.760931800616768214e+03
-7.151531161063619493e+02
2.582837216253797123e+03
-5.908398166124435136e+00
-4.034369691665772280e+03
-5.060463656763241488e+03
-4.719121254865011906e+03
-3.647316707832306747e+03
1.009379611741621261e+02
5.060614882154452062e+03
1.695517051824621831e+03
-3.764906617534000475e+02
2.449641574793479776e+03
1.255024165354533579e+03
1.407771193299206971e+03
3.350752519779184240e+03
5.644741188728620727e+03
5.703759428348296751e+03
3.141883965008161795e+03
2.032023604218810306e+03
3.010093658799321474e+03
4.897160355390717086e+03
6.039204170603296916e+03
5.630305999624999458e+03
3.225574256583316128e+03
-8.508679261062841306e+02
-4.327070317230225555e+03
-4.326273539880446151e+03
-2.016714456049631963e+03
-8.081586696513933248e+02
2.334660613094011296e+03
5.560634654619728281e+03
5.411562311052383848e+03
3.985264173621197642e+03
2.940762685605153820e+03
8.541851804925047418e+02
-1.062442845453603240e+03
-2.235264399895864699e+03
-4.040225762389758529e+03
-7.983103909233317609e+03
-6.802862649896364019e+03
-2.003639709842216234e+03
2.391380343426517811e+03
4.957168961203339677e+03
5.657798546778408308e+03
4.674347334131832213e+03
1.510116935394923303e+03
1.510303709375685003e+03
6.656987499795781332e+03
4.127003638051999587e+03
1.352956896405046109e+03
6.136786575147501708e+02
-1.514891069636829116e+03
-2.478604079456500131e+03
-2.449412557438844033e+03
-3.622104510663775727e+03
-5.727735473461288166e+03
-6.555294147350349704e+03
-6.835971420930716704e+03
-6.731782518545723178e+03
-6.152809196024020821e+03
-7.075147250844910559e+03
-8.012617264273782894e+03
-7.078875205797014132e+03
-6.155701728820195967e+03
-3.565004542017782114e+03
-8.067793349076898721e+02
-2.811422403995645141e+02
-2.776300758597442837e+03
-4.496508479793557854e+03
-6.930928407532830533e+03
-1.222629683800182465e+04
-1.346642052946465083e+04
-1.057598668730274221e+04
-7.802729057042968634e+03
-5.166968557065147252e+03
-2.899930216874402049e+03
-1.497613173502634027e+03
-1.210139968576870842e+03
-1.284582753419043684e+03
-7.318705299644101387e+02
1.118144775389926735e+03
2.097646067623597332e+02
-3.473804148139241533e+03
8.236466820447758153e+01
1.287386029063829710e+03
2.397223975415233781e+03
3.769890077174187809e+03
3.467262895981497422e+03
4.283095405430445680e+03
5.916253707177326760e+03
4.101815784280437583e+03
3.347149036632446041e+03
3.222584525064983609e+03
3.375318650017811706e+03
4.045730747776776752e+03
3.479673278407291491e+03
2.377261572013580462e+03
2.697624624835364557e+03
2.984095786570710516e+03
2.653029087892459756e+03
2.463289906742899348e+03
3.057192308886059436e+03
3.326390265594123321e+03
3.421878398578363431e+03
3.032216832024311316e+03
1.689075581883457517e+03
1.133321433043946627e+03
1.395239313766499663e+03
1.764782384359684784e+03
2.448396019080622864e+03
2.605238998879017799e+03
2.929152675687555984e+03
2.024484917921766055e+03
8.411428935436997563e+02
2.581188993637565545e+02
-6.034704702783574248e+02
-2.423651284444636531e+03
-1.955117546106346708e+03
5.667786476833762208e+02
2.487598522202821982e+02
5.316184122546133040e+02
3.778423079839733873e+03
6.512083895910935098e+03
5.494438628604344558e+03
1.625855915114066875e+03
-1.253488653510420789e+02
2.675483787201477298e+03
3.371818509541756157e+03
1.131614485991908396e+03
6.657591382131240607e+02
1.740754920730570120e+03
2.180200216414454189e+03
4.546111748387316993e+02
-1.107356574001357103e+03
-8.805189866792007933e+02
2.113515879075969792e+02
7.929706744805123435e+02
2.462893999528092536e+03
4.036595161690880104e+03
2.768873926999161540e+03
6.025102799937728832e+02
2.272860954003843744e+03
3.621060053791994505e+03
2.854041481724069854e+03
2.496093689810425531e+03
2.908584770343859418e+03
2.707684591902802367e+03
2.477347454809436840e+03
2.066282238630127267e+03
2.047099680053281418e+03
1.902836780415707381e+03
2.041547261588591482e+03
8.593138231208736215e+02
-4.767817302882201034e+02
-1.505767327295037830e+03
-2.773946758317952572e+03
-4.050479830480204328e+03
-3.898439105162315627e+03
-3.171937228945053448e+03
-2.569467560950981806e+03
-3.277830739789798827e+03
-3.059490214805771757e+03
-3.751047715048679265e+02
2.964350702015084153e+03
2.254842135528685048e+03
-8.299459981262058363e+02
-4.468859755041049539e+03
-4.904690528594244824e+03
-4.105824086157337661e+03
-4.189155558311898858e+03
-4.017594664152237783e+03
-4.710413175201249942e+03
-5.109463428010076314e+03
-6.235948132041929057e+03
-7.956941949910872609e+03
-7.934290744118757175e+03
-6.843919243726013519e+03
-5.498950858777730900e+03
-4.865645875909905044e+03
-4.075985389081915400e+03
-1.502676152267164980e+03
-2.284746008654511570e+03
-4.444132645907197002e+03
-4.539574610095904973e+03
-3.977170683882518006e+03
4.359189733469921748e+02
2.824512628161672637e+03
3.296709159997787538e+03
2.744680217705186806e+03
2.587676279481420806e+03
2.481582204297814314e+03
2.682496815247284303e+03
2.918260360782291173e+03
2.071390472580903406e+03
1.291583809898522532e+03
9.906747014871542945e+01
-7.621676697418755566e+02
-1.053123085118500740e+03
-1.033810132990583043e+03
-7.980872013859625440e+02
-8.387308472114740425e+02
-2.462598540292459859e+01
6.051446264709928755e+02
7.765255700054624413e+02
1.372807173676636921e+03
1.803264082985042478e+03
2.012704372303497848e+03
2.426792775946778420e+03
2.516533479690613149e+03
2.870054890716870432e+03
2.859262050265234393e+03
2.850059965052704229e+03
2.304570042133860625e+03
1.012987409241552427e+03
-4.225432190828024090e+02
-1.182214866489974611e+03
-1.172200598422214625e+03
-8.145513985568655926e+02
-8.599937249508980130e+02
-7.727922589063343821e+02
-3.946860618052232894e+02
5.206123892636639283e+01
3.212681439460906176e+02
5.150048040097077546e+02
2.079953141385006745e+02
-8.254096598181527042e+02
-1.132887635409080531e+03
-1.033311332726133060e+03
1.012170701181546519e+02
1.030052346928782526e+03
1.111390887836636921e+03
8.282991253708431714e+02
6.527408970729279645e+02
-1.640587368808643873e+02
-6.564158378362649273e+02
-6.823951814361703327e+02
-9.690758572195203442e+02
-1.237662998823042244e+03
-1.146808894537967262e+03
-1.037495043145388991e+03
-1.178586301634694564e+03
-1.569527319343582974e+02
1.817118044507995137e+03
2.453496606270263783e+03
2.642921078247700279e+03
2.787443253076045039e+03
2.855312177458679798e+03
2.307653784805387659e+03
1.759415784456012034e+03
1.281747122634040807e+03
1.131712544974887578e+03
7.722956720487435405e+02
-2.904695036733027678e+02
-1.253403854386358489e+03
-2.376592495719830822e+03
-2.602902957639807028e+03
-2.421226088021764099e+03
-2.333892416700191461e+03
-1.939091385868509178e+03
-1.705373831137848356e+03
-1.179497209854526318e+03
-3.485870491942509375e+02
1.662615422000187664e+02
8.429682885905560852e+02
1.409311957050216506e+03
1.433155735182259150e+03
1.285103840745536445e+03
1.031088411577908346e+03
5.937144900135884882e+02
1.102282183905959755e+03
1.717683720476966073e+03
1.376764662873744783e+03
8.934506552147072398e+02
5.299214302302656279e+02
-2.125988521026860099e+02
-5.652152357782032368e+02
-9.720844103225643948e+02
-1.508295668677879803e+03
-1.422892487440210516e+03
-1.483731250715751457e+03
-1.373578947243630410e+03
-1.512062639724561848e+02
8.114192792434980674e+02
1.099071292036631576e+03
1.686605776683240038e+03
2.050068045026078835e+03
1.681233921813911593e+03
1.529963221460017394e+03
1.502430562132236219e+03
1.447742498557569661e+03
1.086868280136337944e+03
6.609090143771512658e+02
-2.114657014458437700e+01
-5.902944212054227364e+02
-1.133485647035135116e+03
-2.012523019311061034e+03
-2.287794281073754973e+03
-2.381669754466171980e+03
-2.055228380055845264e+03
-1.358393975130354420e+03
-1.006101385711468083e+03
-5.672297105345548971e+02
3.874884095837755922e+02
1.086759981035737837e+03
1.074175790346225767e+03
1.812445082725898828e+03
1.855526652022624376e+03
1.657958015087582680e+03
1.460850958699665625e+03
1.357466291644786452e+03
1.357722916135431660e+03
1.113671281611135555e+03
8.933890570463223639e+02
6.779134847945991282e+01
-9.342193298084587241e+02
-1.355666551373977200e+03
-1.520678639846676333e+03
-1.416117706940043945e+03
-1.365990568788818564e+03
-8.454943311531815198e+02
1.062924532709168943e+02
1.006333610122062055e+03
1.927437913453363308e+03
2.474461952574134102e+03
2.585873364174155540e+03
2.614717656489614910e+03
2.710074222659247880e+03
2.579050264759465790e+03
2.430377380827821980e+03
2.176712277094782166e+03
1.814963949200533989e+03
1.368027505668604590e+03
1.409834231627674626e+03
1.205367411985167337e+03
1.286721086454795966e+02
-5.282468230503224049e+02
-1.236392861694343992e+03
-1.115948407805144370e+03
-4.210725754507070064e+02
-4.273404989514936005e+02
1.909121006264623190e+02
8.548791750470340958e+02
1.284304494753164136e+03
1.979079476884088308e+03
2.378313790343573601e+03
2.512911566610658156e+03
2.620802402652621822e+03
2.742174859375369579e+03
3.223902652799014959e+03
3.236890229963220463e+03
2.266074168624957565e+03
1.780409292388564381e+03
2.132965796528100782e+03
1.226781804707173023e+03
7.470098399857836569e+01
-5.412372096814198130e+02
-4.050196262748905838e+02
-1.350703119577320194e+03
-3.814389438216287090e+03
-6.640077629170495129e+03
-6.131739806062767457e+03
-5.556262655597670346e+03
-4.443559384518178376e+03
-3.962659380955658889e+03
-3.639571475521169759e+03
-3.252312712670287056e+03
-2.939969486332148790e+03
-3.175470116602676171e+03
-2.548881825664385360e+03
-2.880118076138738616e+03
-2.754126571449901348e+03
-2.164942460583064985e+03
-1.732524866240010851e+03
3.272095111984246500e+02
-1.289875650821301406e+03
-4.208904665183270481e+03
-4.884722533020399169e+03
-5.073384599762831385e+03
-5.218169909529002325e+03
-4.476064246794876453e+03
-3.739730319004387638e+03
-3.090871041225888803e+03
-2.227519161744977737e+03
-1.800991398903817299e+03
-1.415138336607701603e+03
-1.451687578152817650e+03
-1.541731922900432210e+03
-1.161415847115142242e+03
9.942918795923515063e+02
-6.284556998268974439e+02
-1.937611835600942186e+03
2.068733013080393448e+03
3.008507704672607815e+03
2.528781724997155379e+03
1.499452171128256850e+03
9.785132071794522517e+02
5.362187828405116079e+02
2.487015297552129880e+02
5.966882800028297424e+02
1.082229903317038861e+03
1.421526746464878897e+03
1.994616509512925177e+03
2.791465640399325366e+03
3.305229670779809112e+03
3.507931277792724359e+03
3.662620295329980763e+03
3.646315943920809332e+03
3.535055850137373454e+03
3.389780068822179601e+03
3.301627648264578966e+03
3.036635754865937088e+03
2.991838033108507261e+03
3.084301374300058342e+03
2.618090702487403178e+03
1.816147069446173418e+03
7.564167364361396722e+02
1.293780442931367958e+01
-3.991308074485680777e+02
-5.868641579031478841e+02
-7.974813201317696212e+02
2.318936011243571613e+02
1.515598833133144581e+03
1.989898016379745741e+03
2.282183982842936075e+03
2.443317140231151370e+03
2.515275021403512255e+03
2.821187235566904747e+03
2.566943728031190858e+03
2.490611692673182006e+03
2.278198669210828029e+03
2.039767848726542752e+03
1.928400983423101252e+03
1.547004495693132640e+03
5.185402831949785423e+02
-3.150288271966803109e+02
-9.305854352412534354e+02
-1.533140168535406474e+03
-1.766155575159466935e+03
-1.704259699766731956e+03
-1.688198834771079191e+03
-1.288022848149432093e+03
-9.307401640481223239e+02
-1.895468453129589363e+02
7.070621780797782208e+01
2.539202798429070924e+02
7.041294354252640915e+02
1.038320840407965761e+03
1.096445884522008782e+03
1.555459355402603251e+03
1.851332742454776053e+03
1.941142615884103634e+03
1.565913253781003732e+03
7.997185133813130733e+02
-7.944998172120287450e+01
-9.966760064259078717e+02
-1.601972852775325691e+03
-1.404359740511171140e+03
-1.542855672874379479e+03
-1.693529329401458654e+03
-1.554370646900506017e+03
-1.379301098006913435e+03
-9.343572408790201962e+02
2.447716227814798273e+01
1.089251744190931731e+03
8.549241341692523974e+02
1.657551519479424996e+03
2.971140673400910146e+03
2.506657826836142249e+03
1.907022106449031071e+03
8.312267989677893638e+02
-5.986804383704590009e+02
-1.401692284487826100e+03
-1.961800743248819344e+03
-2.868126618615188818e+03
-4.097739841832236380e+03
-4.369575535002257311e+03
-3.595660283905164306e+03
-2.285046750349312333e+03
-5.667500513529835189e+02
