-5.716318265278420768e+03
-6.606233652951641488e+03
-7.413177629223283475e+03
-6.718164986889757529e+03
-5.589138046010031758e+03
-4.714027179527240150e+03
-4.898825167778875766e+03
-5.712369220271775703e+03
-6.058817851551146305e+03
-5.278199929413053724e+03
-5.323603108822570903e+03
-6.058961872180378123e+03
-7.484272891539252669e+03
-8.007531173322211544e+03
-5.506731254212761996e+03
-6.136887160070733444e+03
-7.767993231492720952e+03
-6.978949878475299556e+03
-1.256736637469719199e+03
1.224633781605316699e+03
9.491642243256037546e+02
6.728635737378108388e+02
1.652811666509622000e+03
3.229039365847299905e+03
2.548557496842076944e+03
1.460486135463471328e+03
1.225790899017697939e+03
2.364454692918706769e+03
3.516546391242976370e+03
3.537177419257279780e+03
2.911494652802209202e+03
3.423602603599263148e+03
3.147362133213446668e+03
2.693618725066855404e+03
2.140458613511953445e+03
2.864912745024646938e+03
3.765906616252554159e+03
3.629419170934627346e+03
2.634601578101712676e+03
1.748620426954105824e+03
1.133491424838332478e+03
4.192541312436820249e+02
7.879989697020339463e+02
1.583749685581464746e+03
1.758533974755205008e+03
2.348363914833837953e+03
2.788343099192199588e+03
2.902449555116300417e+03
2.991672447091172671e+03
1.979059689049442795e+03
8.797206836305540492e+02
3.796705979925760630e+02
2.708682459541093408e+02
1.139352304139490570e+03
1.474184039826991693e+03
1.199423540542021328e+03
5.290949316628065162e+02
-1.647598541911652603e+02
-6.611956383033955262e+02
-1.232292977240507980e+03
-1.135951248784479503e+03
-8.487986729535701613e+01
2.261026943567465821e+02
-1.049893442549093152e+03
-1.886722429909950051e+03
-1.364386865364172309e+03
1.458466607949203286e+01
9.034528655498246508e+02
1.022555273142186138e+03
5.790299269060257075e+02
-6.300034908322863885e+02
1.180140593805105254e+03
2.673139334294714331e+02
-1.741493443176278106e+03
-1.319107485518779868e+03
-2.913669413872911491e+02
-3.546883922414555173e+02
-8.661071481266284309e+02
-1.118498342829114335e+03
-1.475755234868401658e+03
-7.878637368709220254e+02
-4.567587257276562696e+02
-9.373201107226771001e+02
-1.398605298523624924e+03
-8.856819848117279435e+02
1.249279113208186764e+01
3.090424893743292500e+02
1.234061101111426524e+03
1.765467053934994510e+03
3.750809943732299985e+02
-1.282188366847734642e+02
5.666935956299593613e+01
-1.178138279975574505e+03
-2.464555609827286389e+03
-9.685541188727661392e+02
4.398325780564439924e+02
6.734254054710805804e+02
5.260975005993492459e+02
3.669280855140549420e+02
5.389996806764698931e+02
6.825382324662597000e+01
-9.013903675518611180e+02
-9.609444554225796082e+02
-5.643156051864456231e+02
-5.265747097622873980e+02
-2.871041405381741995e+01
1.033332715994908540e+03
1.486605258862133041e+03
1.319097579045436987e+03
1.001788417906596919e+03
8.305688243082305462e+02
6.183151012339528734e+02
2.492166464700542505e+01
-6.894944942863708093e+02
-2.207625225864574645e+02
3.679941099921431373e+02
2.296278331276841698e+02
-3.238282057752103356e+02
-1.804593722393336748e+02
-2.829892029442344992e+01
-7.745748337937331485e+01
-4.039483841227568206e+00
-2.260471699613441956e+02
-3.213881524206414610e+02
-7.950680784038841011e+02
-1.655064222733532915e+03
-2.212399807749213323e+03
-1.612198803047570209e+03
-4.164508848359975559e+02
-1.881040633345231470e+02
-5.363423862393248100e+02
-2.684025041875515853e+02
9.026970124856046596e+02
1.032114769737471306e+03
2.729030865451545083e+02
1.483225405347578487e+02
2.798365893263505200e+02
-4.776795760590089657e+01
1.775174220096335489e+02
7.061784187874538929e+02
4.169471947624346058e+02
2.867811735272272813e+02
6.176720860109943487e+02
4.086367817658174886e+02
4.659166911940514524e+02
1.291188049591952449e+03
1.733269055943843568e+03
1.394419189391253894e+03
1.146118672283964315e+03
1.614251387209135601e+03
1.742026648543813508e+03
1.514683041365742611e+03
1.328121515228409635e+03
1.005335321124751090e+03
-6.702888752325180555e+00
-4.273786734437707651e+02
-2.028676660526877242e+02
3.710357324657111349e+02
1.880496785640989174e+03
2.108224785960498593e+03
1.325504901475147108e+03
8.320027209954541831e+02
1.706671179676792235e+03
2.200539830172907841e+03
9.952628538188378116e+02
2.612842866022811563e+02
5.793128766698458776e+02
7.555027904166547614e+02
1.557690776161527765e+03
1.989095657183119101e+03
2.170628816630233359e+03
2.072136661956629723e+03
2.182464132836374574e+03
3.342103373462427953e+03
3.887879660830803914e+03
3.157445603664992177e+03
1.346597760424152739e+03
-5.198135902032562399e+02
-7.684438568822889692e+01
1.774936679461937956e+03
1.757540824494832123e+03
2.057752911282528657e+03
2.457509907113138524e+03
2.622739182290850295e+03
2.161352316393887122e+03
1.540475337325678765e+03
8.281518670215453994e+02
-1.556602904567920177e+03
-4.654803472500373573e+03
-4.452602044460792968e+03
-4.359014812381850788e+03
-3.856899079712403818e+03
-4.013259602327452285e+03
-4.763090963390727666e+03
-5.654426354111607907e+03
-5.961328061011025966e+03
-5.063837841182143165e+03
9.900562205166599483e+01
9.212544602618132785e+02
-3.949977580584582483e+03
-6.062835286545559939e+03
-6.025016878312195331e+03
-6.852576916293094655e+03
-5.825698783283680314e+03
-1.226269541166385807e+03
-4.922228002617446805e+02
-3.133593233292827790e+03
-3.317351640280343872e+03
-4.156410496412844623e+03
-5.123663216158837713e+03
-5.320019371451484403e+03
-3.467443853221816426e+03
-2.280908781038133839e+03
-3.421363313864478641e+03
-4.866883989324783215e+03
-5.434607989723614082e+03
-5.069692362363092798e+03
-3.679908328726894524e+03
7.818092179369987207e+02
2.307421622113829471e+03
-1.071053977408917717e+03
-4.975429524747208347e+02
-9.279490318316069306e+02
-1.896295369541001037e+03
2.588410406466106906e+03
4.193321072084314437e+03
4.496602028810708362e+03
4.318400880680034788e+03
3.590857707619751181e+03
4.081880322798043835e+03
4.750348005878702679e+03
4.370328000532397709e+03
3.734878343711850903e+03
2.795124717043574492e+03
1.995995734909144630e+03
1.287395667050517886e+03
9.915261328724257055e+02
1.110529724890105172e+03
1.282525201355349282e+03
7.486024740656505401e+02
5.187890076567226743e+02
8.399917369094229116e+02
1.534166396331294891e+03
1.900384755112150970e+03
1.384641949251189544e+03
1.246990675209460505e+03
2.497676604195768505e+03
3.281732227816829436e+03
3.908218889504935305e+03
4.129164517756998976e+03
4.000680257623112993e+03
3.601655873680778313e+03
2.682105941401479868e+03
2.039065477653187827e+03
1.522494027350348233e+03
1.015543494037012579e+03
7.155936789829725058e+02
7.983118592512506950e+01
-3.726746881001386669e+02
-8.338344568415558342e+02
-7.028387705151828868e+02
1.133140733951061776e+02
4.858766732472270178e+02
3.739919851314566017e+02
1.636609167100601553e+03
2.852518352099205458e+03
2.615667024484127069e+03
2.455224379593398680e+03
2.502255345693247364e+03
2.534077765359986643e+03
2.179129560454347484e+03
1.404906097315874831e+03
6.709658788809100542e+02
8.086057487285892194e+02
9.017244273419108822e+02
4.368984246911797413e+02
-5.406069349337388985e+02
-1.143702588150786369e+03
-9.914004179916311159e+02
-1.173648176597268730e+03
-1.030737646502689131e+03
-1.243881594521950831e+02
-4.616100553057497109e+02
-1.107666558915353335e+03
-1.615838262935640842e+03
-2.077955024088629216e+03
-1.846910065188735643e+03
5.591550603716940486e+02
2.353170251754202127e+03
1.459089104899579524e+03
1.063822911937536219e+03
2.057382182458102307e+03
2.056942674612435439e+03
-2.406004458532164492e+01
-1.533528771288118378e+03
-1.415347702059138783e+03
-1.314599878994879191e+03
-8.953023608234676658e+02
7.243489447420968474e+01
-1.654681194281287446e+02
-6.022195022512461264e+02
-8.813260435292888815e+02
-5.899849382450130406e+02
5.270117187835544428e+02
1.171746396775274434e+03
8.562919057424646780e+02
1.021892751563257207e+03
1.684412241535946350e+03
1.429515027842681320e+03
1.190111975243445613e+03
1.090271025452972708e+03
1.287118820704386280e+03
1.239804447098235869e+03
9.883918090412897755e+02
-1.233415396545617142e+02
-2.588644634442617189e+03
-6.135739155139844115e+03
-8.016574943089448425e+03
-8.289048576392902760e+03
-8.448341241854168402e+03
-8.079490901712679261e+03
-8.346393485507827791e+03
-8.764891199744841288e+03
-8.627831632550709401e+03
-8.447820309952683601e+03
-5.595783661803266114e+03
5.390965104368274474e+00
2.027462330381433048e+03
2.125540191359134496e+03
1.947910226320208949e+03
2.334642160569681437e+03
2.652788861397506480e+03
1.939538895717324976e+03
9.298498491730674687e+02
3.575779656125126849e+02
2.094547061658219604e+02
1.631084594534827090e+02
5.831374900735209366e+01
6.241559833260236019e+02
1.006801047457890832e+03
8.310664662459392957e+02
-1.312911677544115605e+02
1.378749371067379457e+02
1.775862569133317265e+03
2.171773443456514997e+03
1.915243642552610709e+03
1.933055766314905668e+03
2.273835683010056982e+03
2.482721492733908690e+03
2.737935662519275866e+03
3.041700447034835634e+03
3.239873552874542384e+03
2.408629071360984653e+03
1.223061157476267226e+03
5.660807596903255217e+02
5.835510546862317369e+02
6.443360908728921004e+02
-4.946329303604234440e+01
-6.917371995981262671e+02
-2.353635028724366407e+02
4.456077628314268395e+02
1.103282321027456646e+03
1.340934418625755143e+03
1.685343558267069966e+03
1.579383044328136521e+03
1.578123742992542248e+03
1.909492592949638038e+03
2.301532402242464286e+03
1.709122185892494599e+03
1.511214508407928179e+03
2.759873289950302478e+03
3.620247449500993753e+03
3.142402719869201974e+03
2.835491714674129071e+03
2.093307508989834332e+03
2.048492481714139558e+03
1.480980176985874550e+03
1.060917752814136065e+03
3.963428973389675321e+02
1.001378179168815336e+03
1.543241905235598324e+03
1.809846954768097476e+03
1.545076653501472038e+03
8.019122614728878489e+02
5.853601468644275201e+02
1.423346537742809687e+03
2.350981935387170324e+03
2.114272076179112446e+03
8.821150470131177599e+02
1.151518419245222731e+03
1.168763546255434676e+03
1.620129994103022682e+03
-8.042155342282725883e+01
-3.208986793119797312e+03
-5.605586701673945754e+03
-6.080354269239552195e+03
-6.291421346086173799e+03
-7.091528302630475991e+03
-7.306566000483006974e+03
-7.860751527045022158e+03
-7.662977693766133598e+03
-7.024273911079125355e+03
-4.335694959819729775e+03
1.478915272542021512e+03
2.215695288017678195e+03
-2.925373106877306782e+03
-5.122353826985098749e+03
-5.119252282459220623e+03
-4.624154950854421259e+03
-2.406119218765326423e+03
-6.159232848068195381e+02
-2.998544286586985436e+03
-4.501065709244287063e+03
-4.194361733888521485e+03
-4.331535688008500983e+03
-4.110901927073963634e+03
-4.571478289045961901e+03
-5.380119978416258164e+03
-5.196745401878230950e+03
-5.038394027417022699e+03
-5.015914880549690679e+03
-4.682041621893752563e+03
-4.355854869081157631e+03
-4.940597049931774563e+03
-3.329289090225385280e+03
-1.290833663909656480e+03
-3.645287488477992156e+03
-4.087598798832558259e+03
-4.149560837679759970e+03
-2.160270636933449623e+03
1.877077871137592183e+03
3.318240656115648108e+03
3.724271848618493095e+03
3.014453263469360081e+03
2.809240542522320538e+02
1.838384762842175860e+03
3.991567505470633023e+03
3.850851727345094332e+03
3.325315451590794964e+03
2.437862113703052728e+03
2.166453537265369960e+03
3.277904656732932381e+03
4.094254920988041704e+03
4.240667799410015505e+03
4.080402498468798967e+03
3.939396719019704960e+03
4.068312169195543447e+03
4.805302887742574057e+03
5.905366233338041638e+03
6.890546077048730695e+03
7.568797377094107105e+03
8.100962976857945250e+03
7.791989549172591069e+03
6.470774962835530459e+03
5.276960333929587250e+03
3.765798240083813653e+03
2.759730873505217914e+03
2.445354110616404341e+03
1.651492031398201107e+03
1.007564555456306039e+03
1.015417163186951029e+03
6.295839706349435119e+02
3.671065749584207651e+02
4.002043301529577661e+02
7.127085921320142958e+00
5.767909427724284797e+02
1.175258847736757616e+03
2.325311900557673198e+03
4.118543168036742827e+03
5.036030845897525069e+03
5.482822118561654861e+03
5.477206464377341035e+03
3.803993558737984586e+03
2.901920400262480598e+03
2.368243201788469378e+03
1.907419726387982109e+03
1.590820156002562499e+03
1.700686470272234146e+03
1.484418706930704502e+03
2.265838650743509959e+02
-1.087086942021608593e+03
-1.719206923622868544e+03
-1.666451725212404654e+03
-5.129999837958928310e+02
1.512255864696212939e+03
3.112360855850883127e+03
3.984071200440359917e+03
4.340686615023103514e+03
4.166223397300978831e+03
3.494469567644519884e+03
2.528429157140959433e+03
1.028169033971088311e+03
-2.712480621251112893e+02
-1.224899038607967213e+03
-1.306906606238782160e+03
-5.272749902265193214e+02
-8.191383727003476167e+01
-6.978431347260011535e+02
-7.721860881333470843e+02
-8.402204412898046826e+01
-5.772622418261419170e+02
-2.160808099561282233e+03
-1.394774340464557326e+03
-4.013140473934208217e+02
-3.884244283952043588e+02
-8.491500960913292602e+02
4.056386935096506363e+01
-1.281158544056216328e+02
-2.890137207051917585e+02
-1.391184771474653417e+02
-2.490516567892039347e+03
-7.263142108006115450e+03
-9.849064757566369735e+03
-1.136742905471417362e+04
-1.150720996721742449e+04
-1.111340867177531072e+04
-1.227297949275916108e+04
-1.353499329460866647e+04
-1.197055613401168921e+04
-9.445689624818543962e+03
-8.259316260033619983e+03
-9.902475818550448821e+03
-1.188715092159616506e+04
-1.323123118699104452e+04
-1.534757967655238826e+04
-1.491418319634039290e+04
-7.460078760728483758e+03
-1.693238933219870432e+03
-4.249635482628887985e+03
-4.878336662692610844e+03
-4.707170024957464193e+03
-4.236090705184547005e+03
-2.333162642419464191e+03
-1.517339867522749955e+03
-8.316590238570174733e+02
2.306795213072120987e+03
3.102102677662247061e+03
5.808238653826843802e+03
8.462149987508924823e+03
8.866900262486627980e+03
7.041513997301959535e+03
7.633056627194980138e+03
8.961651345257912908e+03
7.882321956293517360e+03
6.864881640798027547e+03
4.117384024789408613e+03
-9.629306731085526962e+02
-7.589142031499652148e+03
-1.204532309480947879e+04
-1.088239272461324981e+04
-8.914086927840200588e+03
-5.662313743271906787e+03
-2.630123673143318229e+03
1.392516316305493319e+03
4.986533746032899217e+03
1.003187785918552618e+04
1.459968264588697821e+04
1.291800551706184524e+04
8.832830800616784472e+03
6.984131627398318415e+03
5.908807687898739459e+03
5.993810215821269594e+03
8.739274774025763691e+03
1.032927280386266466e+04
8.362893834069638615e+03
5.316238170638067459e+03
4.058299663691454953e+03
4.322079999432616205e+03
6.649599364607076495e+03
1.052791912496405530e+04
1.258808321109746430e+04
1.218823342787725051e+04
8.691530074017155130e+03
6.110104460150280829e+03
6.070947502885511312e+03
3.195970468805890960e+03
-2.612801925134934208e+03
-8.020402717069575374e+03
-1.080878713542141304e+04
-1.052390529695097030e+04
-4.137687756763165453e+03
4.981798372016154644e+03
3.515267085972802761e+03
-2.627384936254267814e+03
-5.001847588464861474e+03
-6.458128042207330509e+03
-8.635909843918254410e+03
-7.740252384105388046e+03
-2.458242350343054113e+03
3.124206411516370281e+03
8.143175874616988040e+03
1.139970087539140695e+04
1.044984756691526673e+04
7.631674857806436194e+03
5.437181571889461338e+03
4.515245505209069961e+03
9.048288540225167935e+02
-5.904993617845847439e+03
-1.164318022345450663e+04
-1.497777341505620097e+04
-1.670290030425020086e+04
-9.567453943678478026e+03
9.241705414248675879e+03
1.451465177183607375e+04
9.767425702878357697e+03
5.437096920288934598e+03
2.957652632529816856e+03
1.141185144808309133e+03
1.946749257089649063e+03
3.522321234188644667e+03
4.056869594674044038e+03
2.878391766817289408e+03
-1.041157047645593963e+02
-3.139649015223926654e+03
-6.155129343219313341e+03
-7.307523922553031298e+03
-8.920902848736041051e+03
-9.778263777131192910e+03
-6.207615036113764290e+03
-3.910961277754470302e+03
-3.246271244591096092e+03
-1.992484940904754012e+03
-1.682614497637820705e+03
-5.526539906018915644e+02
-9.856022042649948389e+02
-2.838313265599904753e+03
-4.691761254530710175e+03
-3.641073769913769411e+03
-1.067276326781209264e+03
3.720754917408180063e+03
6.277034207797605632e+03
5.021617993132609627e+03
2.402465005024921084e+03
8.666359935315476832e+02
-5.428271379693208019e+02
-1.058927347504669115e+03
1.460244336703441604e+03
2.799662388055602605e+03
2.040371000942918499e+03
7.683124750454213654e+02
3.934643380813635645e+02
-3.958819489823571871e+02
-8.738850578543296024e+02
-2.298667251899740677e+03
-5.191133901887280444e+03
-7.843184996261470587e+03
-8.416868602087448380e+03
-6.431122075243951258e+03
-4.100060010567218342e+03
-2.435462456536353329e+03
-1.375129505937558406e+03
-1.575108642820072419e+03
-3.565551838321630839e+03
-3.474467169495511826e+03
-1.870773023021721656e+03
-2.676543107632043757e+03
-2.987791136249257761e+03
-3.792619449830382564e+03
-4.886067144226818527e+03
-4.506343216835523890e+03
-3.097793381442569626e+03
-1.752090273415285537e+03
-3.026889678401889796e+02
1.003230053627957432e+03
8.105047728817737607e+02
-4.918739818659529419e+02
6.799611167000846308e+02
1.384976318234618020e+03
1.386474346490441803e+03
3.839401665550502912e+03
5.928695532193769395e+03
5.303361408350789134e+03
2.917302475560131370e+03
5.955681754930947136e+02
-1.195831319729547204e+03
-2.595992504215617373e+03
-2.531939774149177538e+03
-6.726644457086295006e+02
7.317731057704842215e+02
7.334578494530968840e+01
-1.222849270836230971e+03
-6.370303051435067800e+02
-9.802779491134995169e+02
-8.741940243270568089e+02
2.016153931469261124e+03
4.622673221719913272e+03
6.614095482303147037e+03
5.227189561404025881e+03
2.800163503777548158e+03
2.259056681565195504e+03
3.093906936345123540e+03
2.320913316151674280e+03
-5.502364336878259792e+02
-4.266266915801571145e+02
1.430885995471823662e+03
2.799316309407398421e+03
4.011691874950339297e+03
2.277973552324962839e+03
4.510180657867666696e+02
3.857854684280702600e+02
1.968248266555848659e+03
1.717430322886045133e+03
3.632260313278354857e+01
3.519713929608413423e+02
1.605391675960955808e+03
3.524464804386346259e+03
4.906204230021248804e+03
4.360581273698221594e+03
3.758589296964160440e+03
3.354258807230563434e+03
3.758659507523874709e+03
4.331829805263410890e+03
4.853787984837235854e+03
2.093370183515750796e+03
-1.513213115266392833e+03
-6.829336063785204942e+02
7.200848854453878403e+02
1.067759189043036940e+03
-1.077823389170005612e+03
-4.399726365130651175e+03
-2.222060897164879407e+03
-1.107807337708836712e+03
1.307021305448850399e+03
2.402392163249580335e+03
9.012357267947587616e+02
2.664795471212802340e+02
-2.083870554458518200e+03
-1.157796996284290117e+03
-1.605306321688445678e+03
-4.583248831514666563e+03
-2.780676019109186200e+03
-3.602693978775241703e+03
-1.258218567901262531e+03
-1.452806753236013151e+02
-3.040977070097429532e+03
8.567475471391798010e+02
1.547918819711441074e+03
6.065106667177636837e+02
2.185527810584999315e+03
7.598941553447266415e+02
3.094219635711827436e+02
-4.402420144262868718e+01
-2.424416911481631814e+03
-4.037288904794300493e+02
1.610038417429477022e+03
9.509743378150768649e+02
-1.438868957630642456e+02
-3.994811292162735299e+02
3.502447476579868635e+02
7.883179136229480264e+02
2.626761597355019262e+02
-1.258237353610581550e+02
7.671912027657765520e+01
5.092291452411340060e+02
1.176993788476708005e+02
-7.819361869540574617e+02
-6.777434392484856289e+02
4.345729556433384744e+01
-2.243015922789911372e+02
-9.343045800054605934e+02
-1.936645529712531925e+03
-3.793201202906106118e+03
-5.694980350756834014e+03
-6.080152966865301096e+03
-4.373553665790218474e+03
-2.780314134946660488e+03
-1.896534646278421633e+03
2.100741542250453904e+02
1.794991153701763778e+03
1.850358310376519512e+03
1.767856462946886268e+03
1.680301079777322684e+03
2.074751158582285825e+03
2.142253182468948580e+03
1.546648824592143228e+03
4.675212053486682606e+01
-1.382643597432255774e+03
-2.208475028859094891e+03
-2.865498360795252665e+03
-3.801631916575150626e+03
-3.175981773366539528e+03
-2.161380773368016435e+03
-1.618024376192541240e+03
-1.233946173283241933e+03
-1.213050121773471801e+03
-2.631484563035035535e+03
-1.277282616759349139e+03
8.703920571139594813e+02
1.760458778500635390e+03
2.527821219096290406e+03
2.912609902474864157e+03
2.692582559047875748e+03
2.917464351252718188e+03
2.922276135244293982e+03
2.875747133947475049e+03
2.088804593070232841e+03
5.815993918566400680e+02
-7.866990843054551306e+02
-1.211317774016046315e+03
-1.029348189663021230e+03
-1.044599735324387211e+03
-7.509993937729773279e+02
-2.023785222170159273e+02
-7.245388673362251666e+02
-1.242257648271264316e+03
-2.172547256880262921e+03
-2.664845927982000831e+03
-2.305221704262861749e+03
-1.384775012545375148e+03
-1.404542136506962606e+02
3.985720450432442590e+02
7.331252495629112218e+02
1.411030756445635916e+03
2.350229289259526468e+03
2.959078592040879812e+03
3.561924017300294963e+03
3.572712361063639037e+03
2.120405140246715746e+03
6.918863621166526627e+02
-8.196574550411399684e+01
4.250822483367069822e+02
1.067216436148545426e+03
1.249382652590444422e+03
1.116530747215318570e+03
1.093515048240464694e+03
1.207211315084123953e+03
1.219525088242819038e+03
1.636593141710682630e+03
1.964530555813438923e+03
1.713608307558612978e+03
1.910847144952143253e+03
1.965174348503666124e+03
2.063916513315542943e+03
1.946394684389348413e+03
1.343694733293097670e+03
6.226527931452118310e+02
9.160671453393949832e+02
1.236598078510505339e+01
-2.262809678146962142e+03
-2.736621913815796233e+03
-2.189591280774458482e+03
-3.960793089848750242e+03
-2.402249761249539461e+03
-1.044957962793311253e+03
-9.971120257236138968e+02
-1.369126201073453331e+03
-1.699128924055248490e+03
-1.795111309359379220e+03
-9.939089446602214366e+02
5.949253262560478106e+02
2.162538418178444772e+03
2.859835960295236873e+03
2.770731612350801697e+03
2.782523941771055888e+03
1.974585895998311344e+03
1.249013068733219370e+03
-7.328853554402506632e+01
-1.709389792970230928e+03
-2.890003543511425960e+03
-3.444260027593077666e+03
-3.524312379780045376e+03
-3.041423538397470111e+03
-2.845381199248165103e+03
-1.439082570686344752e+03
8.214924993264086197e+02
1.818205946629418577e+03
1.639942890710046186e+03
1.417738356387808608e+03
1.488748774817029243e+03
1.441120180226251250e+03
1.330899884578035653e+03
1.290227717448873136e+03
1.209069600026467697e+03
1.348564291283224975e+03
1.365676777700025923e+03
7.539893448906423146e+02
4.145093907804542255e+02
1.643004911552666272e+02
-4.465889180653093149e+02
-9.280382684220428473e+02
-1.563117861531321296e+03
-1.597661739911189670e+03
-1.116534862643749193e+03
-7.337234688895231329e+02
-9.174800600746752934e+02
-9.839327097793146777e+02
-9.522818292781435048e+02
-8.942442262526225250e+02
-8.915784770369464241e+02
-8.182702710806410096e+02
-2.043989026083253009e+02
-9.621384522738725131e-01
2.762400908475258916e+02
2.741388149112817700e+02
6.488202478500696770e+02
-4.076816684978405192e+02
-2.902337815122560642e+03
-1.456361975265748242e+03
-6.767463431215820719e+02
-1.157421753297046052e+03
-1.678306133423845949e+03
-2.302297056404840987e+03
-2.291285959181613180e+03
-1.634316126178233162e+03
-1.934533744912396969e+03
-1.761042552716615319e+03
-9.558559916926127471e+02
-5.740188864652271832e+02
-4.873560544681530473e+02
-2.146283009352489159e+02
6.110209872124537469e+02
1.226392553671976657e+03
1.444652986378523110e+03
1.162741911958624542e+03
9.927525707958535577e+02
6.807160114776758064e+02
1.633710234273815729e+02
-4.354697499682405351e+02
-5.137361997530297231e+02
-9.123647001429205829e+02
-1.507357274391782994e+03
-1.647614725066636538e+03
-1.271004662250767069e+03
-1.044733254168005942e+03
-1.048868093952845129e+03
-1.296526660754838304e+03
-5.029031062262901628e+02
2.820651968306111712e+02
4.606034699544014188e+02
7.749165576253305971e+02
9.199693852335852853e+02
9.146589802186828138e+02
7.600113256039618364e+02
7.489332283802064012e+02
4.442443641016183733e+02
-7.405023609620120340e+01
-2.128241167935015596e+02
-7.541048196384444964e+02
-1.433089158371282792e+03
-1.366721380891814988e+03
-3.290637153310109966e+02
2.016147567134566998e+02
-2.326836650107197215e+02
-7.709369025753703681e+02
-3.997523721731060959e+02
-1.089321456592690964e+02
-3.687746410886716717e+02
-4.765708730287096273e+02
-3.271758427671723553e+02
1.657689894496993688e+01
3.904061109901525128e+02
6.882841139537683830e+02
9.991436185565956976e+02
1.512804441647219392e+03
1.942537921822722183e+03
2.023429825571341553e+03
1.248272320905884726e+03
3.798831541794721716e+02
-7.716892225712934987e+02
-1.145443135263450813e+03
-4.474724375338760183e+02
-4.667028705747590607e+02
1.772936870235707119e+01
2.457192000534936653e+02
5.804632626446355061e+02
6.540483325834496782e+02
4.934463001809637035e+02
7.534972659567513347e+02
7.372824001435628816e+02
-1.351246600415145394e+03
-1.951131709615955572e+02
1.191523114482805568e+03
1.318654328581540994e+03
1.117408470732979822e+03
1.855955343495324087e+03
2.151372871938703611e+03
1.432765658728890685e+03
4.776196787147637792e+02
4.119877016711327542e+02
2.867423390870970366e+02
2.299563036158026819e+02
5.017955078181048520e+02
5.691738433441380494e+02
8.022243067850457692e+02
7.749112794310547088e+02
1.006052945025093550e+03
1.282588535510122256e+03
5.312954042985014667e+02
9.924671913541873209e+02
1.455805853533931668e+03
1.367383129025989774e+03
1.967523262651184723e+03
2.002702735948545978e+03
1.517026255720427343e+03
1.766532380995784024e+03
2.000332096755245857e+03
1.314525510143123256e+03
2.297256807051648195e+02
-4.080809988777546664e+02
-1.005537194098285795e+03
-1.931077303882731485e+03
-2.123876461429480059e+03
-2.292745369242460583e+03
-1.865703069999831087e+03
-1.212884413736016540e+03
1.676791661377344269e+02
1.448061536300027683e+03
2.209470809529119379e+03
3.210861939624485331e+03
3.580068315689513838e+03
3.092073170473932350e+03
2.378964610332424854e+03
1.822729407169127171e+03
2.801229408280152256e+03
3.367488653647544652e+03
2.867605572475627469e+03
1.741535816748439629e+03
1.494242198114736766e+03
7.937714642469443334e+02
-6.588715207592911156e+02
-8.687203041631421456e+02
-2.799820655692184573e+03
-6.130152096180910121e+03
-9.109800363904800179e+03
-9.482912047762954899e+03
-6.140432411259249420e+03
-5.533153035379958965e+03
-5.746138967557122669e+03
-4.096380826563556184e+03
-2.750872375867276787e+03
-3.401625322463781231e+03
-3.271614018575362024e+03
-4.015645942597327576e+03
-4.630609111601923360e+03
-4.770550342321780590e+03
-4.303505005476194128e+03
-4.635321768932749364e+03
-3.597124911150534444e+03
-2.029101924661555586e+03
-5.590301425088675387e+03
-8.400707608858623644e+03
-8.271256043521121683e+03
-6.581716599122209118e+03
-5.664228511442488525e+03
-4.931956714419676246e+03
-3.109827300742981151e+03
6.422056296134987861e+02
2.312282363209543291e+03
4.110563358118799442e+03
4.930002923523241407e+03
4.966545947193375468e+03
4.904200298096101506e+03
5.110099278625258194e+03
5.261395845780320997e+03
4.844152121980417178e+03
4.215299357756060999e+03
3.584803449385746717e+03
3.683727709327634329e+03
3.828018854402509987e+03
3.165629784514326730e+03
2.153698333406720394e+03
1.609276512017521327e+03
5.414699566972130924e+02
-3.117070819450697741e+02
-5.302839847300524525e+02
7.257718879354805495e+02
2.121530464685407424e+03
1.967152536162914430e+03
2.122578127702085567e+03
2.261712552538789168e+03
8.345846601877193507e+02
2.762541701222689312e+02
2.728464594223663653e+02
-1.361041409408177216e+01
-1.086025406754395590e+03
-9.813425191118669773e+02
1.727429569347334336e+03
3.641263782736999019e+03
3.116136513034463860e+03
2.890158411680637982e+03
1.830393291799561212e+03
1.148828268450707355e+03
1.325513782766385475e+03
2.086519261372537585e+03
1.870858440989901965e+03
1.100565317136618205e+03
1.946941297091829028e+02
1.312372867352425487e+02
8.415076313678413271e+02
1.507499058330710341e+03
2.130170567024417778e+03
2.052577038874160280e+03
1.910205327698973633e+03
1.071497931887851792e+03
-1.172981425417047916e+02
-6.419533012546085047e+02
-1.137546620591000192e+03
-1.931138153951652896e+02
8.706453836250345830e+02
6.296531767086340778e+02
4.977203608595207811e+02
-1.161381235022225837e+02
-1.164956612822906436e+03
-1.840810135036807196e+03
-1.512654361137849946e+03
5.633980171640397430e+02
2.251412427656363889e+03
2.566485073749878211e+03
2.262636529001280906e+03
2.083869983115233026e+03
1.711142326231497009e+03
1.620608391803385302e+03
1.199279026780797722e+03
4.142286735766193146e+02
-4.075217794897006343e+02
-1.161937804081077275e+03
-1.991087761210914323e+03
-4.146090701837015331e+03
-5.236960445275023631e+03
-4.537618004998372271e+03
-3.685168548925066261e+03
-2.196759998055884353e+03
-1.142267983727152114e+03
-5.596656560619330776e+02
1.701671195087696731e+01
-1.921347315265373652e+02
-1.129987217845907253e+03
-1.543473808355326128e+03
-1.413743477988950190e+03
-4.558383982731214132e+02
4.812182147716586655e+02
7.574640160635194661e+02
3.699177749150841237e+02
-9.224603283855421978e+02
-1.229699315296226359e+03
-1.007750252184224109e+03
-9.076610276430809563e+02
-3.214533536897636736e+02
1.658560000978316111e+02
1.702301520117358393e+02
-5.923997509897932332e+02
-1.432108602953630680e+03
-2.099886578186801671e+03
-5.307141966961471553e+02
5.933529177617258483e+02
-1.757672274384333093e+02
-2.004070357004254902e+03
-4.916478609476419479e+03
-5.269876994535706217e+03
-3.195409237107088757e+03
-2.161515917194862482e+02
1.632842781582992302e+03
3.396648772786203153e+03
3.163317788813345487e+03
2.184551007607203246e+03
1.973465482737695766e+03
1.422131758438478755e+03
-2.215951876085293577e+02
-1.395709657781158739e+03
-1.712275633959988227e+03
-1.158358692087258305e+03
-9.449114114332967347e+02
-1.056018395774570536e+03
-2.181742760255822759e+03
-2.413088977471708404e+03
-1.591165799562063739e+03
-5.289777762603350766e+02
-6.856467236022434975e+01
3.821426809721285167e+02
5.291224244580726008e+02
1.437362394005311899e+03
2.559804793955441255e+03
1.866343310218801662e+03
-2.279565511775896596e+02
-1.458053348533060898e+03
-1.469092456076757799e+03
-1.155096161218108819e+03
-7.239862027075578226e+02
4.191695805810777529e+02
1.837209451500417345e+03
2.600042976563989214e+03
1.325708586463908432e+03
1.561982522692237865e+02
-1.261130195207178062e+01
3.482797827291835802e+02
1.531912223500027039e+03
2.112244464639130456e+03
1.559343202903895872e+03
1.442194389923433164e+03
1.665784554165717054e+03
1.931057458009744323e+03
2.608961652961721938e+03
3.392509433190343771e+03
3.278629652264635297e+03
2.593400235214488475e+03
1.813800136224251219e+03
6.786976642326353613e+02
-8.089729672093712907e+02
-1.913184161800427773e+03
-2.766916718706898337e+03
