-7.638862340560344819e+02
-6.034802701956588180e+02
-3.957068647303560738e+02
4.064184766256358330e+02
9.850749474232359262e+02
1.291161405036153838e+03
1.898616305111357633e+03
2.985522240056102419e+03
3.027918870152520867e+03
2.460762744870456117e+03
2.160052748121595869e+03
2.054768266426797254e+03
1.972825558063868357e+03
1.887275559917983628e+03
1.922053814108398683e+03
1.927131354428917348e+03
1.481491139141425947e+03
6.561547176028392414e+02
2.360984436359320284e+02
1.232935809247368582e+02
3.166566445571144186e+02
3.231935521954481487e+02
2.279232720613469780e+02
3.398783425044570095e+02
6.040563500607624974e+02
1.470489876256273192e+03
2.404173297735639153e+03
2.063046488275341744e+03
1.918131917887662212e+03
1.014586615071002370e+03
-5.135180740423115822e+02
-3.327346765581659383e+03
-5.468999582267165351e+03
-5.493451205338985346e+03
-5.385702496370395238e+03
-5.227768556716411695e+03
-5.468595036451905798e+03
-5.343118689134236774e+03
-5.214303203905052214e+03
-6.088199173350843012e+03
-6.347914416022868863e+03
-5.912460737477841576e+03
-5.841757945425830258e+03
-5.227781188876983833e+03
-4.045504265415670488e+03
-1.908917320768790887e+03
-5.910667209386685954e+02
-2.774962181614427664e+03
-3.441536906664217440e+03
-2.825775447499237544e+03
-3.054693797854819877e+03
-1.841250923356742987e+03
1.863657886131108626e+03
2.217084774111595380e+03
2.014930364825961760e+03
2.055184655607058630e+03
1.681970452296687654e+03
9.902003727369592525e+02
1.327811581077984613e+02
-2.421937186095134678e+02
-6.185923526745488061e+02
-7.574501100747164628e+02
-3.777976850500031674e+02
2.532385780498735244e+02
1.046717353924469080e+03
1.525658345803316024e+03
1.909210387966896405e+03
2.059483174719428007e+03
2.141435453724453509e+03
2.350150957948115774e+03
2.230678205919699849e+03
1.965976033683159812e+03
2.063004458211986730e+03
2.004732308973313366e+03
1.264209039531918052e+03
6.184337698929321050e+02
-1.435550421087562540e+02
-8.047572972417751771e+02
-1.547164928568208552e+03
-2.168733934405398486e+03
-2.294443871125480655e+03
-1.836297732950823274e+03
-1.496339629591653193e+03
-7.484945259334664343e+02
1.313548030676413134e+02
1.192283173611698885e+03
1.785280713264602127e+03
1.812366380797146348e+03
1.930560277073584984e+03
2.331925444025889647e+03
2.427395306768367391e+03
2.656853880869777186e+03
2.057454892565535829e+03
1.484646038327671477e+03
1.768610463582597959e+03
1.619146742131111068e+03
1.055202740419685142e+03
4.627577008600089243e+02
-2.302013043080989974e+02
-1.197660161176817837e+03
-1.207597807842181510e+03
-1.367035389233122032e+03
-9.350131131952643955e+02
-1.026703853043424317e+02
-2.367356952298461295e+02
3.686720673764009462e+02
8.135336714787931669e+02
5.978578306851294428e+02
5.586793330485164688e+02
1.048951472896568703e+03
1.255779881330128319e+03
7.943086310173029005e+02
9.814701041689921794e+02
1.103183991269969738e+03
9.874711238484106843e+02
5.643322731304403987e+02
3.017665712659877499e+02
-5.082085607687548077e+02
-1.159615777778872825e+03
-1.351547287857268429e+03
-9.099640969698538129e+02
-1.196830834237314093e+03
-1.337177779824660774e+03
-1.020026457129343385e+03
-3.913484876729066286e+02
-1.109101980711386304e+01
4.267856295355747989e+02
6.993428311590970452e+02
1.695903838935795989e+02
1.464963628316167785e+02
2.812026734854539356e+01
-3.825752370519637680e+02
-4.287042054852660726e+02
-2.302845904625861237e+02
-6.733111920668869743e+02
-4.047683635149762154e+02
-6.116502506689058691e+02
-9.799277966693226745e+02
-1.239515053686899137e+03
-1.520479248302030101e+03
-1.684836859882758517e+03
-1.246693717174260200e+03
-1.110190580863714786e+03
-7.652285025621422392e+02
8.224569754205982974e+01
9.381955847020121837e+02
1.147668437068943604e+03
1.293775237833451001e+03
1.490423923847187325e+03
1.313574192211254513e+03
1.328227889370539287e+03
1.321446795219728301e+03
1.300204213110184810e+03
1.115466778431849207e+03
9.942186199472936323e+02
1.072281090599960635e+03
6.116380423794411172e+02
-3.895766507177336280e+02
-1.265464594014707018e+03
-1.767119620481863194e+03
-1.852558926966331001e+03
-1.137768524471566025e+03
-4.948304180150799993e+02
-4.087490367243840410e+02
-2.324695615174992156e+02
-1.209635730059659551e+02
5.006263727982054093e+02
8.036681694174354789e+02
7.221578571598003009e+02
7.576581101235790356e+02
5.893594583076589970e+02
3.475037765192140000e+02
3.568807068303758570e+02
5.742585498246519364e+02
7.258079723774294507e+02
4.424863259161920723e+02
-2.517189252669582515e+02
-1.071884396982679618e+03
-1.400734609939505162e+03
-1.329642868831928581e+03
-7.306921159096754081e+02
-9.879438106807571103e+02
-9.691009563375513380e+02
-6.294106802669509761e+02
2.498957132866186726e+01
4.552134733383232401e+02
6.463806362147612390e+02
6.913933405405007306e+02
5.921773162889153355e+02
4.829456085712888580e+02
5.577820107152197124e+02
8.896153313819609139e+02
1.100392479947394349e+03
8.891305767931786477e+02
9.804595833179861302e+02
1.080417557277306059e+03
7.130756835530786475e+02
-1.902640605484970848e+01
-6.005817102311393683e+02
-1.097498872097232152e+03
-7.487753925760838456e+02
-1.814429467993371645e+02
-4.416392911263307042e+02
-5.502284005220063818e+02
2.306951180055730788e+01
2.719752006067666912e+02
-6.047698323998663028e+00
-5.834020481784824597e+02
-1.650716140169389746e+03
-1.745410228601997460e+03
-9.714359369490921381e+02
3.150307215110984203e+02
1.883802966490690324e+03
2.653839272669255024e+03
2.452161488267609911e+03
1.557819115300942258e+03
3.196902204346908434e+02
-6.552353014156057043e+02
-1.029717096811526062e+03
-1.523784594773097297e+03
-1.958517300561522006e+03
-1.421088890008579938e+03
-9.295260593763561019e+02
-5.548284257808193161e+02
3.840432993641029498e+02
3.322209672733869184e+02
5.408821052163834793e+02
1.456148258806794047e+03
9.579067460835960901e+02
-1.210810401400575302e+03
-3.251360445430780601e+03
-1.545854396544010115e+03
-1.842921721733065397e+03
-1.738782318972237590e+03
-1.026488547674299298e+03
-1.124654393504002883e+03
-7.752021679417956648e+02
-3.925131839015743026e+03
-4.074513519863118745e+03
-5.247651607831416186e+03
-2.049570930776511432e+03
-5.853907537983756129e+02
2.168225167410012375e+02
-1.340663896206689969e+03
-1.190690242618226875e+03
-4.712041081585641109e+02
2.357756799513326769e+03
1.997206271580158955e+03
-1.430571623864419962e+03
-1.721388733099366618e+03
-4.384540924149332568e+02
8.941886314126109028e+02
1.706336477393655741e+03
2.902886927886889225e+03
-3.520985795562108365e+02
-6.845722729452245403e+02
-2.181543611029638214e+03
7.160468718404888477e+02
5.220301030850475854e+02
-1.058493949358059353e+03
2.337964795487294225e+02
-2.120748127521774791e+02
-7.612500222474786824e+02
-4.698614254593546207e+02
5.951053403392206747e+02
1.573189355261745504e+03
2.320563063287092973e+03
2.647730537338904469e+03
2.735691723983864449e+03
3.237624298679409549e+03
2.912126978004441753e+03
2.528355464865843715e+03
2.406551192749723668e+03
2.202608885140125494e+03
1.908373093297697096e+03
1.826176187935974440e+03
1.137177723151198961e+03
3.270908342278102623e+02
-6.397734628306328375e+01
-4.617961280308157370e+02
-5.094690941290839419e+02
-1.439659715710874934e+02
-1.703755354114750276e+02
-1.045017328910279730e+03
-1.633737121532962419e+03
-1.889167557252511642e+02
2.620658927360918824e+03
3.677299035201262541e+03
3.034065608965066531e+03
2.254565421724465978e+03
1.460482544137117429e+03
2.658772934336914773e+02
-2.354479325132494409e+02
9.909213820587016386e+00
3.129168178357040802e+02
6.562119621732676933e+02
1.738274057008196678e+02
-4.888978270882572588e+02
-2.428733263866637628e+02
-3.256791589631357056e+02
-8.243962921660117615e+01
2.850839216527975850e+02
1.360460320697828251e+02
-3.322855523825633099e+02
-9.862346704912074813e+01
-9.521878581525974994e+01
-5.702901724170948228e+02
-7.249542343013808932e+02
-2.792258594686497872e+02
4.841057883484022000e+02
3.319318472454642688e+02
-1.510271177693718130e+02
3.942096028226869180e+02
3.929325281376459316e+02
-7.607408546179798350e+02
-1.204060744574647742e+03
1.207759357677186358e+02
1.188806841920591751e+03
1.665962311992170044e+03
3.313483310105167448e+02
-9.349862315054692772e+02
-2.174735911799165478e+03
-2.473747147213819517e+03
-1.395431670297764413e+03
-1.026819338105526413e+03
-1.317731463786210782e+02
1.327490239438067192e+03
2.806816703749843782e+03
3.307257436392377713e+03
2.625136203708500034e+03
2.244552036277807929e+03
2.118478611169571650e+03
2.081771884263915581e+03
1.433530554960012068e+03
4.846013486357721263e+02
7.678681582662449046e+01
-1.417446575448544195e+02
-3.188436360209084910e+02
-1.147572066932235884e+03
-1.473040027565345781e+03
-1.547232682011758698e+03
-1.049399722007071205e+03
-7.677954477645524776e+02
-6.762082291895675326e+02
-3.642012984314221740e+02
5.228118621989469830e+02
2.449273852576549473e+02
-2.213377016500794070e+03
-5.317256310074816611e+03
-5.095772413241763388e+03
-4.183931058561718601e+03
-3.886647205510470940e+03
-3.533915602578328162e+03
-3.267688227430965526e+03
-3.426079326855877753e+03
-3.681177760082608984e+03
-3.843065960800928224e+03
-4.178837488162412228e+03
-4.795616508743702070e+03
-4.907310709078496075e+03
-1.769814588294919758e+03
-9.151538199777454565e+02
-1.603288645222819468e+02
-1.854808950096548585e+02
-6.864910839639462665e+02
-1.819221924432054948e+03
-1.597739243175392858e+03
6.930781546320033613e+02
1.946384488507209880e+03
1.720923922893396366e+03
1.863509340247330556e+03
1.944123595546607930e+03
2.040671229163649286e+03
2.422217909685279210e+03
2.766766105456659261e+03
2.399534198123118131e+03
1.900628160146963864e+03
2.053927478209682704e+03
1.615584611536477041e+03
7.754603888341906668e+02
1.606323617961861672e+01
-5.475058257926921215e+02
-6.947526035203288757e+02
-2.369077116954673841e+02
3.301552446202351234e+02
8.023164278106062284e+02
2.249346795537496746e+03
3.459767819697661707e+03
3.507354584640612757e+03
3.189810315750857171e+03
2.383074216765042365e+03
1.531336893157463464e+03
6.175879876529704688e+02
1.298141077172417965e+02
1.097986908347080998e+03
1.715847716497486317e+03
2.762404055673368475e+03
3.146651145546943098e+03
1.240495803823436290e+03
3.921241159796531974e+02
1.687120676918184188e+02
-7.126729128540598595e+02
-1.058969860107971499e+03
-1.166842771037164717e+01
3.615072331932004204e+02
6.872437386338700662e+02
7.145671912206784100e+02
1.851374031319101505e+03
2.918110315770683883e+03
3.592440310842024246e+03
4.655232110850108256e+03
3.835285328334173300e+03
2.637089027579719186e+03
3.081737486051483302e+03
3.123035480544112033e+03
2.606043739886668845e+03
1.855114776707717283e+03
1.674235572215871116e+03
4.601545810964495331e+02
-1.072185708469256269e+03
-1.708695951986580894e+03
-1.504249114815579560e+03
-4.414079744510308956e+03
-4.866388401267999143e+03
-3.279053271642191248e+03
-5.893008929341231124e+03
-4.371406724553361528e+03
7.356919689132249118e+01
1.814138053320117933e+03
1.846571320516973742e+02
-1.751086923887946568e+03
-2.771306463736730166e+02
-1.806419455038272417e+03
-1.187099311893463209e+03
9.208130272989825471e+02
2.440442575889786440e+03
3.838271931259583312e+02
-1.076058303439049723e+03
-6.802894969561267544e+02
-8.076972675106917450e+02
-2.693365533939156649e+03
-2.556745647080295385e+03
-4.639816444846572267e+03
-5.609521690090179618e+03
-6.549592441395181595e+03
-7.389155888852772478e+03
-3.598493934205376263e+03
6.049591881260326431e+01
3.185186472405963741e+03
4.307778095871515688e+03
5.063072803434252819e+03
4.051625784472813848e+03
4.978407810482090099e+03
-4.035963593128978459e+02
-4.999263181390488171e+03
-4.272343699725654915e+03
-4.396000243403756940e+03
-3.879194954376218448e+03
-7.058841966991540176e+03
-7.503061077213638782e+03
-5.839048639676544553e+03
-4.332818143756780046e+03
7.806864143827310727e+02
3.492599373583516808e+03
-6.000923336657609752e+02
1.848608869919163908e+03
5.604701714558686035e+03
7.749304075182230008e+03
7.776342488568204317e+03
6.724697287444177164e+03
5.954666362454354385e+03
5.657355219635163849e+03
3.932725445588080674e+03
1.498799114909885020e+03
2.225431360291873716e+03
3.492633516527784195e+03
3.649308033221074311e+03
2.116578696186752040e+03
-9.338936330479732817e+01
-2.923954006703657797e+03
-6.916030777138374106e+03
-9.277734767773308704e+03
-9.791191753222266925e+03
-8.715145250835294064e+03
-9.462349887850514278e+03
-1.038992654995453813e+04
-3.983684758827840596e+03
2.135919867459282614e+03
4.893572636451062863e+03
3.555173394349298633e+03
-2.277587115696978515e+01
7.234970037298928673e+02
2.760397121304452412e+03
5.847522276935635091e+03
8.956624881106930843e+03
8.206847693248320866e+03
7.615953411232131657e+03
5.270493852941214755e+03
1.103386585076987558e+03
-9.783701106327912385e+02
-1.640682113111090530e+03
-1.816309235567185624e+03
-2.883365166490881620e+03
-4.587939003160896391e+03
-2.568837954793090830e+03
2.105596788681175440e+03
4.894642993695390942e+03
7.707976016398172760e+03
8.639942006402405241e+03
7.616626564253339893e+03
6.359710682877111140e+03
5.617764406516101189e+03
4.598502486901801603e+03
3.686160523976449440e+03
2.024066361057503229e+02
-2.995565333883504536e+03
-1.831590954736754384e+03
-2.829647859336835154e+02
-8.225717454304733565e+02
-3.284351934772309505e+03
-5.782260271520111928e+03
-2.413298819804692812e+03
3.447431155740994200e+03
3.649891164037990166e+03
3.818126534638432076e+03
6.415159188270703453e+03
3.581009337412206150e+03
2.060691213862919994e+03
3.354329002983559349e+03
2.625997803469491373e+03
-1.534275190407478021e+03
-2.052591008267074358e+03
-3.860041392547016699e+02
-2.384144372048202058e+03
-3.883964828878529715e+03
-2.855670904890108886e+03
-3.104430983102612117e+03
-3.041181639138217179e+03
-3.701915368976815444e+03
-9.256706085520165288e+03
-1.594849487588737247e+04
-1.575420633282683593e+04
-1.372901283782956489e+04
-7.942050081407856851e+03
-1.894215117116916872e+03
-1.631482923442625221e+01
-3.003261021277234590e+02
2.397748164074170916e+02
-2.027882203931976846e+03
3.615961784760282853e+02
3.291138074596887236e+03
1.681944018400038885e+03
-1.298059403831064401e+03
2.730800778884726583e+02
4.411375271985967629e+03
8.158472455632921765e+02
-5.059388977621236336e+03
-8.371373059832401850e+03
-8.938226063199446799e+03
-6.277911428387868909e+03
-2.845322920894039271e+03
-8.584759455740964995e+02
-9.040747010366926872e+01
-1.774177132358656308e+03
-2.425738053634243443e+03
3.422037172267977894e+03
6.166163973423982497e+03
4.978639366351560057e+03
3.388548858476554415e+03
5.079862912233280440e+03
8.505688011544765686e+03
8.879092547543137698e+03
6.867902656873799060e+03
4.730954267108250860e+03
1.137252739677707268e+03
-1.336229955057619236e+03
-3.404320184124694151e+03
-1.190921046757458953e+03
3.801044229205787815e+03
4.261560205810726984e+03
4.270462854351694659e+03
6.312724602272869561e+03
6.012322607197103935e+03
3.025186185732006379e+03
-3.047792539966228560e+02
5.585053787861988894e+02
3.005238564006750039e+03
4.947505332156527402e+03
5.315325888671588473e+03
6.995667873816544670e+03
6.919496605758433361e+03
3.694871154033889979e+03
2.010801491661992713e+03
2.576315741400768275e+03
3.215527683620098742e+03
2.502386525902652920e+03
2.521728619414744571e+03
-6.694805906958295054e+02
-8.048271512548796636e+03
-1.483754874980349996e+04
-1.784431879621070038e+04
-1.302563168071572363e+04
-4.946555338742999993e+03
-2.403031968246067208e+03
-1.126868781734926415e+03
-1.327965516679929351e+03
-1.754675251016327138e+03
-3.306743678047661916e+01
1.900992146352702321e+03
4.659706346611543267e+03
6.493081271370515424e+03
7.414107274400503229e+03
6.995813361756174345e+03
6.193130127119606186e+03
3.275032012240233598e+03
1.707532038749855474e+03
2.013643923750846625e+03
1.152204227932638560e+03
1.067315804461479502e+03
-1.047251658652281094e+03
-2.674486319796897988e+03
-2.508324063710960218e+03
-2.501738713129324424e+03
-8.298499585740087241e+02
2.930176059633472050e+03
4.880351132681900708e+03
4.768773368571968604e+03
4.241444864683728156e+03
1.840407772180976735e+03
-1.153551680915049644e+02
-3.317950781465111959e+03
-4.208380394483493546e+03
-3.308571404945953873e+03
-3.055591319383846894e+03
-1.179500562318840366e+03
-5.742441253777678867e+02
-6.400773520016296970e+03
-1.192810890586697678e+04
-1.191423398345237729e+04
-1.510218295001645492e+04
-1.747004777773271417e+04
-8.477872991645586808e+03
4.273774751934379879e+02
4.963558111878396630e+03
7.315595727198588065e+03
6.541574747735637175e+03
5.137560230920000322e+03
5.546619726798514421e+03
6.915733322740462427e+03
8.168918876017304683e+03
9.324164105107247451e+03
7.246318430678805271e+03
4.745386757539951759e+03
1.662267819470661834e+03
-2.849052405327775432e+03
-6.117358578987383225e+03
-7.367704561668771930e+03
-7.160133987560278001e+03
-5.640578558604735917e+03
-1.142708117521311033e+04
-1.487276892764716831e+04
-9.063617378317158000e+03
-1.465659910726646785e+03
7.234114417456168667e+03
1.054058175384798778e+04
1.007471557905646114e+04
7.504577085835046091e+03
1.394147770648000915e+03
1.040560324177829443e+03
1.433900351333411663e+03
-1.655929708345548988e+03
-4.806948471850733767e+03
-3.362128665886430099e+03
-1.157433016973554004e+03
-8.529565962468803946e+02
-1.045628866272811365e+03
-3.693870315363213876e+02
2.679710823738358613e+03
3.307599924842368637e+03
2.013561932200336059e+03
2.051448656155872413e+03
2.803024409880007170e+03
1.811639755697018927e+03
-2.336014297641919256e+03
-4.544212518121600624e+03
-1.786798232128253176e+03
-9.745399890773528568e+02
-3.663310406122000700e+02
8.286900223630700566e+02
-2.772718871520708603e+02
-2.227438941751141556e+03
-2.418970775431670063e+03
-1.576870265437658190e+03
-2.584054173938401533e+01
6.408091506726150044e+01
3.096769259414689259e+03
6.381236474925631228e+03
4.652624936354102829e+03
2.762813754178754607e+03
1.072000474830707162e+03
2.827124332176166263e+03
3.169220717439650343e+03
-4.987367208555446041e+02
-3.479146212164444933e+03
-1.427042096444513618e+03
4.231564692299986746e+03
8.297806695821072935e+03
7.470721171785352453e+03
6.120442706321196056e+03
3.657871591297287068e+03
1.772590955179638058e+03
3.048665771813337415e+03
2.316693313169744670e+03
2.947685408933501094e+03
5.507545694227211243e+03
6.245622589120766861e+03
4.496769037081946408e+03
2.933756566792751073e+03
1.515578007520382698e+03
1.064877670155796977e+03
-1.812213160106586258e+02
-2.657173797245123751e+03
-4.979475700630288884e+03
-5.194262815593477171e+03
-5.709431956947736580e+03
-7.464820526082560718e+03
-5.997318241705837863e+03
-3.645889202241786279e+03
-2.191528438343601465e+03
-7.500807757924712860e+02
-1.097440649838052650e+03
-9.398116767472131414e+02
-2.495253537753191267e+03
-2.816744357078682242e+03
2.938850530163510939e+02
-8.922787007099724406e+02
-1.246166117362255136e+03
-2.632624580394831810e+03
-7.406696666703865048e+03
-9.641481394508660742e+03
-8.088135250627507958e+03
-9.574519607833364716e+03
-1.118359420164665789e+04
-5.859008667024211718e+03
5.881771551636110189e+02
5.365131102470490077e+03
4.623202454010988731e+03
1.069654711286902739e+03
1.534211793160486650e+03
-3.344229952010038232e+03
-3.120780239488843563e+03
2.155463470357911319e+03
4.093782090967835302e+03
5.298169509811460557e+03
4.318776380029647044e+03
2.531799242469338878e+03
-1.331835512940529952e+03
-1.173257492971869851e+03
-1.984507097984176653e+03
-1.528467920556389799e+03
-1.530047423133921257e+03
3.973432491308328736e+03
3.396649933479671290e+03
-3.033122014462197740e+02
3.225136589017189408e+02
1.989250657855196323e+03
3.510212924369962906e+01
3.260867186399773345e+02
-8.548201216856268729e+02
-6.775164593847177912e+02
-2.379781125842989411e+02
-1.050060850718258365e+02
4.734102440536861423e+02
-2.805914821525369973e+01
-1.017499682677865735e+03
-1.865761931309915099e+03
-1.552682844965603863e+03
-2.552234347520168001e+02
-3.285559736833899080e+01
-5.048737163163724517e+02
-9.679222630914554202e+02
-1.667002153246733542e+03
-1.928322297805310654e+03
-3.207475325076150057e+03
-3.440533431340556035e+03
-2.635714664378564976e+03
-1.547873634984468708e+03
-2.017686637857838150e+03
-3.464374252970862017e+03
-8.970911470745886618e+02
2.588405399195055907e+03
4.233090516275599839e+03
3.613747788082971510e+03
3.942421950132921211e+03
4.871020715848499094e+03
4.454517887823668389e+03
3.536339336786212243e+03
3.429701769969240559e+03
3.076275538404735471e+03
2.677873327445893665e+03
2.082142614836563553e+03
2.086947854447503232e+03
1.880521511444767839e+03
1.530911123162890590e+03
2.066073963932618426e+03
1.567352815357642385e+03
5.171918322874545311e+02
2.110505465137011015e+03
3.096637702889741831e+03
2.560731536065241926e+03
1.527561159521078480e+03
1.332885152485601566e+03
2.288933453775931412e+03
3.217029974938880514e+03
2.744104515729447485e+03
1.977977454009052508e+03
1.959346569160846911e+03
2.352067170617727243e+03
1.963152547290612574e+03
-1.773700676584394103e+02
-2.137315703422613296e+03
-2.214590075738823543e+03
-1.683768590805623489e+03
-2.142980435414997828e+03
-2.095041969523951593e+03
-1.410877782981579685e+03
3.862612659789043050e+02
2.132167845196145208e+03
2.324048274386890171e+03
2.240123231570088137e+03
2.199396393457245267e+03
1.199030981566526634e+03
1.559667755278464938e+02
-1.748239536992405476e+02
1.032625981256556713e+02
1.025930707426960680e+03
1.457455222694350368e+03
9.688573839986812573e+02
7.429388005903286967e+02
3.548570725419834275e+02
-1.149161953510570129e+03
-2.851058317260839431e+03
-3.619132154520848871e+03
-3.272539369130718114e+03
-2.391321368268405422e+03
-1.716357037325615238e+03
-2.221767852618992947e+03
-2.650420976046134911e+03
-2.690041481092540835e+03
-2.237650213762820385e+03
4.593557696506154642e+00
1.274662297265915640e+03
9.326333920446907086e+02
2.324346551447761158e+02
-3.777147354918832320e+02
1.396314394108628107e+02
5.916003631717018152e+02
7.970014822269724846e+02
9.471680823715208817e+02
7.936732409192285331e+02
5.728335035398047239e+02
2.527359540782459817e+02
-1.910540744714684479e+03
-4.707998340547089356e+03
-6.827785613208637187e+03
-6.370934067628634693e+03
-5.631560865522654240e+03
-5.213594846398766094e+03
-4.330937806980058667e+03
-4.067495341126961648e+03
-4.271198664925014782e+03
-4.696797548649686178e+03
-4.453344344711169470e+03
-2.221029249082406295e+03
3.292632604909648535e+02
5.204893893640476108e+02
3.078401597439340094e+02
5.043578844078880365e+02
3.319300262378014281e+02
-7.639606933840808267e+01
-1.377775260188305424e+02
-5.463996967706553960e+02
-1.031130946876610778e+03
-1.080850055371776534e+03
-4.165124039151354509e+02
3.881802178770457772e+02
4.102421855761731990e+02
6.418742489352459870e+02
1.352006615165255653e+03
1.156523482413417696e+03
8.704910708068842951e+02
7.517779897654276056e+02
8.254987767326600760e+02
6.481935835156721168e+02
8.649485200526160043e+02
1.200411768123910178e+03
1.211915800553272447e+03
1.038462888153462700e+03
1.578141095988141615e+03
1.720824898289658677e+03
1.123701213070365384e+03
6.029238450515695149e+02
5.747522616262174324e+02
9.542730554828343656e+02
1.006416583245110473e+03
1.162160350129473954e+03
1.631556721125659124e+03
1.938646000319735776e+03
2.421713997980484692e+03
2.464907194944382354e+03
1.924383114251487768e+03
1.688378123178039914e+03
1.535912965672108385e+03
1.404908032621600341e+03
1.477302678456187778e+03
1.526011330905229670e+03
1.579670871326690985e+03
1.603237796295924227e+03
1.333001248570430789e+03
9.856915970959531705e+02
2.760899283782799785e+02
-6.814628260942877205e+02
-1.123720169128083853e+03
-1.190522251700285096e+03
-1.382275707819170520e+03
-1.047199407773746316e+03
-2.124415236046965560e+02
2.763504795680184998e+02
6.683019901975670791e+02
1.337102140098192194e+03
1.387645525385584961e+03
1.168076534209001011e+03
1.102483437523318798e+03
9.388005459998764763e+02
7.487915794419327540e+02
7.536746824683486921e+02
9.756041647381406392e+02
3.885124821323356628e+02
-9.859455288927371441e+01
-6.315708676094205885e+02
-1.057091142171502725e+03
-1.438214335979752605e+03
-2.370294937875307824e+03
-2.901249911810433787e+03
-1.786044266597567230e+03
-7.606862667815140640e+02
-3.669804408906393292e+02
-8.175472739914728493e+01
1.108889304493499992e+02
5.349059536188349284e+02
6.682345174839572337e+02
9.590228032926619335e+02
9.410201496307573734e+02
6.791397846512486467e+02
5.987529759216392904e+02
5.558732100205407960e+02
4.134778118186868028e+02
4.963206769619096121e+02
6.352894067750757046e+01
-6.185240959179122910e+02
-1.068837914069751605e+03
-1.475788950038045414e+03
-1.811757416595920631e+03
-1.964698131632530249e+03
-2.385286296218813277e+03
-2.336424104307887774e+03
-1.723974723859303140e+03
-6.849379830773350477e+02
1.744906969314730247e+02
5.194326352078203399e+02
2.748184188091756255e+02
3.884767860626722040e+02
9.085267243293368438e+02
7.740963201118649977e+02
7.391769749283117790e+02
5.117666796253972734e+02
3.497998769655440015e+02
2.934346376636989007e+01
-5.795003180670648817e+02
-1.082704165159371769e+03
-1.351448292483153864e+03
-1.608706058977642215e+03
-1.923372082660701835e+03
-1.967726505587329029e+03
-1.778893637151260009e+03
-1.388843834143848426e+03
-9.536456994124677067e+02
-1.891897851741005923e+02
6.875024442516909176e+02
9.285898271419823686e+02
1.432942675765477134e+03
1.878224277605239422e+03
1.884710631406734365e+03
1.683333841062736610e+03
1.639125771240166614e+03
1.769336397459647742e+03
1.510828937703241536e+03
1.149227184790742513e+03
7.896218839307717872e+02
-4.488184256622211876e+01
-5.105542289711370927e+02
-1.269896328597059437e+03
-1.730770297752782199e+03
-1.891150776095207902e+03
-1.750671819303911661e+03
-1.298475037739367281e+03
-4.573478087829374203e+02
3.540109417484396914e+01
6.113554559755528999e+02
1.116455311846874793e+03
1.421024468641505337e+03
1.549023188906004862e+03
2.022368622916655340e+03
1.911397113651480367e+03
1.588888118764807359e+03
1.673693065369658370e+03
2.012774645667403774e+03
2.055010986978561050e+03
1.442065769669317206e+03
8.291084235350180052e+02
3.994343391927624225e+02
1.574824108707605141e+01
2.060091694642048594e+02
7.132403462228293733e+01
-2.073944983055937428e+02
3.379389574872222397e+02
1.242195387578339250e+03
1.770450877935068320e+03
1.998444088637762434e+03
2.224325644095059488e+03
2.220098591392908020e+03
2.286750085439184659e+03
2.241218576073426448e+03
2.112379474794435737e+03
2.015093095250935221e+03
1.959384656142220592e+03
1.685259240113114629e+03
1.451722523390815923e+03
1.391788972205251184e+03
1.172381145295191573e+03
8.015695950841425201e+02
4.442744285512005717e+02
3.937687755139899082e+01
-2.281786824304813592e+02
-1.683272827330590076e+02
5.210211974728787254e+02
9.615579699025987566e+02
1.449172242976120515e+03
1.981949846727203067e+03
2.259052080110270708e+03
1.864440327857122838e+03
3.200305417005873210e+02
-1.679135515361784883e+03
-3.928003125261848709e+03
-4.439659083898172867e+03
-5.062095711758432117e+03
-5.214311581218854371e+03
-4.995269271284152637e+03
-4.576045011197403255e+03
-5.299605400343389192e+03
-5.615944367737515677e+03
-4.170136333011641909e+03
-4.840085932237545421e+03
-5.264686406882126903e+03
-5.483205317322394876e+03
-5.651596958741355593e+03
-3.889762207322227823e+03
-1.035571669175240686e+03
-2.430056608989061715e+03
-3.197315286769485283e+03
-3.324357058460503595e+03
-3.189074849006320619e+03
-3.054390304726918203e+03
-2.820350360264537358e+03
-2.797016356142443783e+03
-3.003316880783629585e+03
-3.158092544227662074e+03
-7.802906365452722639e+02
2.437949493610280570e+03
2.800616505360321753e+03
2.025811212911559323e+03
1.563502126880198603e+03
1.355662916466834531e+03
1.086192645751316832e+03
1.119047063269821365e+03
1.689361026153339481e+03
1.975246908419225065e+03
2.495722916080096184e+03
2.952891885067483145e+03
3.236862958081947909e+03
3.021596787757591301e+03
2.963055048484577128e+03
2.833200472229190382e+03
2.773073073247279808e+03
2.638702079103804408e+03
2.571095831841965264e+03
2.430279133912016732e+03
1.984415238782069764e+03
1.625590854839814483e+03
1.373767215412035512e+03
6.848550648184045713e+02
2.528154758513104525e+02
-1.762816853509249597e+02
-4.623798933275011791e+02
-8.204917044683569429e+02
-4.915729163053156299e+02
8.038631117325959963e+01
7.592617361287614131e+02
1.284135747460163657e+03
1.694202024035680552e+03
1.346518382010942332e+03
1.136130827119278365e+03
1.375955871824596670e+03
1.884969039948841782e+03
2.130218516912732866e+03
1.971704558744776477e+03
1.753450858708141141e+03
1.894408421917569058e+03
1.693584970965451703e+03
1.021178055458773201e+03
5.635332343642116939e+02
2.216953845611269571e+02
-4.124911404311160368e+02
-7.110709608329194680e+02
-4.710293047136475479e+02
-4.433056847544082189e+02
-2.489251980865395240e+02
4.711404757883544221e+02
1.278987297060660467e+03
1.254648777861181088e+03
1.266138065462829672e+03
1.132398145984330540e+03
8.533806369070892970e+02
8.440500049488307468e+02
7.413501017478986341e+02
8.722863240335695991e+02
5.938820900274581618e+02
3.921070939834555134e+02
4.970045216826331966e+02
-6.440177138790218692e+01
-1.132144500934099824e+03
-1.145303267495647560e+03
-1.532897466953470030e+03
-1.713887236103369332e+03
-1.361290672343152892e+03
-9.701558165629520545e+02
-4.753933303156625243e+02
-2.095716473970568927e+01
7.271523791844907691e+02
1.042894444070408781e+03
9.203153474975617883e+02
6.974352322672751825e+02
7.722179722183755075e+02
6.286385124552020898e+02
6.516950466989381994e+02
1.009309907441699806e+03
7.444917341477839727e+02
6.433004622335341764e+02
3.967335740174013949e+02
-3.072529188328375085e+02
-9.336884514983169083e+02
-1.335560033138631752e+03
-1.466902505038559639e+03
-1.454737664993041335e+03
-1.749148440054874982e+03
-1.821135854753213152e+03
-1.758621515761320552e+03
-1.607598866049082972e+03
-1.452075904825879434e+03
-1.359010711119976349e+03
-1.167420880154803399e+03
-9.603272966635645389e+02
-8.657353557139909981e+02
-6.016842330900913112e+02
-2.462375509883494260e+02
-1.833834931173242069e+02
-1.611038527745494093e+02
-9.538005252264639466e+01
-9.322595174295448714e+02
-3.209777629124860141e+03
-3.443942521373107866e+03
-1.957804997006208168e+03
-1.936426058421837297e+03
-1.683853136643488369e+03
-1.061072359044207587e+03
-3.291303696131761285e+02
-5.082350300600499970e+00
2.481343387307460375e+02
8.365250275751004665e+02
1.225058550912234978e+03
1.056664788760811007e+03
1.356572994137725800e+03
1.239698856633453261e+03
9.669187670806089727e+02
1.188234956734944035e+03
1.154586176757597968e+03
1.092954464889655810e+03
1.027311218878497584e+03
1.144651821277312820e+03
4.830175959779122081e+02
