-1.487266590583910329e+03
-1.520462622671396105e+02
9.056668292210919162e+02
7.488794241223916970e+02
5.056411005881578831e+02
7.960994972804026126e+00
-3.919092295946688864e+01
4.791660281343569636e+02
8.349601850212799263e+02
1.197140542439910860e+03
1.602707232779293918e+03
1.634705764277404342e+03
1.618087975146541794e+03
4.958607257063773659e+02
-3.809434405197181945e+02
-1.235350951888216514e+03
-2.025389253857899803e+03
-2.134078872298299302e+03
-2.076448088861765882e+03
-1.813522272514133647e+03
-1.135272317231090483e+03
-4.576884078789614705e+02
7.332486772147452712e+02
1.001545415657228659e+03
5.792449524896613866e+02
3.173414883728968334e+02
1.727961646067187189e+02
4.495319029754463713e+02
7.404778105682617024e+02
1.083574739017490629e+03
1.484709870640629106e+03
1.487151380773550727e+03
1.528876515417050541e+03
7.519819963820486919e+02
-5.737434504122536509e+02
-1.478430030654593565e+03
-2.102981136589080506e+03
-2.431196685612125293e+03
-1.939394337289111263e+03
-1.345395771405033202e+03
-7.544075631961469526e+02
4.878772605234382098e+01
8.391073025601915560e+02
1.057423948470565392e+03
1.067991352859578228e+03
1.014503196119482595e+03
9.191091267126085995e+02
1.093898527347095978e+03
1.200674183859557388e+03
1.299343483810180714e+03
1.492017073010227023e+03
1.676530656831958595e+03
1.193073084610567776e+03
9.236693422645670637e+01
-5.234241211808777052e+02
-7.431597725395419047e+02
-9.310959745996891570e+02
-1.231110585689700883e+03
-1.432369268202134663e+03
-1.043898802692349591e+03
-2.206856549352094703e+02
6.021395901640498778e+02
1.392845513557087770e+03
1.921240535939442225e+03
1.839419134101662848e+03
1.253528004536198978e+03
1.107411666107650944e+03
1.159127089999231430e+03
1.270681795341177349e+03
1.355917523479142801e+03
1.547756310670493349e+03
1.728214623608314696e+03
1.621315722497991828e+03
1.043030753916643107e+03
2.163470518157784568e+02
-4.377598279339090936e+02
-1.028328537055243260e+03
-1.236401882002448701e+03
-1.115029615065578128e+03
-7.791796935208071773e+02
-1.018389236556890864e+02
1.021031418527229789e+03
1.867428009378214256e+03
2.060376849940959801e+03
2.009916093736679386e+03
1.353050612622253766e+03
8.617725627264138666e+02
1.102020907134428626e+03
1.237170545687038441e+02
-1.527150643445010701e+03
8.540626491318528224e+01
2.394415280085742324e+03
1.689899331826426078e+03
-2.263166693992394357e+03
-2.441778878391676244e+03
-6.048936275483675900e+02
-1.614567871297401780e+03
-5.360830286094894291e+03
-2.878722528394595429e+03
-7.971898389609605147e+02
-6.912218972213732968e+02
-2.785772872864338751e+03
-4.098836004647372647e+03
-3.989382438754985287e+03
-3.986392545683058415e+03
-3.993817629301122906e+03
-3.875664263198979825e+03
-3.634963885200471850e+03
-3.505746182788512670e+03
-9.720369683386295492e+02
2.298149577933102137e+03
1.541802442247080762e+03
-2.099010730656167198e+03
-3.645281233002635872e+03
-3.109984816265561676e+03
-2.087104693184311145e+03
-4.772658278035401963e+03
-5.842679931578743890e+03
-2.888209791452498393e+03
-1.074191826657521005e+03
-1.105564819003885901e+02
1.189698039517405505e+03
2.025615675436095898e+03
2.810208733600731648e+03
2.883523502944036863e+03
2.288585816502930811e+03
1.957423087443499071e+03
1.825026632607768079e+03
2.054324320905691366e+03
2.386280234743122946e+03
2.713908184301621077e+03
2.994272422763835038e+03
2.855398751931855259e+03
2.411325325025726670e+03
1.189048818171198263e+03
1.356509219253051235e+01
-7.631171361026368913e+02
-9.420148986129613604e+02
-6.861615212370625159e+02
-5.385212105361894146e+02
6.494804446441966661e+01
9.443017061590602452e+02
1.897549312783210098e+03
2.242748317449545539e+03
2.174889893679013767e+03
1.895948444884615583e+03
1.686941352403086057e+03
1.633934512263547276e+03
1.886004158733398299e+03
2.138190098331622721e+03
2.320512181831829821e+03
2.153003200563391147e+03
1.865695061911147150e+03
8.635507054933494828e+02
-3.463810716233732592e+02
-8.120659715831509402e+02
-8.672543855527693495e+02
-1.182145207644869288e+03
-2.002834979465238121e+03
-1.268055419949357429e+03
-4.730799599197300722e+02
1.861896883597682404e+02
1.239841735651082672e+03
1.847993931924874005e+03
1.815338299161677469e+03
1.481027947125395485e+03
1.279253206517122862e+03
1.129950579130637607e+03
9.870689502319152098e+02
1.037354656669661381e+03
1.053949795976842779e+03
1.313095464611918942e+03
1.463591752569731398e+03
8.893991746537628842e+02
1.495092369019697331e+00
-4.781701862603039217e+02
-9.216015037025288166e+02
-1.071871101053300890e+03
-1.583060666544242622e+03
-1.760243126960705695e+03
-9.212929288042562348e+02
1.678377683168739054e+02
1.021201404008312466e+03
1.456804387459607824e+03
1.420642911083767785e+03
8.797639073001932957e+02
3.401814122648691523e+02
7.781151768827997728e+01
1.665851875220970157e+02
7.695024501469665665e+02
9.456613119800261984e+02
1.362084031586057790e+03
1.482762587236704348e+03
1.079687497374214445e+03
1.285969228728732006e+01
-5.877511927875796118e+02
-9.372259632758833732e+02
-9.706333261910205010e+02
-1.073038601289641065e+03
-1.329451624553331612e+03
-1.003789770749624722e+03
-2.429965917064700704e+02
4.319499834389928310e+02
7.030708801756734374e+02
4.973550267878678142e+02
5.227724232326957008e+02
3.243297578250719084e+02
3.320536924405816421e+02
8.058613255008706346e+02
7.887540678484378986e+02
-2.824793866699441836e+01
6.198905161548268552e+02
1.326155383623484113e+03
-5.704483348691469473e+02
-5.554907906719919083e+03
-6.891272063892042752e+03
-7.367580481523693379e+03
-7.528872223705181568e+03
-7.796238727115967777e+03
-7.733727038997117234e+03
-4.930258696332753971e+03
-1.216773832253899855e+03
3.757858429756114447e+02
1.663454249913367448e+03
1.589200812227221377e+03
1.506043889887131172e+03
1.038972186468852215e+03
1.189925160865762564e+03
1.241850114789067447e+03
1.542756058878157546e+03
1.865683978616736113e+03
2.503639746246180948e+03
2.463669630650488671e+03
1.679728770688365103e+03
6.648441435371141779e+02
-3.790298069687562474e+02
-1.080942925762292816e+03
-1.499933020074402521e+03
-1.915100403299397612e+03
-1.673466837847888655e+03
-7.559512530470148022e+02
2.484885582801776422e+02
1.255936126500028649e+03
1.729452267866505963e+03
1.541968310328990128e+03
1.415500798605520686e+03
1.351040373671108455e+03
1.219595217165084705e+03
1.356111885300983431e+03
1.287563099406941319e+03
1.532034886023516037e+03
1.759567554921327428e+03
1.780149266818893693e+03
1.239773016244526843e+03
4.284557680904753738e+02
-4.138470546356966224e+02
-7.411545508032814951e+02
-7.864533481230081406e+02
-9.858958592030649015e+02
-1.124513058790384775e+03
-5.401974596439443985e+02
4.011015195906221038e+02
1.243459628168026484e+03
2.130841089822386039e+03
2.315256317931803096e+03
1.897758689748694223e+03
1.457372324248517543e+03
1.664070871125702297e+03
1.333833915768650741e+03
1.123607981397165759e+03
1.456469883062701001e+03
1.632466329311462914e+03
1.596612926813176045e+03
1.392939541228077815e+03
8.593791946276061253e+02
-6.011921696500640877e+01
-6.765657265334984913e+02
-1.182742201887141164e+03
-1.403820382121937882e+03
-1.437922780291617528e+03
-6.779570183962480314e+02
4.041612054375898992e+02
1.430444611541691529e+03
1.829924039621842894e+03
1.510572201121418857e+03
4.284539866742960044e+02
-2.451422662450902862e+03
-2.043080566100199576e+03
-1.653513845332577148e+03
4.922093677947229367e+02
3.801338993458151094e+02
-1.473636266690204820e+03
-2.247085609153424684e+03
-7.821247414589358016e+01
-1.733041136144650636e+03
-1.028640017279247104e+03
-2.950033392454214663e+03
-2.019230796024993651e+03
-1.812283511345143324e+03
-3.206236949301219738e+03
-1.045993949610058053e+03
-2.539506795021958169e+03
-2.045766023435606257e+03
1.522534533331486557e+02
3.396113316777907016e+02
-5.436839186153325727e+02
1.843845347219096595e+02
-1.060211096858392239e+03
3.505115899089244635e+02
-1.683485231862607407e+03
-1.685174640797927168e+03
6.174582530850628928e+02
6.341420581683028956e+01
1.385696014484696434e+03
8.933111618248560717e+02
8.629410269135354383e+01
-5.434322815968164377e+02
-3.089939885010472608e+03
-2.238281058512849086e+03
-3.777483821153240569e+03
-4.207503600870134505e+03
-2.421283511768003336e+03
-2.215785872336620287e+03
-9.219951321041961592e+02
1.065078873249012076e+03
1.508456931255012023e+03
1.127185597742505024e+03
1.062201950264020979e+03
1.504459088417540670e+03
1.832900476595555119e+03
2.249544213736461643e+03
2.603435402971843814e+03
2.660631137688744730e+03
2.262153831807413098e+03
1.154934789690805019e+03
3.199278338291504724e+02
-4.538729481636004834e+02
-7.825433176914007163e+02
-1.164254465302187782e+03
-1.190105583402758157e+03
-5.780140588602012031e+02
3.713042648789221403e+02
1.572943354317031890e+03
2.316890236621773511e+03
2.201051459149851780e+03
1.947563716728077679e+03
1.505521098420850649e+03
1.384657053019853038e+03
1.605846558583908063e+03
1.554301849000133188e+03
1.569190129933944490e+03
2.251211822994364411e+03
2.309188391933373623e+03
1.964440471616686864e+03
8.903390340739435942e+02
2.772898872946238384e+02
-4.070555778233402862e+02
-6.705879802438370234e+02
-9.738582859629623272e+02
-1.010984738228609217e+03
-8.453493381955740915e+02
1.132177289990134028e+01
9.500176596605725763e+02
1.627720061264084052e+03
1.989426041566972572e+03
1.992160189962407912e+03
1.691700953603088465e+03
1.032958651751774141e+03
1.062344027644360267e+03
1.108814049947938656e+03
1.401909793924609176e+03
1.902512956931661620e+03
2.164828581573870451e+03
1.861376426940838428e+03
7.248316057696507642e+02
-8.734788527420342064e+01
-2.870124352400201815e+02
-6.992017561037550877e+02
-7.710664815405858690e+02
-8.726757174948755846e+02
-5.130280580764666638e+02
1.449929191317458788e+02
1.218414380248457292e+03
2.304226374019158811e+03
2.470461892611079747e+03
1.972072741392106764e+03
1.337034052204230875e+03
1.264345168126167437e+03
1.351969711081026162e+03
1.830843537556800811e+03
2.206968012780429945e+03
2.438393476236349670e+03
2.672161361390374168e+03
2.527272594338254294e+03
1.643668794760189485e+03
8.132842270550712556e+02
1.371278188414362376e+02
-1.438699436686094373e+02
-5.928065236963469715e+02
-5.527109128036800030e+02
-8.565234284578149300e+02
-1.859181761513133097e+03
-3.142660026146572818e+03
-4.080903747695722359e+03
-4.419940485477093716e+03
-4.516794647442366113e+03
-4.590415962396417854e+03
-4.437819923056064908e+03
-3.996984973960784373e+03
-4.194949375665151820e+03
-3.948691886444350530e+03
-3.330185976864586337e+03
-2.698446813193667822e+03
-2.172481500835560382e+03
-3.073240141265067905e+03
-4.329649509226613191e+03
-3.685828188948799834e+03
-7.288018762556042702e+02
-6.156051470076386067e+02
-2.241294194580344538e+03
-4.864819916925246616e+03
-5.944075915415878626e+03
-4.775978044360198510e+03
-3.805556065571501222e+03
-3.442769328224653691e+03
-3.122537165161094890e+03
-1.931852252777715421e+03
1.002275632039491484e+03
1.931825663487748898e+03
2.350780487164711303e+03
2.820157132566180735e+03
3.026060173654629580e+03
3.240497467968445108e+03
3.236530594868368098e+03
2.559171072635265318e+03
1.290461958851717100e+03
5.543887569092561307e+02
-1.021144685886779229e+02
-5.810851137404276869e+02
-7.015457569292035487e+02
-5.064322481245066569e+02
2.703506429066986811e+02
1.694900540175719698e+03
2.640251664390185852e+03
2.737458792325098784e+03
2.255571420056169245e+03
1.996595430815041254e+03
1.972570642990978968e+03
2.035471080287187760e+03
2.173304599893545401e+03
2.184099835438841637e+03
2.484955114336766201e+03
2.566897380324945971e+03
2.191966013418007606e+03
1.388134765758996082e+03
3.874700020561491556e+02
-2.649674854521859402e+02
-6.412177502838757164e+02
-8.533179987354079685e+02
-8.072968239491736995e+02
-7.461106122918280334e+02
-2.036402047714205992e+02
5.811654529738334531e+02
1.670354015339810076e+03
1.804965811717730503e+03
1.570033753242790453e+03
8.966155026779001673e+02
7.237638246411586351e+02
8.163340719598556916e+02
7.253926285075381202e+02
9.342824281726904019e+02
8.813981261111825916e+02
1.016695610901658711e+03
1.179851890427057697e+03
5.796352377298771898e+02
-5.157016641936024826e+02
-1.260028278090160029e+03
-1.815507589565327862e+03
-2.271255432475494217e+03
-2.102307199364760891e+03
-1.774734205603446298e+03
-8.023876475737129113e+02
1.857599835628232938e+02
9.158032930209126334e+02
1.303755643505458465e+03
1.096640080564805885e+03
4.324726803537602677e+02
-6.273920358399311681e+01
3.749461652524558417e+02
5.575389858344091181e+02
8.330790008255664816e+02
1.075584168106059224e+03
1.261118366287485287e+03
1.362713235981319485e+03
5.034089883803086423e+02
-3.277763031281200483e+02
-9.059836204398278596e+02
-1.692269874399395803e+03
-2.203677100136598256e+03
-2.097252023445662417e+03
-1.949984319759881373e+03
-1.541787874657055454e+03
-1.042636035044559094e+03
-2.685046566219139663e+02
1.317174147202429140e+02
2.440017499891438320e+02
8.735413612591310084e+01
-1.212557373644766585e+02
1.391118115088582954e+02
2.684513478905973898e+02
6.197649838964354103e+02
8.880096809904101747e+02
9.392084289935231709e+02
1.200394564456488979e+03
8.625181601259455419e+02
-4.845228857941695821e+01
-9.815143758779641985e+02
-1.697745436652959143e+03
-2.011263085598667203e+03
-2.614142932788368853e+03
-2.629380444182826523e+03
-2.024893664694875497e+03
-8.756457253573970547e+02
2.893822098238393323e+02
1.035128825410866739e+03
1.055634511918271073e+03
6.658609750039943265e+02
7.227914298802101030e+02
6.904256707246181577e+02
8.196751368951573795e+02
5.534653089219177673e+02
-4.601101305231651963e+02
-1.748038637223908836e+03
3.155499765241137311e+02
5.616451970971522769e+02
-1.678298553042305912e+02
-7.158999263892627596e+02
-1.133663093270916988e+03
-1.544212968297347970e+03
-1.684658406845366699e+03
-1.902026260784892884e+03
-1.257269664845359102e+03
-2.743962540041624152e+02
7.239487322391134967e+02
1.595489518694406797e+03
1.661412992819704414e+03
1.245370820120980397e+03
1.185354538347618700e+03
1.388774928716711429e+03
1.686240310295281006e+03
1.838418448414389786e+03
1.927618687567752886e+03
1.902667503385614054e+03
1.839837314561837957e+03
1.384645888211347938e+03
2.684879686613088552e+02
-3.407550042847639133e+02
-7.252720890458856502e+02
-1.259092302489937765e+03
-1.746321559306242307e+03
-1.263302940960259548e+03
-6.248021090602262575e+02
4.085364968210686243e+02
1.438247459909645386e+03
2.522535052862324847e+03
2.526455142063226049e+03
1.952891806288899488e+03
1.706845278897501885e+03
1.719058812549134018e+03
1.752767296599629162e+03
1.713618376319710706e+03
2.229795375973072169e+03
2.498121832839559374e+03
2.503913190130459498e+03
2.021253831567137695e+03
1.214739373772962153e+03
7.454725299220281158e+02
3.624266910387850089e+02
-2.375367136052997523e+02
-3.645517993677992763e+02
-4.257172194671754824e+02
-6.005231383096257503e+01
1.160715517047748790e+03
2.054546534048358353e+03
2.650375540628045655e+03
2.360238845714771742e+03
1.698076433142790393e+03
1.103813942210818141e+03
1.258458149099614275e+03
1.800030139522150648e+03
1.946472425331434579e+03
1.968810570348606234e+03
2.383060299833186946e+03
2.510262768552028319e+03
1.087384583440235019e+03
-2.112573373177460326e+03
-5.538646519099837860e+03
-5.956941776236054466e+03
-5.816446768403157876e+03
-5.697212885938059117e+03
-5.998229325265103398e+03
-5.750385953851074191e+03
-5.059672342940558337e+03
-4.184065739530947212e+03
-3.319530262906949247e+03
-2.099102562842001589e+03
-2.286685950141307330e+03
-3.027205138543503836e+03
-3.834765602379316078e+03
-3.067370736453152858e+03
-2.009583809808569299e+02
2.007510770948309755e+03
2.540180910126724427e+02
-2.079365044504613707e+03
-1.041576077010799054e+03
-7.725618436014258350e+02
-4.329397840748904855e+03
-4.733054733416748604e+03
-5.154577762034783518e+03
-5.533077813002871153e+03
-5.593563654226378276e+03
-5.096936398242185533e+03
-4.270129919983469335e+03
-2.510051931782445990e+03
1.892390305872534782e+03
3.313274631453216898e+03
3.296419783710280171e+02
-2.737521094262740007e+03
-2.590247097340839900e+03
1.088444255194046946e+03
2.709608088717289775e+03
2.081322105986714632e+03
3.236629287339350867e+03
3.930571262162383846e+03
3.658182738054811580e+03
2.372506696390064462e+03
1.183610999252306783e+03
9.274762330796314700e+02
3.930929365057040172e+02
-4.960508343262150532e+01
2.523132026563453962e+02
5.909463863334568714e+02
1.089427029511274895e+03
2.040816928446449538e+03
2.992147506820043873e+03
3.027473923781281428e+03
2.851860103763806364e+03
2.409365077208417460e+03
2.321958444697511368e+03
2.569636102695245427e+03
2.754418916190229993e+03
2.710426007432007282e+03
2.886711633586911830e+03
2.878332212706197879e+03
2.101258561020024899e+03
1.131549257959785109e+03
3.302235178503503903e+02
-1.656302999418881825e+02
-6.818850838259296552e+02
-5.125374425404096428e+02
-5.416893854278692970e+02
-5.534087825043570774e+02
2.463458875807548054e+02
1.029652915633318798e+03
1.946722671479427618e+03
2.339643981131599048e+03
2.110523332133846907e+03
1.584364328091772222e+03
1.223053762969195304e+03
9.755905587205512575e+02
9.588730937387997528e+02
1.179002911454648483e+03
1.393088143499650641e+03
1.484037698927571910e+03
1.025857213620668290e+03
1.577703918292095864e+02
-6.884323647211475645e+02
-1.071756580985698974e+03
-9.499828153988499935e+02
-1.394411190895781601e+03
-1.611217201202402066e+03
-9.930853159768847718e+02
-1.329500746464127019e+02
5.472741030316209390e+02
1.172431129555279085e+03
1.384417901891612928e+03
7.191601198392115748e+02
5.116677606759494097e+02
3.080449638373413563e+02
5.382997250812119319e+02
9.343499659120392380e+02
1.246077475405305677e+03
1.388544796336014088e+03
1.532800085525233499e+03
1.398894944683336689e+03
5.447973133189555028e+02
-2.945532999101911287e+02
-8.701568894708295829e+02
-1.265098451974285808e+03
-1.864504575991121555e+03
-2.071451317477276007e+03
-1.667867142892523134e+03
-7.966190205543565526e+02
1.153105187984788387e+02
8.459135768474445740e+02
1.214234015111665030e+03
1.028211771105404750e+03
8.088567709918968376e+02
7.630927342002777323e+02
9.929008689876330891e+02
7.732886336077420992e+02
9.331889249629043661e+02
1.375596686838988717e+03
1.609523491617269656e+03
1.598950116818872175e+03
8.438721694177734207e+02
-2.637180981658199244e+02
-9.388368786764837068e+02
-1.283599168842538802e+03
-1.771105208361514315e+03
-2.059488521909618612e+03
-1.793674995198051420e+03
-1.540522042870617270e+03
-1.921934337140756725e+03
-3.340000686985536504e+03
-4.378737467884857324e+03
-4.280210947207579920e+03
-3.331472959326996715e+03
1.244164811594348379e+02
2.392834246750010152e+02
-3.084634077633250399e+03
-4.175384766390633558e+03
-3.621945525346949580e+03
-2.014385031458103867e+03
1.182554855087988557e+02
4.499290377641563055e+02
-3.793859558399931302e+02
-9.367547695861237571e+02
-1.582200014738036998e+03
-1.831819245690402568e+03
-1.565700236614586629e+03
-1.215806215588135956e+03
-4.200922842802658579e+02
6.254647171045039613e+02
1.431853268878840936e+03
1.757074289133908906e+03
1.616188809216383106e+03
1.005185050653092389e+03
6.730273836165663397e+02
7.226482855015275391e+02
1.446959236814551787e+03
2.470933688431709470e+03
2.406595717188216895e+03
2.407993138645073486e+03
2.161197449899273579e+03
1.442124682195852984e+03
2.536824078346294300e+02
-7.501114121673027739e+02
-1.646358089385526682e+03
-2.410164500404873706e+03
-1.848587780868252139e+03
-1.189512610206290219e+03
-4.099740232969672888e+02
6.280738260757552780e+02
1.245668128398839599e+03
1.894777097625904162e+03
2.192479509364834939e+03
1.590788377598312081e+03
1.042665331834819654e+03
1.439095304838422862e+03
1.707006002144178865e+03
1.615414592947246547e+03
1.807362535215987236e+03
2.085921893149119114e+03
1.634154817799947978e+03
3.679739848242428479e+02
-6.186323496916959357e+02
-1.056718740820378571e+03
-1.523320879585325429e+03
-1.710525208406482989e+03
-1.840379534898530437e+03
-1.723859740840748373e+03
-1.743867228709382516e+03
-1.020316534887936086e+03
1.868125602337554767e+02
6.135378448858127740e+02
2.368602030438293866e+02
1.053837710880279474e+03
2.071537676549404750e+03
2.045064019755580148e+03
2.280097700591871671e+03
2.147690835260278618e+03
2.276936365115417630e+03
2.516892108934646785e+03
2.595588143536463122e+03
1.839028929420618852e+03
4.361883644869843124e+02
-1.038892727776653601e+03
-3.700275368073942445e+03
-4.123986241732707640e+03
-4.871127308076224836e+03
-2.490693873271630764e+03
-1.640541731610625220e+03
-2.454622189818935112e+03
7.620545202835816099e+02
5.245742360583675463e+02
-5.740262880353346873e+02
-1.234653111417057517e+03
-1.580315635425042046e+03
-6.920750480442742401e+02
-3.023916620844712270e+03
-3.678830278650049763e+02
-1.678950568345246666e+02
2.030130760620052342e+03
8.842190565157375204e+02
4.773658672123243605e+02
-2.261413774522203767e+03
-3.850152164669832018e+03
-1.546875910022274866e+03
-3.155614641454120829e+03
-4.143352792332981153e+03
-1.090094244236205213e+03
-2.457745554570548848e+03
-1.777296999063450585e+03
-1.265721520536045318e+03
2.650574778356569823e+02
-2.779185084729350592e+02
1.514237253655306574e+02
-2.090981395869529024e+03
2.821304717380949345e+00
1.658821063945262949e+03
1.864114691465963460e+03
1.165737638318585141e+03
1.200710423947566369e+03
2.305100399583667695e+03
5.718813126353261396e+02
-1.368982421985006340e+03
-2.629523213938222852e+03
-1.419790210044580363e+03
-1.163858035238863522e+03
-1.303762834538554898e+03
-1.244548334773824223e+02
6.811883643466636613e+02
1.002213224298649152e+03
1.706635990615441642e+03
2.784376459916196836e+03
2.875473813606839030e+03
2.428006621670735512e+03
2.183001860855797531e+03
2.374377224608276265e+03
2.539014236145321320e+03
2.649994753568671968e+03
2.656603634993575724e+03
1.925135389327609801e+03
1.773430965873433252e+03
1.396428911542252990e+03
7.671651160488783034e+02
5.887376730120972752e+02
1.798465007154896682e+02
-4.743193257292021485e+02
-6.650265185913899586e+02
-1.219089410750372281e+03
-9.895328847214789221e+02
2.906028011848165420e+02
1.058459491115793298e+03
1.176175046740498829e+03
1.500300520546398957e+03
1.194830048628172108e+03
5.305289134965979656e+02
1.655766370760466941e+02
6.699521217060209892e+02
1.689250828322140251e+03
1.856470511184322959e+03
2.456341334663797625e+03
3.203481059169005675e+03
2.570915309000215530e+03
1.204681451595797853e+03
2.977127168083213746e+02
-6.710932137316020771e+02
-1.387783725249501003e+03
-1.946587379589950615e+03
-1.272829975248274195e+03
-2.061159087591936157e+02
8.730150232112812319e+02
1.708197833283956015e+03
1.891137536127670501e+03
1.824858583714941915e+03
1.242454352425544585e+03
7.271466172204334271e+02
7.518334560384885208e+02
4.864523949922198085e+02
6.198828538645987010e+02
1.263093371566505311e+03
1.912089683120754444e+03
2.644796153547722497e+03
2.887205114379290080e+03
2.040349998362584984e+03
1.028141659491769815e+03
3.454411048052803608e+02
-4.728806738769647495e+02
-1.048908974258888747e+03
-1.311649385145450196e+03
-6.849607812843951251e+02
5.092815387073309239e+02
1.041144534870023108e+03
1.252553394971275793e+03
9.234172892453275381e+02
7.647346523389480808e+02
6.854972339250354025e+02
9.026357824535878080e+02
6.120172050764499545e+02
3.546956267423555005e+02
3.726637863317618553e+02
8.469630120935266859e+02
1.939652329664823583e+03
2.362708280491662208e+03
1.103125626248623121e+03
-1.401074061030079747e+03
-4.195972569874113105e+03
-7.046647812410265942e+03
-7.747138314352390807e+03
-7.287491502772746571e+03
-6.157612461474514930e+03
-4.434465951557599510e+03
-3.601077834382906985e+03
-2.602380064985165973e+03
-3.013384873549471649e+03
-3.998090137745683933e+03
-4.656485977844415174e+03
-4.988565847769414177e+03
-2.331327040231009050e+03
1.453265061006189399e+03
8.982370740953701898e+02
-1.831429509288631834e+03
-1.031775289159645581e+03
-1.915773923132595201e+03
-5.653403623624591091e+03
-6.445731118904762297e+03
-6.545754500271165853e+03
-4.250454122559555799e+03
-9.838519811282683349e+02
-3.975830824311712419e+00
-2.277232467723918603e+02
-1.859820033735377649e+02
1.216206815556523679e+03
3.266002053985752809e+03
4.559498200465935042e+03
3.692677707907795593e+03
2.601541811648359726e+03
2.305130392024236698e+03
2.685387560567505261e+03
2.881305822793465268e+03
2.723946389231942248e+03
3.069164051077127624e+03
3.266031698092900569e+03
2.922695611510800973e+03
1.347260799095089851e+03
-2.842683967674827272e+02
-9.879958390177404226e+02
-1.316946470426116548e+03
-1.439111733968899898e+03
-6.345514140072190230e+02
-1.352041060807359258e+02
7.770046994312447168e+02
1.471123582692152922e+03
2.170319207208899115e+03
2.901630185224913475e+03
2.482150902015256634e+03
1.663922032925898066e+03
1.231861600974217254e+03
8.679035879792362493e+02
7.580302889346193069e+02
1.110292034839188091e+03
1.710816244516966208e+03
1.791766836994720506e+03
1.249181471923231356e+03
-4.539334118850110258e+02
-2.160448594610528744e+03
-2.395312324337267000e+03
-1.610597352380694929e+03
-1.121375075161987525e+03
-8.849307408231305772e+01
4.181981775650541522e+02
1.033000053077855455e+03
1.028848795696041634e+03
-9.679235802388018328e+02
3.798434631461663002e+02
8.218436207495904000e+02
1.271994720879004262e+03
1.334261091002267904e+03
1.197472920522229742e+03
6.578234165641760001e+02
6.814114228651097847e+02
3.691207000253838828e+02
9.249795091769701685e+02
8.691633737094506387e+02
-2.072796842535717303e+02
-9.776717233209786855e+02
-1.679210413193029808e+03
-2.625933207459413097e+03
-3.738972781009828395e+03
-3.847531337968560820e+03
-3.029484520529176280e+03
-1.707725812034691899e+03
-2.171454763885255090e+02
9.812845445709359637e+02
1.433536152481504814e+03
6.545785276482354220e+02
8.535276514735663511e+00
1.826657274681427339e+02
1.251090661380589154e+03
1.751877848354976322e+03
1.915948867014004463e+03
2.704392811644915582e+03
2.831247999076034375e+03
1.855456120098126121e+03
4.219278859985362828e+02
1.565816246469917132e+02
-8.355517685029225277e+02
-1.660465395306436221e+03
-2.212349906075016406e+03
-2.782397571993085421e+03
-2.393824226783279300e+03
-1.318602779563012064e+03
-4.453571694579889026e+02
3.030436989624215016e+02
5.233371856490625760e+02
3.774887771140444102e+02
-4.528026641676723330e+01
1.609149117301076615e+02
1.343453282147238497e+03
1.895005556538526889e+03
1.960606185656397884e+03
1.807311860707967298e+03
1.857144470485415468e+03
1.494405098290354090e+03
6.182409689162046789e+02
-4.523011252473222044e+02
-1.225168747252220555e+03
-1.632226241977480640e+03
-1.547488726378529236e+03
-1.429549306068172427e+03
-1.226851504914496445e+03
-7.518693077828859259e+02
-3.685644987579187273e+02
8.305176883780366097e+02
1.478367129118977800e+03
1.171612748269378926e+03
7.562381968114762003e+02
8.852734351242380626e+02
1.300625252450938888e+03
1.589459240168410588e+03
1.605016737305106972e+03
1.882260767210566655e+03
2.190138612176134757e+03
2.618946985961992596e+03
1.759447806134076245e+03
5.994984905741420107e+02
1.706413959723664959e+02
-5.532007014349329665e+02
-1.595915963246372485e+03
-1.652760057944997470e+03
-1.295408661749124121e+03
1.672953332583571182e+02
1.611347251954716057e+03
2.186747511921813839e+03
2.823358582955032489e+03
2.219535444976760573e+03
1.333012458989967172e+03
1.465886499313238801e+03
1.849743865439573256e+03
1.725663190300857877e+03
1.436550676245524755e+03
1.454514858791032566e+03
1.189394372225122197e+03
8.649605103109041693e+02
7.276123166623495990e+02
6.143130681207173893e+02
5.056384637251925938e+02
-5.091291958042812666e+02
-1.443269145917485275e+03
-1.526729918814452276e+03
-1.245304041739226022e+03
-1.238922926014154058e+02
8.483055184803431530e+02
1.066797516173185613e+03
7.183431873762663145e+02
8.558765182733670827e+02
7.964747395131241774e+02
1.037254875724479234e+03
2.154893301491135389e+03
2.679960202933878008e+03
3.146765600065757098e+03
3.212480428761421990e+03
3.008130961923628547e+03
2.766551967013542708e+03
1.762747665897115894e+03
9.708072372956510208e+02
6.726615250416823528e+02
3.023045683994116075e+02
-1.372650064981837943e+02
-1.177116957918404296e+03
-1.471243580205751414e+03
-1.105481532441325271e+03
-3.977369097569472274e+02
-2.129972061725567869e+02
-2.005223500545070237e+03
-5.145389898414450727e+03
-7.803467833316939505e+03
-8.188357775502438926e+03
-8.145034161206979661e+03
-8.352560692777346048e+03
-8.015905847167883621e+03
-6.555010504723917620e+03
-8.369837543514227946e+03
-7.172329534133026755e+03
-8.990404481359657439e+03
-8.237113477564173081e+03
-6.763359271141842328e+03
-6.754934444438692481e+03
-5.255039044306367032e+03
-1.369710590395425697e+03
-9.058316255354368423e+02
2.842631177653922805e+03
4.540742679712675454e+03
5.201608487818037247e+03
4.763301082347220472e+03
2.201749371291919942e+03
-1.558021483796264647e+03
-2.619231251514439691e+02
-8.879852552988004390e+02
-1.139230731441006583e+03
-6.435158822472328666e+02
-3.316881028035440409e+02
-3.687322539162857993e+02
-1.705854288119069224e+02
-1.467162433258056126e+03
-3.664436314736808981e+03
-2.916421953000924077e+03
-1.361022369852071563e+02
-2.605558145750261247e+03
-6.601824296604709161e+03
-6.486786794121228922e+03
-6.227317675687354495e+03
-4.762285973780804852e+03
-1.932576536881083939e+03
8.918463294310990932e+02
2.063026614965266162e+03
2.052055346924244077e+03
2.196976161544653223e+03
2.465781414748058523e+03
2.609444548440694234e+03
3.598990391380609253e+03
4.760512076161382538e+03
4.711114367094685804e+03
3.390821984281115874e+03
1.468710838092266613e+03
-5.411193602439286678e+02
-1.716658132583340375e+03
-1.424973601685280983e+03
-2.171178407392190763e+02
8.179500659387316546e+02
1.472273926079913508e+03
2.530971864423859188e+03
3.779138393846782037e+03
4.884757101408095878e+03
4.390879208355026094e+03
3.752532807107624194e+03
2.519720344005414063e+03
1.629466425772253842e+03
1.665741259901327339e+03
1.346447915971389421e+03
1.737421946709325994e+03
2.497752136813461675e+03
2.420685968755865360e+03
2.335543645288856169e+03
1.969392430415532772e+03
1.270076163497059042e+03
1.401501624804277981e+03
1.425576535693319556e+03
6.232331622410099499e+02
6.304007142680134166e+02
4.739411769495243334e+02
4.901406746648854096e+02
9.101354569979694134e+02
1.548835196955889614e+03
2.249153547922949201e+03
2.898823542292014736e+03
3.370701771657897098e+03
3.374903586637685294e+03
3.014567311403722670e+03
3.352332948433155252e+03
3.276393855858662391e+03
2.197941214593706263e+03
1.668715294153046216e+03
1.575577608635310526e+03
9.333681539078716014e+02
-4.288877386601065496e+02
-1.314221542604078650e+03
-2.186836284594050085e+03
