9.389827530004974960e+02
1.178440623777625433e+03
7.251523815197253953e+02
-4.459448695550573802e+02
-4.238702686000078756e+01
7.057120958414614051e+02
1.146447775082807084e+03
1.113945604628068395e+03
1.142936024442446069e+03
1.162405955161777001e+03
1.213016206350820312e+03
1.007326371609463763e+03
1.093237466740407626e+03
1.409665941107853087e+03
1.513676833069856684e+03
1.660994538896318545e+03
1.768836958965309350e+03
1.673933559955640703e+03
1.696610653668710938e+03
1.769239204368170704e+03
2.029278677722592647e+03
1.929047308159367503e+03
1.556011277508441253e+03
8.942593615695824383e+02
1.466857928950737005e+03
1.792646773577987915e+03
1.744597679909190902e+03
1.851708391506273301e+03
1.815975442094574419e+03
1.637424929913818232e+03
2.073934938051395420e+03
2.354555522536374156e+03
2.735261915374142973e+03
2.869080376147020161e+03
2.004012162602229182e+03
1.899051538687192078e+03
2.883154973519751366e+03
2.746317203951814008e+03
1.802581733608491959e+03
1.016874218865742250e+03
1.692257079238841868e+02
-6.763743627823761244e+02
-3.404965619007833993e+03
-5.715545809876599378e+03
-5.581113358889458141e+03
-3.808684857014382942e+03
8.706892990058616988e+02
1.837980865656646301e+03
-1.552541890384140515e+03
-5.526027967620683739e+03
-5.095420829525526642e+03
-5.483785043002249040e+03
-5.585157958008286187e+03
-5.748464468932156706e+03
-6.427741264419261825e+03
-6.894983516749863156e+03
-6.555191572634855220e+03
-6.271353026469798351e+03
-3.060407383707263307e+03
1.832648369033774316e+03
1.151811963632760126e+03
-2.315891007090750009e+03
-1.866412139447173558e+03
-4.619625256389706919e+03
-5.258599898966337605e+03
-5.301409290045501621e+03
-5.102886993342991445e+03
-5.072068009376081136e+03
-5.224054321866357895e+03
-5.182868253050309249e+03
-5.187427367792404766e+03
-4.599583565233537229e+03
-4.339285997569619212e+03
-3.958572874121169207e+03
2.546183939022906486e+02
2.526261616009734553e+03
3.504396076323440866e+03
3.079127497989353742e+03
2.736353599693029992e+03
3.139066927260062130e+03
3.505310776180990615e+03
3.179081306793376825e+03
3.010418528063722988e+03
2.724471158540512079e+03
2.480314722727148364e+03
2.630878585016375837e+03
2.945079617821527336e+03
3.055977769688432090e+03
2.331628342206274738e+03
1.792157048206528316e+03
2.004628872178194570e+03
2.332950937105332741e+03
2.435110153555113811e+03
2.139150332152067676e+03
2.215166263253455327e+03
2.413203949544476473e+03
1.885341827842657040e+03
1.533620716903141329e+03
1.814943761434830321e+03
1.948321510689715979e+03
1.842777988997554758e+03
1.909389196021997350e+03
1.855209104193443181e+03
1.829746286514535086e+03
1.943063808126566300e+03
1.750015804121941073e+03
1.643629604680137845e+03
1.804501693065414884e+03
1.729778453537564246e+03
1.643695522184257698e+03
1.582307211147698126e+03
2.370751742485617228e+02
-3.353142626232007615e+02
5.873949717313720384e+02
7.819760931705110352e+02
-6.709314929626956427e+02
-3.929699799942730465e+01
8.692162462655118134e+02
8.628002159706601333e+02
9.032374713389179988e+02
6.863107903967609218e+02
1.009999250616946256e+03
1.297581267776972254e+03
9.993167599720558201e+02
8.330271832411983723e+02
7.354473074470955680e+02
6.427842960557107972e+02
3.847842471427732676e+02
3.584819869684761215e+02
1.838978629303222476e+02
-2.250482584617530506e+02
-2.423112750918657810e+02
-3.486962167354211317e+01
3.761753786838357314e+02
5.128290696384682406e+02
6.501436950969715554e+02
4.931750184161190305e+02
1.809573275700278430e+02
-7.254476422248554002e+01
-1.783971342253900332e+02
-3.556194560344908950e+02
-3.742099685895552739e+02
-1.330980016133273409e+02
-1.452532112507531963e+02
-2.197725031032807408e+02
-1.496382023556530783e+02
-4.880044957617694479e+01
-3.512999281874839994e+02
-2.971939027732771592e+02
-7.146598559009055407e+01
2.195953016458503626e+01
1.781183749692374647e+02
6.195753328492554601e+01
1.414136757893510605e+02
2.054385247588886045e+02
-1.921848885871840995e+00
-2.626596666950487133e+02
4.424409104466140974e+01
2.588054273187964327e+02
6.219719892878970313e+02
3.846403959171619817e+02
1.657099489362066151e+02
1.612018710515885687e+02
1.421088442441792097e+02
2.135020631625249052e+02
1.203656956661236421e+02
-9.583336623567981860e+02
-3.494651297643495127e+03
-5.015625140615506098e+03
-1.628219063447367944e+03
-2.974517682765846871e+02
-9.519666193432016144e+01
4.615217822425139502e+02
-1.614335731978540480e+03
-6.646905993577200206e+03
-7.125276298901702830e+03
-4.186428855323724747e+03
-3.103996748846542232e+03
-1.359178294916652249e+03
-9.510135094606717132e+01
5.712893683927970301e+01
2.444519318057997452e+02
2.608966875720384451e+02
2.746491461452508815e+02
-4.332058023990304463e+01
2.249268163406950691e+02
3.713447520909999184e+02
1.607340843127650487e+02
-3.809407402336377118e+02
-5.846114421318912235e+01
3.971054648950786259e+02
2.857054057366271991e+02
4.333965851057245686e+02
4.651403582419056875e+02
2.419257681190831022e+02
-2.022714498191426742e+02
-5.225067468166174649e+02
3.351208320973670993e+02
7.506242594407665365e+02
6.981372231727893904e+02
4.967380205747235209e+02
1.362985093819510496e+02
6.769994288801403570e+01
4.428669970916559464e+02
9.938262843620196918e+02
7.016832099847663358e+02
5.726102612965062235e+02
6.997315346286557087e+02
6.410382587419298943e+02
6.123689293455928464e+02
4.265933623329075317e+02
5.366678998791493314e+02
6.265926423846897251e+02
3.704391751608904428e+02
2.851798645890107764e+02
7.557685418399769333e+02
9.393310960959362319e+02
6.591561744060620640e+02
6.922465965699440176e+02
5.274452030270964542e+02
2.635224086180340919e+02
1.392902938429223241e+02
5.250005114503258028e+02
5.768435927530952085e+02
8.168819522500038488e+01
2.753457417081538097e+02
6.609821053449787769e+02
1.079856511431222998e+03
1.043848580777812458e+03
7.928680699282508613e+02
6.688531042401556306e+02
3.481152423557444990e+02
5.346213392614429267e+02
6.822812767724698233e+02
8.578313618713792721e+02
7.909062468108432995e+02
3.706838266017294359e+02
6.554112849445429845e+01
-1.250488860447004136e+01
-6.703984372820500539e+02
-3.259754145269287164e+03
-3.345178978951016234e+03
-3.335980426608681228e+03
-4.409577816865095883e+03
6.088676461759595213e+02
9.591403414785748964e+02
3.101726585424912628e+02
1.231829070524833583e+02
7.146113474334539433e+02
-4.896929811436953059e+02
-1.242080718641543626e+03
2.414920395062865452e+02
1.732730896479953628e+02
6.408827045356401868e+02
-1.478073034343689187e+03
-8.242389086421145521e+02
-5.121238430073650534e+02
-2.320931178360626745e+03
-1.898892437845970107e+03
-9.317285752891334596e+02
7.394665441670175596e+02
7.843958298184843443e+02
6.330539331957494369e+02
6.804671386740967591e+02
-2.235297971112829146e+03
-3.416952023468372317e+03
3.109002559771224128e+02
9.691830032984635181e+02
1.195855412910412724e+03
9.568640824271794827e+02
9.659021750505570481e+02
1.091839475045161180e+03
1.463766737143379942e+03
1.575621527181909642e+03
8.350123658950235495e+02
-3.578159237764471982e+03
-1.834755077643937284e+03
1.072325600039525170e+03
3.772466038523901375e+02
-1.888689509750406387e+03
-1.498599707601969442e+02
1.225346107641720664e+03
1.228011169455035542e+03
1.108166466523523695e+03
8.404028923445603141e+02
8.779696707941001250e+02
1.154207019380057091e+03
1.347514506272707422e+03
1.504820457579834056e+03
1.388186261957378747e+03
1.450709695922898618e+03
1.530560014140894282e+03
1.356290898400036440e+03
1.259614451897500658e+03
1.336117225337455466e+03
1.186451024146047757e+03
1.091104201897586108e+03
9.422138089932909679e+02
1.345544185987767605e+03
1.371685086764923881e+03
1.061290189694777837e+03
1.016926898790811606e+03
8.117625143188289485e+02
-5.182234057214274117e+02
-5.581721809712054494e+01
7.550467109264321834e+02
1.111165461164887802e+03
1.562343294073212292e+03
1.916886182748786496e+03
1.702064976315273725e+03
1.231028359637147560e+03
1.149791967974463432e+03
8.640854990176803767e+02
5.312294453865382593e+02
5.236696591193092445e+02
4.797276777036099134e+02
6.998361808627283835e+02
1.345429186016626772e+03
8.168343877483761162e+02
7.136076333165776759e+02
1.031777437878329238e+03
1.107807536163073792e+03
1.616161512814285288e+03
1.863520424099326192e+03
1.501557127783868282e+03
1.201152012171248316e+03
7.994241244791230656e+02
6.821858183444671795e+02
5.359848065891168289e+02
5.521846514663847074e+02
8.061680757867308103e+02
3.816970480855084702e+02
8.071256375370832359e+01
8.839260288806293602e+02
7.765426188209701195e+02
7.540414056111860646e+02
7.474539635699433120e+02
4.586710823871939624e+02
2.594536029769514016e+02
4.985922065755318613e+02
2.040578805172395676e+02
1.701747375166474114e+02
3.601658773261216311e+02
5.290874614685768620e+02
1.563100616609931137e+02
7.542340414507405910e+01
3.176240126837085995e+02
3.488845979729474038e+02
2.237141114583698140e+02
-2.354750273480058524e+02
-2.804539078763545490e+02
-2.642816066383281850e+02
-3.121707163927901547e+02
-3.180124796678359758e+02
-2.279186898610190042e+02
-3.318269399432276145e+02
-1.663536292033749760e+03
-3.768050540716346404e+03
-7.515412752090716822e+03
-7.953471011120634103e+03
-8.012314127503097552e+03
-7.914813038041286745e+03
-7.781542344326504463e+03
-7.902451681902565724e+03
-7.999419434138844736e+03
-7.620077505065418336e+03
-7.566737983979715864e+03
-6.560829238231379350e+03
-5.274130982695531202e+03
-9.034255870704959079e+02
9.693644395805691829e+02
-2.060775508806361358e+03
-6.261913097983314401e+03
-6.405243875178397502e+03
-3.982167089276109436e+03
-3.385513440406245536e+03
-6.046390309528726902e+03
-6.721819276238144084e+03
-6.874770482057361733e+03
-6.020972575392461295e+03
-5.169310096166334006e+03
-2.774977623946153471e+03
6.259383498887240194e+02
1.836562763503716951e+03
2.126817514805508381e+03
2.145517701434610444e+03
2.180728397732117628e+03
2.072522154983104429e+03
2.119044351100564199e+03
2.180348707405775258e+03
2.074282851128485163e+03
2.112925894678839541e+03
2.212492769007960760e+03
2.306960965954273433e+03
2.370254116580438222e+03
2.141311099272261345e+03
2.208055688352442758e+03
1.663455615475468221e+03
1.448621031306924579e+03
1.907464463065651444e+03
1.875070741968930861e+03
1.838607143378908631e+03
1.818347325366512905e+03
1.478346719800793608e+03
1.084285076819270671e+03
9.228340503898826910e+02
1.086985577467067969e+03
1.893942664341907857e+03
1.928654136983441958e+03
1.596059696612692505e+03
1.397112525164154476e+03
1.003727510669377011e+03
5.919805904119164097e+02
1.530929711843009272e+03
2.880644459905248368e+03
3.781315728442323234e+03
3.783904470068151568e+03
3.326305921443113220e+03
3.081352003215346940e+03
2.888977224113592456e+03
3.034057962939871686e+03
3.100525159519392673e+03
2.685329511099306274e+03
2.132350101413480388e+03
1.311667980073158787e+03
6.823472963243840468e+02
1.658877871883199191e+02
1.017115112462460502e+03
2.225384411410711891e+03
3.413726447141199969e+03
3.075282027398026912e+03
1.601305441191011369e+03
-1.417692352386217863e+03
-1.948220469612729175e+02
2.035025303842638095e+03
2.810450520636913552e+03
2.667474639595528060e+03
2.227051573327925780e+03
1.639942971145403362e+03
1.697047691359428882e+03
2.536210264105201077e+03
3.817300577385798533e+03
4.256697636386898921e+03
2.929175501476106092e+03
1.658308077486098455e+03
2.155062696218514247e+03
2.927276821615481367e+03
2.465884137204406670e+03
2.663748492423168045e+03
3.266719845917149541e+03
3.604802376331476808e+03
3.822909331313634993e+03
4.187967786099563455e+03
3.163908231293861263e+03
1.975596183345943246e+03
2.462994346290648537e+03
4.114075795103519340e+03
4.549678803202911695e+03
3.487763306114084116e+03
8.423246247705600354e+02
-1.767925133632033749e+03
-3.189158101057214935e+03
-2.904300545092297853e+03
-9.834836817929641484e+02
1.423233078027525835e+03
2.599814474128651909e+03
2.353128572029402221e+03
1.482152544314542865e+03
-4.272510018598850934e+02
-1.294256018647757855e+03
-2.465945951650139705e+03
-4.928439163009461481e+03
-6.302777249497974481e+03
-3.704961066595650664e+03
-4.631056934493965400e+02
1.317783162490720770e+03
1.391785478948274658e+03
-1.434223994696286127e+03
-2.775448315658559295e+03
-2.168954556525802673e+03
-2.373789102570911382e+03
-4.746971613427717784e+03
-6.051613353728370384e+03
-3.880820366458359331e+03
-3.512745578779721200e+03
-4.601243773597504514e+03
-5.323135017504509960e+03
-3.164572312542570216e+03
5.543744165955487233e+02
3.153595859876571922e+03
2.132050194487422687e+03
-4.298282291178081323e+03
-1.026341226775520408e+04
-1.228535165214332483e+04
-1.427208431693935017e+04
-1.654567468418849239e+04
-1.395800551516344422e+04
-6.165935972765705628e+03
5.332427658630518863e+01
2.467782378641890773e+03
2.365552587257300729e+03
9.171551299358209235e+02
-2.436115262279116905e+03
-4.476141319094049322e+03
-5.919362298699168150e+02
3.015422074844874260e+03
2.471082472986170160e+03
2.639088574524471824e+03
6.752264405555818485e+03
6.656738731859665677e+03
-2.214709339048736751e+02
-3.263118836588711019e+03
7.860770250019066907e+01
1.305801826709949637e+03
-4.027767180237226796e+01
1.581244081873254345e+03
1.319335221908134145e+03
-1.630975947357408359e+03
-4.907548744317267847e+03
-8.914316456391787142e+03
-1.361716373990442116e+04
-1.539874645066716948e+04
-1.187514904565451616e+04
-8.331725746213311140e+03
-4.568137009294506242e+03
-2.532205701687536603e+01
1.826862924972897417e+03
2.299500244987177211e+03
4.528612328253705527e+03
6.703294541632021719e+03
3.718650105216330303e+03
-1.317140709368778744e+03
-5.607609045679305382e+03
-9.320148314830477830e+03
-1.202878189540882340e+04
-1.137814037667936827e+04
-1.677953040892651188e+03
6.807496697865977694e+03
4.377384595172297850e+03
1.519902810518387469e+03
6.965165910182854532e+03
1.788029537138219530e+04
2.248944187666004655e+04
2.072968293178968088e+04
1.766107464311676085e+04
1.510976258549989871e+04
1.331890506786635342e+04
1.250060280179760230e+04
5.797879209470007481e+03
-5.636096803911711504e+03
-1.292917899085104909e+04
-1.384527213695070350e+04
-7.852233276047691106e+03
1.761061447348429510e+03
1.071671265625653177e+04
1.383880675448080183e+04
1.276450448432201483e+04
7.705896339111503949e+03
5.990063951409342735e+03
7.967137125641761486e+03
1.045242713774472213e+04
9.426843059262755560e+03
3.435496011447222827e+03
-2.629461799047030127e+03
-6.882948748173464082e+03
-8.142856631913645288e+03
-7.696073288792242238e+03
-7.612457166829837661e+03
-1.145790088959667264e+04
-1.085931051730410400e+04
-3.486616950506304420e+03
-3.470675749372194474e+01
-7.935283556897013568e+02
-1.206086826622035915e+03
-8.222953618996199339e+02
-2.938934938172551938e+03
-9.438001828171763918e+03
-9.280433425278872164e+03
-1.778123974848333319e+03
3.464921212014087359e+03
5.204815227953473368e+03
5.379697661557991523e+03
7.474605966449632433e+03
7.269611775063872301e+03
9.327717445867117476e+02
-2.394856930012144403e+03
-1.073230115066869530e+03
1.975715432729215991e+03
3.542041192286143541e+03
-7.258862581483912280e+00
-3.501205446170051346e+03
-1.390656787978654847e+03
2.286402464828318443e+03
5.134992381066638700e+03
4.108192740133271400e+03
-6.609768206266867310e+02
-8.006576908949129574e+03
-1.337754830273021616e+04
-1.725390377460711170e+04
-2.188365267946540916e+04
-2.330977815827234372e+04
-1.820822511825208130e+04
-9.303033765317979487e+03
2.114808183240848848e+03
9.414300775072277247e+03
9.542417508788050327e+03
1.212418042316836909e+04
1.452953733030059084e+04
1.422046887891113511e+04
1.405198674369384025e+04
1.174002375130985820e+04
9.838548560948664090e+03
9.674531855126972005e+03
8.564052096338569754e+03
6.082160533877677153e+03
4.346085085629847526e+03
1.472905979941822920e+02
-3.919209027885748128e+03
-3.990166837483238396e+03
-3.992673096243370310e+03
-2.583723910219075151e+03
3.763647766534979382e+03
6.737304688973308657e+03
3.652309049544328900e+03
5.627147971236894364e+02
-2.910290358151456758e+02
8.743422727543953670e+02
8.721380941715788140e+02
-2.857034056898295148e+03
-8.991131709422714266e+03
-8.214537244511411700e+03
-6.281499182961406405e+03
-5.938911553970613568e+03
-6.763462441506985670e+03
-7.374775633062090492e+03
-4.701919051382757971e+03
-7.468735303270027543e+02
1.092273796103600716e+03
1.767310011377638602e+03
4.024133669040626955e+03
5.150896123294152858e+03
3.716089812307229295e+03
2.231763749336373166e+03
6.468529383220038653e+02
7.701978605988585969e+02
1.689655710212576423e+03
6.611562449162242956e+02
-2.238244232300079162e+01
2.054883808484818928e+03
3.869881143447701561e+03
4.678617773926375776e+03
4.668987565430685208e+03
3.530895795780150365e+03
1.351171620120270290e+03
2.167639620144626065e+02
-2.285418195500770707e+03
-4.597492080357326813e+03
-5.252517061272848878e+03
-1.885563042814571645e+03
3.449287297132508684e+03
5.296987524792491968e+03
3.392456162903786662e+03
1.227621902733863863e+03
1.524375480455641309e+03
1.510553498325530654e+03
5.701897049801488038e+02
-8.247608916247149864e+02
-3.575404718953525844e+03
-6.032752863190748030e+03
-8.155878105274312475e+03
-8.854968734445405062e+03
-6.554150134954228633e+03
-3.409401040073102195e+03
-1.010707951806727920e+03
1.568699039395056900e+02
1.548198923081320572e+03
2.181227431467405040e+03
2.805931523082629155e+03
3.445247075250540547e+03
1.957135812711325116e+03
-1.983792670635261857e+02
-6.572655021493721961e+02
-1.846595571281939556e+03
-6.751374289890689397e+03
-8.084783677036075460e+03
-7.961942876051692110e+03
-8.067881246219651985e+03
-7.966533187639787684e+03
-9.651891621337548713e+03
-8.125605785944474519e+03
-4.970050730428488350e+03
-4.463422419248438018e+03
-2.450741896366444053e+03
-4.079406296222576316e+02
1.707647802548327576e+01
1.323533821162965012e+02
-7.752144038170932845e+02
-3.060653244236615592e+03
1.511008811799459636e+03
5.361786676177910522e+03
5.002888194632961131e+03
4.925307930049872084e+03
4.760852980303991899e+03
5.226489316770033838e+03
4.613319882882659840e+03
3.293303184301776128e+03
2.922439166685296641e+03
2.224825913687725460e+03
1.271401905633509159e+03
4.151408126668670775e+02
1.312308947830463239e+02
2.717032633457348538e+02
9.464397863198357754e+02
5.934092581602185419e+02
6.396975813126734920e+02
2.269428606549483902e+03
2.055798956831878968e+03
9.249244579166239646e+02
9.437675281207406215e+02
4.661630814593628997e+02
5.600333162773729327e+02
1.243391013050523497e+03
1.475280259986662031e+03
2.485794435245716159e+03
3.345012482258181080e+03
3.126123704119978356e+03
2.385152781549739757e+03
9.841676454553625035e+02
3.782797486724937812e+02
4.474911879567353594e+02
-6.464533389272102113e+02
-7.995810532355872056e+02
9.432122870596722350e+02
2.167051688257953629e+03
1.819291255944578324e+03
1.926925472144190735e+03
1.950818423946067696e+03
1.844024418586874390e+03
1.617745362113106239e+03
8.309921110963296087e+02
-1.583458358465647507e+03
-2.389351554151885011e+03
-4.545141331352144789e+02
4.719017383144765745e+02
8.957740243527694020e+02
8.991072722464673461e+02
7.498697812134770402e+02
7.564020831965970046e+02
7.081825388272435475e+02
3.034318902734218568e+02
3.039708189323575311e+02
-2.272620847387856031e+02
2.069677703430751023e+02
2.693165637571025286e+02
-1.847974282222409386e+02
-5.273938429796378387e+02
-6.942276309287800586e+02
-4.560476685181329231e+02
-4.686421286146119769e+02
-1.326043388862879056e+02
2.809054277932849004e+02
3.413199285808277068e+02
1.295946649509597819e+02
3.441059061831542181e+02
2.798752743238709400e+02
4.960410529115915779e+01
1.515359305153582170e+02
1.113230600811402411e+02
-3.691770500243656556e+02
-5.394796258492897323e+02
-3.244608949433169869e+02
-3.018556086095315436e+02
-7.158845758652643099e+02
-4.904227091559476435e+02
-6.461747153056684283e+02
-1.073972356982520751e+03
-7.256588613104070191e+02
-7.513858957304569230e+01
-1.776048075121213685e+02
-6.255030602519645981e+02
-2.178937481840769692e+02
-3.668132417077105174e+02
-2.273400120362390737e+02
1.316974315043988497e+02
-2.396279443450362123e+02
-3.165016917001364050e+02
-5.149928390142340504e+02
-6.147063020728727452e+02
-2.674205999144406860e+02
-4.150339358357303468e+02
-3.964853602825517669e+02
-2.467737291612056367e+02
1.429026873654351277e+02
-5.833622072294165264e+02
-4.717081146692745506e+02
-4.792811051947332999e+02
-5.999602606905830271e+02
-8.545127297307474237e+02
-3.195413538386495702e+02
1.583177743021368258e+02
-1.115004385618135672e+02
-6.779459783242902660e+00
4.454984036677521999e+02
1.002263678367228067e+03
3.905840193906898321e+02
5.599818892888261246e+01
1.000545554251651907e+02
2.952214002742628196e+01
4.887345785007451582e+01
2.025332809625606671e+02
6.920666301524983055e+01
1.316022767926004917e+02
5.148565449922604103e+02
2.262370052842634607e+02
-3.734858839964707045e+02
-1.131378963215299564e+03
-6.987550348779219576e+02
-1.185489811342588609e+03
-1.199714128595642478e+03
-9.153444570021487152e+02
-6.883496353744876615e+02
-3.414070207847301504e+02
-4.016230495248695433e+02
-2.951016226323549176e+02
3.190973098334177962e+02
7.752222883301227512e+02
8.349240498999469082e+02
1.540570990632039184e+03
1.838367766969578042e+03
1.181728232506037330e+03
9.617626313697265914e+02
1.343995268710702476e+03
1.091350864244054264e+03
1.046226581724819880e+03
1.210312055289366754e+03
8.450903962951739459e+02
8.074780598520545709e+02
1.096730102669257576e+03
1.034883121052573642e+03
8.737312356027482565e+02
8.804461935137080673e+02
8.395569020907227014e+02
8.298660938397860036e+02
1.338039563462217757e+03
1.422051834544590974e+03
8.418371134074194515e+02
5.407034738489022629e+02
7.615561109609545838e+02
8.589019553389284738e+02
8.505430930976964419e+02
1.255426420460493091e+03
1.761767968134220382e+03
1.747877508161604510e+03
1.746048756030082814e+03
1.616251021125394118e+03
1.449412807523137872e+03
1.417670072674198309e+03
1.489829504781132300e+03
1.256249572750788957e+03
1.578425045564390985e+03
1.893945683697950244e+03
1.863935402069572319e+03
1.872785672557094131e+03
1.755256879481988335e+03
1.671366967747472245e+03
1.992263295053993943e+03
1.837892556506959409e+03
1.721427985695668440e+03
1.376874465390982550e+03
9.662310487702761748e+02
3.345534784070094361e+02
7.198744970195606356e+02
-2.854848724171459253e+03
-6.247298100236965183e+03
-6.104361039693929342e+03
-6.421311611881084900e+03
-6.272180066146862373e+03
-5.735171904660513974e+03
-5.599757725406954705e+03
-3.894760877491954489e+03
1.356246742500677556e+03
1.739359556062950332e+03
-3.200432212891656036e+03
-5.977345881082241249e+03
-5.419366425140477077e+03
-5.463160987140370707e+03
-6.068401693887006331e+03
-6.106569160894831839e+03
-5.089857665525740231e+03
-2.038108039952127001e+03
-4.300181601365084134e+03
-6.544123328904031041e+03
-6.679234882625762111e+03
-6.639666941642345591e+03
-6.213281973805866073e+03
-3.857940097689727736e+03
9.052504122021764488e+02
5.928690927202820404e+01
7.173603867090695303e+02
1.950581784736518557e+03
2.342018003597892402e+03
2.234539270909685001e+03
2.417066493562732376e+03
2.572730590033996123e+03
1.952599151527101867e+03
1.462489453129221374e+03
2.283336262031997194e+03
3.083237918943340901e+03
3.674305708480003432e+03
3.539652826063854718e+03
3.130460879116576052e+03
2.801699468850151789e+03
2.725534944882580476e+03
2.505006012452263349e+03
2.409050993069726246e+03
2.294372205344308895e+03
2.241752034500451373e+03
1.984413679726074179e+03
1.951660940695350973e+03
1.822674757099688577e+03
1.254343475475212472e+03
1.354651984431518258e+03
1.429677114015696816e+03
1.081603803151257353e+03
1.183618337628191284e+03
1.106714782100105822e+03
8.399221751379601528e+02
4.072366929244984703e+02
8.944562680763083335e+02
1.711453521645934416e+03
2.154299423470291458e+03
1.720109851200716776e+03
1.180814006294760475e+03
1.270381656793582124e+03
1.111847802851586948e+03
4.292353963166102062e+02
2.400508650895358755e+02
5.974862339355298673e+02
5.994998125200588674e+02
1.074102835444201446e+03
1.183661707024248244e+03
8.080900809426968863e+02
7.013413923418169134e+02
3.364145882120714077e+02
-1.224684130540610340e+03
-1.608273325280136987e+02
6.388057369036921500e+02
7.874050796401211301e+02
-2.740249637313405060e+02
-1.379905956830712967e+03
-1.661194419545864776e+03
-1.550775978008614175e+03
-2.171651065217152791e+03
-2.248719492720735616e+03
-1.885821273922284945e+03
-1.892473371909387879e+03
-1.017711172874814224e+03
-3.291972952728830819e+02
-4.298858801898012416e+02
-6.457660375480822950e+02
-9.028533047240333644e+02
-1.291037747922685185e+03
-1.399227720435859965e+03
-4.704774493814800849e+02
-4.717044483449827794e+02
-8.818518040678469561e+02
-6.339368251469775259e+02
-6.999391746223165001e+02
-1.054911367792754390e+03
-6.848998067049117253e+02
-4.147861693121949997e+02
-4.755649355523474355e+02
-4.713749676144232126e+02
4.989116355912047851e+01
4.933128043308063866e+02
-2.212934483192137236e+01
-8.841761379428952239e+01
7.404247078498981409e+02
1.080365935835746996e+03
8.623819094896718980e+02
2.944348918756738271e+02
1.645787354146740995e+02
5.638135683645189147e+02
8.541950781630281426e+02
2.697937765798174041e+02
-3.624393886858371729e+02
-7.835919270403242081e+02
-7.085657935511424057e+02
-6.203967310753475886e+02
-9.962876891202097340e+02
-6.661916579729362411e+02
1.070280038505914177e+02
5.942543648264240801e+02
5.204311393640250571e+02
-1.154244640238771780e+02
-7.442782767873538887e+02
-1.362049728400955246e+03
-7.286847502434083026e+02
2.377512651892874658e+02
-1.238988399547571817e+03
-2.067846261485563446e+03
-1.037840594465018512e+03
-1.161037113987801149e+03
-8.904293740734037783e+02
-1.484011475820002261e+03
-9.577971002396661788e+02
-1.627924682224031017e+02
-1.130082694638425210e+03
-3.935388525811863474e+02
6.506856680824694195e+02
4.955627333870125426e+02
-1.958246451123126235e+02
-1.101554703901208086e+03
-1.696714601605175858e+03
-1.704316772821953919e+03
8.296395789145365143e+02
1.946043673067732243e+03
1.629881743927273874e+03
8.941274836567595230e+02
6.887380512364620699e+02
1.007710446926002419e+03
1.708048684898425563e+03
1.498698859495928673e+03
1.536621585941769126e+03
1.961750646144227176e+03
1.901105544054706343e+03
1.534662710813826834e+03
1.626279041566383512e+03
1.575912825016391025e+03
1.050639978569881350e+03
8.204146101175634840e+02
1.392195458829326299e+03
2.264979056956780823e+03
2.505653816019931128e+03
2.204200483483068638e+03
1.487666576706155411e+03
6.520100195296043921e+02
2.671831161844609142e+02
6.261598429302885052e+02
1.356833050114716116e+03
2.007214651067448131e+03
2.405331077343889319e+03
2.376134250604673525e+03
1.994608652309388845e+03
1.095669864567651302e+03
8.202596236614924692e+02
8.144020455001469827e+02
1.056087789216236388e+03
2.086285249941977781e+03
2.113898779015305081e+03
1.509006150574143021e+03
1.731532761183927732e+03
2.547467754579621214e+03
2.265796837432897064e+03
1.791486415109511199e+03
1.628500281521043235e+03
8.868349900511960868e+02
8.265183082094367819e+02
7.234686933944913108e+02
-2.223605554945812059e+02
2.950261504302326330e+02
1.085689522350578727e+03
2.161606114553553198e+03
2.299768299570200725e+03
1.076151217606579621e+03
2.271652247826402871e+01
1.124487256582719510e+03
5.554524359959716548e+02
-2.872392865715407424e+03
-7.776078906115169048e+03
-8.167593513971251014e+03
-6.698952895898322822e+03
-4.936045312873351577e+03
6.790322222163051720e+02
2.481345074568003838e+03
-4.491816585966649882e+02
-5.429568844856538817e+03
-6.299780584945174269e+03
-6.035866504043422538e+03
-4.992788407674008340e+03
-4.442550212484352414e+03
-4.705237106174451583e+03
-5.129825941115866044e+03
-5.555248314228148956e+03
-5.516591338758001257e+03
-3.362817602840506879e+03
1.740195724867659010e+03
2.741431291009564120e+03
2.818788661221147436e+02
-2.900372450973444302e+03
-4.423388547025591834e+03
-3.924199014004870151e+03
-4.701755994213476697e+03
-4.481989361096844732e+03
-4.754925071979369932e+03
-5.202543693874771634e+03
-5.216812876101848815e+03
-5.066738855791982132e+03
-5.366305400211516826e+03
-5.199471969088435799e+03
-2.245268250281983455e+03
8.434796735303032733e+01
1.957485028104953017e+03
2.485132856632014864e+03
2.635272661561008135e+03
3.092941051558569598e+03
3.420183528889293484e+03
3.312974626620386516e+03
3.020266759998818088e+03
2.657135848568409983e+03
2.593606996992843960e+03
2.331743458572123927e+03
2.438590774776436319e+03
3.110166687880219342e+03
3.195461213402214980e+03
2.926498535153023113e+03
2.993288020179043087e+03
3.428845098669588879e+03
3.000187663144485214e+03
2.427355095290962254e+03
2.760399184726467865e+03
2.793353866839137936e+03
2.337157119270202656e+03
1.644879285583861702e+03
8.193571664035249569e+02
1.582221731375512036e+03
2.276369946192240604e+03
1.692503348329272740e+03
6.613061671014412468e+02
4.335951141574078065e+02
8.575303797788204747e+02
1.497859255191299326e+03
2.124686407014781253e+03
1.895845287353593449e+03
1.619458809136991022e+03
1.472725608456550162e+03
6.471624858706888972e+02
3.523957638751444676e+01
1.083492296352405219e+03
1.618282158991571123e+03
1.365559615861576503e+03
1.085252124659690026e+03
1.295411800662181349e+03
1.609143998838168727e+03
8.884650945118697791e+02
7.934326933374859436e+02
1.257601308495855619e+03
1.167140346432971683e+03
6.053531371232633091e+02
1.514852815782060169e+01
-4.335215291198813929e+02
-1.026378992083524935e+02
7.706955691945050830e+02
8.333340221997267463e+02
4.724059295330980603e+02
8.588805589255218820e+02
1.484589149038997220e+03
1.836469946965961753e+03
1.900535877977706832e+03
1.344788000125193776e+03
1.427221968395865360e+03
1.877928637543220930e+03
1.421870941472979894e+03
1.124893613649586769e+03
1.142018585397512425e+03
9.292775068512178223e+02
1.195698642096263029e+03
1.355281193647055034e+03
1.465017652031800253e+03
1.242872995129952187e+03
1.078869927851719694e+03
1.075978183911599899e+03
9.811957401270598211e+02
7.344915682248932853e+02
4.789780560516518193e+01
3.773711650698461995e+02
1.176899743587447574e+03
1.153556067373085853e+03
5.152697857945946680e+02
1.009007518990260451e+03
1.696810966665867909e+03
1.548637947405668456e+03
9.884899631501436943e+02
9.393899994190069265e+02
1.111340510413906486e+03
7.632494107212023664e+02
8.320734286504196007e+02
1.229798505973164310e+03
8.014785094714640081e+02
-1.332851025454575620e+03
-4.002286211811959220e+03
-7.548806214158899820e+03
-7.888313311862398223e+03
-7.438877747664138042e+03
-6.519532683279374396e+03
-6.833297688301632661e+03
-7.589281391546146551e+03
-7.221419695156279886e+03
-6.441676929259534518e+03
-6.187135909629587331e+03
