1.222150442129051044e+03
6.458189456173206509e+02
5.809109084873368829e+02
2.814445207612686772e+02
6.204332999310630612e+02
5.628359249749266837e+02
7.972378535746605621e+01
4.881519537473589594e+02
8.741067251610284075e+02
1.210560168675285013e+03
9.515249124973178141e+02
6.620356687295707161e+02
7.260902477053721213e+02
6.957284293025130637e+02
7.110183443692702667e+02
5.720076506713991193e+02
6.056506504841734113e+02
6.049022852107764265e+02
1.248857165960768754e+02
-4.330301843449756660e+01
6.182613250745524738e+02
8.265273964851737674e+02
8.335771476093261754e+02
9.693711536896493044e+02
-4.147909282016259525e+00
9.213875404141822401e+01
2.813200505359125145e+02
-6.456448901008059238e+02
5.917276828963819924e+01
-1.052719895247603290e+02
-1.765006647322685467e+02
7.486431287453701771e+02
1.839282588781158267e+02
-2.978760971205860187e+03
-3.047473683137358876e+03
-1.022629517592180264e+02
8.880609283687600737e+02
2.056484349191603656e+02
-2.520672937774164438e+03
-6.677930501571484001e+02
6.932285246169975608e+02
1.112395168376322317e+03
7.033698067596271812e+02
1.970952718246554980e+02
-1.569813836784378225e+02
-2.186238753222692992e+02
2.696416587164562770e+02
3.881924137429941624e+01
-2.119617218559691025e+02
2.929519619863884827e+01
2.625911660319521843e+02
1.032083593613971516e+03
1.650707000391259271e+03
1.692323182171422559e+03
9.779968341851390505e+02
3.639296090063537008e+02
3.892884114455433320e+01
-1.806831272136574285e+02
3.194579767919985258e+01
-2.883581498597740165e+02
-1.755476350131861523e+02
7.144365461070706260e+02
5.355722154879296113e+02
7.678675145124989285e+02
4.343590305847852164e+02
-1.480130074077217444e+02
-9.616877687340715397e+01
-3.000085178737308524e+02
2.954372387605470180e+02
8.190638111491958853e+02
8.048588761824806852e+02
2.618993136851630652e+02
1.712099720585907789e+02
7.017495705427656958e+02
6.125190902892071563e+02
9.744941073719787994e+01
-2.184153971954647204e+02
-2.960489329562481089e+02
-4.374501197478074914e+02
-1.695755197905414491e+02
3.555496925352322819e+02
1.939183805615573135e+02
2.725229367829655871e+02
3.633663747548666834e+02
3.734842454496600226e+02
4.888287690224373705e+01
-3.964712827880187547e+02
-1.754958359232586673e+01
-3.942553967017349947e+01
-1.079029022982442484e+03
-2.963328586961652036e+03
-5.119478416238327554e+03
-6.202324436850075472e+03
-1.498839352370375309e+03
5.848600836664255667e+02
-1.445035166832043160e+03
-3.706560072110923102e+03
-2.513791863453613132e+03
-6.318734959435894325e+02
2.572121808836789114e+02
2.066359807459223816e+02
4.303461244301715851e+02
1.153076474568160137e+02
4.973923226426236397e+02
4.445840845392725669e+02
-1.081444405881030377e+02
-1.888020007413502412e+02
-1.922686404327161256e+02
1.654417976239108157e+02
8.403814013808032541e+02
4.364707025100285023e+02
1.676248193134819644e+02
3.539119507086217027e+02
5.736764237629033687e+02
5.920162784109161294e+02
4.178385477320707651e+02
5.739483948950961576e+02
7.730272291852870694e+02
4.470408687175612954e+02
4.191221232404460579e+02
1.961882786887851182e+02
1.943228441224944163e+02
3.755426858552216345e+02
5.347952180895445053e+02
3.890913524577778162e+02
-6.058873140213366071e+01
-4.811574656806016037e+02
-1.495998363408514535e+02
2.114785796542727780e+01
4.589334286810490084e+02
6.706614851836870912e+02
-2.996583434626875260e+02
-3.469590129390406332e+02
-1.013623483964393159e+02
-1.309102737697932639e+02
-3.765187633525575848e+02
-5.212126403183074217e+02
-2.038995662910865576e+02
6.237050607515322298e+01
-2.964544182102856666e+02
-3.371342889361318385e+02
1.065465483714332180e+02
9.445965627731614234e+01
-1.835859643690116343e+02
-4.606446141518401305e+02
-1.231702240531005828e+03
-2.083730271012369940e+03
-1.277773676329061573e+03
3.049756330263340942e+02
3.795370474789951913e+02
1.408594621493234342e+02
-3.260130297665012336e+02
-5.531046574007261825e+02
-5.446716685481378306e+01
-1.503264907308579552e+02
4.073168680628028824e+02
3.318741156606036498e+02
-5.037938137639997649e+02
-1.355789295495985016e+03
4.009859728676363488e+02
9.278976066406544305e+02
-4.494916687024920066e+01
-6.946992851544330279e+02
-6.564401854562212293e+02
-2.672251599246115461e+02
-1.590902395449070070e+02
-1.279580818859474505e+02
7.408003984342721537e+01
4.829554288031221176e+02
5.597716952010586056e+02
1.465876797646400860e+02
3.192373340304447424e+02
2.165209147694607168e+02
1.933835370252815267e+02
-2.919846218985597943e+02
-4.825064563743900408e+02
-3.961361339478851846e+02
1.319472466710898573e+02
4.946384759013622556e+02
9.088598630616533001e+02
6.235710608608721941e+02
2.706853454173157729e+02
2.181661973574751698e+02
-3.496516524968770767e+01
-4.464828613664865742e+01
3.114601418742317662e+01
1.244609353595172223e+02
4.713060794517195973e+02
4.936519030430550856e+02
4.705584858473705481e+02
4.600083862537925938e+02
4.639949366882244135e+02
4.405500669409003081e+02
3.626259827625844423e+02
-1.617306690016183950e+02
-9.366094905170828042e+02
-9.019638466286146468e+02
6.883437743646828721e+02
7.484256687358198405e+02
8.402111543711636159e+02
1.365550404885681473e+03
6.315077966282259467e+02
8.961323062286450067e+02
1.125419692294202378e+03
1.185255619859933404e+03
1.294552506088918335e+03
8.393575897117401610e+02
6.608585058007012094e+02
5.261343881001129148e+02
2.350793496820338646e+02
5.194991772086049195e+02
7.293310611351915895e+02
3.826838256456524050e+02
3.675837894292301939e+02
4.721645576543182870e+02
3.685372659886177757e+02
3.567444577839355020e+02
4.528193017483791323e+02
-1.099676645709971126e+03
-2.491664158755939297e+03
-3.139136149866640153e+02
1.298506194120353427e+02
-6.680601224855408873e+02
-1.630535787221305327e+03
1.826543595215382538e+02
3.742707434952844778e+02
-5.662983084163665808e+02
-3.872607558028670155e+03
-3.253649868828263607e+03
-2.626920748020868814e+03
-5.645675626134172376e+01
4.046170587496907274e+02
9.437206047491888228e+01
-2.474298051136057666e+02
-3.840192902194748399e+02
5.511937032582003440e+02
7.250555200785807983e+02
5.062303913975564029e+01
-1.191811990475375467e+02
1.866547631348385607e+02
5.340965039308373434e+02
4.359916210111901478e+02
2.205506196162747301e+02
4.881592915582639876e+02
6.018047398308392530e+02
1.516315479421452039e+02
1.035284019966302651e+02
4.301823655856455275e+02
2.657035382245109076e+02
2.243240220109893528e+02
-2.234300957341161222e+02
-1.095773451583885617e+03
-1.031464094361770556e+01
6.548991987669465971e+02
3.126314073403920020e+02
3.659499796316407583e+02
-2.640502463417618628e+02
-3.422733518216840594e+02
1.762225785965035243e+02
1.864123648714457886e+02
-1.057381932935633273e+02
-6.653068638826712231e+02
-2.072715998418616152e+02
3.774471094418410644e+02
7.857910845464723479e+02
7.537711918540368288e+02
4.924130403102998343e+02
8.976562843217004684e+01
-2.291588731630802158e+02
-4.041728157348396877e+01
-3.589462114883731942e+02
-3.266683052524753066e+02
1.543224628030012013e+02
-6.706647758548274396e+01
-1.377208010118444292e+02
7.510073935008538371e+00
1.615487444581686134e+02
1.132784853687392541e+02
3.397294947152220743e+02
4.589833131832694448e+02
1.490522552756846153e+02
7.000895553120815862e+01
1.889315469166803325e+02
-2.913190119622969974e+02
-2.154799110386107714e+03
-3.494550860537458448e+03
-2.734284727703197859e+03
-4.111501917390144172e+02
-3.123916227760853559e+01
-1.492081168195360519e+00
-1.765615264775338176e+02
-1.705595544508085823e+03
-1.310045645472173192e+03
6.620961788684253690e+01
-1.844671804675420503e+02
4.801743999419540501e+02
2.776801835534453176e+02
1.108616382759742294e+02
1.237329363358720400e+02
2.904436536540509337e+02
4.321365707789865382e+02
7.818821339959606576e+02
8.057798189862596701e+02
7.306746328425341517e+02
5.784952802624283095e+02
5.473986456299965084e+02
2.944944208415669777e+02
1.557313738794515530e+02
1.160268733585313328e+02
-8.096777492808387251e+02
-2.071385453645047164e+03
-9.292846770265296641e+01
-1.892413001927413234e+03
1.771022368240849971e+02
1.280582562972600272e+03
1.102997022778351266e+03
9.276023881365287025e+02
1.212432156135156902e+03
1.023264816598659309e+03
7.842067310198275436e+02
5.782706022417021359e+02
-5.116178180828420068e+02
-7.104485410343412468e+02
6.126691596694207647e+02
1.473673044287508446e+03
1.110542076741320670e+03
7.024196915831379329e+02
1.291573956491850367e+03
1.401058227463500089e+03
1.553637495650214305e+03
1.898536098192652844e+03
1.221065139503002229e+03
9.613181186918421872e+02
8.664492243347406202e+02
7.133690166303601927e+02
5.028728490272038130e+02
2.558426945838164386e+02
-2.088827654150997262e+02
-1.942897221052448629e+02
-1.119413835175338079e+02
-2.262252206181505301e+02
-6.713832996649204077e+00
1.500827229645550176e+02
5.552498789020240793e+02
-1.678946347625372937e+02
-2.041581083058041202e+02
-3.860694755480719209e+02
-1.640190072289756927e+03
-1.018051235198332165e+03
-4.784625065809718762e+02
-8.323661107109942350e+02
-1.982461073269598160e+02
1.483167627907822862e+03
2.468584613877786978e+03
2.330824347085526369e+03
1.686286491469755447e+03
8.531151300322817406e+02
5.605054763264131452e+02
1.629191102956265468e+03
1.985892345553601899e+03
1.195542038503551339e+03
3.429769107787030435e+01
-1.225714158064396543e+03
-1.447622292904949518e+03
-1.817436159379874880e+03
-2.610304278964447803e+03
-4.309346267571513636e+03
-6.445401818792470294e+03
-8.027326334565454999e+03
-6.033002497742093510e+03
-1.760112803585981055e+03
2.395323430167925835e+03
5.168790615521998006e+03
4.531057224883767958e+03
2.804388049564342055e+03
2.305552432646160469e+03
1.318068925200778040e+03
6.300115300561756158e+02
3.144010348559801287e+02
-6.460453216526697418e+01
-9.687212794664922058e+02
-1.607111859169772288e+03
-8.159330792326264827e+02
2.027972081037818270e+02
2.065233024868047323e+03
2.725459057277435932e+03
2.666361143083922798e+03
2.413904353806335621e+03
2.154798946713151508e+03
1.005079238211154916e+03
-3.990093657176443571e+02
-1.546416900825910034e+03
-2.863739224792085679e+03
-3.640880326127047283e+03
-5.272998362113718940e+03
-7.401210358022175569e+03
-6.834963416789617440e+03
-3.752373677822159152e+03
-1.585577549211927135e+03
-9.451547095868867245e+02
-1.198252417243554078e+02
1.048345964099679350e+03
2.804448631820001083e+03
4.840350708664040212e+03
5.063640316961047574e+03
5.262978311226467667e+03
5.363541487963112559e+03
5.713230622008262799e+03
5.574434204508325820e+03
4.776131986552027229e+03
2.194424433345728175e+03
-1.959632098178486103e+03
-3.287687291069956700e+03
-4.280495137597762550e+03
-6.735367965834457209e+03
-9.555403678020367806e+03
-1.011101553288429204e+04
-9.335586371930945461e+03
-7.901026867524225963e+03
-5.407359476720785096e+03
-3.925192559727828211e+03
-4.019698171795914732e+03
-2.754395523176755887e+03
-2.256785793218897197e+03
-2.605786105990297983e+03
-1.414795641296075019e+03
8.730411192161894860e+02
2.253948595717940407e+03
2.718163963303025412e+03
2.053913380959528695e+03
1.940078095734834733e+03
3.628426798069775032e+03
6.724013138774716026e+03
8.662123312318477474e+03
9.954960812788975090e+03
1.016154391136622871e+04
1.001350054867132167e+04
8.788995193546479641e+03
6.803222415631053991e+03
5.342373193078980876e+03
4.863376984045996323e+03
4.726887096237994228e+03
4.698551777185004539e+03
4.153484119744608506e+03
3.245851639214372426e+03
2.676886754949044644e+03
2.036955377748363389e+03
1.443183295956592701e+03
9.950783828254525361e+02
6.860179301927078654e+01
-6.423117230850712644e+01
-9.880601295032100779e+02
-1.275109988982899040e+03
-1.220839823368452926e+03
2.161414902521738952e+02
1.219950895263001712e+03
1.009422065590064790e+03
1.063434188179173589e+03
1.575217614283118792e+03
2.215036198081846123e+03
1.769794007087515638e+03
4.183674974619222553e+02
-8.730147334767318625e+02
-4.066630010743650701e+02
1.242361212847687511e+03
2.335310687842554671e+03
1.986365048084520822e+03
4.765219186152617112e+02
-6.909986004369711736e+02
-2.222123180533695631e+03
-3.147206655203355695e+03
-3.199132565823180357e+03
-2.947767888100339860e+03
-3.628926837269372299e+03
-4.849794474272348452e+03
-7.697389549376557625e+03
-1.130967061062987887e+04
-1.385761668752353580e+04
-1.218663716015646969e+04
-7.118848256616362050e+03
-6.121585500057699392e+03
-9.620285879719307559e+03
-1.122580841386805514e+04
-7.603885503555003197e+03
-3.616157085011018353e+03
-1.016916328635977152e+03
-2.242091715742005817e+02
-1.858304596260220706e+03
-4.681059867625805964e+03
-1.471358703413810872e+03
2.624713076904916306e+03
4.287025686854136438e+03
3.418003773360956984e+03
2.985628262746964538e+03
1.445660879209505993e+03
-1.178627887494104243e+03
-5.015239297128803628e+03
-9.967469667595032661e+03
-1.037959520872512257e+04
-8.334515410691654324e+03
-5.993862943980872842e+03
-3.518478508348192008e+03
-2.701282214672256032e+03
-1.479319645215153741e+03
1.251319666257403696e+03
7.113743762729991431e+03
7.494847751188663096e+03
3.683474832276407597e+03
3.991822271528149031e+03
4.903782892766642362e+03
4.733510031064072791e+03
3.757954931180194308e+03
3.756913250417981999e+03
5.223362559573093677e+03
5.570351022602924786e+03
6.139883124328012855e+03
6.051286638668559135e+03
5.523360372214094241e+03
4.736850318668639375e+03
4.297753781692070334e+03
3.854928699208105627e+03
3.501388401616960437e+03
3.432392771383525087e+03
3.347966426184932516e+03
3.251176664533911662e+03
2.605090965181702813e+03
2.540460735079063397e+03
3.593174755482434648e+03
3.320543330102299933e+03
1.714971129298212873e+03
1.206060244591107221e+03
2.068266540441458346e+03
2.232085032905511980e+03
1.672569010201312949e+03
9.157375303858860889e+02
8.432049137928752316e+02
1.002890419904145688e+03
7.836473213920789931e+02
2.661035694641392183e+03
3.115591226025323522e+03
1.390480654897247177e+03
2.700391707360512896e+02
2.078270344956461031e+03
2.197741466121010490e+03
2.174272189632971731e+03
1.262298801429111563e+03
1.558119327889707620e+03
2.740168580980938714e+03
1.424066469877017653e+03
-2.511450005686612599e+02
9.314398988796557433e+02
3.200099542255157303e+03
4.489674421170799178e+03
3.217303677251529280e+03
8.478606433164762848e+02
-1.107716801078033768e+03
-1.936273192757699917e+03
-2.074772291001022495e+03
-6.504978411043994129e+02
-5.246428184960252565e+02
-2.341657321141788088e+03
-2.627633880851467893e+03
-9.525974039772805781e+02
4.042677105348466284e+02
1.597851234316889986e+03
2.204901191659339929e+03
2.271375200913902972e+03
3.757429476856541442e+03
3.934993203213658035e+03
3.394379722972318177e+03
2.119005742272819134e+03
3.908069763470401199e+02
1.199916079282651026e+03
3.116230223679601295e+03
3.290746272684643827e+03
3.881549753812824292e+03
5.238601567073060323e+03
5.165913626837353149e+03
4.721504280341173398e+03
3.100292634840586743e+03
-3.397704652182407585e+02
-4.268578108932410032e+03
-7.322121792413465300e+03
-8.039539013438863549e+03
-9.047930137850218671e+03
-1.359510245959543863e+04
-1.561491510236643444e+04
-1.449139215493354459e+04
-1.241146329551526287e+04
-7.465016820812111291e+03
-2.228299478586538498e+03
1.408532065471244096e+03
4.879608768689658973e+03
7.450888007613713853e+03
1.031531457058587330e+04
6.026926643940652866e+03
-5.247364654920093017e+03
-1.375359460132103959e+04
-1.813863694026400844e+04
-2.299547710558153267e+04
-2.384799582377521074e+04
-2.267286923295356610e+04
-1.562226718560068912e+04
-1.385463564881040384e+03
8.472758230043809817e+03
1.027055229301647523e+04
6.088892669026604381e+03
6.471529086238721902e+03
6.404423963301183903e+03
1.262449602127048138e+03
-4.148376690841188065e+03
-3.901008579901757912e+03
-2.052354388866637692e+03
2.427718183278605920e+03
4.833037190514044596e+03
3.380458669027162159e+03
1.491229647993120807e+03
1.088515279207597359e+03
1.951386838945404861e+03
1.810053974253282831e+03
1.762494598681452317e+03
1.717178540932687270e+02
-2.963388100022441904e+03
-5.711761395475483369e+03
-6.947150256259607886e+03
-6.155466248704189638e+03
-1.471002925313761125e+02
7.428677665548362711e+03
9.701999749292841443e+03
9.916974696164978013e+03
1.453985303461574040e+04
1.687078235075275734e+04
1.342169643482577158e+04
1.008879069608363352e+04
6.571964161844560294e+03
4.838135491149299014e+03
7.070235415709963490e+03
7.490417359265757113e+03
5.542828637803024321e+03
2.893319294765330596e+03
2.810084431729886546e+03
4.079408013669688444e+03
4.678330776034944392e+03
5.013536285595219852e+03
-9.804068669110283452e+01
-5.161221228699774656e+03
-7.613825659436555725e+03
-1.023689325153772370e+04
-7.855455149715515290e+03
-3.146336811276787103e+03
1.369491422842091652e+03
5.747229504252773950e+03
4.309937365461439185e+03
1.219407646546825163e+03
-4.048542094202516637e+03
-5.027858913232115810e+03
-2.397387506613236837e+03
1.138222467207053370e+02
4.136710182329945383e+03
7.263456792715451229e+03
7.337941192635440530e+03
3.849297034714248184e+03
5.704614821116754229e+02
-5.469344872047488025e+03
-7.915042568126314109e+03
-1.121866886299169528e+04
-1.317421077028947911e+04
-1.555142362697217504e+04
-1.269097546432300442e+04
-6.007100864743577404e+03
-2.926716712143183486e+03
-6.006533593030422935e+02
-4.988059401355463365e+02
-7.085364756191312154e+03
-1.618944724314028826e+04
-1.354807233269769677e+04
-3.673317992275060078e+03
7.124913191621952137e+03
1.333870259372777218e+04
1.405788598939232725e+04
1.656856716433596739e+04
1.436779873337939534e+04
9.121479149401124232e+03
5.009532528210591408e+03
3.778958870626327098e+03
5.177807553076677323e+03
5.270218414910648789e+03
1.293194096503524179e+03
-2.959446413157797451e+03
-4.097891829061202770e+03
-2.118036208294776770e+03
5.290985869109424584e+02
-1.503469692219949820e+03
-2.674611848882595950e+03
-1.679161154181509119e+03
2.553925921061702411e+03
6.596657639106824718e+03
6.836972089010693708e+03
1.898762896357099180e+03
-3.014007923083752758e+03
-6.823220229780227783e+03
-8.947848705463573424e+03
-6.650991479645738764e+03
-2.070635008664298311e+03
-3.641655738900663437e+03
-6.583086898926892900e+03
-1.058295683925102821e+04
-1.140740780108093895e+04
-1.816441573933863310e+03
4.442942635524970683e+03
5.399733806428665957e+03
6.644706100619909193e+03
5.636817084194653944e+03
2.883140529297774719e+03
9.527465958061013680e+02
3.142510819674172126e+03
4.337295953305593684e+03
3.642237280814141286e+03
5.931516436329207863e+03
3.345054575025798385e+03
-1.008424401278797859e+03
-3.261160667801697855e+03
-4.124145122983194597e+03
-4.971108137856153007e+03
-3.176054168795621990e+03
-7.481760713328314978e+02
-2.835458820629203274e+03
-4.012001698440834389e+03
-4.153890984641570867e+03
-1.831212516032959229e+03
-1.723962665452202828e+03
-4.295150174866390444e+03
-7.614495092360085437e+03
-7.725896019914204771e+03
-1.040496758932364855e+03
4.196261887193683833e+03
5.370206169308074095e+03
3.546392149180819160e+03
1.471192300891606465e+03
1.076346165332738337e+03
2.301363730055681117e+03
3.478994581004862084e+03
4.362202042442516358e+03
4.089061273575215182e+03
3.703698661970449393e+03
3.881173763522604986e+03
2.532967037618512677e+03
-1.161134464488485946e+03
1.484818676459784683e+03
3.778193394027000522e+03
2.037922312124059090e+03
4.090970335745165812e+03
7.205372550655571104e+03
6.936261156262928125e+03
1.928827471372535001e+03
-3.413487474032305272e+03
-4.518585520653869025e+03
-3.865742002146447703e+03
-2.663228574363650750e+03
-1.490835788555734780e+03
-9.009202757667555943e+02
8.596427531181543600e+02
1.666323338497774557e+03
-1.765841573595243688e+02
-3.697837300588808489e+02
6.834377487154503683e+01
2.697604146967988981e+03
4.321239242703654782e+03
3.874128860356736823e+03
2.143383103589956136e+03
1.189869842063924352e+03
8.335438708926860727e+02
4.799301895201681873e+03
6.713093216039769686e+03
5.146919542723324412e+03
4.365792809642068278e+03
1.687672081007415045e+03
-1.534442474644201411e+03
-2.225553573043949655e+03
-2.958675929055856159e+03
-3.060850996409106301e+03
-2.072123495459424248e+03
-3.749465414962014165e+03
-8.041950065461483064e+03
-8.547714021045132540e+03
-2.466679583206560892e+03
-1.006747760241850642e+03
-6.825013107045883771e+03
-6.625528820018238548e+03
-5.320302407408309591e+03
-3.331292743878433157e+03
-5.868508258035242761e+03
-1.021499564688772807e+04
-3.538730387905691714e+03
-8.697571855177117186e+02
-3.733137517963160462e+03
-5.446706704074549634e+03
-4.366388023392256400e+03
-2.460243168412089290e+03
-3.698487917556710727e+03
-5.362985606930451468e+03
-2.555705537269423985e+03
5.550450226981817650e+03
7.916349159610396782e+03
3.999872525396991477e+03
1.998218579145570402e+03
-1.884950157380437474e+02
-2.174039315988002841e+02
-1.103650928247748425e+03
-7.332033506248226331e+02
-1.746852699420884164e+03
-3.415353693835394097e+03
-2.700685415804947752e+03
-8.259321674947613019e+02
-1.875165462331949357e+03
-6.039459809383936772e+03
-3.081701494858799379e+03
-3.397050638735025814e+02
3.382502440893894800e+03
5.634767845987097644e+03
7.457124388908244327e+03
6.640566788579447348e+03
4.222182954173987127e+03
3.089076958117119375e+03
4.823132344916451984e+03
7.821444931864359205e+03
8.021079925773635296e+03
7.116170186195548013e+03
6.958833045651146676e+03
5.553896296602350048e+03
4.576317711910067374e+03
4.371324579179373359e+03
3.720894085237700892e+03
3.322960183927111302e+03
2.148718746002581611e+03
5.212495017066603396e+02
-1.563098165873603023e+02
5.672969290171046168e+02
5.082347355646446658e+02
-1.586461154433820639e+03
-4.469919767387066713e+03
-5.700043195853669204e+03
-5.030425952907879037e+03
-4.132076959879209426e+03
-3.071183429692417121e+03
3.831172345228269478e+02
1.453590119338599607e+03
5.021863706784593546e+02
1.140955946016154712e+03
1.278792934288121160e+03
3.147585447769380949e+02
1.208230490100625332e+02
-1.362266548447203604e+03
-4.085596266113958336e+03
-5.436869780575108962e+03
-7.101720675775207383e+03
-7.265876828252145060e+03
-4.176348955539840063e+03
-2.127185818801147889e+03
-3.857069520770039617e+03
-4.523921372171616895e+03
-1.219523468323573070e+03
2.620871059436463838e+03
2.760931758589348647e+03
3.397338700489718576e+03
3.705203404033141851e+03
3.751840927843720237e+03
3.092162083010160586e+03
2.622194888108604573e+03
3.246927990088195202e+03
1.672977823936266532e+03
-1.146537946944715259e+03
-2.127352858338895658e+03
-2.735329333966642480e+03
-3.600484284705297796e+03
-2.516874813831170286e+03
-8.684011006458972588e+02
7.529946138523432637e+02
1.434585985904379868e+02
-1.569813144724693757e+03
-1.580719957756933809e+03
-6.262430938992504252e+02
-1.401508929312981763e+03
-3.274983519866589177e+03
-3.107940825916372432e+03
-2.354015581149054015e+03
-1.827014096905285442e+03
-1.135310031744774051e+03
-6.987713831781040881e+02
1.423107374289736072e+03
2.243453342271402562e+03
1.848410558888028845e+03
-4.171055919285286677e+02
-2.463364413986362251e+03
-3.456231808410430403e+03
-5.892463772425759998e+03
-6.252876880433048427e+03
-1.724644506521399080e+03
3.182110870800384419e+03
3.578487881718514018e+03
2.284506346997583023e+03
2.582632340385093357e+03
3.817959842235353335e+03
3.604341849739072131e+03
2.219890349636478277e+03
1.880257491933418805e+03
1.639145162455155969e+03
2.406480407781094982e+03
2.644171067974315520e+03
2.262648293979643313e+03
2.031125191668192656e+03
1.755844828011314348e+03
1.850533974591044625e+03
1.150916042852534702e+03
-4.820837556527145011e+02
6.463292322637312282e+02
6.851920710657643667e+02
4.256822739897239103e+02
-1.353893497576426853e+03
-1.023475263290854969e+03
4.022094795606568596e+02
6.569531580711045535e+02
-2.291503693031177704e+02
-8.231781111310716597e+02
2.101887510550558247e+01
-3.500113413593454084e+02
4.325271002074119764e+01
5.039451476776677055e+02
1.119059201321985483e+03
9.237144838461455265e+02
2.484701315560392345e+02
-5.428840097406263254e+01
-2.147594348596831182e+01
6.701705721402927338e+02
9.493243115265341885e+02
4.191303739578444834e+02
4.539239666674527598e+02
1.444715556417341134e+02
-2.483558667548336274e+01
2.702613477308494225e+02
1.973561714136361189e+01
-4.945830403637914401e+02
-5.559494788866348927e+02
-1.903408289471954902e+02
-1.664386879907370655e+02
-6.621225005805472392e+02
-3.916051469459901568e+02
-6.982214202251309416e+02
-1.937118098214520160e+03
-2.106973160646335145e+03
-1.354913819262380002e+03
-1.108102770924749166e+03
-5.578478250598234354e+02
1.427040180728157281e+02
-1.222436342839961014e+02
-8.112963837021302425e+02
-4.723744363020835522e+02
-1.255140009920780955e+02
-7.628428983775010011e+02
-1.436733651358875022e+03
-3.714505403459450577e+02
8.194115377842599628e+02
1.513930866124939939e+03
1.421190535412261397e+03
5.818816670980020263e+02
4.501122607521417081e+02
9.001193142147027402e+02
4.111430354183528948e+02
-5.239933477313214780e+02
-1.463129369921544594e+03
-8.861844845099641361e+02
-8.612250172921330886e+02
-2.021578161644497868e+03
-2.223267535036327899e+03
-5.612009474921718493e+02
6.963874238294960151e+02
7.738259587877390686e+02
-3.547168052444568502e+02
-1.272352974535077465e+03
6.258454865479707223e+02
2.092799512800527282e+03
1.848195653822053373e+03
1.661038598652013434e+03
1.033613966810900138e+03
5.748655429798350269e+02
-1.243374366342465152e+02
-1.325314046055474591e+03
-3.127809013674481321e+03
-3.005668688424379980e+03
-2.354853443125975446e+03
-2.450577155784415027e+03
-3.454468673357830539e+03
-1.475615840159448908e+03
-9.177638805540411795e+02
6.893338158066774213e+02
1.288710137677467401e+03
2.120265452964592441e+03
2.041801681421933608e+03
1.738283154778239350e+03
1.807715027546345254e+03
1.757151698018990828e+03
1.445574152038001102e+03
1.279948605599994153e+03
9.494361002780141234e+02
-1.290731985058305099e+03
-7.360704057267035978e+02
1.273617163088942448e+02
-4.119656542190118564e+00
-6.958554151899202225e+02
-1.166028710523201880e+03
-6.903179875896224758e+02
-3.034318228768278459e+03
-6.599302795781014765e+02
2.526709647441922186e+02
-8.296862257899346105e+02
2.849394245891293735e+02
-1.958503742209998563e+03
8.300595101162578260e+01
5.573804399264276981e+02
8.736570712775887841e+02
9.990584643062940131e+02
4.134877742315197793e+02
-1.687074914778244874e+03
-1.352864928871871371e+03
-3.197832223709153823e+03
-2.416803317059576784e+03
-8.746177644915360361e+02
3.667197611823669323e+00
5.470549872958961259e+02
3.301830968376664259e+02
-3.884199975459770116e+01
-3.727355739529634775e+02
-7.515095895873466816e+02
-9.519508655992935928e+02
-8.619577742231168713e+02
-3.076953790454297746e+02
1.339105196865459391e+02
3.608257216693218083e+02
6.619812285512091421e+02
8.495746028705491426e+02
8.059504963985892800e+02
7.599517122113832102e+02
5.889056574063423568e+02
1.349220632396773283e+02
5.967153084945834962e+02
6.211924334362951186e+02
5.252261941888887122e+02
-1.825484806920439596e+01
-6.448606934468870122e+02
-7.323466293800781841e+02
-1.898561091928676433e+03
-1.637259991439339728e+03
-1.460629704246465508e+02
2.072285550011009718e+02
-1.762010192950931398e+01
-8.290639918367122618e+01
1.196050242298665154e+02
5.779459569232050171e+02
1.330667226281701005e+03
1.501552649912282959e+03
1.042665777278617043e+03
2.837711075462028703e+02
-5.203535149778912228e+01
4.824747494413813911e+02
5.788877428871298889e+02
3.020627502190645828e+02
-2.529591017823601078e+02
4.891881729586292522e+02
1.236366620154890370e+03
1.487709500363501775e+03
1.044131812348692165e+03
9.767151563110218149e+02
9.047019492439460464e+02
6.315121747707786426e+02
8.771674955720045546e+02
9.428146466902828706e+02
1.132339957202685810e+03
9.886950115392904763e+02
1.162104794108839997e+03
1.848776837569790814e+03
2.312603405630811721e+03
2.482377107709851316e+03
2.167125685258881276e+03
1.967996209155838642e+03
1.827105669518924969e+03
1.227437526590360903e+03
8.400484913909099305e+02
1.315841406333654959e+03
1.480021954229578569e+03
1.162720745729497594e+03
1.444973423589173763e+03
1.720769152309817173e+03
1.679184138714330629e+03
1.786158523481404472e+03
1.935522484935429020e+03
1.872364031072488842e+03
1.286926975173113533e+03
6.683500298105362845e+02
2.425140171539721052e+02
7.863161355304956714e+02
1.544707931833179600e+03
1.422627015073077246e+03
1.467921181815043155e+03
1.961713298855178664e+03
2.085148855068302055e+03
7.601425952179442902e+02
-1.029281897191814551e+03
-3.534041294123201624e+03
-5.122196809290490819e+03
-4.979589460225129187e+03
-1.048086709005490093e+03
-3.252747575532401243e+03
-4.734536345325171169e+03
-3.735540956683654713e+03
-1.396023769121080022e+03
-1.046972955191642313e+03
-3.391126738503388879e+03
-5.378536689417805064e+03
-5.289474207265348014e+03
-3.394090545720082901e+03
-1.835063511047031398e+03
5.525048999558905507e+02
8.946661416492988792e+02
-2.656611828661230902e+03
-1.871297674463728754e+03
4.366720465086295917e+02
1.054182259878169361e+03
1.542450184345100979e+03
1.102592224884155030e+03
8.434999010301996805e+02
9.282449939150354794e+02
1.045809368222972353e+03
9.640334810121457849e+02
1.136842169649002699e+03
8.621877440780502866e+02
2.942278543510818736e+02
1.411715817917707305e+01
5.187600878420005301e+02
1.058022963901756611e+03
1.398040599948138151e+03
1.126928455275425904e+03
1.005588510018922193e+03
1.141925438812891116e+03
1.017913366056783161e+03
6.335658361258325613e+02
1.918861097127374649e+02
2.968211768524605176e+01
1.710334117873231321e+02
-1.249358405006677231e+02
-3.080794700110182589e+02
-6.883663292354299301e+02
-9.608023668604411114e+02
-5.052828893138117223e+02
-2.969406914232964709e+02
-4.332012486600571606e+02
4.477007651905305607e+01
5.023029759317606135e+02
7.345668209212130932e+02
7.273925641685823393e+02
2.567436524797324751e+02
2.347112948181436991e+02
7.234303049374191232e+02
6.598337489933551296e+02
6.208617075864623303e+02
3.254601798364854517e+02
-7.324861322773205785e+00
6.253057980404353344e+01
-3.698033987601711203e+01
-1.788297222100783301e+02
2.793970113818759771e+01
-7.757560448448703028e+01
-4.362874797660512627e+02
-2.254314293797647792e+02
-2.789471488956039593e+02
-3.407926490198069018e+02
-1.887951165138487113e+02
-3.670731004988341510e+02
-5.787733038604078502e+02
-1.031869465297500710e+03
-1.671258330234474670e+03
-1.063830828634160525e+03
-4.417850259007671525e+02
-4.390213737772469926e+02
-7.146300520639989600e+02
-8.366254167305261262e+02
-1.035027653095633923e+03
-1.300819540294255830e+03
-7.590724900230188723e+02
-5.146391999743170800e+02
-3.235301574231601762e+02
-2.096703087917924506e+02
-1.782249301690054324e+02
-6.297513815922224012e+01
-4.450002541338255355e+02
-1.603655322442836280e+02
-2.069674551601966641e+02
-3.458528273580535597e+02
-6.619040832890499360e+01
7.736521824831798710e+01
-1.711987281390033218e+02
