-3.305541895419774505e+02
-3.937103496956079312e+02
-5.323546627113560135e+02
-2.079541978616426150e+03
-4.318264731291938006e+03
-2.978616726652118359e+03
-5.182670077467427291e+03
-7.177460453205047088e+03
-7.041992283042150120e+03
-6.947345807677701487e+03
-5.150549123007720482e+03
-3.037636026643628156e+03
-2.465576750923934313e+01
1.032356330817110575e+03
3.904022388591269532e+02
6.044453836957735575e+02
7.915304322668444001e+02
4.755608882786017944e+02
2.795026379583792959e+02
5.645126349645895516e+02
8.824074477203148490e+02
1.153055296890944192e+03
8.824309401271284514e+02
6.335272045988546097e+02
5.163142083807888412e+02
7.307839038858619460e+02
4.671055828247426689e+02
3.752016037757924778e+02
5.739449514472927376e+02
9.280100414348734148e+02
6.437762485931793890e+02
7.810289401152632536e+02
8.308599356411256167e+02
6.202973692620198563e+02
2.603461111123144178e+02
2.388150223412005460e+02
3.225211361946534794e+02
5.487722664874796692e+02
4.344052218460911945e+02
3.515114202601737361e+02
4.458994207854233878e+02
4.387676190805535725e+02
5.878877396494185632e+02
8.045160470593565378e+02
1.061386811401087243e+03
9.605310597260074701e+02
7.079891608784255368e+02
1.187860732916920824e+03
1.091218351867764568e+03
1.057762806372634032e+03
1.236865249637972966e+03
1.210468750026769612e+03
8.742432245345767114e+02
8.684309064483087468e+02
1.332193560846768378e+03
1.353210811696189467e+03
1.160835642855160586e+03
9.668771146494418645e+02
8.204694836556936934e+02
7.394682793686922651e+02
5.280082413086593078e+02
7.652692784566174851e+02
1.026781238385796541e+03
1.117994916784733277e+03
8.647065114502041752e+02
9.279360381013423194e+02
1.002763449350716201e+03
8.422227006710813839e+02
8.253427868425003453e+02
8.431629295835106177e+02
5.237482044487943540e+02
-1.328984524921046955e+02
7.626553245429370520e+01
6.793059168071488330e+02
1.111263763551153033e+03
8.091732651485550605e+02
5.380933250727393897e+02
4.300524844245178429e+02
2.710378888940982165e+02
-5.825441067047187005e+00
-1.265232648641115929e+03
-1.099284483163744198e+03
1.069927634499672564e+02
6.936874398842827532e+02
-9.462113625726287864e+02
-4.390703573122129455e+03
-8.527126476343347576e+02
-9.522442548181852544e+02
-1.546252593799937358e+03
-1.140668895440289589e+03
-4.726393262906241034e+03
-5.855401914285886050e+03
-6.146652752896399761e+03
-5.529084424738631242e+03
-6.168646398934570243e+03
-5.995330619420232324e+03
-5.901050681492070908e+03
-5.068742686484446494e+03
-5.187377599405553156e+03
-5.243900984770103605e+03
-4.847259173629528959e+03
-4.593400064614647818e+03
-1.185301472967317750e+03
1.639094349725021175e+03
1.746846290609532161e+03
1.552994237992694480e+03
1.808601951011046822e+03
2.074707976051981404e+03
1.075314114593669501e+03
1.548475451067135964e+03
1.989241994782481470e+03
6.546651951016443718e+02
-4.075247846143797688e+03
-5.102462771764391618e+03
-1.291885983244440467e+03
1.785513711369963858e+03
2.381760276850846822e+03
2.206896723892012687e+03
1.888930824999761171e+03
1.758963290907097871e+03
1.898012679241258184e+03
2.108082153683083561e+03
2.068196932499046397e+03
1.930385721740124609e+03
1.640637304841312698e+03
1.556044636073785796e+03
1.552672013808330803e+03
1.912481438090214851e+03
1.952454155723171425e+03
1.522642287646646309e+03
1.683063507081408716e+03
2.210747919959212595e+03
2.415709944006270689e+03
1.997950823381155487e+03
1.727505252901439462e+03
1.930339970641451146e+03
2.099491437160509122e+03
2.085978718202953587e+03
1.828980616605718069e+03
1.944559487452361964e+03
1.765737741607736552e+03
1.901551412849532881e+03
8.870111682335252681e+02
7.297141703702041582e+01
3.464353046038357320e+02
8.514467179846637919e+02
9.120399197476194786e+02
1.019171023225555246e+03
9.217424652221221777e+02
1.092753095826489698e+03
1.038218283891289957e+03
1.330083826322854293e+03
1.192321783638015859e+03
1.482955347514276809e+03
1.442832038320426818e+03
1.291950401894072911e+03
1.544376744623466720e+03
1.237157544352776540e+03
1.398136735295625158e+03
1.753312956415097688e+03
1.796640598598570705e+03
1.765072698430913988e+03
1.745623843713868382e+03
1.659287440604851326e+03
1.663997038602393786e+03
1.711758620031542932e+03
1.592367283332086117e+03
1.424528114318485677e+03
1.420299117262983373e+03
1.130591895109873121e+03
1.076394181566460247e+03
1.116660798673703994e+03
1.215299039101482322e+03
1.323280878822862633e+03
1.169612262220667617e+03
1.205246335972588213e+03
1.177121116366752858e+03
1.343192666802211988e+03
1.059387839653581068e+03
7.216978893718259087e+02
8.190859288644306844e+02
8.595368367282410418e+02
1.024012032831833267e+03
1.074478083393400084e+03
1.374883800076063380e+03
1.345184157028382288e+03
1.049287367991687233e+03
9.421954705291002483e+02
1.151920326179829090e+03
1.279385458537610930e+03
1.349513815248412584e+03
1.183270127114710704e+03
9.816575512194471003e+02
4.356007972057669235e+02
4.880958409033036673e+02
-1.412907708135228859e+03
-4.158399013207191274e+03
-6.758417883772811365e+03
-6.449991687229617128e+03
-7.034165704356813876e+03
-6.880928311058891268e+03
-6.735296134044491737e+03
-6.877324857355692075e+03
-6.249102822249919882e+03
-5.862651848300762140e+03
-5.905959069779116362e+03
-5.803085796208166357e+03
-5.599201118184043480e+03
-6.101077969635424779e+03
-5.893773816189214813e+03
-4.292284035816952382e+03
-2.369660661460071879e+03
-5.143944667453731199e+03
-5.279138765465376309e+03
-5.092512182865291379e+02
1.442693218560730429e+03
4.666382884363380867e+02
-1.516377658047921841e+03
8.296468403462376955e+02
1.392662630621296330e+03
1.580712639760611864e+03
1.525777363033106667e+03
1.153874025911224635e+03
1.244025072698879967e+03
1.295226111229274011e+03
1.152471106067539267e+03
9.328233969666401890e+02
8.103167192311848339e+02
5.399208581618014477e+02
8.047601255846454933e+02
1.150846862245580041e+03
1.816130299139819726e+03
1.894544482887133427e+03
1.696035094886273328e+03
1.565633429943161218e+03
1.693333263892494188e+03
1.842137268365064301e+03
1.665068489394381459e+03
1.477247104548914649e+03
1.603688277128295340e+03
1.424390464708144464e+03
1.296405216114779478e+03
1.030784570041735833e+03
1.078591454111314761e+03
9.508477260498375472e+02
8.025421249256550027e+02
5.216383815250306952e+02
4.372163730007002300e+02
4.193678644692856778e+02
3.631307640071366905e+02
6.359900012001116210e+01
3.841327595158737118e+00
-1.040821168600474067e+02
7.275635498340822949e+01
-1.726537772871347158e+02
-2.642976866656452444e+02
-4.141439416396479487e+02
-2.252165181342581946e+02
2.947939982870858699e+01
6.101880258478785635e+01
5.026716094516466455e+02
7.966341556866934752e+02
7.896174306994978451e+02
4.379336965894352716e+02
4.718202309053901331e+02
3.973952766762739088e+02
3.636481252802332165e+02
3.393389545600085739e+02
9.026053227509758869e+01
-5.107880707137280183e+02
-2.976466139788939813e+02
-7.860804080617037926e+02
-1.288931018855646471e+02
1.300861642593559679e+02
2.675286391527327012e+01
2.229439920340736307e+02
3.036570783425066793e+02
1.899075424379979324e+02
1.998307263013660702e+02
-2.638263520407275564e+01
1.417833943560622600e+01
-6.508774704319515436e+00
3.146927824526877657e+02
3.549694997225962538e+02
-1.374734793002271793e+01
-1.204719096032783483e+02
-1.811970773130125778e+01
-1.685963792504716707e+02
-3.302214865545159483e+01
1.215435457829476888e+02
1.923329860337227331e+02
2.156119607317826876e+02
3.592348271735779690e+02
4.308331130460130680e+02
4.073228629897041060e+02
4.748072341515621133e+02
5.223251374278395360e+02
1.518074496596965730e+02
-1.635661714307451007e+02
-2.923413908910007422e+02
-8.211106582964158918e+01
6.056104135290198087e+01
1.045571811684835950e+02
9.215617304324516113e+01
1.454419591928576097e+02
1.547171604278363759e+02
3.092623458776894836e+02
4.624970650957833413e+02
6.144516574190646452e+02
8.379914249370192465e+02
8.771456652686033522e+02
9.519886559597051701e+02
1.093843993375451646e+03
9.988575209846628695e+02
1.007791500324281742e+03
8.955565478178054946e+02
7.614456245590916978e+02
8.316129749183514832e+02
7.901234995561954975e+02
3.361834674938364742e+02
3.376114311711930327e+02
6.687673072942233148e+02
8.194143110533520939e+02
9.304154556598701902e+02
9.688187628974393419e+02
8.296310458538391686e+02
1.060087656669928492e+03
9.865134568662982701e+02
8.887919397905121741e+02
8.287166198385041298e+02
9.519833848160768639e+02
9.356758176587502476e+02
7.699273313208193485e+02
6.983318865893588736e+02
-3.149488988051401179e+02
-2.370370876177925311e+03
-2.181509892576707443e+03
-2.203395490888416589e+03
-2.597996169628873758e+03
-4.071978050532941324e+02
5.447099390970585091e+02
4.826430836766377297e+02
1.027851639260848287e+03
1.215931917629341797e+03
1.075301317707071121e+03
9.703764381823402800e+02
9.252698808764993146e+02
7.379133032874152605e+02
8.266460304884565176e+02
8.929704985644367525e+02
1.136919439708831078e+03
1.184010540485354340e+03
1.262993895726084475e+03
1.403401861219891316e+03
1.344169426619124124e+03
1.522469237332908051e+03
1.734302561172834658e+03
1.759769067099410677e+03
1.589251946402735484e+03
1.481086074703186796e+03
1.407590282260869571e+03
1.127991759658315232e+03
1.064672901000886668e+03
1.251696239281156977e+03
1.391471207488629489e+03
1.160828214578454208e+03
1.161444418309875573e+03
1.164988389351818569e+03
1.010108080168686342e+03
1.040021796666572527e+03
1.223440541120332682e+03
1.501954150993065923e+03
1.543498974351617790e+03
1.548530228527789859e+03
1.053348868762899656e+03
1.027007673347434093e+03
1.111268076008502248e+03
9.228577951786090807e+02
8.594339972499772102e+02
8.607138367025411299e+02
3.218598168068017458e+02
3.951654821775128426e+02
8.076567661537462754e+02
8.002064199903351209e+02
5.766163533920637292e+02
5.435948020744330051e+02
5.141536048074522114e+02
4.675127861551985688e+02
6.827628429302882296e+02
5.611804122622733075e+02
6.225816535336020934e+02
7.454816606082307544e+02
-9.310483584732585882e+01
-2.160057745887674173e+03
-5.151429312595024385e+03
-6.365043384827392401e+03
-6.449679284865937916e+03
-6.086186743273198772e+03
-4.869749999918620233e+03
-5.254385639942967828e+03
-5.638278644764593992e+03
-5.503379255063098753e+03
-5.285360319465121393e+03
-5.024780694713655976e+03
-5.310518526270521761e+03
-5.428928422458727255e+03
-4.946218846189835858e+03
-4.664979924103759913e+03
-1.695142559483857895e+03
-9.649759784569303065e+02
-3.865519572466441332e+03
-5.042294524699365866e+03
-5.073707074413779992e+03
-3.913639083820921314e+03
-4.460189687942550336e+03
-4.660719189541118794e+03
-4.764299364975321623e+03
-4.930858062869673631e+03
-4.831088102760823858e+03
-4.629626047264303452e+03
-4.422467610081493149e+03
-2.638782387180836395e+03
1.757343859813199060e+03
2.271159598324853505e+03
2.764885453861822953e+03
2.854597472153219769e+03
2.876379571194003347e+03
2.724259605884098619e+03
2.431328537679948568e+03
2.386728361208012302e+03
2.553526300896458451e+03
2.665829086877396549e+03
2.361703308840617410e+03
2.318259591269926204e+03
2.287674627182281256e+03
2.237131914992450675e+03
2.044555575069312908e+03
1.920872582054696977e+03
2.003207963140448101e+03
1.731735406568884400e+03
1.651635100196063149e+03
1.479937024556953475e+03
1.238668380771678358e+03
1.353901204385883375e+03
1.322683760012008179e+03
1.269051924417154396e+03
9.641370691700552698e+02
6.480878606508061921e+02
6.090372827530761697e+02
1.510649104785663610e+02
1.871540122696815729e+02
2.551926762898372374e+02
3.564805038342544208e+02
6.253241796867876019e+02
8.347485252440487784e+02
7.304316214619365155e+02
6.263489978919017176e+02
9.820699474815448866e+02
1.472056393732269271e+03
1.428188663524464573e+03
1.315248139891221172e+03
1.381019260718461283e+03
1.463504099686149402e+03
-8.103239902285504286e+02
-7.994204770220875389e+02
1.432177965605081837e+01
7.990984788984294482e+02
9.406254558399157304e+02
8.344072913161962788e+02
8.128498877072796631e+02
1.207069293908320333e+03
1.392726204647419081e+03
9.810630976035164394e+02
1.079943107925173308e+03
9.174039744422601643e+02
5.493681588330157410e+02
3.456209774711229556e+02
3.194448961750770533e+00
-2.527567256855045343e+02
-4.902490946908088176e+02
-7.385771085671444780e+02
-9.669016604896182798e+02
-1.070279278713872827e+03
-7.347612934720757494e+02
-4.673432957437282766e+02
6.519605921303458445e+02
1.934059762920378262e+03
2.705834674883717071e+03
3.301092182736780160e+03
3.565769965213227806e+03
3.805867625772032170e+03
3.512466924540801301e+03
2.807290046045961390e+03
1.765223615900013101e+03
1.399247889617418878e+03
1.504246645305457378e+03
1.221088542443636015e+03
1.186684019955688427e+03
1.360938063699319400e+03
1.769780501776324854e+03
2.113126105988873405e+03
1.686880516570790405e+03
1.117917186017010181e+03
7.221226062151372389e+02
3.313666179997804306e+02
2.144915735269741504e+02
8.664023943137082142e+02
2.090139434133639497e+03
3.923649985368288071e+03
4.585742862535595123e+03
5.008307466368396490e+03
5.421191552761043567e+03
5.533207278676095484e+03
4.668274591362330284e+03
2.902252401524260677e+03
9.780307501492692381e+02
-4.146559050352611564e+01
-4.643889662329190742e+02
-1.935880630303345470e+03
-4.078017190743583797e+03
-4.388866787017760544e+03
-1.486582379827703562e+03
1.540722311711595694e+03
3.622989604278244315e+03
3.673104257390100884e+03
2.009966529250401209e+03
-1.651970689374836709e+01
-1.694489957515541619e+03
-6.718851938934561758e+02
2.620981288057765141e+03
4.194899485798173373e+03
3.342212612193132827e+03
2.216651669038028103e+03
5.610645386027412087e+02
-1.056271309650371251e+02
6.864963541109095786e+02
-1.786025169882406942e+02
-2.057016099787773328e+03
-2.592816202097986206e+03
-1.583100954852831819e+03
-1.612917125980150786e+03
-1.962279463383657458e+03
-1.337231838014951336e+03
-2.598719214618001843e+02
-5.562413034279620661e+02
-2.261420283398456377e+03
-1.720417764704577849e+03
2.344773345583492755e+03
5.555099916591990223e+03
4.191502225738430752e+03
1.171982475305624575e+03
-1.822445750713988446e+03
-5.355800273560051210e+03
-1.099909409721444536e+04
-1.603431491378121063e+04
-1.590542259176379230e+04
-9.773431581637456475e+03
-1.015038426962084486e+04
-1.288424277193174930e+04
-1.263897785589189152e+04
-1.025358317579440518e+04
-3.264985613243597982e+03
1.015582507590933346e+04
1.954888396404311061e+04
1.753023305755900219e+04
1.281792200378252892e+04
7.750966620457020326e+03
3.152460170986617868e+03
1.801504909467716743e+03
2.229138602659617391e+03
-4.725504360391420278e+02
-4.988458337698815740e+03
-6.169527216643918109e+03
-5.274676579755237981e+03
-2.243812866159566056e+03
5.307160368269779610e+03
1.284239714092449867e+04
1.335495266417934363e+04
1.147094625640933918e+04
7.640479616925243135e+03
3.681640143561444802e+03
-6.474587723327962294e+02
-2.183643014874253367e+03
7.851749540277685355e+02
3.026148259849154329e+03
4.490413891707096809e+03
3.166093025595275321e+03
3.337316773167770862e+03
5.424206199933672906e+03
2.810906175696164610e+03
2.661549592290609780e+03
-3.656545702407625868e+03
-5.109137137824604906e+03
-8.110293537251544876e+03
-9.387816865158283690e+03
-7.258484338403958645e+03
-8.508339041457344138e+03
-1.341017065620844733e+04
-1.826978144199791132e+04
-2.186209837486892502e+04
-2.339394298097209321e+04
-1.925918443603040578e+04
-1.039263023541076291e+04
-4.167117722750197572e+03
-2.896479017938047491e+03
-7.013600617255322504e+03
-9.975364457719226266e+03
-6.810620463214420852e+03
-4.693207879786260492e+03
-8.076985822146958526e+03
-1.165577779376738545e+04
-1.398244121787858239e+04
-1.620985877486205391e+04
-1.634087600725484481e+04
-1.017632513511689649e+04
-7.052058117129075072e+03
-1.206290414365561628e+04
-1.724971770566731357e+04
-1.809631987499324168e+04
-1.715454251670781741e+04
-9.171263783180584142e+03
-2.202367196177366168e+03
4.406349107552798159e+03
8.934992149916641210e+03
8.169620523622219480e+03
6.284265189483554423e+03
3.635026241398203638e+03
7.639582418348138617e+02
-3.129793583826471149e+03
-3.247099614135732281e+03
7.171284186565509344e+02
6.917064811399799510e+03
1.212479779879765556e+04
1.571345210798747939e+04
1.596013018217125500e+04
1.230193080259211638e+04
1.021194769570638346e+04
1.196033894470999621e+04
1.514613998561195876e+04
1.782434763352278242e+04
1.916405973835227633e+04
1.655225043230073061e+04
1.293091263503617120e+04
1.225313537586670100e+04
1.333523149704821844e+04
1.865146709767408174e+04
2.216859679372381652e+04
1.967121168528115231e+04
1.714555433158791129e+04
1.556099972131723916e+04
1.238167766939115972e+04
1.030363762756994038e+04
1.099376759393430984e+04
1.345598345550397062e+04
1.394926725653688845e+04
1.250340526360174044e+04
7.391533599994079850e+03
2.118629009314169252e+03
-1.203497056412312958e+02
2.418637816438706523e+03
6.942327970486487175e+03
6.669564979349380337e+03
2.820403009112718337e+03
2.846721828366378759e+03
3.515407658532771165e+03
-9.388760039958302741e+02
-7.750020282450993363e+03
-1.089662090259625802e+04
-7.423157132027716216e+03
-1.728031853214168223e+03
2.527247136890808633e+03
2.210117770877069688e+03
-3.755667199499890785e+01
-3.316922797143939533e+03
-4.291052674157012007e+03
-1.359042250574691707e+03
1.247042553415956036e+03
1.036661123849561363e+03
-1.659239484895133728e+03
-2.938348525722376053e+03
-2.699335795125123241e+03
-2.370281927014857501e+03
-2.349636652850626888e+03
-2.975535232041035215e+03
-3.631205255478158051e+03
-3.595871631552599865e+03
-3.816702773989541129e+03
-4.138900865287327179e+03
-4.679637635126730856e+03
-5.125066369422859680e+03
-4.145411682040176856e+03
-1.970825641871271273e+03
-1.676516491685719984e+03
-3.155687611994441795e+03
-4.519555541267450280e+03
-4.788341851274736655e+03
-3.790193303227773413e+03
-2.900292939892450249e+03
-2.847812358935522752e+03
-3.216937584832211542e+03
-3.952925888953102913e+03
-5.105964736009872468e+03
-5.793291306755388177e+03
-5.585101671896542939e+03
-4.658568328089695569e+03
-3.353944951859974935e+03
-3.351387567244367801e+03
-5.294069123003770983e+03
-6.794220855511428454e+03
-6.716024843146125932e+03
-7.659638468012986777e+03
-1.137327641795051750e+04
-1.834711806255657939e+04
-1.891130702940858100e+04
-1.340310004993324401e+04
-8.869714950537270852e+03
-5.690300990235240533e+03
-5.242989429782975094e+03
-5.395976985729630542e+03
-6.084450510297873734e+03
-6.380441718284737362e+03
-6.205082011401201271e+03
-2.405568434220306699e+03
1.999960269974323523e+02
-2.798632291266260381e+03
-6.170626712179228889e+03
-6.138113311462800993e+03
-4.597241951897551189e+03
-1.004104592460354979e+03
-1.295771380067416203e+03
-2.390393274719342116e+03
4.777770471052318726e+02
-1.122378020510947465e+02
-2.143059567672949584e+02
2.252296850327191805e+03
5.435441368393197081e+03
6.433099078051971446e+03
6.108239554061658055e+03
5.440741576214414636e+03
4.543539842624545599e+03
4.422505727827272494e+03
4.799428113125999516e+03
5.592390138710965402e+03
6.122255493561602634e+03
5.600352770722571222e+03
4.597323592060721239e+03
4.146637327849169196e+03
6.042980386177102446e+03
5.993287764419731502e+03
5.652633758635072809e+03
5.910057269505895420e+03
5.868456275889400786e+03
5.669645705371595795e+03
5.204210082960201362e+03
4.712049267808964942e+03
4.349999234548582535e+03
4.509080522898783784e+03
4.698363992526041329e+03
4.625944333185425421e+03
4.276889295926504929e+03
3.729309422459177767e+03
2.420219744047246422e+03
9.357135848382397398e+02
9.568380183240897168e+02
2.134630216100200869e+03
2.486099235684589075e+03
3.388419338687144773e+03
3.568700088467563546e+03
2.909056145176277369e+03
2.520609304686716769e+03
2.078550996938782191e+03
1.768104075586882345e+03
1.778429931308813366e+03
1.813661368473989114e+03
1.429951149931433747e+03
1.196540883322954642e+03
1.119640348224778563e+03
8.211952817776847269e+02
2.671288092006801094e+02
3.477899605446176565e+02
3.521454192004017045e+02
1.594879332267976793e+02
-4.978856643137673927e+02
-9.617401394574154665e+02
-5.298227794707432281e+01
-7.043560904718557367e+02
-3.571982547514104681e+03
-1.259624533228708060e+03
-5.389583337045374947e+02
-6.487651591540601430e+02
-9.317738189340269628e+02
-1.161859435223570927e+03
-1.170102961983680416e+03
-1.166069000262620193e+03
-1.239339198802780174e+03
-1.350706152388490864e+03
-1.517331529550124060e+03
-1.591674972210514397e+03
-1.282645888396076543e+03
-1.317230838129286440e+03
-1.569272916780873629e+03
-2.116508477049086196e+03
-2.319592247094822596e+03
-2.032484744101100432e+03
-2.042352454869972235e+03
-2.400023117652651763e+03
-2.577965563432651379e+03
-2.474806185757063759e+03
-2.325274521281645775e+03
-2.230091861138961121e+03
-2.425830926016714329e+03
-2.168265963078987625e+03
-2.008588712115288899e+03
-2.206144073245564869e+03
-2.180318785739137184e+03
-2.125736966784477318e+03
-2.421463878118880530e+03
-2.116543744340602643e+03
-2.155241743810476237e+03
-2.114114607376189724e+03
-2.084971590124385784e+03
-2.028825650547504893e+03
-2.416235546202951809e+03
-2.620924350415629306e+03
-2.294710727693159697e+03
-2.248671730567819395e+03
-2.263792438968425358e+03
-1.821660082947054207e+03
-1.789934795957133019e+03
-1.930715637833449591e+03
-1.879042160490217384e+03
-1.947020838590732637e+03
-1.806001986733484500e+03
-1.907046241541727568e+03
-1.455594433918082132e+03
-1.165336728594038732e+03
-1.222954084476468324e+03
-1.459276610953722638e+03
-1.241125650226771540e+03
-1.102565698858969881e+03
-9.109165449036247537e+02
-6.611062111749954511e+02
-5.380586363077418355e+02
-2.714952196634112056e+02
-3.714451629557537444e+02
-6.910966957987282058e+02
-1.239053455170618690e+03
-7.004110225651149904e+02
-2.955804687634235393e+02
-7.238772354994758871e+02
-8.281118745488811328e+02
-4.413202720880493644e+02
3.731812630654023906e+02
1.275663240022178798e+03
2.005467710144872171e+03
2.457654179336006109e+03
3.027190878755043286e+03
2.963943933267541070e+03
3.358411717737166782e+03
3.949037076319955304e+03
4.631824516816113828e+03
5.140035426871470008e+03
5.191036411576929822e+03
5.380623052387018106e+03
5.482512845058394305e+03
5.425795483515369597e+03
5.752645222400497914e+03
5.773302203252569598e+03
5.548442798793986185e+03
5.379033547963110323e+03
5.223843808397439716e+03
4.749233315319863323e+03
4.501252502470521904e+03
4.189470714715347640e+03
4.019915728354785642e+03
4.402204306713556434e+03
4.972055823600773692e+03
5.439714167124167034e+03
6.653038853637238390e+03
8.163818364074451893e+03
9.178959410806464803e+03
8.987749300010118532e+03
8.700164413154423528e+03
7.679048601164653519e+03
7.064594136859687751e+03
6.396936038624243338e+03
5.289756584235433365e+03
4.322386496991367494e+03
3.433418126962561473e+03
2.924681508115863835e+03
2.180103585154629400e+03
1.576810495270559159e+03
1.112020893134347489e+03
1.084535091275335844e+03
1.226912667702903718e+03
9.267269421803774776e+02
7.350717174811048835e+02
-9.341532306114355606e+02
-3.717540422597826364e+03
-6.654267362312922160e+03
-6.434618072981919795e+03
-2.340902104007741855e+03
-1.364647561081937738e+03
-6.211917794488346772e+03
-9.045366254083359308e+03
-8.536042208193481201e+03
-7.842114442927952950e+03
-7.962503481057093268e+03
-8.180334564431697800e+03
-8.313931651794795471e+03
-7.806594779750716953e+03
-8.608296381851141632e+03
-8.791948855589376763e+03
-8.837353301784647556e+03
-8.196499519363678701e+03
-5.763661665591944256e+03
-5.422301777681326712e+03
-6.875776416209343552e+03
-6.710840170363030666e+03
-6.313280700694968800e+03
-6.294445151891108253e+03
-6.281532772622324956e+03
-5.217231199344007109e+03
-8.092835615692890769e+02
8.710005786847038962e+02
-2.011688375724300482e+00
-5.285681819631502549e+03
-5.686102934377288875e+03
-6.007020706705835437e+03
-6.517333385036886284e+03
-6.278997205663799832e+03
-4.934279795557587931e+03
-1.755558381048036608e+03
-3.232952479001934080e+03
-1.448293090581977140e+03
-2.957452109252200898e+03
-1.307610236924486117e+03
2.286083486841963349e+03
2.507569758421341248e+03
3.358784564094678444e+03
3.553726439886443131e+03
2.966356009196777904e+03
2.697567516045134653e+03
2.405329190749830559e+03
2.281615158680304830e+03
2.191394700305523202e+03
1.872643912444875014e+03
2.111224150828173606e+03
2.228944711754014406e+03
2.116889016651327438e+03
1.759195228529509677e+03
1.217842092858974411e+03
8.847315994454914971e+02
8.957496739386583613e+02
1.220859346846780682e+03
1.749142065686036403e+03
2.025583818292504702e+03
2.459204355334517913e+03
2.474085042072539181e+03
2.237217177849159725e+03
2.245536721288183344e+03
1.727979170559683098e+03
1.126457638342064001e+03
1.205070752385867763e+03
8.300525495954997268e+02
5.723933482553325121e+02
9.860249633918843983e+02
1.148032491495951490e+03
1.119705543758415388e+03
1.649453785655093043e+03
1.790877014917087308e+03
1.670464848237677870e+03
1.342232509171248012e+03
1.401241270617148530e+03
1.245717324858315806e+03
7.427516266513290475e+02
-1.065571102860166548e+03
-7.742326145223643152e+02
-1.223920154531792548e+01
1.855144830135828215e+03
2.209982704790911157e+03
1.888785943012942198e+03
1.671712673622052080e+03
1.620590102181513657e+03
1.879352945247767138e+03
2.218838358047681140e+03
2.656395527600036530e+03
7.831506254341110207e+02
-1.231658563332128153e+02
2.187783278396353580e+03
2.240027875172858785e+03
1.687413094244632475e+03
1.688931340512233874e+03
2.267784509554038777e+03
2.208138849536951057e+03
2.200130824603617384e+03
1.677874603373785021e+03
-1.366622540565111649e+03
-2.275306623513142313e+03
-4.402113204281721664e+03
-2.167983673248572813e+03
-4.238783288738220108e+03
-1.232853257255988133e+01
1.050415366394691318e+03
9.143505700492394226e+02
1.184706915016806306e+03
1.346570384626354098e+03
4.110011258559525231e+02
-3.348941521068497423e+03
-4.741093660514828798e+02
1.546672834446814704e+03
1.454453346830478949e+03
1.348287385325431842e+03
1.556222342240997023e+03
1.498319068578497991e+03
1.191679431449895674e+03
1.479425995608594349e+03
8.786499382545371191e+02
5.464976773207835095e+02
5.231008351805320444e+02
6.454284667264367954e+02
6.744375643190510345e+02
8.002474111650899431e+02
8.678776395341539001e+02
1.082425467712151885e+03
1.135080798221107443e+03
9.618339456675766996e+02
6.957440192530672221e+02
3.490152114293373131e+01
-2.816744894851593131e+02
-3.589538545354741217e+01
2.423188177307394255e+02
2.200120534891070179e+02
-1.090783460100476759e+03
-2.118029383707164016e+03
4.123667606314522800e+02
4.984067238475190038e+02
4.611463949938067799e+02
7.263998338575233049e+01
-4.820749356006934931e+02
-2.570930834255873378e+03
-1.109985504686375634e+03
-3.781833652480891601e+02
1.496398192915895606e+02
2.083474261934447895e+02
1.479537289372003954e+02
2.757502893421743693e+02
2.915430976807101047e+02
-1.991675187875967822e+03
-3.274968884594189149e+03
-3.187127509081703920e+03
-1.667219659039867565e+03
-3.070277714034216388e+03
-7.943124739470046052e+02
2.487008075023495053e+02
1.417072860413359479e+02
2.767127765185173871e+02
6.473548078266924222e+01
1.558106643691139936e+02
4.708846349773894531e+02
3.869116219087612762e+02
1.509010018178485950e+02
-8.313160371914000280e+01
-2.112575560667729349e+02
4.508596527290231748e+00
1.171293404579401169e+02
1.466013873586983323e+02
6.190761504703962004e+01
-1.570161770701125192e+02
-1.162188657191118466e+02
-2.369099220190798150e+01
9.152575009796802874e+01
2.391473542747725833e+00
-1.831154356505219312e+02
1.199148000517180606e+02
5.164946392025252635e+02
3.765751331677377607e+02
4.531027009664884986e+02
6.710035643277944928e+02
9.572668469742502566e+02
9.788593146815081809e+02
6.856772628367906464e+02
4.887319509583530817e+02
5.149709792734989833e+02
5.972715529188968731e+02
5.086198143583808928e+02
5.309715992304152223e+02
4.772430736719023230e+02
5.104108161808813975e+02
4.193962948032046825e+02
2.171796491379222402e+02
1.236539231990499701e+02
2.477461144993755511e+02
3.244496299500099781e+02
2.207609130936565123e+02
3.975611870440430380e+02
3.277906953974227235e+02
3.453569879470886121e+02
3.072221657312098273e+02
4.013427004422963478e+02
9.266433084164385718e+02
7.370720200763882985e+02
2.965087426998717319e+02
2.360208272583769826e+02
3.927499101088457678e+02
5.938333681410922082e+01
-2.191102074582458386e+02
1.282914889949973087e+02
-5.552049731610136263e+01
1.733674560479493820e+01
1.867711382752166571e+02
1.147603431360361128e+02
1.022506486664229897e+02
1.811658198994702218e+02
3.465205896147822955e+02
3.502319869710973421e+02
2.962418889920589322e+02
1.675004472502596968e+02
-5.210558637950376806e+02
-3.426423490142264200e+03
-3.477667288910982734e+03
-1.735825127357534029e+03
-2.472907374644270476e+03
-1.380156296068751374e+02
-2.221377058718972819e+02
-2.012662824999330837e+02
-2.564425924999607673e+02
-3.136191644390720512e+02
-3.848442952438095404e+02
-3.271671173285409964e+02
-1.426091818141088936e+02
4.183863534443287335e+01
-2.009173552146560269e+02
-6.219389941482440918e+02
-5.332022271329617524e+02
-3.108290373893591436e+02
-5.348681491095560432e+02
-5.323273491590609865e+02
-9.821518418293131845e+02
-3.827315073394457613e+03
-4.127772388845281966e+03
-3.021552695825529554e+03
-7.796781981885125106e+02
-6.790706539323874722e+02
-6.657230631483719208e+02
-8.046030112626506252e+02
-8.567703507682688269e+02
-6.022080395963724868e+02
-3.198957741514783493e+02
-2.178189875616493794e+02
-4.570194036933508528e+02
-2.911516841460685555e+03
-2.676273580365570979e+03
-3.069284450526517048e+03
-5.804248161313881837e+02
-3.375583604397461386e+02
2.743657086859400351e+02
3.491418909304663316e+02
2.304402438446097108e+02
1.214472050222465782e+02
1.768774331825293089e+01
3.106164572160915327e+01
-3.116669696711808797e+02
-4.595090003005543622e+02
-3.474156544368519235e+02
-3.293697340106282354e+02
-5.553597477905736923e+02
-6.195106899903552176e+02
-1.668177202692620540e+02
-2.369931449053479753e+02
-3.120319407069779345e+02
-4.692430178198631552e+02
-3.223936119356147287e+02
-4.425240482371257826e+02
-2.845847858752848083e+02
-1.487088456031859209e+02
2.961174836105352597e+02
2.788829029525770125e+02
-1.105816432702617504e+02
2.430951244246947454e+02
3.305749324903373463e+02
2.470186706398720560e+02
1.894604270095561276e+02
-3.265991669366510308e+01
8.535000447686280722e+01
4.024776804696089698e+02
6.877657084395746097e+02
3.432023949494914064e+02
3.106724780833757791e+02
1.150074158891200113e+02
5.756174234156700322e+02
8.222335060468632264e+02
5.249977580321399273e+02
5.187172877848598773e+02
7.795092737550583024e+02
7.832817702923370007e+02
8.012790573881691216e+02
8.445332851625148578e+02
8.290500079000528331e+02
7.647952812317882945e+02
