-3.393119375553164900e+03
-5.761769951528190177e+03
-4.010014992326077390e+03
3.850145810183650156e+03
9.692607214715369992e+03
1.237024747774259777e+04
9.157080926001106491e+03
6.811103867136481313e+03
5.210290318687527360e+03
2.709572322022565459e+03
-3.461003057873103899e+02
-4.041733170871301809e+03
-6.471338169649556221e+03
-5.544049017097355318e+03
-4.807909882602564721e+03
-2.535024250143766949e+03
-1.044653047076187562e+02
1.082799841499006106e+03
2.712804579005021878e+03
2.264450071758605191e+03
8.726716499648740637e+02
-2.060652814239818326e+03
-4.033468649484007983e+03
-2.355625397154010898e+03
3.319786696242727430e+03
4.280717397159703978e+03
4.902005692804274986e+03
5.350781029814993417e+03
4.821947090854485396e+03
3.843535423940507371e+03
2.666626763631793892e+03
-9.498937368293317149e+02
-4.665277562554021642e+03
-7.080645035169583025e+03
-6.555278332074327409e+03
-4.375946593739075979e+03
-2.931421190389486128e+03
-1.376051527491193610e+03
-1.969079541769676098e+03
-2.594436010263781100e+03
-9.572918507476987315e+02
9.792908282025197195e+02
4.408236473233799188e+03
5.664442998576517311e+03
4.628799790261829003e+03
1.744316269802287479e+03
-1.269255969355744185e+02
-1.103012583866291607e+03
-1.128117688678631112e+03
3.692387203074244617e+00
1.078377108852316496e+03
1.820801341846675996e+03
2.599934496768061308e+03
9.508130341459325336e+02
3.312493693368519985e+02
-3.637286695253417861e+02
5.279056066068274333e+01
7.358553085884636857e+02
-1.444214783871180998e+02
-5.741723033447661919e+02
1.539574829779408219e+03
7.549659602854671903e+02
3.893009673546721672e+01
4.532825513382366580e+02
-6.290544522713727105e+01
1.422773870364107438e+02
8.377180247673796885e+02
1.264229565388926858e+03
9.667848505232544767e+02
-4.757526392526321501e+02
-5.476450564814438167e+02
6.021374549871719637e+02
1.837723183002880432e+03
1.081380558446186768e+02
-4.324659757343722958e+03
-6.618818618412192336e+03
-6.615362167433421746e+03
-7.479110441986137630e+03
-8.654049668229903546e+03
-1.003526540155027578e+04
-1.067883817322861432e+04
-1.005486418839143698e+04
-5.988318142494051244e+03
-1.159140407473513505e+03
2.741438936410958831e+03
3.238113943057657707e+03
7.368704513611895663e+02
-1.300176888049083345e+03
-1.139854268091087988e+03
1.859017205321122674e+03
4.631441555487563164e+03
5.389202559655066580e+03
5.215265485063501728e+03
4.000882566647050680e+03
2.893128258220800035e+03
2.565812232791411134e+03
2.115684715379908994e+03
2.096160672638275173e+03
2.046607564935907021e+03
1.706839222338801619e+03
8.216473496626746282e+02
1.262901685204955811e+03
2.048435338383033468e+03
8.723553872635549169e+02
1.114974903632289767e+02
1.201997314471617528e+03
2.213995882903688198e+03
2.282565028896963213e+03
1.260716782918703530e+03
8.394987986390834749e+02
7.720502155757302489e+02
6.663223843578532524e+02
6.512089016734619236e+02
1.096745801161652253e+03
7.100543317444639797e+02
2.852348385834944224e+02
8.924096676646161086e+02
1.401547947578353842e+03
1.915510760794318458e+03
1.676517286346230776e+03
1.590732753164724500e+03
1.644038106507360226e+03
1.914414256194692371e+03
2.340005801076924854e+03
2.629916230561885641e+03
2.244218710296437166e+03
1.050863019009887921e+03
2.308940263646759377e+02
6.852722359949160591e+02
9.902523420384619612e+02
3.421332328656138202e+02
5.479302067822950448e+02
5.337094152227583663e+02
3.845366307129535244e+02
7.384672426248952206e+02
1.083117715026183532e+03
9.584877133143826313e+02
4.156981496099891160e+02
5.940429068911453214e+02
6.087074661387108563e+02
4.514519125370302390e+02
4.332828463983671554e+02
3.155177663622528712e+02
2.383663909007802033e+02
-3.347241143068035285e+01
-4.308309625368602838e+02
-2.702708661351261412e+02
4.311232987761617892e+02
6.676837344386120776e+02
1.232186382693987525e+03
1.671745310029869415e+03
2.270523145702608872e+03
2.346654164064594170e+03
1.818947832524360820e+03
1.424547929820331774e+03
1.455493568947058975e+03
1.070817444761301886e+03
1.103538794361707915e+03
1.450720537898269640e+03
1.580496433733883578e+03
4.969253443713777187e+02
-7.065160680824177462e+02
-2.132551628618828090e+03
-1.356097430538683739e+03
5.845110767881142237e+02
-3.103281572230422398e+02
-5.121959945101732956e+03
-5.981329027085693269e+03
-8.188855091165481099e+03
-8.467227388423785669e+03
-8.072877331553609110e+03
-8.137134961425429537e+03
-8.857752587192824649e+03
-8.596480397760162305e+03
-5.816513677767021363e+03
-4.319563317081955915e+02
-8.525553391607516005e+02
-6.344067973484089634e+03
-9.067615925892743689e+03
-7.840160199099144847e+03
-5.825390670565288929e+03
-4.943268822985890438e+03
-3.822565888162118881e+03
-1.431848345619806423e+03
-3.049164564103536122e+03
-4.152660150222315679e+03
-4.442544306075727036e+03
-5.525384070337204321e+03
-5.551225215724078225e+03
-4.972364870746430825e+03
-4.730140083514094840e+03
-3.239352770612135828e+03
2.607429927678480908e+03
2.989607874798629382e+03
1.538495916923936193e+03
2.743369310393793512e+03
4.035978404916202635e+03
4.389211291791978510e+03
3.335456164405794425e+03
1.777102955515126496e+03
6.793532116343610596e+02
8.501202659773692858e+02
1.123407873245606197e+03
1.544223866978333490e+03
2.396170538670138285e+03
3.577794740051810095e+03
5.132407126522931321e+03
6.917495579304805688e+03
6.718603561034724407e+03
5.509342946341105744e+03
5.087992557111252609e+03
5.038539072207454410e+03
4.432011816639704193e+03
4.001246213747248930e+03
3.831414472933258367e+03
3.669964944938087228e+03
2.806241467196851318e+03
2.238113775364131016e+03
2.605322013230696029e+03
2.475003405757673590e+03
1.827945040530668393e+03
2.171954208819373889e+03
2.265003676172337236e+03
1.856632740552640371e+03
2.657144113908087547e+03
2.496111791322380668e+03
1.719123239972697547e+03
1.476682050842495073e+03
1.379345240361568131e+03
1.597996420174264813e+03
1.386832087749546645e+03
1.409796187551748517e+03
1.394936474592057039e+03
1.583681092695331472e+03
1.547220061491905426e+03
1.011006434355442934e+03
5.611467062126678229e+02
4.097644552317885314e+02
8.119178890990913260e+02
1.609133524356563157e+03
1.615060481461178369e+03
1.051238070584247225e+03
1.498777068981686398e+03
1.889025952359277198e+03
2.175141034891206345e+03
1.998986543560076143e+03
1.833065512212073827e+03
1.243666166861670717e+03
5.380114530233055348e+02
3.487812151064375144e+02
-1.043210406045141525e+02
-7.415835233821013617e+02
-7.581958195280037671e+02
-2.597129256914766415e+02
1.999708403362104434e+02
-1.143521101310133474e+02
2.324087713007070306e+02
8.861478553871137365e+02
1.138897256971245497e+03
1.188286501035962374e+03
1.239678766889190911e+03
9.771048031937979204e+02
6.617040404297948726e+02
7.058285872840201591e+02
1.051372445009269768e+03
6.902171205301576720e+02
1.844332234979560781e+02
3.499293484481520267e+01
3.289249367111085576e+02
7.216570201902068504e+01
-3.357848482625771425e+01
-3.713235214674668896e+02
-9.382511108608262020e+02
-4.445560573706344485e+02
1.367824380458452538e+02
-2.233752646189594486e+02
-6.925601029778729156e+00
-7.127583562871739105e+02
-9.317837389494126228e+02
-6.571217678146347225e+02
-2.077120327427392112e+03
-5.593209745083973758e+03
-8.150145011531557429e+03
-8.366969145628476326e+03
-8.961711844016972464e+03
-9.465338652989617913e+03
-8.209818212547430448e+03
-6.267142897687751429e+03
-7.193146825252872077e+03
-7.836805965635889152e+03
-6.455220107662902592e+03
-5.327568810173653219e+03
-4.755028044995418895e+03
-4.806637238469329532e+03
-1.964457389227291287e+03
5.826088503787278796e+02
3.805598730310784390e+02
1.910599530935024859e+02
1.081137966446327994e+02
-9.614126191027543200e+02
-2.886417240810567819e+03
-2.784795672069226839e+03
-7.023614522594604068e+02
1.555861570037042839e+03
2.400862869086521187e+03
2.447578753336133559e+03
2.515831096174506456e+03
1.523620501859453952e+03
8.218687198250672736e+02
3.895530529139004443e+02
-6.390701737945927334e+02
-7.100732224513999427e+02
-1.501486282864271971e+03
-2.064366115810100837e+03
-1.348684903407596721e+03
-1.580279096893897531e+03
-2.663182511005468768e+03
-2.067639871792222038e+03
-1.856371183566183845e+03
-2.457334610595147751e+03
-1.163610190238842733e+03
-6.581329273432661466e+02
2.600420801701870346e+02
1.212868646172899844e+03
2.731372323911677086e+03
4.287683793491936740e+03
4.349897129633422082e+03
3.832945507830023416e+03
4.055767204983214015e+03
3.532365470313054630e+03
2.134041902820776613e+03
-2.629105181940971647e+02
-9.475766387596543154e+02
6.859204321491041583e+02
2.613727099378965704e+03
3.623916086709220963e+03
3.832538697306623362e+03
3.715604878187055419e+03
3.106096711337112538e+03
2.313698702018681615e+03
3.143278403525434442e+03
4.023847704948398132e+03
3.783708226944674152e+03
2.900069296949716772e+03
1.699272341139703258e+03
1.551269260077051513e+03
2.511993937716740675e+03
2.095539692913196177e+03
1.142623329694766198e+03
1.030337445870631882e+03
1.106820054690003190e+03
4.950742297673045300e+02
-2.928707941572671189e+03
-3.996372531638242435e+03
-1.648981004790008001e+03
9.944033473384926936e+01
-5.726220637145676418e-02
-3.384741976454748169e+00
2.944297772985566439e+02
4.814220230805856886e+02
3.506607916346183629e+02
6.681788010171858332e+02
1.310862329546340334e+03
1.778764330213184394e+03
8.430172142275362148e+02
-1.892114103975704040e+02
-3.929373165154952972e+02
-7.119708051567193330e+00
2.362234883656669240e+02
2.951130425833355844e+02
3.256404120595316840e+02
1.399127045529741906e+02
1.574950138410044701e+03
2.397748953563444047e+03
1.641287893381786489e+03
1.189547112186743107e+03
4.076583239998556678e+02
-2.293883366982585699e+02
-4.715714756782358563e+02
-5.107659159006010441e+02
-7.058444195568987389e+00
2.035895689224408045e+02
-7.878610234679645430e+01
-6.808813904818194374e+01
-7.733049591435111552e+02
-1.171502291516300829e+03
-1.359671754667552705e+03
-5.847590541912414892e+02
-2.137365432911302889e+02
-9.853775232713294940e+01
1.868102273207232145e+02
-5.137210850488539791e+02
-2.213120786094005780e+03
-3.439389875387169468e+03
-3.584427726343459653e+03
-3.918317787964128001e+03
-4.400047425973851205e+03
-4.961603193490916965e+03
-5.774992646921083178e+03
-4.898184122732619471e+03
-2.510174234941187478e+03
-5.179598677691540161e+02
9.364269329625147975e+02
1.671999802051672532e+03
2.316698003755193895e+03
2.422503135227432267e+03
1.163329773065874406e+03
-1.228209835938279326e+02
-1.226983222666952997e+03
-1.016158657975857182e+03
1.517211726431776526e+02
4.266612958176979191e+02
1.995804363774959143e+02
4.784455897804137976e+02
1.135168892441472281e+03
9.227383897090099936e+02
1.859263156727009573e+03
1.102755621730579378e+03
1.055076649258993712e+03
1.494177809242262356e+03
1.004032271476706228e+03
9.690354298973452387e+02
7.570201879117915951e+02
6.398108408763686157e+02
1.247260491298215584e+03
2.000835909030025050e+03
2.196272238687478421e+03
1.939508724323482966e+03
1.143552709771123318e+03
6.024475892134499873e+02
1.009117207081216520e+03
1.414280473132205998e+03
6.095511075906704264e+02
-1.127307128363216435e+02
-4.071600277319040515e+02
-1.008434113052370122e+02
2.612016929839644490e+02
5.259890845388645886e+01
-2.287617401602970801e+02
6.980367244315380049e+02
1.848765450692948434e+03
2.125677790219632698e+03
1.933719850900193251e+03
1.589749775857579607e+03
1.225749720564878771e+03
1.605564947441627510e+03
1.713156832326001904e+03
1.909471176723343433e+03
1.178331669801259523e+03
3.962360952521365789e+02
4.794880017372315706e+02
5.802796449862765940e+02
1.137427726587453208e+03
2.186757509355888487e+03
1.981314999306608797e+03
1.736165175463770765e+03
1.574319695795557664e+03
1.646855249909013310e+03
1.797690823945097009e+03
1.623696290613513156e+03
8.887387006655375217e+02
-3.462458539924126057e+02
-6.231075580347751952e+01
9.344652544291783443e+02
1.125077439365863938e+03
1.707652895779217488e+03
2.113283674773454550e+03
1.987873970645707232e+03
1.434341832741230974e+03
-7.893162421310582886e+02
-5.470082919404583663e+03
-4.419990212185335622e+03
-1.171060578226233474e+03
-4.112324268324725836e+02
-3.918608983562588037e+03
-5.107204187110651219e+03
-6.439913215601013690e+03
-6.916751723429769299e+03
-5.933807138164323078e+03
-5.108070882567705667e+03
-4.961501138363708378e+03
-5.125269950154552134e+03
-4.903318384967152269e+03
-4.757511891136912709e+03
-5.498866933117330518e+03
-5.298408005077518283e+03
-3.545162531798921009e+03
1.121931821749748451e+03
2.307838349709299564e+03
1.257632665666109460e+03
-1.670741811184916060e+03
-3.175243949990304372e+03
-3.576801706262252083e+03
-4.368450360876669038e+03
-4.218224960291041498e+03
-5.086080897480451313e+03
-6.609008353179425285e+03
-6.646936661136685871e+03
-5.997773243152106261e+03
-5.129589025819783274e+03
-4.943671026298324023e+02
8.769234181077539461e+02
1.288338227595637363e+03
2.019910325781591609e+03
2.096693692067052325e+03
1.980676490953637085e+03
2.106872087781933715e+03
2.306342156420007996e+03
2.995133007377985450e+03
3.375213945292072822e+03
2.813581819059524605e+03
1.825212432597898669e+03
1.637259533976062130e+03
1.496716609846036818e+03
1.009616434311234570e+03
5.519751133861816470e+02
1.582088866217176815e+01
4.732180486138053652e+02
1.679294070007780192e+03
2.478107353871448595e+03
2.996592957438710073e+03
3.087677156983882469e+03
3.516456788265286377e+03
3.119059007360152464e+03
2.217523599137695328e+03
1.598811983070843553e+03
1.056983317709884659e+03
1.113076675813490510e+03
1.671123347743084196e+03
1.334186764056990341e+03
1.213218648936306636e+03
7.892502185355805295e+02
3.923804848699134027e+02
9.616009296404466795e+02
1.421009411523705467e+03
1.430658753198673139e+03
1.275576848832770565e+03
1.215816645441559785e+03
1.085584933429106968e+03
8.288990774408786137e+02
6.898853636718333746e+02
5.256305742172291957e+02
6.531725469607855530e+02
9.854450241944322215e+02
9.373631782570939777e+02
6.052693858323523273e+02
-1.339492704023149940e+02
-5.872932675308194206e+01
3.241073692463716611e+02
4.826600681207132766e+02
8.720733692220434250e+02
9.623408555632469188e+02
1.278437646828274637e+03
-1.036962140847335547e+02
-5.741063449524681346e+02
-3.138010813912719641e+02
2.022781809760797600e+01
-3.709560477350726160e+02
-6.364261481964160794e+02
-6.952579347724293939e+02
-1.445216728997103530e+02
7.438596064936696166e+02
9.129794262936395626e+02
1.527786812629562291e+03
1.144359482270232320e+03
6.236975394073855341e+02
8.188216750379956466e+02
8.297934303836408390e+02
7.355288138365591522e+01
-5.808158596512062104e+02
-6.473188567981775350e+02
-2.731145790381876850e+02
-1.181226574698453646e+02
-5.322322934149078719e+02
-2.755505315929356129e+02
2.919710290347102273e+02
8.483774941274027697e+02
1.173441082777878819e+03
1.268165891882646974e+03
1.087559754608492312e+03
7.396093337347986107e+02
1.027174397523306652e+03
8.122587741844556604e+02
4.759171958240345361e+02
2.572287136905213174e+02
1.411761272059821870e+01
1.785913688476100276e+02
1.807208770755177625e+02
-1.223612879121006785e+02
-5.307270573149507982e+02
-5.246238583528262325e+02
-6.171424539741515218e+02
-1.118246983694815981e+03
-1.601908216017149471e+03
-1.569126394168209345e+03
-2.068829808884882823e+03
-3.043094384844060187e+03
-4.529041380291813766e+03
-5.952655906243983736e+03
-9.199920565545111458e+03
-9.276825742704650111e+03
-8.582350419227605016e+03
-5.640537502234950807e+03
-5.374890045493061734e+02
-5.901462068487177248e+02
-1.007547282717264352e+03
-1.659770123167212205e+03
-3.439824796817323659e+03
-2.980615664902542903e+03
-1.097979269173824150e+03
1.509396976128124379e+02
6.368373857620828176e+02
9.367241118536609292e+02
1.142717831459033050e+03
1.777794433710499561e+03
3.050856856877255268e+03
2.752905002170663920e+03
2.386910326740305209e+03
1.770798438136180948e+03
1.342506805809098751e+03
1.183024839883543109e+03
1.425407484160253034e+03
1.366671025676132103e+03
1.630758706248454018e+03
1.056593758816647778e+03
1.291491816450324848e+02
3.074264528943819528e+02
6.273853369835147760e+02
6.470477082135216733e+02
1.324276470197815115e+03
1.458128302100138626e+03
1.022687653767355869e+03
1.115828518641549636e+03
7.715465205088852372e+02
3.658705180120199429e+02
1.580750925146840018e+03
1.778142345200276623e+03
2.194976623264742557e+03
2.131256537837045016e+03
1.999016093525299311e+03
1.830216975137724830e+03
1.783902801668136362e+03
1.546048830994662239e+03
6.626480597774221906e+02
6.296244159794890720e+02
1.162996080019138617e+03
1.118764467559516788e+03
1.115944899501999544e+03
1.257602789380324111e+03
8.298207045933584141e+02
1.111611686397167432e+03
9.768789644129434464e+02
8.106078048090721495e+02
5.767872075512026413e+02
3.194522276984848759e+02
3.656632222948755384e+02
5.653008469306748793e+02
6.921733589723042996e+02
2.593047150298492625e+02
6.496346944667300249e+02
1.183219192693921286e+03
1.406119921976416435e+03
1.143303960100996392e+03
1.053925297898015515e+03
1.016039130741547865e+03
6.986704283229476005e+02
8.087187150150060688e+02
1.337130025814603869e+03
1.578947091252327027e+03
1.215190512322461700e+03
2.247373071673335119e+02
-4.554749001492429556e+02
4.755837041129597083e+02
7.321517295076437222e+02
-1.056797116150547254e+03
-4.328340885217709911e+03
-6.116422172869726637e+03
-3.900170815184761750e+02
1.976803944010023315e+03
-2.404892422065949177e+03
-6.075031644855678678e+03
-5.429693155055304487e+03
-6.106964797842314510e+03
-6.520750811709208392e+03
-6.843953546293414547e+03
-6.901497750848419855e+03
-6.431368347297980108e+03
-5.995671298651356665e+03
-6.295394278837293314e+03
-6.994399494413311004e+03
-8.062687084067501928e+03
-8.477279523559467634e+03
-4.299248149183898931e+03
-2.346563148402892239e+03
-1.606133988650775336e+03
-6.029275334968679090e+02
-2.997095684244941882e+00
7.106127054599616031e+02
1.708958592174070873e+03
2.337144259050583059e+03
2.478227729286693830e+03
2.130261865300526097e+03
2.592229264936165691e+03
2.828160191610992115e+03
2.915038740425372453e+03
2.386952768202361767e+03
1.463915457191543737e+03
1.421921857376995831e+03
2.254995146363425647e+03
1.800076449761909316e+03
1.598100401843042619e+03
1.091171255015206725e+03
1.324219140673286574e+02
6.449093597300670808e+02
1.930510574363292335e+03
2.355214922695807218e+03
1.689064336353553472e+03
1.013082895979521822e+03
4.483434221629467515e+02
-2.242380961044085268e+02
-4.867053556034905171e+01
3.381645094123837225e+02
1.131285805783492151e+03
1.701765599007921537e+03
1.871603638491003721e+03
1.564850086191840546e+03
1.713596486969855277e+03
1.873085062998190551e+03
1.919018619076347250e+03
2.120430813384748035e+03
1.154661577795943685e+03
8.918123399474465032e+02
1.697538498908760630e+03
1.919758476575027771e+03
2.110827591661792212e+03
2.344684950197972739e+03
2.704289615716929347e+03
2.118590422213550028e+03
1.229692544437544029e+03
1.196718019527828346e+03
1.338698909414944637e+03
1.227548496377614129e+03
9.890131127272474032e+02
1.015014744344340897e+03
6.335234076081569583e+02
1.080612403133201951e+03
9.341823740303810837e+02
9.432429120819202808e+02
1.168684301810796342e+03
6.837728173979979829e+02
-4.403773319771243564e+02
-8.188922111292391719e+02
-8.016843430352124642e+02
-8.156865320693744934e+02
-5.149937139180947270e+02
-3.497146702005186967e+02
-1.608946503112045718e+02
1.702156358722527045e+02
5.417793824376648217e+02
1.095542062959188343e+03
1.627530131930845755e+03
1.421765735485647610e+03
1.409310206063072883e+03
1.495103849840090561e+03
1.498138527051037954e+03
1.239317835422471944e+03
1.086565942242018536e+03
1.791037315531262948e+02
-6.390926132771978985e+01
-1.897820130198493871e+02
1.483109258885396287e+02
4.515258859212043951e+00
-4.619734939225418202e+02
-6.181921496482491420e+02
1.495175201364139355e+02
1.346928706723361074e+03
1.804909583726933761e+03
1.201501774235716539e+03
5.096952434528396338e+02
6.655591519163434668e+02
1.245198841218616963e+03
1.442658560981334176e+03
1.429058131642002991e+03
1.592573609200509054e+03
1.421120230419977133e+03
1.225344868563167211e+03
9.590667528010804972e+02
8.312945419852359237e+02
5.721995001512292447e+02
2.448116707658395796e+02
-3.730859012019180909e+02
-4.743434144297415855e+02
-1.059490244765691784e+02
-1.450097743069929493e+03
-3.777810477419120161e+03
-6.833072660878064198e+03
-7.117989469295552226e+03
-7.193569715574848487e+03
-7.206703431267723317e+03
-6.459402368621676942e+03
-5.846850586827093139e+03
-3.496905559378096314e+03
-2.357249384562271189e+03
-5.209960710913863295e+03
-6.527065994048832181e+03
-7.486942498742809221e+03
-7.563370826958442194e+03
-4.310348989394804448e+03
-2.448272143483310401e+02
1.095445966027931490e+03
1.884330221396651950e+03
2.655460695594749723e+03
2.276677277453525676e+03
1.109117677705583901e+03
3.999176805210061616e+02
8.270399904140673470e+02
1.064529827980065420e+03
1.217487908889414257e+03
1.885808208526682620e+03
1.928391937730095151e+03
1.673387411049169032e+03
1.339085227496128255e+03
1.286620772919650562e+03
1.179029640248002352e+03
1.065943114112368448e+03
1.201002673785566003e+03
1.364230682654886778e+03
7.649511089284648051e+02
2.053745934343603210e+02
-1.593802648624463858e+00
8.376780689638049182e+01
6.893312541662128297e+02
1.268376602689640549e+03
1.072925247573735987e+03
3.869139930231458493e+02
4.476085950151264115e+02
8.083685095182796658e+02
3.891255876385182546e+02
5.697080137296582052e+02
3.012806055040059050e+02
5.546209475332591410e+02
7.545871009998918453e+02
4.173421222609529195e+02
-6.296917721204662399e+01
-2.244298951311594408e+02
2.587132619843736165e+02
3.134410502842118262e+02
1.981227016245399284e+02
2.404372939634527029e+02
2.620572380876324132e+02
2.032886936121054759e+02
7.995730010233679650e+02
3.321002642895492727e+02
1.139838087304116812e+02
6.853954008502014403e+02
8.143607784492044175e+02
5.402016007681730798e+02
1.486914697715014313e+02
3.583064503068559361e+02
8.775304641327547870e+02
1.281133821220888876e+03
7.846612163171829479e+02
1.654887261800668341e+02
-2.023342188837575009e+02
2.391700125939871668e+02
-2.272173224820954545e+02
-5.377456863235038327e+02
-8.963633090884048897e+02
-8.718799970320008015e+02
-5.761655883141620507e+02
-5.784283783154641867e+01
-3.079919880601637416e+01
3.442910165997672038e+02
4.474865595078852607e+02
4.179888344151435149e+02
3.618367651341148417e+02
4.791350670370767943e+02
1.312612946102668730e+02
-1.198498131808319158e+02
-1.494048298871450982e+02
-2.495551265467614996e+02
-4.882122077730209639e+02
-5.931630860283190714e+02
-1.003461494251597742e+03
-1.154770766275829146e+03
-1.003135840605401540e+03
-1.878625518456646049e+01
1.008557615293308913e+03
9.510268383968970056e+02
5.406884403921135345e+02
6.753473078552658535e+02
7.237931309029322620e+02
5.844338763564790042e+02
3.567541148015428121e+02
1.238578645933588405e+02
-1.877004839628562038e+01
-2.527514798939140803e+02
-6.311537186107566413e+02
-1.104901256363895754e+03
-1.484831862899704902e+03
-1.733947392298165823e+03
-1.924191933419627958e+03
-2.233390078245364748e+03
-2.029636143545880714e+03
-1.882965340653825251e+03
-1.879311784710260099e+03
-1.475709484565013554e+03
-1.240164149649044930e+03
-1.342512711808624772e+03
-1.844733199406305175e+03
-2.153674277644388440e+03
-2.093180337115523798e+03
-1.764220351105358759e+03
-1.893996995610611975e+03
-1.482714101236896113e+03
-1.947226064260186604e+03
-2.261717690069051514e+03
-1.716220819465737804e+03
-2.079602436937823768e+03
-2.115153233968644145e+03
-1.861828387727422069e+03
-1.414428355228072405e+03
-1.039920426230091152e+03
-1.464705456862590438e+02
7.227722873644676156e+02
1.462835832582593639e+03
1.061789877523676751e+03
4.070623695231797967e+01
-1.959242257329332915e+03
2.047265002477116695e+02
5.126622688863513986e+02
2.466940386824375366e+02
1.156442953675317312e+03
1.397542031364893546e+03
8.848461151544654513e+02
7.246526321513017592e+02
1.434393681925378360e+03
1.844040495869403458e+03
1.192497727973434849e+03
9.867435378885346609e+02
1.347794243553409615e+03
1.862239617494073855e+03
2.560290321201145161e+03
2.687821844028380838e+03
2.868857176520260055e+03
3.396912681776217141e+03
3.654363407131962504e+03
3.706235819283846922e+03
3.119373404853688498e+03
2.660270176738444206e+03
2.459270245622483344e+03
2.216119230106851319e+03
2.282954675044149099e+03
1.958340857516125425e+03
1.248318538083804924e+03
9.846639541197954486e+02
8.953256360604145812e+02
1.085362699736916511e+03
1.593775647425317175e+03
2.128789151236859652e+03
2.406625771020333559e+03
2.592040001634667988e+03
2.419821291774731890e+03
2.699769284931809125e+03
3.150044990733277700e+03
3.189337554561962406e+03
2.781856998870711323e+03
2.170395350424618755e+03
2.921732076471968412e+03
4.486881746792055310e+03
4.684654093945328896e+03
4.640004015943607556e+03
4.561036644373757554e+03
3.771864609337510046e+03
2.693917257209718173e+03
1.402195261003661926e+03
3.522222834096646125e+02
-2.670869195626081023e+02
-4.835959907551003312e+02
-1.432496045161956166e+00
-1.900223213354310872e+02
-5.244253102445306922e+02
-2.174291212327117137e+03
-4.825647951991907576e+03
-6.823555692701129374e+03
-5.930215633166107182e+03
-2.170851652190714049e+03
-1.252331360252303966e+03
-3.317810045941129829e+03
-7.874162823340246177e+03
-7.947384720305579322e+03
-7.277292287784481232e+03
-6.991912158007274229e+03
-8.078844387038183413e+03
-8.356066004724254526e+03
-6.496326253769085270e+03
-3.637660712014868295e+03
-2.281036654294450727e+03
-3.213541332063281516e+03
-3.436128166773509747e+03
2.292582650924188385e+02
3.049795491907020732e+03
2.792425232345570748e+03
-6.310256724992085253e+01
-4.331870519756592330e+03
-4.858881682669871225e+03
-4.358085600426986275e+03
-4.437277448592134533e+03
-4.362547468978807956e+03
-4.202913689537836945e+03
-3.717340415352957280e+03
-3.581989254119223006e+03
-3.352867038960378068e+03
-1.345973419143832871e+03
1.086752518741445556e+03
-9.573047484340817448e+01
-4.533495548809911497e+02
-9.739808992577216031e+02
-7.195804976112871145e+02
-7.303614254646009840e+02
-4.623243306611304320e+02
-5.673422568782756343e+02
-1.746403068342121287e+03
-8.504831801464044929e+02
2.246565273575474293e+03
2.773736834258120780e+03
1.214040664963117251e+03
1.176431407889918773e+03
4.258046420416946603e+03
7.863882615751414960e+03
9.039942140741535695e+03
8.741197469430209821e+03
6.633676881615640013e+03
4.755505246280580650e+03
2.110928574045030473e+03
4.848474722833340707e+02
-7.098411880288874727e+02
-2.087931603924790579e+03
-1.715187168617091857e+03
1.602566046269141680e+03
5.627249372582519754e+03
6.678747923503672610e+03
4.737019693913086485e+03
2.858153744453885793e+03
2.843198839001657689e+03
3.501302525954085468e+03
2.608513281309119520e+03
4.006829411000163873e+03
5.871221071704721908e+03
5.515831735735760049e+03
5.125866066622045764e+03
5.017503008905976458e+03
3.394910952683005235e+03
1.483970123168575356e+03
7.836178071493928883e+02
2.477075097783295519e+02
-2.671564789087275585e+03
-4.592812975711995023e+03
-2.624991444887265970e+03
-1.705010929340328175e+03
9.638564298695719401e+01
-2.568747587984443271e+03
-2.845274043070879543e+03
-2.721218813690551542e+03
-2.000833574711779420e+03
3.078857387584630487e+03
5.618225350089118365e+03
4.415983325514632270e+03
1.390099934294735704e+03
-2.722954170213689054e+02
-1.235156789573514288e+03
-2.983354647749335527e+03
-4.413915407888172012e+03
-4.041755473968066781e+03
-4.568846627249346966e+03
-7.464210356279742882e+03
-8.520639922642305464e+03
-6.840055773857138774e+03
-3.066335577061508502e+03
3.053527800945017134e+03
5.314516172013985852e+03
1.876745013992732538e+03
-2.483546639857251648e+03
-2.951297162738440420e+03
-4.954955856229020839e+01
1.995640737654140139e+03
-3.177069840852610128e+02
-4.679593297323091974e+03
-5.973015008753093753e+03
-7.453916620870777479e+03
-1.075419188524508718e+04
-1.165673014611661347e+04
-8.185535415030235527e+03
-5.273589840520188773e+03
-3.614706898783310862e+03
1.162165075103829395e+02
1.171308452047714582e+03
2.044797227556642270e+02
9.596477429986483685e+02
4.246797731507342178e+03
6.852978571137362451e+03
5.917250450592173365e+03
3.886588421276800545e+03
6.816028748246967552e+03
5.447577285445950110e+03
-2.084742828733384613e+03
-7.891888272973460516e+03
-8.834816172909009765e+03
-8.381512399211418597e+03
-7.326859703511224325e+03
-4.797920004154505477e+03
-1.886662275194489212e+03
3.508977696308891154e+03
1.004590503202717446e+04
1.154613346892971640e+04
8.753646832609389094e+03
5.129448008624680369e+03
2.944672829064287725e+03
4.793330697191654508e+03
7.132379889878497124e+03
7.830811271909279640e+03
7.541700567041594695e+03
5.117056017426551080e+03
2.086743563645646191e+03
-7.921066369385469841e+01
-1.510775834250085609e+03
1.732997603682364570e+03
7.831066529321562484e+03
6.425442459562815202e+03
3.395085908262700741e+03
1.821019386733300507e+03
-5.307879666590266652e+02
-2.437291395161518267e+03
4.426013982584489099e+02
3.283967031142829455e+03
3.209815042059235566e+03
8.771011869944782120e+02
-2.276313627247851400e+03
-4.290851733921233972e+03
-6.981753387324498362e+03
-5.694851055189951694e+03
-5.393866468611760865e+03
-7.946645039128324242e+03
-8.048199343077480080e+03
-7.343630407646551248e+03
-5.253785923781556448e+03
-6.314407983294884616e+03
-1.134675150098617451e+04
-1.023244520637378628e+04
-2.889864760255194142e+03
8.315979983723784244e+03
1.463412344860995472e+04
1.344754302092732541e+04
1.072121483160520984e+04
8.292186182482491859e+03
7.159433794498992029e+03
4.638838134708073994e+03
2.921342195413597437e+03
3.916883834962509354e+03
3.150465766473442727e+03
1.604030586070599838e+03
6.915572553046139319e+02
-1.755026091120025058e+03
-4.286831867455325664e+03
-5.681867273018334345e+03
-7.302109826266158962e+03
-7.343616214453401881e+03
-5.200490496186529526e+03
-1.592803462126506474e+03
4.063637955399727275e+02
7.694909256574811707e+01
1.253799919841650080e+03
1.160933185493783412e+03
1.061346628784058566e+03
2.865974689382806901e+03
5.768012921659957328e+02
-1.361272240727731742e+03
-6.462928166900014730e+02
6.656235734664817301e+02
6.794127773156251351e+02
-6.119836627862465548e+02
-1.771692857252417070e+03
-2.631761698691841502e+03
-3.267154293488116309e+03
-1.054835932978526898e+03
9.122362655209826698e+02
4.067700228024170428e+03
7.997647555016248589e+03
5.576014434451378293e+03
-1.517317089018697970e+03
-3.118295112602996142e+03
-2.924870989785561960e+03
-3.841122866809095285e+03
-5.323229572623504282e+03
-3.574261723885348147e+03
-2.531113391166416022e+03
-1.448225795309186594e+02
-2.442418177739292787e+03
-1.383009783960767663e+03
-4.697042475871788838e+02
