1.197638019571070771e+02
-1.617796022592116969e+03
-4.467765151426800912e+03
-6.332876876568423540e+03
-6.296251729016863464e+03
-5.983965811235282672e+03
-5.541881551191398103e+03
-5.590794897993350787e+03
-5.456833372397021776e+03
-4.809024506431227564e+03
-4.969368242225239555e+03
-5.101495948428817428e+03
-4.449806715613683082e+03
-4.087964087241718516e+03
-3.726267214268395037e+03
-4.146619661213708241e+03
-2.158359875065785218e+03
-1.266435984812405650e+03
-5.143876142878798419e+03
-5.964688686148119814e+03
-5.832986524835145246e+03
-5.596773666206931921e+03
-5.693919264400622524e+03
-5.488362134790607342e+03
-5.629983720122590057e+03
-4.850831027665049078e+03
-5.848523420100010526e+02
2.350115690870821254e+03
-1.487946931681074830e+03
-5.041953918274087300e+03
-4.864030450930386905e+03
-4.344305092468072871e+03
-3.790642245403168545e+03
3.941415076764974970e+02
3.232093864404522265e+03
3.798133246466755281e+03
3.707255418690611805e+03
3.446549832548203995e+03
3.242145757882686212e+03
3.117161607652831663e+03
2.658614478902988139e+03
2.366380905427937250e+03
2.539536707322233269e+03
2.651174516189087626e+03
2.410354134773464921e+03
2.441157838619122685e+03
2.742534092237023287e+03
2.821455535155366761e+03
2.785917304706201776e+03
2.556970366087029561e+03
2.577807476609433706e+03
2.944354223827397618e+03
2.471641475945978073e+03
2.311758217585853345e+03
2.096773751129032917e+03
2.020696028699145927e+03
1.697703689073656960e+03
1.328892502604417132e+03
1.213261405181604459e+03
1.020861483160647026e+03
6.366647846569940583e+01
3.166681564024718227e+02
1.058934464248968197e+03
1.319539766373223756e+03
5.585345619164866093e+02
2.248946211087877316e+02
1.857001878080221502e+02
3.979902811676755050e+02
7.037445661829722212e+02
5.612302198512167024e+02
2.617719056678949414e+02
1.026145287724312709e+02
4.459692322692629318e+02
3.795421451323197743e+02
8.294230464969795094e+02
6.664173782562896804e+02
3.675532286940874087e+02
1.449009300820501380e+02
6.994256769890006353e+02
9.615027925256362096e+02
9.999444921858990938e+02
1.576538099530579757e+03
1.656649659058548423e+03
1.671226258558611789e+03
1.785089341690955280e+03
1.828375467250725933e+03
2.120889466761029780e+03
1.905561441658571084e+03
1.504433539703669339e+03
1.237602924626733966e+03
1.009085458875876952e+03
6.048119174229300370e+02
5.217864513609321193e+02
3.960247141988384101e+02
2.765816136366622686e+02
2.648821204519713035e+01
-4.271940966865612950e+02
-1.534204049876678084e+02
-4.491738727013132007e+02
-5.694869393834774201e+02
-5.983989899780606265e+02
-7.599325144663520177e+02
-7.230816049097795712e+02
-9.048017300759305499e+02
-9.230314637788858363e+02
-8.697768531670587890e+02
-9.349656750270394241e+02
-5.665954480678979053e+02
-3.357456854411503286e+02
-4.039022234782528642e+01
1.824075238125518865e+02
-2.953897165243512859e+02
-6.247330452004338213e+02
-6.006073102318359815e+02
-8.680604541678387704e+02
-1.102171384993019728e+03
-9.408968830970266026e+02
-8.802370554477780615e+02
-1.550214282342320075e+03
-1.634898245787819405e+03
-9.342872712098785541e+02
-9.064074566465756106e+02
-7.652559111690246709e+02
-5.308199341268846183e+02
-4.301227438848564475e+02
-2.551950290627065101e+02
-2.740195938425989652e+02
1.820865721794279679e+01
1.784602637716390916e+02
1.038498590821819221e+02
-9.207140711792932279e+02
-2.143254365825648620e+03
-4.813807548830161068e+03
-8.348410779564788754e+03
-8.669143705740445512e+03
-6.675005288448081046e+03
-1.501964191465664499e+03
-8.710158857471246563e+01
7.749040570412523721e+01
2.217395633869423932e+02
1.515742359894070717e+02
-8.729995493992196316e+02
-3.329825110409558988e+02
4.475201976992943287e+02
-1.704427135737005528e+03
-1.522884840241515803e+03
7.220724310606032077e+02
1.162442903443636169e+03
1.286173299459344662e+03
1.281208818103241128e+03
1.460478068532541329e+03
1.630968871407208098e+03
1.726679469924649538e+03
1.690537124248162399e+03
1.187527553171926229e+03
4.555891510287187884e+02
-9.533113229331705440e+01
4.906939839003989050e+02
5.116345146424619088e+02
4.394312635015728574e+02
7.270192678175873198e+02
5.403817037520416307e+02
5.345018921002402976e+02
1.963146812896850122e+02
3.777711926906030158e+02
7.968557193283460265e+02
6.265629358118542314e+02
6.688634550237101166e+02
9.956734254292941841e+02
1.447950460041535280e+03
1.484674593465639873e+03
1.377965840859314994e+03
1.424762051421530941e+03
1.627069628099881811e+03
1.680866865542173628e+03
1.492105099082472634e+03
1.262628338579990441e+03
9.652332505936539064e+02
1.880194758742187560e+02
2.681253162156951362e+02
5.385989191208858529e+02
7.484374141266191600e+02
7.756312047083094967e+02
1.117233845658002338e+03
8.021637200179739011e+02
7.653114764058915398e+02
9.815193545375036592e+02
1.245582650037724079e+03
1.588542800688836678e+03
1.890427630540043992e+03
2.285298928445594356e+03
2.561193020077653273e+03
2.836041680315420308e+03
3.119862182124680658e+03
3.263882007025782968e+03
3.238097160585120037e+03
2.582261385889455596e+03
1.861224221335958646e+03
1.671930106437341237e+03
2.059365988551315240e+03
2.494688732621250892e+03
2.157916871665906910e+03
1.752087138447481493e+03
1.921139429147041255e+03
1.724019470700729926e+03
1.552734400798635761e+03
1.741468447882685268e+03
-3.054972022357770101e+01
7.005713796959580577e+02
4.665558293788559467e+02
-4.584436506810112405e+03
-5.789855044901397378e+03
-6.233629099849157683e+03
-6.006234730088102879e+03
-5.803019279844173980e+03
-5.430066318384661827e+03
-5.515500684732042828e+03
-5.690244685531228242e+03
-5.398104329668508399e+03
-5.514819645973070692e+03
-6.136285360387476430e+03
-5.939560090732375102e+03
-5.235688166869735142e+03
-3.647797066471597191e+03
-9.529307643715139875e+02
-4.002073180009719181e+03
-5.803180980653412007e+03
-5.223039044654016834e+03
-5.044709022911978536e+03
-5.252231659967145788e+03
-4.723566384952742737e+03
-4.104797333369956505e+03
-3.958746860478001963e+03
-3.908113857205688873e+03
6.711639602384705086e+02
2.952074825201801559e+03
-8.495736352496516020e+02
-4.997946978746501372e+03
-2.651905713352246494e+03
1.414780837778474734e+03
2.330015848177030875e+03
2.237672193109134241e+03
-4.713866950647231988e+02
-6.200555156082427857e+02
8.019323461892389560e+02
3.036568808678224741e+03
2.960754823620163279e+03
7.546201547740017759e+02
2.819202489111965861e+03
3.744440600175867985e+03
3.559289018964408569e+03
3.015995442142369484e+03
2.958362466180200954e+03
2.972220862208700964e+03
2.740799179767006535e+03
2.394429457156433273e+03
2.078241662691240435e+03
2.096142710872455609e+03
2.334906348321020232e+03
1.894867847580260104e+03
1.539246386536829505e+03
1.673016346138665085e+03
1.366228518016191629e+03
9.821093463223867275e+02
6.447536234852192365e+02
6.839572645952673611e+02
5.485386037706127809e+02
4.555237089810887596e+02
5.838316711019532477e+02
6.324774717784612221e+02
1.523673026150984242e+03
2.647473681765667607e+03
2.323914192288993490e+03
1.922755530116454338e+03
2.475882264680094522e+03
2.394727708608201283e+03
2.085259746904982876e+03
1.998975054756733471e+03
2.046014984675040068e+03
1.954563922491055337e+03
1.602857838521201757e+03
1.078069525657918803e+03
8.859367282934376817e+02
1.399400706025876843e+03
1.569803605530710456e+03
1.546473678049882437e+03
1.518064625134359176e+03
1.805464689038472216e+03
1.685554290749342499e+03
1.823355960398143907e+03
1.804759890034811860e+03
1.802613839525136427e+03
1.881868969074215556e+03
1.684845059730000912e+03
1.452435208862028958e+03
1.401876171690944375e+03
1.801900622797414144e+03
1.704193517568472316e+03
1.281684242661996677e+03
1.225258329629747095e+03
1.041944684577854559e+03
6.731776994443935109e+02
3.038326692000923117e+02
7.704974070319000248e+02
1.567341866729046615e+03
1.907488858907919393e+03
1.425804851861252018e+03
1.240055308675735660e+03
1.542516570095861425e+03
1.501297764019778697e+03
1.345078065162155553e+03
1.204183017735998419e+03
1.135765168272526580e+03
1.030429129486529291e+03
9.129848025633964426e+02
9.041679171115846430e+02
1.063325793209565973e+03
6.805283636927707676e+02
2.676863069363225236e+02
3.147117683465637583e+02
2.633184490746419328e+02
-1.285234905452073235e+02
-5.718412691271944368e+02
-2.262944584609587309e+03
-5.541585675931485639e+03
-7.186784879688112596e+03
-7.474197921137806588e+03
-7.353440536032771888e+03
-6.769903291382384850e+03
-5.917894736215043849e+03
-5.475052965683114962e+03
-6.833101110069387687e+03
-7.209653596573790310e+03
-7.465319702723088994e+03
-4.163581294975525452e+03
7.225925808971512652e+02
-1.976508835599429858e+03
-7.644581230161438725e+03
-7.905520747912803927e+03
-7.671964629600044645e+03
-4.484653462199399655e+03
-1.298591332191922163e+02
7.846853316784620347e+02
8.890271243940979957e+02
1.091123874310834481e+03
1.203015735753328954e+03
1.251095180670972695e+03
1.374616308749340533e+03
1.375780568177532587e+03
1.125762776243919006e+03
8.765536913389299798e+02
4.727174761229518367e+02
5.260755666598082598e+02
5.477183247686450613e+02
6.607255625642510495e+02
1.279512028650644652e+03
1.374530627779044380e+03
1.047571628555984944e+03
6.941685354038388596e+02
-6.907783462574954569e+00
-4.650059689087967030e+01
-1.500835441182302930e+02
4.655882451302761069e+02
8.235675751439741816e+02
8.798469533532172591e+02
1.619862592419448902e+03
1.666320826296830546e+03
1.487810628068424649e+03
1.168078642983798090e+03
9.749659227293582262e+02
1.054538578087466703e+03
8.681594377904044677e+02
5.824749997237521484e+02
6.253389455698844586e+02
3.078543438310604188e+02
-5.011360525637264374e+01
1.174830824817751420e+02
2.999526308345845109e+02
-1.044301190456478601e+01
-3.069140801913495693e+02
-2.593836251973293088e+02
8.640030266267645231e+01
1.026901458312824388e+03
1.169188727599488402e+03
7.601513834048383842e+02
9.464721548055857738e+02
1.129495920079486496e+03
1.043180016509761799e+03
8.748495150845790249e+02
5.029164616276430593e+02
5.337467847917199606e+02
6.322918038616249987e+02
9.074166323997385462e+02
1.220389432643269856e+03
1.402890427635704555e+03
1.276028450903857447e+03
7.098238834183242716e+02
1.333865302465473803e+02
-1.898476940559887396e+02
-9.509383532870820090e+02
-8.382075010950582055e+02
-1.907174506348586931e+02
-3.785256476291598915e+02
-1.405166025851377469e+02
5.312887533182418309e+01
1.001583085714889734e+02
-2.143787508628145986e+02
-4.173561222530361761e+02
2.175855053595784625e+02
6.392195733512008928e+02
1.086565180295934169e+03
1.411671014007050644e+03
1.503759418375346968e+03
1.446829225357014138e+03
1.457640040754033180e+03
1.475266326294111195e+03
1.113815301906284731e+03
1.017360266527175327e+03
1.003896840469834729e+03
8.186926198579868696e+02
5.209306210062599121e+02
1.155725063709903111e+02
5.680631567003840132e+01
-1.766514171352887672e+02
-1.082222291849185922e+03
-1.700612491047345429e+03
-2.618625721885079656e+03
-2.415453908520941695e+03
-2.470227629802098363e+03
-2.071283811278176927e+03
-1.163837919186377576e+03
-4.571067761683243589e+02
-1.210577530816050512e+03
-3.999517876713327496e+03
-6.050184654101504748e+03
-6.612782227556445832e+03
-5.896366549053697781e+03
-5.199195146080646737e+03
-3.956678139952455695e+03
-1.165707972757633797e+03
1.384768852504454344e+03
2.794869258171213914e+03
3.256467240932060577e+03
1.234631504489967938e+03
-9.933306261297335595e+02
-2.668455904251929951e+03
-2.683373120711699357e+03
-1.547946164293036873e+03
-1.477723262164878633e+03
-1.219644976986444135e+03
8.218892402827568731e+02
3.742707084347418004e+03
4.608936593214111781e+03
4.567835592356129382e+03
3.750679358386197691e+03
2.037927877563755601e+03
1.301127634093268398e+03
1.505215147187304865e+03
1.603336307585255554e+03
2.324715023465624881e+02
-2.113440987842097911e+03
-5.400362271051499192e+03
-7.254236229512435784e+03
-6.378228742608332141e+03
-6.361235485210796469e+03
-7.913908887742569277e+03
-8.410299093936100689e+03
-2.809697100296250028e+03
4.944089789087006466e+03
8.753301091292054480e+03
9.125596622597615351e+03
7.789614898622042347e+03
4.684443515449505867e+03
1.796783546712767020e+03
-4.405648530932733138e+02
-4.304486622725218012e+02
1.552988190868062247e+03
3.499471556027820498e+03
4.544139562858297722e+03
3.899752222535581495e+03
2.648714827810979386e+03
1.759591452863978020e+03
1.372568553335763681e+03
2.725827146296483988e+03
3.020141085409959487e+03
2.600204767060847189e+03
1.503868873606887746e+03
-1.653704995771445510e+03
-3.148461152370083710e+03
-8.417523135048546692e+02
2.086867186775678420e+03
5.137782364740576668e+03
5.844740621357725104e+03
4.220313078917199164e+03
3.881649873151929569e+03
6.387003607537613789e+03
8.133138418514688965e+03
7.891130048272492786e+03
5.407886757178762309e+03
3.519454451516491190e+03
4.712394894220884453e+03
5.824385468446859704e+03
5.288305983961204220e+03
5.783299797073588707e+03
7.195505670086949067e+03
7.308209672461210175e+03
6.202318804230129899e+03
7.411417819886677535e+03
5.890661653657124589e+03
1.606819072535536634e+03
-1.295399956273994121e+03
-8.279607495394161560e+02
1.280449421122455988e+03
1.680763465302584109e+03
-3.197315370370115943e+03
-6.965865132543140135e+03
-8.609753472253805739e+03
-9.602669975503526075e+03
-1.014964260655245562e+04
-7.607854303592308497e+03
-3.728082629940945026e+03
-1.762282439157820590e+03
-1.446521723258401607e+03
-1.761119558747333940e+03
-3.630119603600389837e+03
-5.111357087701915589e+03
-4.330488231930230540e+03
-2.615487407208477634e+03
-9.834738070261254279e+02
4.327636025974695713e+02
-4.309586107570816012e+02
-1.257670085464261319e+03
-1.470043308532960680e+02
-5.286055289850725785e+03
-9.860779381195947281e+03
-1.362628927479493541e+04
-1.485688531091434561e+04
-1.446747559559780166e+04
-1.684996406257948911e+04
-1.620839548206040126e+04
-1.090649209683462686e+04
-7.200738017757374109e+03
-8.368133587228747274e+03
-7.791823873793506209e+03
-8.321804589016541286e+03
-8.477099563142670377e+03
-5.392769744362544770e+03
-4.094016769937496065e+03
-5.209644196461237698e+03
-2.592251357664562875e+03
-9.659484076651102669e+02
4.738351463600600255e+03
8.390481433652821579e+03
8.181550156260419499e+03
7.122043331289773050e+03
4.743121160684205279e+03
2.209469411892410790e+03
5.078984725271101524e+03
7.442844531983829256e+03
4.987116058440068628e+03
4.302909588070766404e+03
5.303350204620879595e+03
4.573256714804510921e+03
6.049586722392314186e+02
1.657245217897844327e+02
4.074958120108085495e+02
-3.585721220445306244e+03
-3.924984205124016171e+03
-1.822310101794447064e+03
-5.103505452399843307e+03
-1.219837339748766499e+04
-1.020377947966545253e+04
-2.439745889257758790e+03
7.888629987605198039e+03
6.799509089340663195e+03
5.089984045541784326e+03
1.332912994557642560e+04
2.273089041760524560e+04
2.050615057325434827e+04
1.369017485164940263e+04
9.125619793195854072e+03
3.343973906804671515e+03
6.490028518467461254e+02
2.792538282067488126e+03
1.054602097540306289e+02
-7.181324379038277584e+03
-1.162664782527969874e+04
-1.258257709838548544e+04
-8.700801439630184177e+03
2.038621047427782059e+03
9.100913874595569723e+03
5.123583859734401813e+03
4.206477178142206867e+03
7.489047938278321453e+03
1.422170863459486827e+04
1.331037691509249635e+04
1.276318004736859621e+03
-3.395825101544287463e+03
-5.546866209000587332e+03
-2.214570882527933645e+04
-3.030874682621902321e+04
-2.604211808684927382e+04
-1.476697846190813652e+04
3.612763681099202586e+03
1.552436867926278501e+04
1.928585504431674417e+04
2.416111499491131690e+04
2.423415248265699483e+04
2.166410253198694772e+04
1.946201403122516786e+04
1.870304217607908868e+04
8.457134198053530781e+03
1.934007456702555146e+03
5.151759852652993686e+03
2.177677675707918297e+03
-5.002213701197521914e+03
-1.250297600144969692e+04
-1.457771761617024094e+04
-1.384574742881781458e+04
-1.253018541817687401e+04
-1.065986216253265047e+04
-2.087744045792403085e+03
4.681137903760894915e+03
7.238785543091391446e+03
5.805163114995590149e+03
1.436242854726857331e+03
-3.156985461209905225e+03
-4.422291767942881052e+03
3.184361683803556843e+03
1.114274424477627872e+04
7.946587809394764008e+03
6.109575119369610547e+02
-7.987048158401393266e+03
-1.401052423027445366e+04
-4.242443914276841497e+03
5.184118172708290331e+03
3.665114608846267856e+03
-9.833462371049348803e+03
-2.087155717711532634e+04
-5.296407721008732551e+03
1.339497145794829885e+04
1.791347053086241067e+04
1.361603682578050393e+04
5.853668818393615766e+03
-3.445915335345464428e+02
-4.947771186282742747e+03
-7.849913477225823044e+03
-9.619053811045565453e+03
-1.138931097362089713e+04
-5.370829150727680826e+03
-5.985621439584163454e+03
-6.783675395641871546e+03
-7.914035444718396320e+03
-8.415668656753628966e+03
-4.284614188591769562e+03
1.586021384902655200e+03
4.632247131587389049e+03
3.803959135802261699e+03
3.985990744745131451e+03
8.420217706441862902e+03
9.612684279442850311e+03
6.913350622219773868e+03
3.748165414224910819e+03
1.462104069444705601e+03
3.576167044514458212e+03
2.674178909937220396e+03
1.386079103544546797e+03
-4.441531609215433605e+02
-2.355417842654756555e+02
-1.971841513917953250e+02
-2.610265222734711188e+03
-5.434702261035468837e+03
-7.874437270517844809e+03
-9.755513730256805502e+03
-1.303903448082736577e+04
-1.341192335256323531e+04
-1.183723977992164328e+04
-9.957148511269875598e+03
-4.490708615014223142e+03
-2.283924424555841142e+03
-5.473824322512649815e+03
-4.935385075609639898e+03
-1.074621591142376928e+03
7.434899479961557063e+02
1.070853691636213171e+03
-3.241556624906550951e+03
-1.177283084942542155e+04
-1.138703831464426366e+04
-3.514180196138026986e+03
2.828784588234654166e+03
7.368022894659754456e+03
9.836511936174336370e+03
1.345209892796591703e+04
1.501365903149097539e+04
1.138918120182199709e+04
8.487551880932196582e+03
6.313612929280231583e+03
4.857421377883545574e+03
1.761940624299137653e+03
-5.368121650324566190e+02
1.555357429913160558e+03
4.362457033249565029e+03
-7.774526138718608763e+02
-4.801485844750110118e+03
-2.949756813369344854e+03
8.988350087576171745e+02
6.042218656003185515e+02
-1.905692794980022200e+03
-2.936048656302652944e+03
-7.517544899712918323e+02
6.474237124351655439e+03
9.022026626410364770e+03
7.005722675336122848e+03
4.299340075794104450e+03
2.729788367969837964e+03
8.710650736146079680e+02
-1.170711161185606898e+03
-3.017473380513033135e+03
-3.956019967885285041e+03
-6.555424710724156284e+03
-1.024384820415323338e+04
-6.519049710263890120e+03
-2.746750363939413091e+03
-7.766040256121075799e+03
-7.235700782484488627e+03
-1.593091276154771094e+03
2.294093680488836981e+03
2.910090327266914755e+03
6.177108836890241946e+03
6.427327065443470929e+03
4.556759953994324860e+03
5.840496424612999363e+03
5.840452670472772297e+03
1.980476034017193342e+03
7.445485788560886249e+02
-2.850239623184931588e+03
6.612250753667661911e+02
1.534008836779623607e+03
-4.258438414721732101e+02
1.210680770061523162e+03
3.378445658307707617e+03
2.158555865532429834e+03
-1.287882326601097247e+03
-1.717807404406157048e+03
-4.209150577081010738e+02
-3.647274547376812279e+03
-6.221684491757356454e+02
8.353512482478281527e+02
-1.946807241809025982e+03
-3.738440058784615758e+03
-4.857358367481464484e+03
-9.589579139800240227e+03
-1.577236751337708665e+04
-1.031863639987270108e+04
-5.149212965067566984e+03
-6.908839707645946646e+02
1.650351917018498625e+03
2.431312958220583823e+03
3.639996655739248581e+03
5.455538867497529282e+03
7.512908045440388378e+03
4.941068547598682017e+03
-2.828672879697571716e+02
7.002364616816770422e+02
4.028236786249401575e+03
5.680338914804838168e+03
3.863844235252402996e+03
1.900717863204203923e+03
3.921769314502748784e+03
5.647864358753961824e+03
3.971099741413751417e+03
1.006852141961846769e+03
-1.681891122970136394e+03
-6.300616060812295700e+02
8.164262062723081499e+02
-6.074629772123249722e+02
5.370177401943486757e+02
2.521714980249276323e+03
4.356790923205249783e+03
1.648621133151143113e+03
-2.726041292125914879e+03
-6.003226971746111303e+03
-5.574961593351004922e+03
-3.879488786869615979e+03
-3.241155054452717650e+03
-1.235659208249891208e+03
-1.963846057203154260e+03
-2.685577776213838206e+03
6.591808580460542544e+02
2.814326705615901119e+03
5.971297470452895141e+03
8.066322114649156902e+03
5.663151581071409055e+03
2.960459319276192218e+03
-8.457659157923853854e+01
-5.106758201337929677e+03
-7.399350558142835325e+03
-3.794524332556851277e+03
-5.740907945598880247e+01
1.901791316129104871e+03
4.169922359801614220e+03
5.572412163015183978e+03
6.029241446197986079e+03
2.683095338502876530e+03
4.122856351906451096e+02
2.628814347081657161e+03
2.678210465113793362e+03
3.038408127599877844e+03
3.008450947364347030e+02
-2.020992447317197502e+03
6.609115576623571542e+02
5.128585574409493347e+03
5.718164845084953413e+03
3.838638602527548301e+03
2.763527112386278532e+03
1.272804685345700818e+03
9.548633537117945025e+02
1.969516359780613584e+03
-7.523819812837996324e+02
-1.415706630487498387e+03
9.058356632240358977e+02
2.631990874677700504e+03
3.615675462619832615e+03
2.885232250258727163e+03
6.514312727896912065e+02
-3.579520293137523481e+02
1.574981931791664920e+02
1.769177388902244957e+03
2.659460283527039792e+03
1.615728342635445870e+03
1.003588105973983602e+03
4.528018395779433831e+02
3.614674215280658132e+02
-1.661245612085409903e+03
-7.423661533699384563e+03
-1.219198030815332459e+04
-1.143772415866411393e+04
-6.752958305040952837e+03
-3.858460946983535905e+03
-2.122386152350504290e+03
-1.967156912901894884e+03
-3.255377492983197953e+03
-2.662535874636314020e+03
-3.878782473764396855e+03
-3.781328452237268721e+03
-4.325608766113054116e+03
-2.327254102484323084e+03
-3.079166233188686874e+03
-3.878651925003393444e+03
-7.223720019801189665e+03
-1.077773291849665111e+04
-1.187475392831422505e+04
-9.340359710578650265e+03
-7.886603312493024532e+03
-1.193963873178806807e+03
5.397352526091022810e+03
7.039627679187374270e+03
6.998490932707611137e+03
4.299973047969068830e+03
1.815413202000029742e+03
2.281983176109165470e+03
2.808876199929907216e+03
1.369578335703175981e+03
-7.060460228218912562e+02
-1.853654735502124595e+03
-2.292012638138816328e+03
-6.980131618738954558e+02
6.573015251213341799e+02
-1.099209714666302943e+03
-2.448608491701600087e+03
-4.805886740356274913e+02
2.383354402493885573e+03
4.754651795187627613e+03
7.056507295144384443e+03
5.593617989751034656e+03
3.038773619926121228e+03
2.298933214980444063e+03
1.794029231056993694e+03
1.851483973561771336e+03
1.563292592232514835e+03
6.897290319464933646e+02
-7.678602190012959454e+02
-2.404124508910964323e+03
-4.639654571028125929e+02
2.710435315651899145e+03
3.699374548097782281e+03
1.841688418487824038e+03
4.241998631763429444e+02
3.973978391791407034e+02
6.461172295412386291e+01
6.508264953034662312e+02
2.937792320871853917e+02
-3.607332738689821099e+02
-3.618450227724209753e+02
1.495584468921977532e+03
1.929599990926304372e+03
2.191094081098503011e+03
9.064584581979188442e+02
-2.103487413796397618e+02
-9.445967719874167869e+02
-8.769067599917862026e+02
-6.101972380802930047e+02
-4.964753616309650965e+02
2.782187510250855098e+02
3.789474948905184988e+02
-6.064509150617697060e+02
-1.195467731515250307e+03
-1.096252782724611279e+03
-1.212035425697537448e+03
-7.198531765647433076e+02
-6.562272163216364618e+01
1.523090028682002810e+02
6.986670408721298600e+02
1.587572591905884565e+03
1.823305235082237687e+03
2.059062395725612760e+02
4.699357335685549231e+01
5.373215542416583901e+01
-4.554788684669528465e+01
-2.176670652954898060e+02
3.893684853562675698e+02
3.842102492775458131e+02
1.561006333679924865e+02
4.601112516290842791e+02
1.216345582977315416e+03
1.282676760149938900e+03
-8.248799133415915321e+02
-1.588077307586350116e+03
-1.041803581551114348e+03
-8.030675982262957859e+02
-1.130891495973045949e+03
2.858917142843649799e+02
1.656080743481718628e+03
1.423526814177904498e+03
6.232055248377957923e+02
4.327575912530417099e+02
8.834284876861485714e+01
-4.116612927806665994e+02
-6.494821980440917741e+02
-6.644172924766721735e+02
-4.124118317153933617e+02
-2.553409588975360407e+02
-3.327906472821435955e+02
-2.253230179374600084e+02
3.354704739916598442e+02
3.858999062642586750e+02
4.258811262144753869e+02
6.394343000462554301e+02
3.525636860465465361e+02
-9.832227876913949061e+00
-1.155361626111092193e+02
-7.041906935136767061e+02
-1.146861032424041696e+03
-1.175580634126991555e+02
1.586586129701201742e+02
1.189380163754534294e+02
-2.371512559244854401e+01
-8.677034847599535397e+02
-9.220367315881346713e+02
-9.370694258946081163e+02
-1.078890088375798769e+03
-7.741121601379868480e+02
-1.093980874388933898e+03
-5.421486285851578941e+02
-1.623866341273474632e+02
-1.847847350349944122e+02
-5.426465817673392849e+02
-6.825293968928169761e+02
-8.232579246744496686e+02
-1.944685348648011427e+02
1.209405780406112143e+02
2.358770137271619944e+02
5.737670599664497217e+01
-1.082565416688868254e+03
-1.737861534705926260e+03
-3.029576069917712175e+03
-4.318904474925458999e+03
-3.529530672242503897e+03
-6.569456134716353972e+02
2.432738386541328964e+03
2.466139323334655728e+03
1.427568231563710924e+03
1.465675212427174301e+03
1.294547458170232176e+03
1.652491073087823679e+03
1.620896404008643913e+03
7.313465690317033250e+02
4.586249343877715887e+02
7.186152342503331738e+02
9.753983018438809722e+02
1.185382262674398362e+03
1.775061834998173708e+03
1.897912274333255255e+03
1.603113028379324760e+03
1.524676651502834829e+03
1.569157161200380187e+03
1.306119646083330508e+03
1.096365146705406005e+03
1.096088853924164141e+03
5.395166092863562426e+02
8.513940612610933840e+02
1.014491434998585760e+03
1.134016345170683053e+03
1.613689669206260760e+03
1.493557544248101976e+03
1.774095824126820162e+03
1.653845760778260910e+03
1.982065496666439230e+03
1.649938582522001752e+03
1.830905208275208906e+03
2.107716174912446604e+03
2.182287032003189779e+03
1.893775259969024319e+03
1.863060339444143892e+03
1.641185050030549064e+03
1.151062486679109952e+03
8.296040121104548462e+02
8.367564742992278752e+02
8.558725826767337139e+02
9.602575715392794109e+02
1.296392701440400970e+03
1.229990283237078529e+03
1.214194848899535600e+03
8.902608090339261935e+02
9.082294981065755337e+02
9.907662769767113105e+02
7.138266095735725685e+02
-1.048347223591968486e+03
-3.758585512270120489e+03
-4.810822379903717774e+03
-4.696358112960161634e+03
-4.891244080179460070e+03
-5.113260544159891651e+03
-5.236580980273680325e+03
-4.398296793339342003e+03
6.315657231482969109e+02
2.778340564067249034e+03
3.011177948490366816e+03
2.913117040780840398e+03
1.739926243963323714e+03
-3.407450004245477430e+03
-5.212952274898257201e+03
-5.035745718143882186e+03
-5.282604777151304916e+03
-5.256512501121640526e+03
-4.413819620237843083e+03
-4.558527518077391505e+03
-2.045689791941140356e+03
-2.590221886699112474e+03
-5.730707080422572290e+03
-5.188116953279723020e+03
-4.762410680769451574e+03
-4.601252131923250090e+03
-3.136906266920440203e+02
3.230768432315149312e+03
-5.295988552357519552e+01
-4.374771607572024550e+03
-4.622674740639107767e+03
-4.585589468974313604e+03
-4.698463256025659575e+03
-1.292986144371911450e+03
7.658456665981336755e+02
1.364722231869355710e+03
1.032832105052683573e+03
-1.581802541811277251e+03
1.561137172813477491e+03
2.248672075912458240e+03
2.671461825652006610e+03
3.472347074616897771e+03
3.742638000617031594e+03
3.588554413537299752e+03
3.528099499058881520e+03
3.980379305887689952e+03
3.662327077360876501e+03
3.373918969424702027e+03
3.183464774180376480e+03
3.119844355123126206e+03
2.969882496598974740e+03
2.594627770778204649e+03
2.034116299485634727e+03
1.757547494942926733e+03
1.460097917847084773e+03
1.144729553197328187e+03
9.273715403720747190e+02
1.416905292149868956e+03
1.351412307204447870e+03
1.405123223050894694e+03
1.203078972872101758e+03
1.407332737411542666e+03
1.970829800423928646e+03
2.005720287007362685e+03
1.604482758319671120e+03
1.481211028040904012e+03
1.229564653195780011e+03
1.251407079921173818e+03
1.332792217121618478e+03
7.398440819375575757e+02
2.396606104829807293e+02
4.193278639912044810e+02
1.375484939051066213e+01
-3.197620904917199596e+02
-1.061342735970187505e+03
-1.177742164354930992e+03
-1.422221951773630281e+03
-3.812108239768810108e+03
-4.391222264257975439e+03
-5.444993553800991322e+03
-2.427169669277710000e+03
-3.469266136511962486e+02
1.415021447323342954e+03
2.427898721847540401e+03
2.479548166522979955e+03
1.988822407097026598e+03
1.848790872509382325e+03
1.131492029195818077e+03
9.081526180987842736e+02
1.001838318512893693e+03
9.533662977593592132e+02
7.756993584738046366e+02
7.520070467405362251e+02
5.763740166276420496e+02
-5.620086430088414886e+01
-7.375451544381209601e+01
1.952226898858848614e+01
-2.033722349145117789e+02
-8.419439455649531112e+01
1.330650759672321328e+02
4.091195073570191880e+02
3.888473228498888261e+02
4.482281253827779892e+02
5.522201036582812321e+02
3.421070680906594248e+02
1.779928425062205690e+02
-1.972157763598737859e+02
-2.515124652505506049e+02
-5.189332657679238991e+02
-6.875047727060031093e+02
-6.801949172839542825e+02
-2.169180253167343437e+02
-2.256587316292830963e+02
-4.047177692361402137e+02
-2.912623283045506355e+02
-2.691481093262800073e+02
-7.031336641475741089e+02
-9.202139669899440833e+02
-6.735273080428829644e+02
-2.351000731595022728e+02
2.495715858079472937e+01
-5.342862786711532408e+02
-3.228079868867778259e+02
2.923175810461526112e+02
4.838874903293919374e+02
5.540119854577369551e+02
4.568554034377618223e+01
2.550042675960079066e+02
6.529425032410324548e+02
4.064575236843558628e+02
4.764535586366946518e+02
2.198932437505421262e+02
-2.832267013965523006e+02
2.199862489146983080e+02
-2.396444588600667430e+03
-3.804457285752085227e+03
-2.230648667884553902e+02
2.866840543991464756e+02
-5.942699446448759772e+02
-3.309887948359621532e+02
4.755127258118678242e+02
6.802034704056828787e+02
5.150558051458184536e+02
-3.296186777014612801e+01
5.871336977653635358e+02
1.002423810401737455e+03
7.607985859477481654e+02
2.732293524821421329e+02
5.417343967228209749e+02
6.963039790777688722e+02
5.178531150641497334e+02
3.334136898297175549e+02
1.379842467035615243e+02
1.034659926913099497e+02
9.380426419794503090e+01
-2.000416556599823537e+01
1.571701372621524229e+02
6.593503797257858423e+02
7.534490602875375771e+02
5.024279693919057195e+02
2.522422780172005616e+02
-2.163292565457593071e+02
-5.392708011706191655e+02
-3.704163641302297378e+02
-1.497679966434992878e+02
-2.334139955425461110e+01
-5.751142210761968272e+02
-6.861469353116515322e+02
-6.414436859457199489e+02
-1.170004122608684838e+03
-1.312870554773950744e+03
-1.213074552122084924e+03
-1.254681579427568977e+03
