-3.403535346860866412e+03
-5.612980345900331486e+03
-5.539445292495078320e+03
-4.017883361236261408e+03
-4.338217835346107677e+03
-5.476360061731551468e+03
-6.472220849275707224e+03
-5.001756594016367671e+03
-2.291938774739937799e+03
-3.570859371126167844e+03
-2.583390473690199542e+03
2.344719658805558993e+03
7.376526436105880748e+03
1.127199399733004248e+04
1.528205794837842222e+04
1.543571639258861433e+04
1.260502099799668213e+04
1.041204033029892707e+04
9.046878590717917177e+03
7.023590235806302189e+03
5.113196628883568337e+03
4.309749790981357364e+03
4.101315752991986301e+03
4.138887895956411739e+03
4.653512237941789863e+03
4.398322488738163884e+03
3.481696469128135504e+03
3.252596242421589523e+03
2.756125954789393745e+03
2.671436199387154829e+03
2.732530113822986550e+03
2.873385552406392890e+03
2.756152989742628051e+03
2.064865496468051333e+03
-5.003836214502563280e+02
-1.148315446586729195e+03
1.140028397154579807e+03
5.645087230057928309e+02
-1.136544522672349103e+03
-2.389552581012982955e+03
-3.464519616445814336e+03
-4.257430249582876058e+03
-4.592026030582798739e+03
-4.792071401899227567e+03
-4.661994247509023808e+03
-4.851477331429268816e+03
-3.742397528524666996e+03
-1.808169861144132028e+03
8.616705911164665395e+02
3.507195409145117537e+03
4.808010473350896973e+03
4.716580521782793767e+03
3.751613821761094187e+03
3.115639915397964614e+03
2.781095371688785690e+03
2.243798538799448124e+03
2.144174929601024360e+03
2.555091464452910259e+03
2.754846341929413029e+03
2.628317330727280023e+03
2.736506944065874450e+03
3.044366215195718269e+03
3.362294813482903919e+03
3.488673900980914823e+03
3.601582120508430762e+03
4.060662309862512757e+03
4.273083745271273983e+03
3.714872737082707772e+03
3.353017856381638012e+03
3.311532978882562475e+03
3.394364193660408091e+03
3.216458669916731196e+03
3.448883418393078045e+03
3.899587930836777105e+03
4.036579327801339787e+03
3.737884325949230970e+03
3.307510238620544897e+03
3.337446873046365454e+03
3.207678190163488580e+03
3.527164443883407785e+03
3.332935381952230273e+03
3.107018806516826771e+03
3.359374986001603247e+03
3.682908019895255165e+03
3.825551168441185382e+03
3.305300405193740062e+03
3.002213909781097755e+03
2.618232557900607389e+03
2.129282617951564134e+03
9.593119336770586187e+02
-1.626932723529053192e+03
-5.485505149074582732e+03
-8.484306510205307859e+03
-8.630357852869430644e+03
-8.441543850342315636e+03
-9.324807783266642218e+03
-1.008723184159530501e+04
-1.087683272216738260e+04
-1.087876525115654113e+04
-1.077571540633042605e+04
-1.154588256016247578e+04
-1.100953313923921269e+04
-9.099712675144452078e+03
-7.732390423031391947e+03
-7.589458543969032689e+03
-5.205951141500528138e+03
-4.475955281810726774e+03
-7.921430572609645424e+03
-8.556381786987927626e+03
-8.794879690165616921e+03
-8.026030196595956113e+03
-6.313944932774904373e+03
-3.626731700776192611e+02
-4.992289774386520094e+02
3.845223231570894882e+02
2.278617852776038944e+03
2.258004445168221537e+03
1.655711626845927412e+03
1.549694598737747583e+03
1.753865656546553055e+03
2.276144404767581818e+03
3.116567604754937747e+03
3.725103446267647541e+03
3.635762657158906222e+03
3.798607601697291557e+03
2.940563265904449509e+03
1.589533393594960899e+03
1.775575441533213279e+03
2.232646683650012164e+03
2.122689330663703913e+03
2.680679239862579834e+03
2.594582389471806437e+03
2.527467166171468762e+03
2.700380747146380145e+03
2.647348070436297348e+03
3.275347050749286609e+03
4.177389816431258623e+03
5.318492496327607114e+03
5.147677299344629319e+03
3.720958480318557577e+03
2.520297649966287736e+03
1.949708841793201373e+03
1.862221549369270178e+03
1.663751764010099578e+03
1.422158001577575305e+03
1.105420822727689256e+03
7.905674753427732639e+02
1.777020610536119420e+02
2.699937042374101566e+02
3.354544679705389285e+02
1.759682988088607942e+02
-2.373767180226142841e+02
-9.043150313249644512e+01
-2.840510819948079302e+02
-7.225741226059686824e+02
-7.129010425929479879e+02
-1.059756962464365870e+03
-1.501038660822989868e+03
-1.701768946827781065e+03
-1.916960491774776756e+03
-2.445644320725349189e+03
-2.628786248262400022e+03
-2.571507979979505762e+03
-2.167784803808412107e+03
-1.166123646195534548e+03
-9.011362357752886965e+02
-1.272512390255712035e+03
-1.590941512690617174e+03
-1.596815893453718672e+03
-1.298503242527149496e+03
-8.578586438932666169e+02
-6.851478886869399503e+02
-3.113661509585735985e+02
-1.873344096654114992e+02
-4.827905474632274263e+02
-6.227179282404886180e+02
-6.451894892276717428e+02
-6.473218629412518794e+02
-9.911597524376149977e+02
-1.265645643007331955e+03
-1.076712102110508113e+03
-9.763236704470964469e+02
-6.684837318590825817e+02
-8.171800608307230505e+02
-7.693318559962964400e+02
-8.938485149948102162e+02
-1.162696818312186451e+03
-7.001568525669406426e+02
3.506613289432173133e+02
4.778246278258931170e+02
3.142663872232238305e+02
4.470790494773972910e+02
2.635079718397439024e+02
5.914288934621313274e+02
6.606970920877278104e+02
2.712642989333482433e+02
5.010380213289714391e+01
-4.556621598687896721e+02
-8.578534118614611543e+02
-6.883777776179247212e+02
-1.027425281187729979e+03
-9.562225616813974511e+02
-1.294794942622330609e+03
-2.315111750028461302e+03
-2.835209839059972182e+03
-2.250978469280625632e+03
-1.174271749711799885e+03
2.889347990138716114e+02
1.594607052644428450e+03
3.006592253971044556e+03
3.919826680614293309e+03
3.653195745295729466e+03
3.224713126336126606e+03
3.127390394799185742e+03
2.331168799792649679e+03
2.608089395198135662e+03
2.663267413590607703e+03
2.413809959228303796e+03
2.067751375488011035e+03
1.515079605533338054e+03
1.062704807751698581e+03
9.866212550413592908e+02
1.084460235978395531e+03
1.201915267604476639e+03
9.341819442014264041e+02
5.312595766255112721e+02
1.377842228662738080e+02
5.233133557634865838e+02
1.064158984452179993e+03
1.342231852579682027e+03
1.596156778318167653e+03
1.760061824783951351e+03
1.428549101701434211e+03
1.583053263774669404e+03
1.473389358970693820e+03
1.274613703496390826e+03
8.828721886151040508e+02
8.515054934073335744e+02
4.221214870267856440e+02
3.860182949666413492e+02
7.283669353370526096e+02
6.840134158734316543e+02
6.539267330433600591e+02
8.069516481525130303e+02
1.179670703209381600e+03
9.297201140605766341e+02
6.662049797847041646e+02
5.009218178158964747e+02
1.229059144317296159e+03
1.543899107362922905e+03
1.310242982478760268e+03
1.425957982127768673e+03
1.481792641231239486e+03
1.728952474798184539e+03
1.636321828609912018e+03
1.441495147816220879e+03
9.917011804118579903e+02
9.145085178518335169e+02
5.224180283815325083e+02
2.453020980199123358e+02
-9.001958669758369069e+01
-8.008510895333911321e+02
-7.737831206199953158e+02
-3.509732189954328874e+02
3.885607401912397449e+02
-7.052155227154767658e+01
-3.057144165594863807e+02
1.075600992823036222e+03
2.398029681791886560e+03
3.627427260940244651e+03
4.100747965869922155e+03
3.562870214738806226e+03
3.005021132191945981e+03
2.776446916045093985e+03
3.361207700718593514e+03
3.773297028104096626e+03
3.490762318724417128e+03
3.037625247155054240e+03
2.120826711559644991e+03
-3.376747141787707278e+02
-3.513905983204828772e+03
-6.698877075901915305e+03
-6.847547902265656376e+03
-7.552850502949833754e+03
-7.552852504147708714e+03
-7.200480328684656342e+03
-7.082813291050892985e+03
-6.996811275706859306e+03
-6.530416324337448714e+03
-6.108659492183386647e+03
-5.501462503228179230e+03
-5.675582878598795105e+03
-5.456157069822959784e+03
-4.887418467422620779e+03
-1.931116056175178983e+03
-7.691378623136924944e+02
-4.962463592259734469e+03
-5.951085958665724320e+03
-5.972995019261071320e+03
-5.962153309418528806e+03
-5.783527729885522604e+03
-5.484127785631540064e+03
-5.461917900249601189e+03
-5.720937756275108768e+03
-5.587243791174541002e+03
-5.413904866716819015e+03
-5.251958149983306612e+03
-5.271321208584579836e+03
-4.678865868854439213e+03
-6.344362388352644757e+02
-2.380022878044968820e+03
-5.513639843859128632e+03
-5.407223276347737738e+03
-5.479726840270710454e+03
-4.157158170996088302e+03
6.005105270336465537e+02
3.765347830610985511e+03
4.650413721124252334e+03
4.020824690625621315e+03
3.777562501224811967e+03
3.919655919587653898e+03
3.889133776998190115e+03
3.726071428889399613e+03
3.859478722501337415e+03
4.181499428623029416e+03
4.325182130933306325e+03
3.943572843178722906e+03
3.507718524022845941e+03
3.536692368333435752e+03
3.564506545123814249e+03
3.508168254998332941e+03
3.322766347447709450e+03
3.473378045008078516e+03
3.633081608206955025e+03
3.700956745455715463e+03
3.262020838713698140e+03
2.765249034493083855e+03
2.659749788482089116e+03
2.363589417081312604e+03
2.151783819731875610e+03
1.767367776369742614e+03
1.303323991312309090e+03
1.856653209502253958e+03
2.603395548192708247e+03
2.860750821343928692e+03
2.899064299165729608e+03
2.402464453530850278e+03
2.416134997481713071e+03
2.618239358533885479e+03
2.286810662005227641e+03
2.136665971587136482e+03
2.107830451761412405e+03
2.155496411316554713e+03
1.754622664962719909e+03
-1.571746261659689480e+03
-3.262499056311825996e+01
1.910934642622030651e+03
1.596293156774112958e+03
1.140115815618221632e+03
7.620014002825752186e+02
8.332498285135526430e+02
1.166976813438496492e+03
8.189935254246797740e+02
1.152444256961061001e+03
1.372669586639961835e+03
1.209544095039498643e+03
1.087950362492423665e+03
9.347970911857247529e+02
9.293381859362871182e+02
9.358141981634805688e+02
9.936291434891775225e+02
1.159714348168324022e+03
8.488223030592963596e+02
5.530397586636220240e+02
3.514044294352883071e+02
2.068955320682860872e+02
-1.785788622207025185e+02
-1.010997667047036117e+02
-2.726531836187026556e+02
-7.732158104916408092e+02
-6.048129296669751511e+02
-2.955384730148873587e+02
2.671106099795354183e+00
6.149055838581798525e+02
5.910883154162230539e+02
7.441497824901105105e+02
7.920969620208006745e+02
5.448272274431418509e+02
5.373535645191647063e+02
2.756544698560087454e+02
-1.553123842933885896e+02
-1.465860926274642679e+02
2.047506851231843825e+02
2.926382851162263705e+02
4.149981741943862517e+02
2.478879551091080771e+02
1.773952864693962681e+02
-1.445162161109774672e+02
-3.349241741666610892e+02
-3.638783161699574293e+02
8.534502758075026563e+00
1.828375389237991300e+01
-1.956049508817342542e+02
1.968363653617957993e+02
4.965931225158776670e+02
5.775694578343451440e+02
3.137221941375578353e+02
1.630530368347948240e+02
-4.374485002547157251e+02
-3.112845723842644929e+03
-6.853157800401792883e+03
-9.088434408477711258e+03
-8.675763858706221072e+03
-7.955146120975470694e+03
-7.762625357912835170e+03
-7.582246285002031073e+03
-7.391034066230980898e+03
-6.358025171763287290e+03
-3.209291169919144522e+03
-3.403010003689005316e+03
-7.230944794682230167e+03
-8.541229949006881725e+03
-7.972987649834345575e+03
-2.619219447762640812e+03
-5.939552801045356318e+02
-1.475210851230767048e+03
1.111925175133756284e+03
1.362427339710635124e+03
1.159275974983338301e+03
1.409412691817150062e+03
2.052833549550796761e+03
2.222512622539805307e+03
2.194451999681165489e+03
2.419611753309460710e+03
2.382959509509068539e+03
2.840486554669108955e+03
2.839167880029566277e+03
2.428915845971376257e+03
2.187730945570506265e+03
1.578542576631875136e+03
1.483350313749477891e+03
1.383142836463145841e+03
1.437945285089555910e+03
1.520735726019616095e+03
1.795502354544775471e+03
1.970166656461520461e+03
1.936756238097166033e+03
1.919291858089168500e+03
1.937762952479421756e+03
1.789177671778463946e+03
1.683474279356933039e+03
1.710667569871329079e+03
1.518849873692649680e+03
1.892008835823224672e+03
1.944188418154971487e+03
2.116407939553258529e+03
2.192605208753497664e+03
2.093826403316767937e+03
1.786095929974696446e+03
1.813465976378398409e+03
1.531015778859555667e+03
1.268704387277988872e+03
1.319440707074192005e+03
1.369212719535305723e+03
1.599966864212106884e+03
1.763734143407127476e+03
1.675508068952986605e+03
1.567349853269312234e+03
1.690408856176391282e+03
1.743734323137113961e+03
1.829309645297472116e+03
1.630122107292238752e+03
1.758115509035561445e+03
1.720615210704764195e+03
1.597568651588584999e+03
1.840042707869447668e+03
1.079113175054098747e+03
7.507611186909065282e+02
3.840030380421308109e+02
-2.708428241784006829e+01
6.034991198243028521e+02
2.937234099610253679e+02
-8.174033594238109117e+02
-5.165416083540708314e+03
-5.800505919293716033e+03
-5.510744569133303230e+03
-4.366041439312183684e+03
-1.033344709942653253e+03
-2.512591080160308138e+03
-7.287180433406665543e+02
-3.284716455226623111e+03
-4.543504388077829390e+03
-5.377043634707411911e+03
-1.241251696840826753e+03
1.065912601583795322e+03
-1.925489209855306626e+03
-1.166421033021272706e+03
-2.669911686427234145e+03
-5.698343900887875861e+02
-2.876125483006186187e+03
-2.765805161775941542e+03
-3.859888154168819256e+03
-1.744245979188859337e+03
-4.079818150829637943e+03
-5.083588842147131800e+03
-3.075567414355239180e+03
-2.787660787778561371e+03
-1.128792377238602512e+03
-2.195968583338849839e+03
-9.271361458040663592e+02
3.967574509877154014e+02
-2.322247210989538416e+03
-6.111083582038305622e+02
-1.667727302390626392e+03
-1.222087557162242547e+03
2.878394885550762865e+02
2.010072182221413186e+03
-1.693347731953368111e+03
-1.160343179411219580e+03
-2.509915764897421468e+03
-1.186028316083256186e+03
-2.025744476505452667e+03
3.740076571179257030e+02
7.972229599189465716e+02
1.286795818316989880e+03
1.717744921307386676e+03
1.886124394261860289e+03
1.814959983491314233e+03
1.397359147587266079e+03
7.393344807687757338e+02
8.139281514318388417e+02
1.292080795484549981e+03
1.399736730411294729e+03
1.439973725159467449e+03
1.516837689317378818e+03
1.556388428225375947e+03
1.465779343897175977e+03
1.808157985996452226e+03
1.950563104703726822e+03
2.129765226389024519e+03
1.887844768458816816e+03
2.130720847582848364e+03
1.523300652231570439e+03
1.328579288620275292e+03
1.869575198781534255e+03
1.612209615830754728e+03
1.419244679208067510e+03
1.856902200154439015e+03
1.872473474723265326e+03
1.796665801511722975e+03
2.075731462480292066e+03
2.133296944201676069e+03
2.245047375131450281e+03
2.010671797015252878e+03
1.540865992523822342e+03
1.471546180945189690e+03
1.560804360291465173e+03
1.505410404804332984e+03
1.163611452975336078e+03
1.325943196448520894e+03
1.651542103208287699e+03
2.109267645708581313e+03
2.406261318098382617e+03
2.500608027133709129e+03
2.508214184828636007e+03
3.049611182982373066e+03
3.412622671520819495e+03
3.252903888854480101e+03
2.988300243101431988e+03
3.088603197279882806e+03
3.081748760201760433e+03
2.658604329758542463e+03
2.065817405557626898e+03
1.742350411844795190e+03
2.622548836372565802e+03
2.884250576848416586e+03
2.767273680206448262e+03
2.321558056294391918e+03
2.592106763821440836e+03
2.149889700132476264e+03
1.995802250957016668e+03
1.831741993052444286e+03
1.837684303097752263e+03
1.920642309207213430e+03
2.028568490014564304e+03
2.062391895367245979e+03
1.800089092482142860e+03
1.731619995008078376e+03
1.489954763372346179e+03
1.306002834468754145e+03
1.958712422419017457e+03
2.121050597711453520e+03
1.772049445483361524e+03
1.616659178700158463e+03
1.569827176388514090e+03
1.583563246918374716e+03
1.579857242135878096e+03
4.816369345240922826e+02
-2.460121252338712566e+03
-6.284526189880284619e+03
-9.227651762579698698e+03
-8.921534908283716504e+03
-8.350215121604675005e+03
-7.744682163843297531e+03
-7.590934615516964186e+03
-7.508999996667623236e+03
-7.812890149937376918e+03
-7.922640440411933923e+03
-7.008305631616280152e+03
-6.950928517187243415e+03
-6.861501640961708290e+03
-6.516668664805900335e+03
-7.010861299926392348e+03
-3.700142147608241430e+03
-3.100366836277878519e+03
-6.510570832912614605e+03
-6.845729261786269490e+03
-6.942910846636061251e+03
-7.074212545145242984e+03
-6.696574864928002171e+03
-6.512079358760762261e+03
-5.592728163793996828e+03
-5.845480122946340089e+03
-6.292361617143405965e+03
-1.625362038489273118e+03
-6.814632719127326936e+02
4.713134852576503704e+02
2.335961312248355625e+03
2.806495355082332026e+03
2.920963623734094654e+03
3.022352361457671122e+03
3.496664098052399822e+03
3.337872062935312897e+03
2.639000235096439155e+03
2.754087557883260160e+03
3.464179561260076298e+03
3.572315718242570711e+03
2.924526622034970387e+03
2.055817130361861018e+03
1.685158237546841065e+03
2.021476911771724872e+03
2.223799193974336958e+03
2.392135640917625551e+03
2.348485324952781411e+03
2.247920872829062318e+03
2.246470533183049611e+03
2.376224577703100749e+03
2.205215003279962730e+03
2.123464815419725255e+03
2.183943875098048920e+03
2.193706937924414888e+03
2.208772343857525357e+03
2.362159620044375060e+03
2.429889786733596793e+03
2.391060883499861575e+03
2.641731175812741640e+03
2.102932515465740835e+03
1.429725488644649204e+03
1.363097269040576521e+03
1.319005574904035029e+03
1.180449599548084052e+03
9.394689473645967155e+02
6.079770988178366906e+02
5.579985504237903342e+02
5.915710720784022669e+02
9.410802120288485639e+02
1.355879871782443843e+03
1.429185379254861346e+03
1.315935642747860129e+03
1.352992616282464951e+03
1.163321859810912883e+03
1.075939563315084797e+03
1.148908199915640580e+03
8.653088149500215422e+02
3.549009480154303446e+02
-2.072371744117550406e+03
-6.608960888950139179e+02
6.843115315062035506e+02
5.569273028173437297e+02
1.892024153370706188e+02
-2.214857638739211154e+02
-1.350308039310600066e+02
-4.102122909516526192e+02
-3.573184543839674348e+02
-3.001220049185860717e+02
-2.985207032599571448e+02
-1.085575240594764068e+02
-3.143034861242054490e+02
-1.571175414287439054e+01
3.002546867014721670e+02
6.436718029635628682e+02
8.906499106682658748e+02
1.186117985961959675e+03
1.134047142387537406e+03
1.333506977927422668e+03
1.143541305208051881e+03
6.561669640073539540e+02
3.053664718794868236e+02
2.251070607744123606e+02
-2.406030198133536544e+02
1.430478319748510430e+01
2.298129840864790765e+02
1.428808796697068146e+02
7.652265511190105940e+01
2.247447183830270490e+02
1.955712381610761952e+02
-1.430137025537227089e+02
-6.299477086832556552e+02
-5.302179516045898708e+02
-5.617838921799467471e+02
-4.927129754014239893e+02
-2.589647511576644661e+02
-3.975711659665490743e+02
-6.764470703987299203e+02
-4.416288405378111861e+02
-9.207470433728590820e+01
3.102065448536848180e+02
3.201641563285518828e+02
-4.233611139964326142e+00
-8.405567651394943596e+01
-4.822764997583950048e+02
-6.719172090452823340e+02
-8.849783953978284217e+02
-9.175348085861149912e+02
-4.776213128506724388e+02
4.579589290088686937e+01
2.817473493466544028e+02
-1.060702551154715138e+03
-3.033529781081285819e+03
-1.565715198321925982e+03
-1.398258938129411717e+03
-9.902331839812650287e+02
-3.188750288563223307e+02
-3.771751560209021363e+02
-4.820962170363057453e+02
8.435302178634243830e+01
2.301702708701344875e+02
-1.149755422939063919e+03
-3.770317135973574750e+03
-1.107434214374592784e+03
-2.641033983631007800e+02
-6.035164166711549569e+02
-5.903623179088535835e+02
-4.696389100076513046e+02
-1.388861257588497722e+02
-1.048873117703608671e+02
-1.219705203002156964e+02
4.021217788671841475e+01
-6.435482153491059876e+01
-2.270274578475048344e+01
2.624804527981809770e+02
2.926802227167032697e+02
5.312720709448444723e+02
1.837347522974830838e+02
4.961120974937284132e+02
1.146360034207876879e+03
1.229704992783852049e+03
7.631863713727320828e+02
6.724130570525755957e+02
6.775692776460243749e+02
2.986275987746845999e+02
1.206566802534375284e+02
2.951501354983350325e+02
3.933977721366551918e+02
1.804313757895701826e+02
3.001249161605605664e+01
2.722114239164956757e+02
2.298570572044481537e+02
5.744186973862180423e+01
3.452927842188911427e+02
7.802886016119814485e+02
8.249533205389054729e+02
6.946695675987053846e+02
5.136935733350385362e+02
3.816083159074083824e+02
5.090296017906508723e+02
1.352154939093692974e+03
1.675841470339860507e+03
1.471249920414224562e+03
9.476691362829064929e+02
4.235221573209165626e+02
5.769428525569750832e+01
3.713516080458716146e+02
2.723003169159782715e+02
3.024661212913542272e+02
1.068342210138406898e+02
5.324541889598434636e+02
1.024235469146512969e+03
6.420977649343376470e+02
3.840487393227119810e+02
3.121581241419100365e+02
2.834601972664410141e+02
1.849067088897150768e+02
5.595086103954844248e+02
7.002546953440995594e+02
5.821843438987533546e+02
9.912733772504149101e+02
1.208590483270645109e+03
7.821213958191566462e+02
1.818931350385219616e+02
-8.510343905960876043e+01
-8.089016206144423222e+02
-4.913498790274747080e+03
-6.333830605264794940e+03
-4.415873435049767977e+03
-5.470606956627909312e+03
-2.239004089294749974e+03
1.118893484407668950e+02
-2.528857085875575649e+03
-1.990239270939372773e+03
-2.445227840539785120e+03
-2.841823093065270314e+03
-1.459118773827666473e+03
-2.317107218589245349e+03
9.852311159707059005e+02
-1.281108186588448234e+03
-1.990158611695278751e+03
-3.970890688768874952e+03
-3.767303448801565082e+03
-1.590317655693158031e+03
3.201551688047717334e+02
-2.673803325134824718e+03
-3.855305669503072750e+03
-1.369391426679969982e+03
-2.091929224133075877e+03
-2.154887565559563882e+03
-2.676253257848317389e+03
-2.809036069570716791e+03
-2.614211576129829155e+03
-2.863610991051629298e+03
5.858276843678780779e+02
1.656011383493399080e+03
1.360948040820853294e+03
1.209634082999936481e+03
1.570170602994003957e+03
2.108524859167891464e+03
2.296664589710126620e+03
2.007583157940848650e+03
1.820423537590196474e+03
1.812293348993505788e+03
1.590200197354186912e+03
1.398076273213541981e+03
1.475844907509097766e+03
1.543537797525999849e+03
1.659177032766109733e+03
1.497701580295036138e+03
1.214224572417277841e+03
9.086426086645320765e+02
9.559845644188393408e+02
6.733770550395513510e+02
4.767300115943356786e+02
6.659877382342152714e+02
1.355215829288000123e+03
1.460516239094167759e+03
1.584932657549458099e+03
1.866579245775634718e+03
2.090536291947622431e+03
1.935180103322997866e+03
1.429397641742108817e+03
7.031256271393856423e+02
7.393430815395344098e+02
1.059106708127632601e+03
1.079476218345834468e+03
1.114588810411486747e+03
8.403403571602499369e+02
2.966387720385520197e+02
-5.393901746275256528e+02
2.822448087710659337e+01
2.053054259306436080e+01
3.707952025936442624e+02
8.737110560561792454e+02
9.658307622219764426e+02
1.645482311423753799e+03
2.198454499056470468e+03
2.042754365939400486e+03
2.106533508490281747e+03
1.915801795831252775e+03
1.715616431922106131e+03
1.732912061338549620e+03
1.448703276884308480e+03
1.213994136060161736e+03
1.356413864511039264e+03
1.256057120897940877e+03
1.082777366692656869e+03
1.208411074889186011e+03
1.460139738431881369e+03
1.440147403712561982e+03
1.396350056844675464e+03
8.475768879276926100e+02
-2.206824542684442392e+00
-2.008284723843744928e+02
-2.611900185106434265e+02
-4.293656547539889630e+02
3.165653554669825098e+02
1.375635515908489424e+03
2.173996289683826490e+03
2.385683254221504740e+03
2.136499015554711605e+03
1.903174254183267976e+03
1.185617214488233913e+03
6.249601569771397180e+02
2.000736102462622341e+02
2.829064833094001870e+02
1.854582903838903292e+02
4.518262076176185360e+02
4.010512251653050271e+02
4.940066310643965153e+02
5.307247774951139263e+02
8.750543521771348310e+01
-5.575837077757690849e+02
-7.627137163261786554e+02
-5.692971303040704925e+02
-1.738029561276630943e+02
1.270826535143506362e+03
2.122841195706710550e+03
1.835317788033364877e+03
1.684348215689256904e+03
1.574015146220996030e+03
-5.568295784571288323e+02
-3.931149382589785091e+03
-8.267804874418703548e+03
-9.434889795701212279e+03
-9.196491055287111521e+03
-8.467538057964984546e+03
-8.128960353048705656e+03
-7.462712697036677127e+03
-7.067727403037827571e+03
-7.267974175797403404e+03
-7.041541481423709229e+03
-5.947661993168558183e+03
-7.389386288895481812e+03
-7.499615386220415530e+03
-2.430096096267299345e+03
-1.292053469306960096e+03
-2.876660466127351810e+03
4.631474352668665233e+02
1.662576686309677370e+03
1.734764618032539374e+03
1.554860886541902119e+03
9.451346517023309843e+02
8.903958229992316546e+02
1.455528606059165213e+03
1.736483523681675251e+03
1.301162238589992057e+03
6.704339002453911007e+02
-1.410721472414110735e+02
-7.645668314400346333e+01
1.058440178593145447e+03
1.828783329466225723e+03
1.671626223961393634e+03
1.703073159130316753e+03
2.245215125219825950e+03
2.425071805892644079e+03
2.682648635944790840e+03
2.311904666955685570e+03
1.949885445182206468e+03
2.387759272916254304e+03
2.833442148448922580e+03
2.639022705520354066e+03
2.264646549577500082e+03
1.781289743149221522e+03
1.461934941233670770e+03
5.205936376368655374e+02
1.623517812875543314e+02
-2.563368884193755193e+01
1.559820584446666913e+01
-2.719009845787909967e+02
-3.600120557238889774e+02
-7.699436459188044637e+02
-9.586266557359162732e+01
7.829241895171716692e+01
6.804991096101313133e+02
1.760731865018954977e+03
2.127046822423252252e+03
2.200548076596165629e+03
1.746306533622273264e+03
1.701365245013500953e+03
1.748827238636507218e+03
1.965746976386385768e+03
1.055191920429959737e+03
-5.028535800641273568e+02
-1.564404075704923798e+03
-2.345534521165953265e+03
-2.140310277528980350e+03
-1.636380050228073969e+03
-8.435562197840903309e+01
2.029704154582081401e+03
3.890584850297157573e+03
3.562209730049459722e+03
2.362556825668978036e+03
2.014691144190096793e+03
1.619680028857867683e+03
1.247442189671060305e+03
7.039919841537987395e+02
8.994206523366924557e+02
1.574969756764919794e+03
-1.674747302309933275e+03
-4.842660140304280503e+03
-2.961667405312501160e+03
1.138257943645506430e+03
2.119196524411073369e+03
1.774184522485714297e+03
6.962203595932570579e+02
-2.547191714255927479e+02
-3.875802563621106174e+02
-4.152199944970457182e+02
-3.984662903346618350e+03
-2.181088044998781243e+03
-8.867971162131028962e+01
-6.944246695274296144e+02
-3.151213795969803869e+03
-2.373090973325667164e+03
-2.726078067631945487e+03
2.429209399325565926e+02
-2.810064032562796001e+03
1.899975368926022838e+02
-1.067871760750779686e+03
-2.637019949781890205e+02
-2.694540962120806853e+03
-2.830355959879476814e+03
-3.011329242492220715e+02
-3.233898338862111814e+03
-2.961721000564507904e+03
-4.370724087030248484e+03
-3.487942031911942649e+03
-7.067442668637981114e+03
-1.532312963144086098e+03
5.654457146690796208e+02
-4.031146676827699594e+03
-5.248086426518942972e+03
-4.533370762129913601e+03
-4.671033278500502092e+03
-3.996160757969023962e+03
-1.933840889104613552e+03
9.438626356212530482e+02
-1.644019475526526094e+03
-4.044488392435386004e+02
-9.343766572314390828e+01
3.016015796361789853e+03
4.160811267141034477e+03
4.458846412393831997e+03
4.310025364056465150e+03
4.553333222061897686e+03
4.417660423229487606e+03
3.716944795994082597e+03
2.672269152280784965e+03
2.357582662597952094e+03
2.566808674808754404e+03
2.135820870756223940e+03
1.596520740887864122e+03
1.263838124887271078e+03
1.238124683200746631e+03
9.023276209300735218e+02
9.353595446404744962e+02
1.261243367091065238e+03
9.749885821968061919e+02
7.315503603604998943e+02
7.199304084855178871e+02
-2.508696443989598208e+02
-6.925938452336312139e+02
-3.035332429375405354e+02
-7.287639910081051653e+01
3.457077386656116573e+02
4.748019883861456378e+02
1.283370766458807566e+03
2.296242653001829694e+03
3.441280403702631247e+03
4.359697415821925460e+03
4.355518139993498153e+03
4.449521990054135131e+03
4.491866328770247492e+03
3.873109017473002950e+03
2.894719862105413085e+03
2.072632758434428524e+03
1.023926268860583377e+03
4.793275731717178019e+02
6.124896863889789529e+02
1.613341570153767634e+03
1.652440418859453303e+03
7.435208270176295855e+02
6.138738924897369316e+02
4.019311992612345534e+02
3.896863898975889811e+02
-2.109006033114978322e+02
-1.514843816172673314e+03
-1.407217230834743987e+03
-5.150253331461441348e+02
4.116101549552919323e+02
8.726247551822284549e+02
6.817045081945083211e+02
1.143736715178095210e+03
1.744735750505056558e+03
8.926874677557896121e+02
-3.874304332212589657e+02
-3.126231729168770244e+02
1.244028013865468665e+03
3.198493357580279280e+03
4.528768992899806108e+03
4.805844106516578904e+03
5.010709419141770013e+03
5.536322286110669666e+03
4.836707253833706091e+03
5.372890277620017514e+03
5.353851282618210462e+03
5.096536548116553604e+03
5.803877567445566456e+03
5.332891235083617175e+03
3.785603496610005550e+03
2.597995564623559403e+03
2.333015020399951027e+03
1.001706996837677252e+03
-1.980900533185913446e+03
-6.920765629710712346e+03
-7.985940348360239113e+03
-7.867406515136593043e+03
-8.355132647107833691e+03
-9.221114226605619479e+03
-1.004938407118864052e+04
-1.041888820145191312e+04
-9.459518873876249927e+03
-9.682290977920396472e+03
-1.011213457493041642e+04
-9.716939396071666124e+03
-9.625625608812260907e+03
-8.474319299761167713e+03
-4.010996621848238192e+03
2.108354053124533038e+03
1.004719915863006122e+03
-5.448674036869036854e+02
-2.629451974382099252e+03
-4.939942497684976843e+03
-5.688258530756764230e+03
-5.795395526851643808e+03
-5.115269575840357902e+03
-4.057826771072115207e+03
-3.573044619360633078e+03
-3.055820853179784990e+03
-1.172059364266175862e+03
-5.837258571504602287e+02
-1.265764454851708706e+03
-3.146149039595002705e+03
-4.025825314570536648e+03
-2.636764046550752028e+03
-1.908876947278467469e+03
-2.821105663680059934e+03
-5.059326458958856165e+03
-6.034442465711140358e+03
-4.861402625843194983e+03
-3.463152548128769013e+03
-3.215591965874204107e+03
-3.189657196050342918e+03
-1.209417864380015544e+03
2.501234829376071957e+03
5.475462319664432471e+03
5.563321982001368269e+03
4.608862414564362552e+03
5.367192841748976207e+03
4.620406899011847599e+03
3.252608025157157044e+03
1.884866361839767478e+03
1.429221141695376446e+03
1.743692820605186398e+03
6.723760286279924685e+02
-6.663330761745631037e+01
3.646723322482906497e+03
9.930518989947966475e+03
1.582283855781084822e+04
1.760887654012204439e+04
1.368769647807022920e+04
8.770413134107795486e+03
5.972050692185921434e+03
4.269606217056684727e+03
3.623276406246689930e+03
4.059132775722323004e+03
2.438169613765110626e+03
8.385048205989891130e+02
1.231209774389123822e+03
5.865273188227464516e+02
-9.973664785660174630e+02
-1.726274589510444684e+03
-1.872245195091204550e+03
-1.545194419991273207e+03
1.088047033699539838e+02
2.496823025523555771e+03
4.451049023751316781e+03
3.810500957426068453e+03
1.840970660624472430e+03
3.908730558615797577e+02
-3.878456445187691770e+02
-4.603710849862959549e+02
-2.787369320340486865e+03
-6.430900821598201219e+03
-8.569397248857152590e+03
-9.609727929005717669e+03
-8.356794979146110563e+03
-3.305519387079000353e+03
7.122205953919662988e+02
4.183389711658733177e+03
7.864918801444072415e+03
1.141487347689582202e+04
