1.631242181233210249e+04
1.407192073132006954e+04
1.402909015936579090e+04
1.311001012005106168e+04
1.049671060513154407e+04
6.837261314039246827e+03
1.581870567764741281e+03
-3.920354583479971097e+03
-8.902498881888572214e+03
-9.866648282988744540e+03
-7.436780659844374895e+03
-4.968610780804590377e+02
3.689231905930383164e+03
1.039026416181723471e+04
1.128625316922778802e+04
3.061250473609879009e+03
-4.261810243127687500e+03
-1.729696034357799306e+02
4.435675344593577393e+03
1.055794928905120287e+03
1.371434910494908081e+03
9.548781799094313101e+03
1.285582284738084672e+04
1.699450566753259045e+04
1.531584659424047641e+04
8.621856939867275287e+03
1.675364408628703814e+03
-7.705094898381579469e+02
2.523038742225481201e+03
7.418143124652499864e+03
2.421333967805305292e+03
-4.665548409848866868e+03
-4.794820505173866877e+03
8.066152107910287441e+02
5.309339705328517084e+03
7.686976125096956821e+03
9.272722202987935816e+03
3.145564712116255123e+03
-1.599766095347613373e+03
-1.968964616334208586e+03
-3.159318809093571417e+03
9.308827512166648148e+02
7.680567749222840575e+03
8.307822817644326278e+03
8.195517939378665687e+03
8.489628073148598560e+03
6.889122937290893788e+03
3.910946874143152854e+03
-1.311980453725357393e+03
-7.639661369978926814e+03
-7.315089840705244569e+03
-5.454369963127789561e+03
-9.068647914015164133e+03
-8.472998045859480044e+03
-8.747557073664986092e+03
-1.057043192466341316e+04
-6.491618200344591060e+03
-1.823183338403404377e+03
-5.314282024471198383e+03
-1.160112828558221918e+04
-1.356282958625468564e+04
-1.136036045983661279e+04
-7.606721237526940058e+03
-6.164031249785803084e+03
-1.020842856740641946e+04
-1.164900590207445748e+04
-3.890787249693717513e+03
9.261980334975840378e+03
9.316433930828945449e+03
-2.033249903243912058e+03
-5.815244361544778258e+03
-7.348624427124504109e+03
-7.795561956353128153e+03
-1.044175913004339009e+03
5.402584494565678142e+03
3.100594388227236777e+03
-2.075193901633180303e+03
-3.998774509217980267e+03
-2.197299391560231470e+03
-2.203009172871638384e+03
-5.287896050163577456e+03
-1.051690134300462341e+04
-1.802221104432654101e+04
-1.571481738438554021e+04
-8.646771591019394691e+03
-2.373107159422804216e+03
-4.967148804738571499e+01
-2.280399301849732183e+03
-4.263432558723513921e+02
4.174398555497989037e+03
3.488384260290697512e+02
-3.938062039690305028e+03
-7.127314807659705366e+03
-1.163513881534242864e+04
-7.934637166840930149e+03
-2.626559533003388879e+03
-2.729065194075558793e+03
-4.102347004886477407e+03
-7.725572316365985898e+03
-3.828651093443744685e+03
6.416462087799930487e+03
1.118863630298367571e+04
5.015825255690740960e+03
-2.249812794069319807e+03
2.449583697353493790e+03
7.384128876549772940e+03
9.047142751856048562e+03
6.275478444322683572e+03
2.199526008243319382e+02
1.312622193534257121e+03
7.125719563931263110e+03
9.553238809831380422e+03
8.837862284634027674e+03
7.965613716987888438e+03
4.554783188258134032e+03
2.795234715320187206e+03
2.007728389728134516e+03
-2.891916043698607609e+03
-2.875884675273093762e+03
-1.203021750937506695e+01
1.789143999583273796e+02
6.269749844226984123e+02
4.926097325197633836e+03
7.348295490308586523e+03
8.384638540012421799e+03
5.300127814301424223e+03
2.276770255464964976e+03
2.241689159940850914e+03
2.871972892947319906e+03
3.842724960084533905e+03
4.260989683310025612e+03
1.672696733905911969e+03
-2.049071909977059477e+03
-5.484261327002080179e+03
-3.352988129818829293e+03
1.133380588823578364e+03
7.166785203367238864e+03
9.818332996248465861e+03
6.782134781208457753e+03
2.171326894000236280e+03
1.087886641781267826e+03
2.614848697283210186e+03
3.569247709573486190e+03
6.710205468696602111e+03
9.690783407918506782e+03
8.070029755664451841e+03
6.218972047036683762e+03
4.032632952162671700e+03
2.656167809155082523e+03
3.095725315959979980e+03
1.377213618900462279e+03
8.714974142926347440e+02
1.836452184438146332e+03
1.281125736853945227e+03
-1.133504462410811129e+03
-3.824641893075165626e+03
-5.425964889511837100e+03
-7.719259611153524020e+03
-9.144674507590127178e+03
-6.604291810800507847e+03
-6.505917381071561977e+03
-4.548565703241481060e+03
-1.343285833847314962e+03
-3.530835431914473702e+03
-1.010312929816703945e+04
-1.307307109988930642e+04
-9.297913263334752628e+03
-4.398521130294526301e+03
-2.933607526136211618e+03
-4.049021203503080869e+03
-9.438858394048193077e+03
-1.118819260557057714e+04
-1.383312390150313331e+04
-8.617991546589755671e+03
1.241916627473776060e+02
2.207018827339024085e+02
-3.011197781114415648e+03
-2.902693564840696581e+03
-5.816006399490094736e+03
-1.256627704801158688e+04
-1.255765285053068510e+04
-7.224855709453445343e+03
2.443215353020559633e+03
4.463620981247649979e+03
-1.660444746506887896e+03
-4.590369881403217732e+03
-2.868054293224603043e+03
-3.179253032965703824e+03
-6.304167043262135849e+03
-7.844932732371726161e+03
-5.813284511874987402e+03
-3.570000923932165733e+03
-1.894137911924326772e+03
-1.649925216309798088e+03
-2.499449434850201214e+03
-1.664223705428356880e+03
2.662696542240183589e+03
4.704691456766602641e+03
4.134251121659037381e+03
1.116364100722504872e+03
-1.040493347893311466e+03
-1.165109743669008594e+03
1.643882373307284297e+02
2.020209525162298860e+03
4.278446335318597448e+03
5.017941371777223139e+03
4.570366052136505459e+03
4.150655548696381629e+03
4.743802679076603454e+03
5.376726031925022653e+03
3.973285689376589289e+03
1.974742195467087413e+03
2.362153342369927316e+02
-1.591488786710790237e+03
-2.152501155299579295e+03
-6.480341587251556348e+02
1.151091308086377467e+03
1.421825159954536502e+03
7.468571010511379882e+02
8.990634508457133052e+02
4.411874879767618154e+02
1.412105507772272688e+02
8.321561356455536043e+02
1.147837909241467969e+03
3.521437092343433051e+02
-2.561887754915006553e+03
6.439511790411944503e+02
2.284374244052206905e+03
2.506094730515487754e+03
2.486419726145215918e+03
3.020049394404894883e+03
3.463990135174268289e+03
2.334418705253439384e+03
8.632418517184700022e+02
-6.965032680972682329e+02
-1.457113176614630845e+01
6.942940163319129852e+02
-1.170278946011520929e+03
-2.477383338617627487e+03
-1.319244521513689051e+03
4.670678464454089749e+02
8.787466447388967481e+02
1.194270709898771884e+03
1.303207869736361090e+03
1.499986873640065369e+03
2.915031168493456789e+03
3.405412970372157815e+03
3.689686991549910999e+03
3.619476842726619907e+03
3.909289685010344328e+03
3.764981418825116180e+03
3.100086986089951552e+03
1.409565199582003515e+03
6.351725086384112728e+02
8.716211235985165331e+02
8.293836781542728431e+02
9.704711873605394885e+02
-9.257803201988009505e+02
-1.637367876742373710e+03
-1.602557478440580553e+03
-2.534338223532131906e+03
-3.878631011564225901e+03
-4.364334564083062105e+03
-3.622290215599751264e+03
-3.782437718719604163e+03
-4.157830345038133601e+03
-3.036830185182202058e+03
-2.023810739695622487e+03
-5.462613619684719879e+02
-9.432087826477229555e+02
-1.879879934584450041e+02
1.086679256802857708e+03
2.305503229161021864e+03
3.283477745359209621e+03
3.821629006119548649e+03
1.864693212900647950e+03
1.822507391687608731e+02
9.629841216401985093e+02
1.770150251847996969e+03
8.639833358913452912e+02
-9.436511199125470739e+02
-2.182340699074299664e+03
-5.390613935907712403e+03
-7.281341552000345473e+03
-6.920721611689981728e+03
-5.828273128788459871e+03
-3.562264017125943610e+03
-3.003908525624016420e+03
-2.263906549485668620e+03
1.840265770854673747e+03
1.365106552899322878e+03
-3.209431131631820790e+03
-5.435252386013225987e+03
-6.454435040266439501e+03
-6.189277023332335375e+03
-9.707603441448983403e+02
1.336821085927365630e+03
1.457600233865542577e+03
6.151707138691779164e+02
3.982953596403009442e+02
-1.795566458485660064e+02
2.046976610330284814e+02
9.451037983318808529e+02
1.252917038556055559e+03
1.197419737253772382e+03
1.749947184692970723e+03
2.998778286877219671e+03
3.826548704021684443e+03
4.088169439543164117e+03
4.031185941193540202e+03
3.895366327558927878e+03
3.519882934536906760e+03
3.088982334793855443e+03
2.816227521348522259e+03
2.131565092620636278e+03
1.320778184368070242e+03
7.372267359275592753e+02
3.717696090001968514e+02
3.282143770286003246e+02
2.345476896866982770e+02
1.530955100573027607e+02
-7.650573783146712969e+01
-3.663159209817956139e+02
-7.069520314527529763e+02
-8.481863113086313888e+01
1.259172816194449069e+03
2.183158976711434207e+03
4.179871974549802871e+03
4.275402598732821389e+03
3.117946737470267635e+03
3.122094515809459608e+03
2.422753760693646200e+03
1.985632915580356439e+03
1.625294182356154806e+03
7.337917070039106875e+02
2.420084570315315773e+02
-4.407502276352581703e+02
-1.166940495724847779e+03
-2.442119942051924227e+03
-2.490776314915698549e+03
-3.688326671255327710e+03
-4.997037244726969220e+03
-5.430815082434089163e+03
-5.020244903973707551e+03
-4.677698010142068597e+03
-5.444974096740738787e+03
-4.713144004227688129e+03
-3.281128267209152455e+03
-9.693401885199275512e+02
-4.300551911703309997e+02
-2.278960957959193365e+03
-1.928447057067461856e+03
-2.139533991011068792e+03
-2.478636775189332639e+03
-3.871437493067076957e+03
-4.395420017674282462e+03
-4.471895082539166651e+03
-5.969299905461975868e+03
-7.047153149921557088e+03
-6.805342521980044694e+03
-6.834337047366917432e+03
-5.639805309323706751e+03
-3.710637496345429554e+03
-3.242362250452497392e+03
-3.995295486969493140e+03
-4.762844730948869255e+03
-3.243341517020475749e+03
-1.928927703115023633e+03
-1.717246488081654434e+03
-1.622857252069911738e+03
-1.399472860742183457e+03
-1.339601821250925468e+03
-7.561169469074695826e+02
-2.658818196041783040e+02
-1.232354049181046548e+03
-1.942658379276904725e+03
-1.948846114859851468e+03
-2.011575339900736026e+03
-2.236660207184663250e+03
-1.868176112158874957e+03
-1.219875676265835409e+03
-7.704664965533443137e+02
-4.183976359466097392e+02
1.586212995266192252e+02
5.495866976544654108e+02
2.050632534841506640e+03
3.422927622347956458e+03
3.477631760151227354e+03
3.836155370772293736e+03
4.519849261661050150e+03
4.852896182278665037e+03
4.776968143080999653e+03
5.561877686438510864e+03
5.021533042626384486e+03
4.212258032586044465e+03
3.646589763369013326e+03
2.776827509839985851e+03
2.491856584976472277e+03
3.062539051128628216e+03
3.281966561000532238e+03
3.107069611396005712e+03
2.971940824288649765e+03
2.959072790362576143e+03
3.459625124491644328e+03
3.935690135768702930e+03
4.446268754984726002e+03
5.457304603249205684e+03
5.941078222471710433e+03
6.314611824631489071e+03
6.507765814746155229e+03
6.958673659098375538e+03
6.799465751349151105e+03
6.406231752264153329e+03
5.770930575810630216e+03
4.789612338029223793e+03
4.004165401877628028e+03
3.904259135466134921e+03
2.983953390255848717e+03
2.412827091230656151e+03
2.140197354741199888e+03
1.067478482584745507e+03
1.308389107708151187e+03
1.617203430467785893e+03
2.308486659949042405e+03
2.450763639959168358e+03
2.839498050085873274e+03
3.117589779248954983e+03
3.304376579384497290e+03
3.791799867876103235e+03
4.130474693250399469e+03
4.240835355608668578e+03
3.435528829216608301e+03
2.605738069503910083e+03
2.003698814337567455e+03
1.655017854625701375e+03
8.858746428502448680e+02
2.505741453391213156e+02
-2.256481844761456159e+02
-1.792816175887313648e+02
-1.069218955548234362e+02
-8.040290665009528936e+01
-2.272027260340651651e+02
-1.097082948969339924e+02
-1.594584378140470804e+01
2.379861157198746753e+02
7.518260895199629203e+02
1.598492836667974416e+03
2.002542477644644350e+03
2.502955014476147880e+03
2.283479860235847354e+03
1.812127015692183932e+03
1.228548935623332000e+03
1.251326785760192024e+03
1.773271434015039631e+03
1.096083861610964732e+03
-8.230469875633261267e+01
-1.208746023933832987e+02
-1.507951949624429915e+02
-1.884232978618866525e+02
-9.801085413788190408e+02
-1.328071312939128802e+03
-9.025342008224681649e+02
-2.686041105249882435e+02
-3.734494036024781849e+01
-3.608867848748506617e+02
2.425046464697037152e+02
1.313587179505989297e+03
2.037347675765934582e+03
1.423685379279548215e+03
-8.545425702591594472e+02
-3.877513677958890185e+03
-7.077513120093280122e+03
-8.198914779654864105e+03
-6.782973336228473272e+03
-6.323845325318856339e+03
-7.109638399454977844e+03
-7.408625552493595023e+03
-7.553935120094338345e+03
-7.898729694202608698e+03
-7.918321629758272138e+03
-7.674860595255468070e+03
-8.085324300164041233e+03
-7.921600694264648155e+03
-7.809382301314617507e+03
-5.272728856058549354e+03
-2.688689775855976677e+03
-4.644320027692084295e+03
-4.310861007531061659e+03
-4.216551950860917714e+03
-2.738386092266091055e+03
3.540577946680312834e+03
5.336213439461551388e+03
1.471981144332084455e+02
-4.428628472455847259e+03
-5.081171611138737717e+03
-5.193651532539226537e+03
-5.005394027187227039e+03
-5.520607520547290733e+03
-5.620336362137160904e+03
-6.040702276170493860e+03
-5.517722103457678713e+03
-8.465020086130717800e+02
7.327887282411892329e+02
1.949080364481268816e+03
2.934345572081779210e+03
3.909570963160022984e+03
4.593650665024464615e+03
4.898542212045675114e+03
5.162242977419466115e+03
5.264802960196871936e+03
4.916079648332879515e+03
4.781960504816865978e+03
4.150358971917697090e+03
3.610185754035973332e+03
3.323544755424668892e+03
2.590330638197508506e+03
2.009370987654343253e+03
1.278667276176713131e+03
9.972178175244006297e+02
1.115975580963403900e+03
1.585867862781663462e+03
1.775949176988688578e+03
1.755265836546990613e+03
1.678655369245312841e+03
2.247145699003207483e+03
2.328683100789786749e+03
3.160371000543952050e+03
3.888215755677320885e+03
4.745153208795196406e+03
5.465182910611575608e+03
5.659277875937350473e+03
4.891401677356065193e+03
4.355689867459624111e+03
3.580166579133590858e+03
2.676654183424465828e+03
1.761404161110155883e+03
1.219557585506631085e+03
7.582351741261963980e+02
4.984842545704046302e+02
1.025772416557672244e+02
7.925094168245007040e+02
1.093159058818092944e+03
8.768102662295626715e+02
1.004240042279640875e+03
1.514159276051197594e+03
2.173558262764900974e+03
3.110472270756402395e+03
3.892355215611404219e+03
4.801688771208227081e+03
4.320379350883290499e+03
4.234572790877299667e+03
4.006057137340028476e+03
3.257311016637130251e+03
2.643880345557236524e+03
1.847650885293819101e+03
1.400613801661559364e+03
1.106723952882202639e+03
3.530541475270391629e+02
-3.683918671423432443e+02
-8.985555118413551554e+02
-7.473429162728500614e+02
-5.216510622989890180e+02
-2.604487421411681112e+02
2.702557816626626845e+02
5.225446296017053101e+02
1.060554503506388755e+03
1.366359932506791210e+03
1.949105924723008911e+03
2.779902358134547740e+03
2.989769362064357665e+03
2.845776772624787554e+03
3.303053657291121453e+03
2.734635941479758003e+03
1.808507902466717951e+03
7.036941429595337922e+02
-2.127718184595459547e+02
-5.228199813697425498e+02
-3.674696839132544142e+02
-1.085631749901491730e+03
-1.870253309912067152e+03
-1.884250627481122365e+03
-1.400606730523247279e+03
-1.404318761104578016e+03
-1.578348269324868625e+03
-1.313739018827562404e+03
2.097298259826978892e+02
2.653206362656210786e+03
3.322671095102781237e+03
2.338241603729795315e+03
1.975914871688239600e+03
1.989717795634066306e+03
1.528751915519393151e+03
5.649769697562646797e+02
2.174228694201422343e+02
-5.728406957539201585e+02
-1.734722407545110400e+03
-2.075356044305697196e+03
-2.761675430943397714e+03
-4.465596169944815301e+03
-7.177156071692063961e+03
-1.010538355924045027e+04
-9.824257110466653103e+03
-9.917655460092682915e+03
-7.234668051547118921e+03
-3.843627561293762369e+02
1.078209477425203659e+03
1.437136282903355777e+03
1.997778834402346547e+03
2.150910072780643986e+03
2.035568926861362797e+03
1.348758621291758573e+03
1.192567136925569912e+03
1.547938478569401695e+03
1.428797665573199765e+03
7.452169424216491507e+02
-1.678713913200379864e+02
-4.415817997932994672e+02
-9.069087454427938155e+02
-1.757986884626541723e+03
-2.286938803689849919e+03
-1.756645407071490126e+03
-1.006960976285176912e+03
-9.909152621208967275e+02
-8.671588376182548075e+01
2.256195092451992821e+02
3.052174828043756634e+02
7.801023362857877146e+02
1.694189446473837734e+03
2.543462727243210793e+03
3.126823167434156858e+03
3.106297448143898237e+03
3.012984807643473232e+03
2.765850201493644363e+03
1.843784621928856495e+03
7.777404026071062617e+02
4.596884317975627710e+02
-3.724897949169700837e+02
-1.106917700628615876e+03
-1.821596071742186268e+03
-2.091560997505310752e+03
-2.213837016345374650e+03
-2.150477213045115604e+03
-1.480567562344794624e+03
-1.142104608211987397e+03
-8.120146428705850212e+02
2.526470134938836054e+02
1.410819485911081529e+03
2.211520611558293240e+03
2.212814923390698823e+03
2.301599792485853868e+03
2.745882186130024820e+03
2.843705055383205035e+03
2.704062690216317151e+03
2.414964340356035791e+03
1.562259997120177104e+03
9.486602068779376395e+01
-1.069233183854807976e+03
-1.771046349447936109e+03
-1.716620699095036116e+03
-1.208998053121757948e+03
-1.201188179530307934e+03
-1.695181654244099718e+03
-2.030008783188137613e+03
-1.697694240520428366e+03
-4.722708266809187307e+02
3.373150188234369580e+02
1.299064331888796460e+03
1.617934721094883344e+03
2.113008571330061841e+03
2.721269062139847392e+03
2.954756519486843899e+03
2.242456535137990613e+03
1.457323289311444796e+03
-7.117094596066518761e+02
-6.880528069547885025e+03
-7.516191744257541359e+03
-7.711746937113501190e+03
-3.034220971054061465e+03
-4.159724081786795068e+03
-3.228238792234954872e+03
-5.420762786914567187e+03
-3.333175796214894035e+03
-3.868466086767488832e+03
-4.235609543196301274e+03
-1.111622202714284185e+03
-2.958546667574826643e+03
-2.731383281009303573e+03
1.419283201362802345e+02
-3.605295540496202875e+02
-1.167340632315315929e+02
-4.447031536121313025e+02
-2.364753316499440245e+02
6.439718279761103759e+02
-6.813681422566711490e+02
-5.545284888248252173e+02
2.404175724689193885e+02
-1.118536194067733959e+03
-2.964414017605382014e+03
-6.532211434900115819e+03
-4.066940299186794618e+03
-2.048525850478926259e+03
-4.602892798890189624e+03
-5.517085881001185044e+03
-6.544164437351400011e+03
-4.706081144800295988e+03
-3.466818026023847324e+03
-4.092699802240848044e+02
-2.243777236588146593e+02
-1.516047876082509219e+03
1.556659120088602549e+03
2.234647138229634947e+03
2.089004656140386032e+03
1.619837114353157176e+03
1.531070884673654291e+03
9.786559289559871786e+02
-1.984838592655471814e+02
-1.052322648958586115e+03
-1.534900582759805729e+03
-2.220058788278927295e+03
-2.572747707318934317e+03
-2.250885278830454354e+03
-1.764354284245464441e+03
-1.681177241786213926e+03
-1.435610153623584665e+03
-1.015591492666130989e+03
-5.020278249206935328e+01
7.458892149337377759e+02
1.472037387995862900e+03
2.212211866867841763e+03
3.031558804136541312e+03
3.088564967722173151e+03
3.142258767053317115e+03
2.740872171973591321e+03
2.234222034406345756e+03
1.865311991796207394e+03
5.542856871911492362e+02
-1.104805217684914169e+03
-1.795293018881085345e+03
-1.579864178689139180e+03
-2.031919361076789755e+03
-2.197256745423956090e+03
-2.179810325726919018e+03
-9.497675851939607128e+02
2.422297000584334725e+01
-1.893011009942752310e+01
2.451037034051551302e+02
1.027921159121644450e+03
1.669903350425661074e+03
2.206442592871927900e+03
2.745948927180654209e+03
3.634515385775448976e+03
3.571717354709187930e+03
3.314742836209499728e+03
2.832650205102126620e+03
1.991589748457352243e+03
7.111437019057567568e+02
1.672834430020340335e+02
-4.846578353131797599e+02
-7.814119642719454077e+02
-1.637708707331425103e+03
-2.011536681620875925e+03
-1.871947635025429008e+03
-1.670872622513806391e+03
-1.437185612213644163e+03
-8.729924382507645078e+02
3.461432471410493150e+01
7.155966431934524508e+02
1.901055734573262043e+03
2.704121982227919943e+03
3.431875592369245624e+03
4.030251051062282386e+03
4.898259265091896850e+03
4.866072894844603979e+03
4.171647963492665440e+03
2.937057609539862824e+03
1.800287882815252487e+03
1.091075895909193832e+03
3.543900420692006605e+02
2.132775185199345103e+01
-7.690604073094399382e+02
-1.036890592038698287e+03
-1.183324352116498858e+03
-1.815293422453433550e+03
-1.195849765103369464e+03
-5.148727419136309891e+02
5.448858632725324469e+02
1.396549538310882781e+03
1.455019384007450753e+03
1.631914141611194680e+02
-1.731969007431850741e+03
-4.513395880709908852e+03
-4.580924495683613713e+03
-5.054401782658924276e+03
-5.856852411257821586e+03
-6.561305842306228442e+03
-6.965842881388272872e+03
-7.410582629712248490e+03
-8.039703540699179939e+03
-4.216134350829794130e+03
-1.309773723637578314e+03
-4.005720925528816679e+03
-7.975039238489328454e+03
-8.791779865694536056e+03
-8.683069535180224193e+03
-7.739903835254892329e+03
-7.051226676126095299e+03
-3.903963240538600530e+03
-2.367006986146132022e+03
-2.345381596610324777e+03
2.731925318204709583e+03
4.676961146484211895e+03
5.031916716897268088e+03
4.551908372753690855e+03
3.623844350382297307e+03
2.691496079241356711e+03
2.052898781970721302e+03
1.384157028894536325e+03
7.581969248100667755e+02
2.719329177105061035e+02
-3.264338280651865034e+02
-9.897757259981061679e+02
-1.256061050734062292e+03
-1.778428549433192302e+03
-1.371823028528211807e+03
-4.971982988095313090e+02
-1.586002021883309396e+02
4.960537400271673505e+02
1.764739361753720686e+03
2.726440708532777080e+03
2.970270098155104733e+03
2.953267673716176887e+03
2.947531196119010019e+03
3.125954925256037768e+03
2.302304179216670036e+03
1.585522999344091659e+03
5.528947165672950632e+02
-4.262982250814824283e+02
-1.004161513074901336e+03
-1.278926242126987518e+03
-1.893640965376574059e+03
-2.343303670982186304e+03
-2.203026158258424402e+03
-2.083685616409784416e+03
-1.675239423816409044e+03
-9.065265924857209257e+02
-3.753272811882704900e+02
1.603817242665801643e+02
1.072474865375845184e+03
1.464778720626094128e+03
1.604188313548553424e+03
2.170696847592594168e+03
2.979521406029376067e+03
2.956802185861898579e+03
2.117352225883663323e+03
1.516429298705102156e+03
6.991818709529122771e+02
-1.051767098793815514e+01
-7.547838803454043273e+02
-1.426555304783747715e+03
-2.036606035348205296e+03
-2.816703285027722359e+03
-3.113039791300024717e+03
-3.910714841781807991e+03
-2.634345157246772942e+03
-2.070922319002989298e+03
-1.394936438330539659e+03
-6.761597461338170660e+02
1.415095190320051302e+02
1.179781984190914045e+03
1.975497563763533890e+03
2.367672355226727177e+03
2.161179295207890846e+03
1.808834858522884588e+03
1.388684864660185895e+03
6.841060316525999951e+02
-4.749835538747104806e+02
-1.290356420610298073e+03
-1.389446847615583465e+03
-1.935516733580712298e+03
-2.687905313201187255e+03
-3.448948220567816406e+03
-3.318591471249326332e+03
-2.580884564896732627e+03
-2.363937088686458992e+03
-2.140737272755888625e+03
-2.281110033902220493e+03
-1.672214133480539886e+03
-8.073304443354040814e+02
2.135572576569124408e+02
1.025840489049106282e+03
1.711704461474488426e+03
2.364501707195238396e+03
2.596328393130057066e+03
1.979124166909790574e+03
1.525343535602948805e+03
8.258672352559028695e+02
3.598629975236973451e+02
-7.018150846986794704e+02
-1.407341628119906090e+03
-1.618741966712171461e+03
-1.748823137964539910e+03
-1.978687660864418604e+03
-2.309090160719450523e+03
-2.398000532877901605e+03
-1.669987482473616637e+03
-8.221219991807089400e+02
-7.858174178561387180e+02
-3.015962481145269294e+02
6.358154069953508269e+02
1.751666609491297095e+03
1.812034716851262601e+03
2.006374762496883477e+03
2.060139227459505037e+03
1.858392256552866229e+03
1.187987267312496897e+03
9.079819086831489017e+01
-5.592831644400788491e+02
-9.066592673011224406e+02
-1.396269410725181160e+03
-1.388144155523762493e+03
-2.059388369899460486e+03
-1.972945875492545838e+03
-1.815698425393987691e+03
-1.705645254936542642e+03
-8.736033906475120148e+02
-2.703454233140680572e+02
7.966861351125475039e+02
1.449623645801247903e+03
1.699493453937187496e+03
1.816155407235552730e+03
2.662643708744581545e+03
3.175924222585281314e+03
3.480093464911513820e+03
2.446049372503923678e+03
9.368646882580763986e+02
-5.467863536694334243e+02
-1.817276904906732398e+03
-2.184518402048523967e+03
-2.128608020704640694e+03
-1.740324123152154925e+03
-1.533458943623055347e+03
-1.484533581566402518e+03
-1.521919959302382495e+03
-9.330902884785000424e+02
-1.732600577296631741e+02
8.146924956219352225e+02
1.822790581778000387e+03
2.659947207639881526e+03
3.376567633423939242e+03
4.105788203807671380e+03
4.532271442370731165e+03
4.493277682381034538e+03
4.343615773893540791e+03
3.686805376469631483e+03
2.599349374392726986e+03
1.210018496516370533e+03
3.955513111153749151e+02
5.584698427073096809e+02
3.878487254102960833e+02
-2.729236746022426701e+02
-9.183660255581597767e+02
-1.425954320752775402e+03
-1.509866471904146010e+03
-1.332215202035547009e+03
-1.997320580877182294e+02
8.103966526338390395e+02
1.179943190861142057e+03
1.384001499756366002e+03
2.173660942830330896e+03
3.073391670897429321e+03
3.344723883826241035e+03
2.390944341019469448e+03
3.641060913447942653e+02
-2.720119926218030741e+03
-3.687738430663547661e+03
-4.028073255752784007e+03
-3.808274599892226433e+03
-2.655503595642045184e+03
-5.798250595403030729e+02
-1.066889647124075509e+03
-1.118285499749533983e+03
-4.127481832094937090e+03
-5.694653322136346105e+03
-4.385637356132792775e+03
-4.449195045642241894e+03
-7.694251154782726871e+02
-7.099791859478697233e+02
-1.127553626577485375e+03
1.842229806974102075e+02
-5.036630068425679383e+02
-1.313288193097224848e+03
-6.183097892183660633e+02
1.314211989487168921e+03
-7.969455241553026781e+02
2.695668581956267644e+02
-3.695787627896678714e+03
-5.955801724224605096e+03
-4.803664501293353169e+03
-5.328307579465183153e+03
-6.034402247526178144e+03
-6.007805946701261746e+03
-1.359006874640351498e+03
5.200316900895109029e+02
4.726568893490875212e+02
2.218721854825882019e+03
1.938028581167340917e+03
2.136028315809695414e+03
-1.741483139841630248e+02
1.071860175739917196e+02
1.708069636930133356e+03
5.193715417372851334e+03
3.991587664537464207e+03
1.606672574701081885e+03
4.587496104314482182e+03
3.258092267828845706e+03
2.943180440517975512e+03
2.713193327995885738e+03
1.705489982366842241e+03
1.674532063969294541e+03
3.387291406528291191e+03
3.739129135385139307e+03
2.836843509293416446e+03
9.260614969378747219e+02
-6.801420787713180971e+02
-7.355644393459155026e+02
-3.758479643345595491e+02
-1.012050597892214455e+03
-1.575090814945245938e+03
-4.801227004364346271e+02
2.246533040566807529e+02
1.822394257148440829e+03
4.049738330059391956e+03
3.497891249779199825e+03
2.802909153877797962e+03
3.108628266771021117e+03
4.028954177109252214e+03
3.421488774182203997e+03
1.036901385985118850e+03
-1.564042251660351440e+03
-4.790405765448020247e+03
-7.192657447597654937e+03
-6.379145759972903761e+03
-3.527060422091264172e+03
-1.846476136811538481e+03
-2.488687208881801325e+03
-3.871041288729185453e+03
-5.280722824962734194e+03
-5.192823784019702543e+03
-3.202168347750952307e+03
-8.435369879489202276e+02
1.680540935188155800e+03
3.864919317915843294e+03
4.676580937543380060e+03
4.376565827889129650e+03
4.726587552627650439e+03
6.082447042002003400e+03
6.750043553747223086e+03
7.210148490191184464e+03
7.385707609830240472e+03
6.270872367193633181e+03
4.914523267690617104e+03
4.306735041791931508e+03
2.992382839079171390e+03
3.120324008958214108e+03
2.612901192443373020e+03
1.268289247596478390e+03
3.610025890370736334e+01
6.966947220011687705e+02
3.369022604838667576e+03
5.450920182402534010e+03
3.993680945055912616e+03
2.323339865960623683e+03
1.609051870748925467e+03
1.860807302027330365e+02
-2.936633001532922663e+03
-4.082006892335904922e+03
-3.436996547010423001e+03
-2.512886230648913624e+03
-3.100857019316308651e+03
-3.384661529216786676e+03
-2.819614400378297887e+03
-2.468895231257227806e+03
-1.558223577502781836e+03
-1.337458427326326273e+03
-7.568519399079184495e+02
2.554730197582869380e+02
1.329675996579197090e+03
3.478825969309876200e+03
4.460018501282996112e+03
2.619381590178094939e+03
-2.660193222330865979e+02
-1.112270629638145692e+03
1.474648506113177973e+03
3.881865227547843460e+03
4.091401428063666117e+03
3.004341397288812459e+03
1.229648866757083852e+03
-2.403838841303127538e+03
-3.810161508929984393e+03
-3.581991743586570465e+03
-2.717249056773115171e+03
-5.311444472550235787e+02
2.954523246078490956e+03
5.829709514028570993e+03
6.225419188160603881e+03
4.225700844170919481e+03
1.854435479595796323e+03
1.110503264770045462e+03
1.308789812183677896e+03
-6.614666157778325442e+02
-1.442010951177968252e+02
1.028616887486012729e+03
-1.309749639167431496e+03
-7.304474832798578063e+03
-1.107245159897567646e+04
-1.321626549272246120e+04
-9.147083423147092617e+03
-5.999384423414841194e+02
4.001180503108262656e+03
-2.508785821216323484e+02
-5.448445644875983817e+03
-5.213543095041826746e+03
-2.011130681402080882e+03
2.751845181837999917e+03
5.062469738276592579e+03
6.254663971437411419e+03
7.483402375715424569e+03
6.388736884692603780e+03
1.689944612318271766e+03
-3.270713020410595618e+03
-4.583134228515074938e+03
-8.251618838991258599e+03
-9.610191103845974794e+03
-1.867898110382333016e+03
4.768221873561016764e+03
7.695278278810846132e+03
7.760252488764956070e+03
8.212194820870705371e+03
7.929096580768451531e+03
6.546978831357191666e+03
5.701022858393856040e+03
7.447273186718644865e+03
7.353470087682442681e+03
2.523577802568461721e+03
-3.603592389977369294e+03
-6.024005461495624331e+03
-7.403402849085713569e+03
-4.445821824362303232e+03
1.533655050726702484e+03
7.780075460560175998e+03
7.885486105594999572e+03
6.245947800954225386e+03
7.150692834248396139e+03
6.487833077464356393e+03
3.451157013034167448e+03
1.204600249159397123e+02
-1.417242225251088712e+03
-4.685814161676624281e+03
-4.102269860437136231e+03
-2.291555009117951613e+03
-8.311659309252298044e+03
-1.789885569066238531e+04
-2.153513207434484139e+04
-1.866432889600053750e+04
-1.109343183961434443e+04
2.358524677470529696e+03
6.264451020969340789e+03
2.775422511777216187e+03
4.187422854161183750e+03
7.276690650678820020e+03
9.772311102585264962e+03
1.235720661040339837e+04
1.518738104904950706e+04
1.288882067691569864e+04
1.060046860849331279e+04
7.669369298822100063e+03
3.490452979596212572e+03
5.387878265625333825e+02
-1.355599340730668018e+03
-3.016719391255209757e+03
-2.676572513368791078e+03
1.813681279102682311e+03
1.786969051493640791e+03
3.793385238854200452e+03
6.037945338366861506e+03
6.999527221441515394e+03
7.157231148172277244e+03
1.435119223322078369e+03
-1.363772169484249389e+04
-1.925230826566006363e+04
-1.888766658792615272e+04
-1.426584138871833966e+04
-1.108979602370597604e+04
-9.056402533824422790e+03
-2.519754411458180130e+03
6.965037693969852626e+03
8.176927360899677296e+03
7.015913700393887666e+03
9.796945524365981328e+03
9.105004849974877288e+03
