-1.933190758708632075e+03
-1.753311935596806961e+03
-8.029118360498929405e+02
-4.288742621231895669e+01
4.435535089926233923e+02
8.313382124620839022e+02
1.221534380277117180e+03
1.204168702960762857e+03
1.010981112414658924e+03
1.086895935732567068e+03
8.218425354755138414e+02
6.613166411574578660e+02
7.602472375307900165e+02
6.974560719075426505e+02
4.798054831343678757e+02
-2.168406502862020346e+01
-1.619539880024843796e+02
-5.393983830315612522e+02
-5.641154837165261142e+02
-5.308783799435030915e+02
-4.476141795467353290e+02
-2.156648365881997336e+02
5.391292787847273758e+02
1.350572518376852940e+03
1.643939844478729128e+03
1.953000839857248820e+03
1.816115297442363499e+03
1.723175721184643862e+03
1.716555038449560243e+03
1.936345398462008916e+03
1.868716470920039455e+03
1.675832363495121399e+03
1.656815690867110561e+03
1.635044467211486790e+03
1.200752154593158593e+03
6.416169602916439771e+02
5.737677331742758042e+02
1.615037735537289052e+02
-2.362714793270109581e+01
3.460868659234985785e+02
4.480981125566177070e+02
4.852880740469306033e+02
8.294943404132079650e+02
1.535796797503945754e+03
1.966317986023496360e+03
1.932929335581893611e+03
2.293822593933349253e+03
2.520749864876359425e+03
2.290009669850314367e+03
2.528685300523653950e+03
2.647133378142327274e+03
2.704579254082205352e+03
2.429890960430304403e+03
2.075942374783058312e+03
2.099805952929779778e+03
1.819595810152779222e+03
1.504224245004839986e+03
8.955312947194202025e+02
6.515501861580193008e+02
4.043111476724708382e+02
5.497125425307513069e+02
5.628014873459633236e+02
6.228841622972519190e+02
-1.310514631366373237e+02
-2.279053094496092399e+03
-4.313058042142401973e+03
-4.656082614780034419e+03
-4.534286342732097182e+03
-4.418629060033179485e+03
-4.276140559455886432e+03
-4.328071791681786635e+03
-4.137490786543924514e+03
-4.014248942583640655e+03
-3.672298024503988472e+03
-4.144560086924450843e+03
-5.154831016584574172e+03
-5.483069351586162156e+03
-5.612355885083692556e+03
-2.453835715745256948e+03
9.347067288147219699e+01
-3.520499556932760399e+00
-2.019936712689607930e+03
-3.144463785490631835e+03
1.473338386185613217e+03
3.011529752156722225e+03
-5.427392796969896835e+02
-2.976654853479398298e+03
-3.275351859200236959e+03
-3.151937766091044523e+03
-2.854745684547242945e+03
-2.903831540230879909e+03
-2.607054007048982839e+03
-2.642278889118342704e+03
-2.810523505095718519e+03
-2.787784172403710272e+03
-3.331975934303283793e+03
-3.730939360585296527e+03
-2.573516119553890803e+03
-1.302639921410589068e+03
-3.843500252330508829e+03
-4.234229007021602229e+03
-2.188621091069637714e+03
8.516467695195476608e+02
2.047571150893994400e+03
2.761057486010357479e+03
2.932802432979852256e+03
2.726766269182350698e+03
2.771017826505577887e+03
2.460769421537052040e+03
2.497398057769399657e+03
2.585778371330769460e+03
2.541719469332718745e+03
2.951600846916847786e+03
3.078866135304927866e+03
2.402390270455127393e+03
1.961862670549972108e+03
1.473109694269085594e+03
2.440774933436264575e+02
1.568009715389518135e+02
7.715476868412500835e+02
1.108206486665688772e+03
1.046702477017179717e+03
1.317036951045409523e+03
2.018286504775931917e+03
2.901485531455231012e+03
3.166734765465535929e+03
3.026171803991142497e+03
2.716820396820742644e+03
2.637944570433305671e+03
2.583808563433938616e+03
2.907101349775682138e+03
2.886788731466267109e+03
2.262004002194829354e+03
1.652823148668281647e+03
8.770186832779334054e+02
-1.534238287810755139e+02
-8.732408575408944671e+02
-9.624236790984108438e+02
-1.367754416567916678e+03
-1.510498736489364546e+03
-1.342632102332924660e+03
-3.259789547226097284e+02
7.945802922808214817e+02
1.712901992304175565e+03
2.047826298839356014e+03
1.825325405175089827e+03
1.225836368868994896e+03
8.714120557651351646e+02
1.196866988944527520e+03
1.407220195500745149e+03
1.772291559828578784e+03
1.741045168021740665e+03
5.824836558314751755e+02
-2.515234379520219932e+02
-1.587699791139172021e+02
-3.873080838382172146e+02
-1.329029056277153359e+03
-2.150959005838150006e+03
-2.731185545370430191e+03
-1.761790088807340680e+03
-1.193839318363790198e+03
-1.876359809590472878e+03
-2.539400303801478003e+03
-1.591080127260346899e+03
4.296338669616747552e+02
1.246615227012690184e+03
1.485856470762151503e+03
1.721829102099439979e+03
1.710891095405640272e+03
1.234012557521772806e+03
1.902778763756816716e+03
2.285094791835715569e+03
2.036902456015773851e+03
1.817054527369985408e+03
1.418642725662664589e+03
1.243809224968674243e+03
6.124375612668368376e+02
1.075270691743845504e+02
-9.212400202115014736e+01
2.548110683558438438e+01
-3.872670912309519622e+02
-4.853432900240184722e+02
-1.529605998519688512e+02
-7.461492823265200514e+02
-5.900118227295301949e+02
5.593116532081697869e+02
1.131807234753934836e+03
1.015493300838723712e+03
4.515711746891529970e+02
-2.694211472573604382e+01
5.800990283428295697e+02
-5.663948936044885158e+02
-2.575705548613555493e+03
-4.393834714899358005e+03
-4.648815098211889563e+03
-4.785525909677729942e+03
-4.515923567516629191e+03
-5.460162765937385302e+03
-5.754349457868078389e+03
-6.069779333729462451e+03
-6.217707856754506793e+03
-5.883973400916282117e+03
-3.157423832363372640e+03
-1.083996700879827813e+03
-1.893605855137366461e+03
-1.164357138042395263e+03
9.848543431614490373e+02
1.392229454134130265e+03
1.444744250106081608e+03
2.088516800489911930e+03
2.341424275105662218e+03
2.145202792681671781e+03
2.133009617335008443e+03
1.958827122779490082e+03
1.941440010448703788e+03
1.726776299827383355e+03
1.030904864433125113e+03
4.127451810572773070e+02
1.794074007821673433e+02
8.463392705751813594e+01
-3.180916979574949011e+01
4.421291672727557653e+01
2.656442443777027052e+02
1.118447555458856641e+03
1.580611627548492834e+03
1.926275418917170327e+03
1.807379552553931717e+03
1.336913506562824978e+03
2.940536196987900439e+02
3.378341075553147022e+01
9.843215306556380710e+02
1.701589543346997061e+03
2.539328502733297228e+03
2.392677038041423202e+03
1.482418591782787189e+03
1.073809288249516527e+02
-1.117109350633433905e+03
-5.990706119383410169e+02
-4.717778028510406898e+02
-4.002959649406062681e+02
-2.035919776132458310e+02
-1.683597712581020915e+03
-3.570338898573202187e+03
-4.152795184923221314e+03
-3.056563986956676217e+03
-1.889125953468868829e+03
-8.416033545872162449e+02
5.458164421650643305e+01
-1.776771899698448181e+02
2.747420666930923616e+01
1.610858000487831532e+03
3.314716527090714862e+03
3.433065463606790672e+03
1.751569228206047001e+03
2.733338725801379496e+02
-3.231218207930746189e+01
-6.172228539283578357e+02
-2.098498804330814892e+03
-2.099481677388834214e+03
-2.831687443282685877e+02
-1.984719076821723718e+02
-8.014300234655571558e+02
-3.890065617741248616e+01
1.921334151542502923e+03
1.601311685518295690e+03
3.227646077564846649e+01
-3.423606714075500804e+03
-4.084452918234582739e+03
-3.138805437575412725e+03
-5.307869804762786998e+02
2.100876324342522366e+03
3.340006733265861840e+03
2.686765764544531521e+03
7.862684338061815197e+02
-1.169689975192082329e+03
-7.672982539062998057e+02
6.787608962122512821e+02
-1.963317521834729575e+02
-3.357225294347768454e+02
-3.033595384726704651e+03
-2.113883249853898178e+03
-1.759274893835536659e+03
2.835324947970466170e+01
2.458950738882441328e+03
-3.045598455583017881e+02
-2.570885557435296050e+03
-2.035895501805066715e+03
1.641816524408035605e+02
3.725230150504930862e+03
3.530332980820191551e+03
2.837552545288722285e+03
8.298278087051596685e+02
-7.267594059473316292e+02
2.112143219978147954e+03
3.348419979193093923e+02
-2.087791863410540827e+03
-2.102979687730376554e+03
-1.179987148370483283e+03
-4.143933179772293443e+03
-4.293791124863916593e+03
-4.781840152953234792e+03
-5.721968931362314834e+03
-4.157572965258696968e+03
-5.286276569888590529e+03
-3.854593204593575138e+02
3.621287176450030984e+03
3.236062851417981619e+03
5.136638972663930872e+03
4.980225819745622175e+03
3.115593106326530233e+03
2.143324852589125840e+03
3.077103207808606385e+03
2.906044820546281244e+03
7.003335952109382561e+02
-3.038552888816591917e+02
-8.456296750698991218e+02
-3.100994008060229135e+03
-4.962910789665287666e+03
-3.442304597197489329e+03
-2.415255163260063910e+03
-1.408838265801821763e+03
9.150716378742110919e+02
3.099578327539709335e+03
4.009681896654069988e+03
5.307282365290809139e+03
6.692736786045634290e+03
5.824291026505460650e+03
3.765616287045933404e+03
2.013248578187166231e+03
-5.050419518283945308e+02
-2.105843294379988947e+03
-1.801314348504283544e+03
-2.625469445383948752e+01
5.995305171285808683e+02
-1.368792257651570878e+02
-1.577716377252605298e+03
-4.590782530928918277e+03
-9.266452936590891113e+03
-1.176850853855381501e+04
-9.791874876157537074e+03
-6.387148272462076420e+03
-1.250916179719737045e+02
4.175510004335871599e+03
7.767506882451691126e+03
1.110261807021690765e+04
1.042955295628648310e+04
7.970678198217972749e+03
6.213565322431179993e+03
5.201372004498592105e+03
3.173022673564777051e+03
1.038140248874957251e+03
-5.515694847384340846e+02
-1.113255570665472760e+03
2.951544424607822137e+01
1.777184863612890922e+03
9.858742335564983250e+02
-1.947343046435364158e+03
-3.048230012817321040e+03
-9.770017224572947043e+02
1.923008748679837709e+03
4.800765583342310492e+03
4.071373019688905515e+03
1.216005048455899441e+03
-2.394176139512867849e+03
-4.903523729207539873e+03
-3.322904906645066603e+03
-3.382332606179289087e+03
-7.200100277696892590e+03
-7.183851644248995399e+03
-1.302631598909076502e+03
4.143258798430782008e+03
6.237883588200488703e+03
5.882258595337520092e+03
4.575185249442045460e+03
3.300756701512977997e+03
4.702990990874440286e+03
5.636023773464795340e+03
5.575870222869007193e+03
4.304247199546304728e+03
3.042873935158479981e+03
1.312956123281771170e+03
-6.215116676217131442e+01
5.849856444180024084e+01
-1.854248198910474684e+03
-2.204313674405741949e+03
-4.578461802540794565e+02
-8.561413926320672090e+02
-2.811279742984690074e+03
-3.177088042177640091e+03
-3.686367880351125223e+03
-4.883239700025019374e+03
-3.158932131881139412e+03
-1.984448085226229978e+03
-5.516969641826996849e+03
-4.236521758791769571e+03
-4.860701262847059297e+03
-6.209680177868021019e+03
-5.851278093993102630e+03
-4.236817327080719224e+03
-4.306381126201183179e+03
-5.930871746352654554e+03
-6.040394166770632182e+03
-4.586903701676785204e+03
-2.779141298544318033e+03
-1.686970883215087497e+03
-3.695357401462263738e+02
-9.699354208440857974e+02
-2.911242887582759067e+03
-1.148417733281498158e+03
-1.136308633748320517e+03
-5.188965030113081411e+02
-6.329799307937125832e+02
8.144641773855234987e+02
2.558307698868794887e+03
4.091516601476610958e+03
5.073941200636802932e+03
5.503223888016867932e+03
6.340470040837747547e+03
6.845966286820779715e+03
4.869860313484152357e+03
2.914078509404388114e+03
-1.533490071306676555e+03
-7.252728177203814084e+03
-7.543619766649935627e+03
-2.215159095968700512e+03
3.643646227838172763e+03
4.844724586650074343e+03
5.632030190245427548e+03
5.777658738937444468e+03
3.764625376127361505e+03
2.567859870519857395e+03
3.192415034087617641e+03
2.599247130224988268e+03
2.421447593731454617e+03
-6.239391360877887109e+02
-3.800917505835299835e+03
-1.742496303847056652e+03
9.903410157281441570e+02
1.418604420113355900e+03
2.073353198438422623e+03
1.850726475995877763e+03
-3.731169093885522869e+01
-2.577859564937343748e+03
-5.197831444313235806e+03
-5.115194823205478315e+03
-4.305926234854889117e+03
-1.062029818326323266e+03
1.314522512009553338e+03
8.788837065773587938e+02
8.916884211034896168e+01
-2.834628724351775872e+02
1.731075294066698916e+03
5.096818932109938032e+03
7.610627716831234466e+03
9.325737507711341095e+03
7.561141308395223859e+03
3.076776772834476560e+03
-2.862783331867399852e+02
-2.969128140785735468e+03
-4.543864152938162988e+03
-5.644354702668078062e+03
-8.042255628748456729e+03
-9.496671958771379650e+03
-9.090999381910167358e+03
-7.867176507494308680e+03
-4.264224392855898259e+03
-1.581914310902488978e+03
-1.795294218708781045e+03
-2.184048695615729514e+02
2.088632330633878610e+03
2.403835001441466829e+03
2.077402797373852536e+03
3.266343991996696332e+03
4.028660950334433437e+03
6.686305293868125773e+03
7.233279903396807640e+03
5.176748079286212487e+03
4.580852545284977168e+03
3.534447041142871058e+03
2.262358141193873053e+03
1.385542502126724287e+02
-5.299862309996705108e+02
-2.158297055466647635e+03
-4.274177715717028150e+03
-3.889151545180965059e+03
-3.556085878676462926e+03
-3.572288252200164038e+02
2.324170376474894510e+03
2.272066501300569598e+03
4.084500593705663960e+03
3.903653258629511129e+03
1.116577572266055540e+03
2.620326824063865843e+03
4.166869052390690740e+03
2.679045218308488984e+03
1.878841183935701622e+02
-2.428639051504410872e+03
-4.830584429161393928e+03
-8.287697977041105332e+03
-1.268080263744268450e+04
-1.291794581322085469e+04
-6.101308828528310187e+03
9.990443747927162121e+02
3.634109685350040309e+03
5.937893140868472983e+03
6.646511615059814176e+03
4.782890212774017527e+03
5.635901270710768586e+03
6.403561019707273772e+03
2.637974252221812094e+03
-7.106868948593725008e+02
-1.384722602386976575e+02
2.406523363376908492e+03
4.035359479702625777e+03
1.319034342475315043e+03
-1.297590596454836941e+03
-3.576647683423620492e+03
-7.500990252484697521e+03
-1.078252094587285137e+04
-1.204038054750270385e+04
-1.389276499496785618e+04
-1.328654066285470253e+04
-1.012358536364261272e+04
-8.468747850076737450e+03
1.947876848344753569e+02
9.710938808365093792e+03
1.098661577465910705e+04
9.609763077013671136e+03
9.573428923728934024e+03
1.134873320448304912e+04
1.008171948132142279e+04
5.763397405508817428e+03
4.654591082109951458e+03
5.701214057336605947e+03
4.854428580206779770e+03
1.498138037102907447e+03
-1.894512701506010899e+03
-2.481803502204106280e+03
-1.662697271061755600e+03
-2.185326290336122838e+03
-4.359792139322440562e+03
-3.139724451224157747e+03
3.268852714805427695e+02
8.158330088184585520e+02
-7.760505529594568088e+02
-1.791934749408590505e+03
-2.543544208125817931e+03
-5.320842677864328834e+03
-8.386675709800159893e+03
-7.063066919084400979e+03
-1.615390401800867721e+03
3.455672585267894192e+03
7.210140801747163096e+03
7.716866621845464579e+03
6.353737883911638164e+03
5.170025763689420273e+03
-1.615275993292826797e+02
-5.877877251775919831e+03
-5.149989591076964643e+03
1.586889296070230330e+03
4.450955180289134660e+03
-1.321330343556306389e+03
-7.070002650137231285e+03
-3.488776468134814422e+03
4.024170121388714506e+03
9.830995498866175694e+03
1.094394623819389926e+04
7.978925971841521459e+03
5.347744525978932870e+03
4.397448456489631099e+03
5.168186358272054349e+03
4.774900152013351544e+03
4.036521253416393392e+03
3.992191082824708246e+03
4.859922025616348037e+03
4.825451097165662759e+03
2.571745595725962630e+03
-5.982184766951827442e+02
-3.741569111178553612e+03
-6.292370252096043259e+03
-1.064357732777813726e+04
-1.105622112584000934e+04
-7.925314150212062486e+03
-8.937700517152608882e+03
-2.002256964731311655e+03
3.681087911831057227e+03
2.827479801356522330e+03
-1.469162674608736324e+03
-4.835007101500566023e+03
-5.647116821010790773e+03
-5.250455633996977667e+03
-3.795021300076044099e+03
1.351207887050497902e+03
-6.654057855616555273e+00
-8.933989574382444516e+02
-2.081321075339895685e+02
-7.992269465502550929e+02
-4.818631952990234026e+02
-2.877361371693016281e+03
-7.651719709349629738e+03
-1.582100532511684651e+04
-1.535926270453826692e+04
-8.896229417393504264e+03
-6.961740036448733917e+03
-1.410692374931439190e+03
4.674910763796062383e+03
7.202188283651253187e+03
6.727187266376739899e+03
3.558892238027770418e+03
6.261214618282806441e+03
3.817026346899696819e+03
3.318236136060289482e+03
-4.549731698095355910e+02
5.385731293476043220e+02
2.090748466176998591e+03
1.481254023116526241e+03
-9.679887544805271773e+02
-2.554037157656369800e+03
-2.219671759581977767e+03
4.983285767646344198e+02
-5.919225069621951434e+02
-1.614370139582694321e+02
9.034621530247532064e+02
-1.638104057674479691e+03
5.102445710251770379e+02
3.567269825589553420e+03
3.204443515751380801e+03
3.023655364548329999e+03
3.478178248495876687e+03
1.285175112260391188e+03
-9.692748313971167136e+02
-2.200148836507972646e+03
-5.876699089997923693e+02
1.888153795400631452e+03
8.354016195927410990e+02
-3.969817617119003444e+03
-6.269499386037506156e+03
-3.304533794864148149e+03
-5.079422783955241698e+02
6.880489722410521836e+02
3.418583671593450163e+03
5.283748698639396935e+03
3.641474760492077621e+03
1.061949567688564457e+03
1.643633999608191800e+02
1.374691655944742251e+03
1.234965844944942546e+03
-2.510797092763757064e+03
-7.812752676291050193e+03
-2.345668402059245636e+03
5.224596539595834656e+03
6.063300718341915854e+03
5.080634289138435634e+03
7.076970114459423712e+03
6.300162019127444182e+03
4.711106706692619809e+03
4.345062507950897270e+03
1.983121334884800035e+03
-9.431183513655912520e+02
-1.394623849113521601e+03
2.445455243536630690e+02
1.113412077737792288e+03
7.879802183808423024e+02
-4.015792652195754044e+02
-1.734125984972986089e+03
-2.705829308136586860e+03
-3.628428243156000917e+03
-9.082411142909988939e+02
2.584687078767296953e+03
4.251154270216083205e+03
5.809103049189589001e+03
5.711491727625725616e+03
2.138291120471448721e+03
-1.224448738150945019e+03
-2.898778511384978174e+03
-3.175686154113222074e+03
-2.836937466793316162e+03
-2.476460225155055014e+03
-1.368983504278066448e+03
-3.483450306076275069e+02
9.730989927483460633e+02
2.165844368444724751e+03
1.876703143212139139e+03
1.987968671502191910e+03
3.185686134414957905e+03
4.063950938978237900e+03
3.922966232329406012e+03
4.004694873043761163e+03
3.406012223443373387e+03
3.091024790476561975e+03
3.061728791305709819e+03
2.945386059122911320e+03
2.750025229772683815e+03
1.804247145141932151e+03
7.079253072629174994e+02
3.772169466958152952e+02
5.780952307513975938e+02
7.766992178338437043e+02
5.871814148941151643e+02
8.566171015987912369e+02
6.030769806069894230e+02
-3.716104068346014628e+02
-2.148543179822164348e+03
-3.179946624655407049e+03
-4.777742568015143661e+03
-7.056717596516647063e+03
-8.461773170614203991e+03
-7.949995694575175548e+03
-7.097562986737172650e+03
-7.990627261196686959e+03
-7.577208658453317184e+03
-6.987253898184223544e+03
-7.655528391987288160e+03
-7.645773691701139796e+03
-8.984998705071362565e+03
-9.266132835296240955e+03
-8.120202614274483494e+03
-5.071183441411434615e+03
-1.276975495343371222e+03
-4.806273946693238486e+02
-5.152440595337640161e+02
-1.580907225367366209e+03
8.351020813603309989e+02
2.605815852308353897e+03
3.462490869371310055e+03
2.630028432422289825e+03
1.257306679705445049e+03
2.242466374052150513e+03
3.063631288188858889e+03
3.165703845063455447e+03
2.170684954185001061e+03
9.314035176350640768e+02
1.548956007049130449e+03
4.131560794497973802e+03
5.292159338056524575e+03
4.206832726881600138e+03
2.969635490410712009e+03
5.306779397604216229e+02
-3.436121109896761027e+03
-6.437709016824126593e+03
-4.088979931937783476e+03
-2.241187050301340662e+02
1.613865247452353287e+03
1.614725108348096001e+03
7.325518995325115839e+02
3.655200633920951532e+02
1.336497109674739932e+03
2.168636841171799915e+03
3.005204864660746352e+03
3.271933307819417678e+03
3.055755247319702903e+03
2.749881558978250268e+03
1.856449641146415161e+03
-1.064860626702872395e+02
-1.122922957533790623e+03
-8.847149667729738667e+02
-2.006499020208178479e+02
-1.300970191806587728e+01
-3.134434692202354995e+02
-5.910854438862895677e+02
-7.646763434206241072e+02
-4.761679299336570352e+02
-7.154999714474594157e+02
-1.057473411370928943e+03
-6.243053710701590262e+02
-5.495323812872731395e+01
9.429394430578753372e+02
1.303398737202976463e+03
1.517189053528844170e+03
2.307622165940817013e+03
2.072451107866389520e+03
1.317936950136263704e+03
8.731087669194008640e+02
8.869657641982624909e+02
1.610662869014950957e+03
2.216225448998865886e+03
2.053552064172095015e+03
1.595747011838589970e+03
1.238592385516471950e+03
2.478410960234254787e+02
-9.844386355617690469e+02
-1.716919711910930573e+03
-1.347866645478008877e+03
-6.737395473328930393e+02
8.768324529533434486e+01
9.513348976523109286e+02
1.098063352676300156e+03
1.004166442392049021e+03
9.979861144024891928e+02
1.439250572171288695e+03
2.078716771463883561e+03
2.433629312118066991e+03
1.935233171233613348e+03
1.321548353643507653e+03
8.973740002803976950e+02
6.385933996047923529e+02
4.433040899241419766e+02
-1.063741876834564550e+02
-6.266972641567359688e+02
-1.086947855948399592e+03
-1.586912304933801579e+03
-2.048428377817481305e+03
-2.155529744355265848e+03
-2.242214548716785885e+03
-1.760297749571176837e+03
-1.253684642662213719e+03
-6.136904172729687161e+02
4.428419414226318906e+01
6.715432425680809558e+01
5.999424395537320152e+02
1.146833169595392292e+03
1.386937194221692152e+03
9.602560144018602841e+02
9.001697947723331481e+02
9.008062822477033933e+02
5.556322596955790232e+02
2.791120303116479704e+02
-2.365644662417418544e+02
-8.417471474872440922e+02
-1.686356307673220272e+03
-2.356104201997854489e+03
-2.801406514271145625e+03
-1.824324026511591455e+03
-1.187567879551482747e+03
-7.818130485638521350e+02
-5.210382663939097938e+02
-4.873006563812178342e+02
-2.007527118637045191e+02
-3.313239175976740967e+02
-5.889764797178535218e+02
-6.877663709801753384e+02
-6.337900115187744632e+02
-1.005021843626435611e+03
-1.351300814695544432e+03
-1.484488311857528970e+03
-1.914592194573539928e+03
-2.673635886950055010e+03
-3.220477391976390209e+03
-3.514386293989604837e+03
-4.029675503842152011e+03
-4.620095298736298901e+03
-4.482365922655078975e+03
-3.585687929686812822e+03
-3.078475045938833773e+03
-2.774209524502538898e+03
-1.176971172544480623e+03
6.089785794535648620e+02
1.513716188177656932e+03
2.008912659717298538e+03
2.003264416026665231e+03
2.166357549773255414e+03
2.433902987609957563e+03
2.551007174120655691e+03
2.714499814300251728e+03
3.118317300804873867e+03
3.146846308787395628e+03
2.656174524563280556e+03
2.154530210679306947e+03
1.176551603689023068e+03
-1.984402304161624784e+02
-3.263086796737823647e+02
-1.072504747983726503e+02
3.047193849257668603e+02
7.955303985596010534e+02
1.297398527087689217e+03
1.539735750092786247e+03
2.055911411011058135e+03
2.552515511004212385e+03
3.158260722812656240e+03
3.536550464597698920e+03
3.703094694993512348e+03
3.351656022480490719e+03
3.479573477472182276e+03
3.662915322834795916e+03
3.311559445756121931e+03
3.117397279283126409e+03
2.691160524891459318e+03
2.313124567578119240e+03
1.636170662722148109e+03
9.051967488642713988e+02
6.795267567753925277e+02
7.247848245341439224e+02
6.398208811018885172e+02
1.029001429456296677e+02
6.700529301138521987e+02
1.182232695091457344e+03
1.591693534437782091e+03
2.033502278836779851e+03
2.341623997544752910e+03
2.361878815639990535e+03
2.466205500376684085e+03
2.527853789331925327e+03
2.219138873193114250e+03
2.373883981067230707e+03
2.128698695335398043e+03
-7.241048295905989107e+01
-3.506379158765138527e+03
-5.333345665887447467e+03
-6.218278319954038125e+03
-6.974877229482746770e+03
-7.414014814293208474e+03
-6.981810339395740812e+03
-6.346400576133629329e+03
-6.402645885255816211e+03
-5.407160498362489307e+03
-9.207222887190472420e+02
1.195865611402312652e+03
-1.837662176481892629e+03
-5.097764397266972992e+03
-5.002272112370258583e+03
-5.262454598646746490e+03
-5.419062380393747844e+03
-3.537999009793391906e+03
-1.793362579945858442e+03
-3.986966096143669802e+03
-4.364675609919747330e+03
-4.851637257047681487e+03
-5.574999839250940568e+03
-5.875691923521581884e+03
-5.894607181071894956e+03
-5.821638751595067333e+03
-4.030686882299097306e+03
4.042677561843495369e+02
2.271264727389803738e+03
3.294047516297920083e+03
3.662528165969193651e+03
4.139847165066086745e+03
4.409080760515406837e+03
4.071380330812010470e+03
3.933086894377500812e+03
3.638249886869559759e+03
3.215778493626891759e+03
3.005658081108194438e+03
3.188846834323109306e+03
3.578321259149732214e+03
3.496032885454902953e+03
3.506999964227731198e+03
3.352182832167599827e+03
2.700626043746781761e+03
1.877447255675833048e+03
1.243608714704417480e+03
1.163054885698274802e+03
1.222775837343976264e+03
1.137899587833101805e+03
1.133448122564559526e+03
1.246566875784473041e+03
1.639301437990266777e+03
2.183664234755397501e+03
2.188693627775166988e+03
2.130411819441628722e+03
1.661928471178226346e+03
1.157314586004544026e+03
4.625273031670592445e+02
5.955095666366480600e+02
7.122683283073738494e+02
4.898510590812769010e+02
3.232426917361341907e+02
2.615041502444450998e+02
-3.312668859001915962e+02
-1.067040005597443724e+03
-1.087834096033000606e+03
-9.946060531803444746e+02
-1.060393541964888868e+02
-1.509711195867865818e+01
3.770928795274131744e+02
9.015175007705837515e+02
1.067338012375355447e+03
1.638500340858819754e+03
1.670989425410896729e+03
1.293950809542563547e+03
6.272922808540589585e+02
5.491694276304081086e+02
5.834881430844353645e+02
1.046237582725457287e+03
1.028299117346728508e+03
7.272683760079678450e+02
7.152607773956391384e+02
6.283188095502080159e+02
-2.394606338132754217e+02
-1.101367300159686692e+03
-1.510417058285727535e+03
-1.376578229616838144e+03
-1.729703583254091427e+03
-2.175739858284355705e+03
-1.850871979904332420e+03
-1.183127108104534727e+03
-6.854152872215901198e+02
-6.761675601792143198e+01
7.302206159960292986e+00
-1.127901865965538661e+02
-7.506174740211172036e+01
1.955147859047223733e+02
5.410799501467464552e+02
9.386553395435730636e+02
1.333344740099729734e+03
1.011289495039385429e+03
8.774866302365666115e+02
4.425306633000911916e+02
-3.567920311968338183e+02
-1.371429139903046007e+03
-1.228275083183344805e+03
-1.407237109479988021e+03
-1.396374288324766667e+03
-1.369820888122264250e+03
-1.069594423534115094e+03
-9.669497091740491612e+01
4.989170769387666269e+02
7.152701195696179184e+02
1.086351086802199688e+03
1.294214985932679838e+03
9.519790258969702563e+02
4.505644663065930899e+02
5.858386430937363230e+02
6.227078769142885903e+02
1.411730046802269101e+02
-1.147626704985661803e+02
-4.061136529660464589e+02
1.341299815027067552e+02
1.738587068650880667e+02
-1.448709964009046018e+02
-9.750825803090120871e+02
-1.456849035307741588e+03
-2.664229897105282816e+03
-4.619353141818578479e+03
-6.715158959326178774e+03
-2.230562581036660958e+03
-5.956454771666890338e+02
1.116166117463459670e+02
6.752410527967290363e+02
9.831970181693732229e+02
8.134248068442817612e+02
6.218268016241994474e+02
5.543709806333074539e+02
9.241049451720050456e+02
9.149712335808959551e+02
8.620974257383390977e+02
8.894693408541079407e+02
6.720160922802342611e+02
2.327338010366038361e+02
-2.444700212124822372e+02
-7.276859759998172876e+02
-1.086960277345967370e+03
-1.523347929338278163e+03
-1.178797594807113683e+03
-8.129138416458519600e+01
1.821558917394046659e+02
-5.934803555243757955e+02
-1.222455388638642404e+02
6.188592461234441089e+02
8.779085774707326664e+02
9.679126728382840383e+02
1.131843297508100932e+03
1.418652558597065081e+03
1.397369322572892997e+03
1.508925558604382331e+03
9.323073167860098920e+02
6.665120402863328763e+02
3.065324098472825085e+02
-2.326557582004074334e+02
-6.970412890064417297e+02
-1.241661197498389356e+03
-1.554570097015487363e+03
-1.597792251214091266e+03
-1.566357563033311408e+03
-1.402276764444771288e+03
-8.485126588050010241e+02
-3.230829983631535356e+02
-1.199752721277380516e+02
1.638288981502746253e+02
5.983713469685243354e+02
1.183604961089864673e+03
1.011524285814253062e+03
1.213144879374448465e+03
1.559419170874865813e+03
1.508392311662322982e+03
1.193060430412876485e+03
9.834648703173893409e+02
1.089592141966209510e+03
6.574041379834736745e+02
2.397998095833829950e+02
-2.632213625004902724e+02
-8.506388081071063425e+02
-8.324855299091698271e+02
-8.637298484083993344e+02
-8.943721272186750184e+02
-6.913852669792224788e+02
-3.147259772077001685e+02
1.896037474755223116e+02
5.796131166830715529e+02
8.413637351821392940e+02
1.647879207503370708e+03
1.977117186635957978e+03
2.230126015093600017e+03
1.921923267946592432e+03
1.749468531459697942e+03
1.801767101143347190e+03
1.521874566974977370e+03
9.338134962916909672e+02
-1.990479988415000435e+03
-3.642104526825469293e+03
-2.617021645195819929e+03
-2.267154759407952497e+03
-3.062621022921183794e+03
-1.315462174119910742e+03
-2.085613165307291183e+03
-2.028094415432927235e+03
8.710720819683446337e+01
-9.600493202872544316e+02
1.309517377061658181e+03
5.699008825789569528e+02
-5.991792664324265161e+01
1.672981662055647121e+03
1.687541061368163582e+03
-4.721881438258468506e+02
4.788063715931838829e+02
-1.638939121083100048e+01
-2.271635525336098908e+03
-2.567013329880602214e+03
-5.846038244972969551e+02
-1.678347455001409344e+03
-2.939214924700616393e+03
-2.041236228873554637e+03
-3.423439863208209317e+03
-2.297878838166493551e+03
-3.217528212107889431e+03
-2.788375402874943575e+03
-1.371388304475752875e+03
-1.928565360309631160e+03
8.411952752098534347e+01
1.202681081393820705e+03
1.313133849239629171e+03
1.954544161111811036e+03
2.098863742646097762e+03
2.275106348309306668e+03
2.433278199407773172e+03
2.107366729626558481e+03
2.105415174919411129e+03
1.874454311789445228e+03
1.158460912192431806e+03
5.554517555880368036e+02
2.544794594164007719e+02
-1.615486641553039817e+02
-3.776408359980413820e+02
-5.418028570534976325e+02
-7.460527291549196889e+02
-4.693598043491830936e+02
4.563184145575123694e+02
1.349982025916165867e+03
1.807651368667261750e+03
1.449367372395665825e+03
1.226063591051105050e+03
1.547733264433722070e+03
1.486526100049022034e+03
1.496591969143215920e+03
1.423096653040373894e+03
1.479044503284327448e+03
1.431393661538639208e+03
7.260520201762576562e+02
-3.806122234083706246e+01
-6.739669001326935813e+02
-8.606200943704550355e+02
-1.294081596936184724e+03
-1.622642404653970516e+03
-1.913279337381690311e+03
-1.145750383868260997e+03
-1.797299589097197270e+02
2.565968913740483686e+02
1.080330782614599229e+03
1.855273678897765194e+03
2.098122643220810460e+03
2.047031452685939939e+03
2.097290308113586434e+03
1.935742441041760912e+03
1.709359374466240979e+03
1.550151315355629322e+03
1.194070576764103180e+03
6.501180790250753034e+02
4.342457752541130844e+02
7.331958662651813086e+01
-4.707999564177837897e+02
-9.410821393924400127e+02
-1.475577832105982679e+03
-1.895370498515948611e+03
-1.453553089468336111e+03
-8.350747225076446512e+02
-4.687868056616893853e+01
4.220026660572821697e+02
4.196796121709753038e+02
1.085133397126916407e+03
1.635247829000906449e+03
1.723968445304319857e+03
1.793292356997669458e+03
1.961234494762494023e+03
1.873749743915553836e+03
2.225874917298099263e+03
2.427594090036922807e+03
2.137928862256172579e+03
1.960947268580365517e+03
1.096611015011889776e+03
3.609216015069758328e+02
