3.834179547974433262e+03
3.344971409226942797e+03
3.453101768204537166e+03
2.841838332968186023e+03
2.314422051623049811e+03
2.188977050194342155e+03
2.293604275049631724e+03
2.198226490691853996e+03
2.339705166942777396e+03
2.379173433697596920e+03
2.338631507007147320e+03
2.104169803752816733e+03
1.811939844246878465e+03
2.197853839474599226e+03
2.341564263124868830e+03
2.078339979327437959e+03
2.371551656789185927e+03
2.605306625209106642e+03
2.568549686789082898e+03
1.906168785068638954e+03
1.834084997416150827e+03
2.229477279311842267e+03
1.870761764641763193e+03
1.641232251856997891e+03
1.591880792005945068e+03
1.534379251272238434e+03
1.446593285313999786e+03
1.687677200964666326e+03
1.823054888922876899e+03
9.129013083373996551e+02
9.949919955205001543e+02
9.574004205509204439e+02
8.983890592165829503e+02
7.059018401917618348e+02
5.048294561562078115e+02
7.461438287511288081e+02
9.348702623503870655e+02
9.837779884324894510e+02
8.858248220689445134e+02
1.121443170340048709e+03
1.198375739959148632e+03
6.174573737639278761e+02
4.085998158439401777e+02
2.048573699280895255e+02
-2.186682234575331734e+02
-1.478687809370671289e+02
-2.037634470878280979e+02
-3.073347321732856017e+02
-5.876161073441029004e+01
4.209252782088961453e+02
3.469625800314954631e+02
4.043492308701588911e+01
6.729469815950803024e+01
1.406244632716769729e+02
1.973221970270500663e+02
5.052847229623808403e+02
8.115692431900179145e+02
1.078283858234704439e+03
1.090440754254243529e+03
7.990380917703663499e+02
3.970945675352031117e+02
1.045057904341490911e+02
-6.138405384310558475e+02
-9.289614259554821274e+02
-1.150852468544445401e+03
-1.488487824137347843e+03
-1.466854388050710440e+03
-1.233900628272660242e+03
-1.182628605311819683e+03
-1.309000583025306923e+03
-4.689616485161139963e+02
5.144929800688497323e+01
1.651194715237421065e+02
4.699589185577284525e+02
3.388401231790904262e+02
5.527504560880423696e+02
4.738211490366230123e+02
4.072114426286008779e+02
2.798864497010442847e+02
3.538091071169502584e+02
-6.698519489048096887e+01
-8.116396963456201092e+02
-3.857349337941356225e+03
-8.777005263179311441e+03
-1.227936967307899613e+04
-1.174710002864058879e+04
-1.067209613089995946e+04
-1.061624142963068880e+04
-8.208544492935745438e+03
-1.099135690941020812e+03
-4.790576433795699813e+02
4.217831836645851240e+02
8.543709266307222379e+02
9.606050544965142990e+02
7.734592469544431879e+02
3.330344822111796361e+02
7.862444314446292992e+02
5.332193267425341219e+02
4.149670484284148984e+02
5.890577932184195333e+02
8.625636875446278964e+02
8.224344711058554367e+02
6.755853373262897321e+02
4.369553351335063098e+02
6.455029573036099464e+02
8.392877188019294863e+02
1.153576138759884486e+02
-1.063637166053828338e+02
4.701232476995073171e+02
8.508439166897957193e+02
9.427983977051032980e+02
1.223901810637019480e+03
1.258985151323018499e+03
1.206956110709644236e+03
1.269882624451296124e+03
1.647802843592215140e+03
1.952635238755536193e+03
1.623388621178055018e+03
1.363024802059808735e+03
1.717399949317069058e+03
1.694549246508951001e+03
1.407526045074902868e+03
7.782332356357917433e+02
1.405928721948578186e+02
-8.412673422345280372e+00
1.911573698047711503e+02
2.422206709778667175e+02
1.068955582820939071e+03
1.547317280274463201e+03
1.999244458778773378e+03
1.739716708627640401e+03
1.380684021434204851e+03
1.519111611623349063e+03
1.406983437274164771e+03
1.484278734463033288e+03
1.569975099770580982e+03
1.587042503880367804e+03
1.730555323558480495e+03
1.728567564550472980e+03
1.480032012285116025e+03
1.539925818955755403e+03
1.460124386040675745e+03
1.141644406894552731e+03
6.535314984876991957e+02
2.848002257452832282e+02
2.794116173538195085e+02
1.763734276198591431e+02
4.126964069122358296e+02
1.044317158875256155e+03
9.553771072767398209e+02
3.848012113089387185e+02
6.205201137649481780e+02
6.956053222079148100e+02
1.060133124516852149e+03
1.185098739877354319e+03
9.824160114601476153e+02
1.221991947000463597e+03
6.569633484692476486e+02
-4.016692453974761065e+03
-5.445808717234385767e+03
-2.950438671589673959e+03
1.302296869363392489e+03
-2.211529899529827617e+03
-9.228717026744212717e+02
4.172796895918131668e+02
-4.004129133664609071e+03
-1.535136337490273263e+03
-4.458730343079820159e+03
-4.749838671829882514e+03
-1.379503227795512885e+03
-2.569750599220117238e+03
1.159519198094856847e+03
-1.660626196242735887e+03
-8.262177302614827568e+02
-4.625602134459976611e+01
-2.265809790839472498e+03
-1.893874173844821598e+03
2.586148532042844295e+02
-9.452911087204086016e+02
-1.792586000155436295e+03
6.118032879215612638e+02
-2.872154380024355760e+03
1.187562808864304088e+03
-1.499013760985989393e+03
-4.194878286224246040e+03
-1.701049489914135847e+03
3.784836956564873844e+02
-5.704222273349022544e+03
-5.407154873123363359e+03
-1.477357041655737930e+03
-1.774792575552601420e+03
-4.359445328380713363e+03
-1.484284670731424512e+03
1.155743322457683462e+03
1.551592138355207453e+03
2.151140819407090930e+03
2.416523327583739047e+03
2.162826387785679344e+03
2.143996799002691205e+03
2.272105784140726882e+03
2.414194926492632931e+03
1.710224995913279145e+03
8.761797469349036191e+02
8.711169626918945141e+02
1.004047193151263855e+03
1.022914257617813064e+03
1.032735007661572354e+03
1.267578105282994102e+03
9.144088033784644267e+02
1.021189956101449980e+03
1.638003258955780211e+03
1.423875708950252829e+03
1.223954682560859283e+03
1.150436937962421325e+03
1.725419666174052054e+03
2.025901761754088966e+03
1.932921508179898638e+03
1.802416712492592524e+03
1.627446609851030871e+03
2.089007568084409286e+03
1.960094900787209554e+03
2.758181777149583809e+02
-3.705178630733607406e+03
-1.501003639891221837e+03
-1.213437031884746631e+02
5.515201088539783996e+02
7.696164696217750816e+02
-8.929289659000261281e+02
-2.658302978825391165e+03
8.506128816318400823e+02
8.158658289317505705e+02
1.278435892197386238e+03
1.738346754697664437e+03
1.452541991909455191e+03
1.286971359981856722e+03
1.736617001629741253e+03
1.558449359609044677e+03
1.934519862613366058e+03
2.651896732607421654e+03
2.853440161653342329e+03
2.584037226597562494e+03
2.076644204410457405e+03
1.381306270058362088e+03
9.536159797201869424e+02
1.140672538547582235e+03
1.516369245403855075e+03
1.540664116899723922e+03
1.731488209233744783e+03
1.765918835062549533e+03
1.335875365136268556e+03
1.208352305168969224e+03
1.435342084442821943e+03
1.464785493180592766e+03
1.676708166073667599e+03
1.750094635123217131e+03
1.825989714416617517e+03
1.579345661012283927e+03
1.572159603931812853e+03
1.428431441106484272e+03
1.785117748488611369e+03
1.678247333065887005e+03
9.808185887116704862e+02
2.527777435193557380e+02
2.240841695725612510e+02
-5.212515918256830219e+02
-3.882626390902305502e+02
2.920301269816479248e+02
1.002642209284893738e+03
1.378589315438712674e+03
1.246863268094693240e+03
8.454310249519026002e+02
8.482868939263908032e+02
1.151434391984621925e+03
1.082870926007785556e+03
1.314613106351187071e+03
1.819619708727069110e+03
1.893914222292795102e+03
1.673495434467349696e+03
1.249371904004170801e+03
1.429585599386998638e+03
9.390887713226558162e+02
-2.338121279715915989e+03
-8.096051273508137456e+03
-1.164370064993153210e+04
-1.022108426149031402e+04
-9.687228047658038122e+03
-9.969009110323671848e+03
-1.030444212086081461e+04
-9.781510477446876394e+03
-9.528212156920231791e+03
-8.290573237666663772e+03
-8.462540192104228481e+03
-8.257145591771228283e+03
-7.425340203226101039e+03
-5.325057374663121664e+03
4.886780146523910844e+02
2.880824501589478587e+03
3.583447146679613070e+03
2.732668369595334298e+03
2.511440199638862396e+03
2.602755686646678896e+03
2.314676720327882776e+03
2.333208467375734017e+03
2.432360920706116758e+03
2.129137863061523603e+03
1.864517644902027314e+03
1.400508653999399257e+03
1.697153652636478910e+03
1.397547746854129400e+03
1.346720343881766439e+03
1.324664047473597293e+03
1.442434783489242363e+03
1.514072359893842759e+03
1.559596636758169780e+03
1.461020431988692508e+03
1.670394325524734768e+03
1.918753603778523257e+03
1.885161002322334753e+03
1.789652765162177502e+03
1.664325802302906368e+03
1.532161928851325911e+03
1.348229653870602306e+03
1.155583233234423915e+03
1.020222743264605469e+03
9.211451999686016734e+02
4.373663324467129883e+02
2.379348910494868505e+02
1.117995353269097336e+02
-2.819658999755194486e+02
-3.122693381786589839e+02
-2.321023145698663654e+02
-3.833944111593583557e+02
-5.421296759983825950e+02
1.967847624887085942e+02
4.453913479917387690e+02
3.917028525453701491e+02
1.105719748672005153e+03
1.273525793205280252e+03
1.082194931169908159e+03
1.329841623092919008e+03
1.309615411227174263e+03
9.185419449681000970e+02
7.968036184105540087e+02
4.904103011689231835e+02
4.284107324849827592e+02
-9.328175728481065221e+01
-7.626964703491026967e+02
-4.517220829650379414e+02
-7.627504902433668121e+02
-1.504813314831945490e+03
-1.837713222965980776e+03
-6.204112187300311234e+02
-2.139027519690316979e+02
-5.512098065195688150e+02
-2.712554859792608113e+02
3.649545878675925223e+02
7.223972754168001984e+02
4.380884538722601746e+02
4.060365215662588412e+02
4.872953826648173958e+02
4.259000169149416593e+02
5.380515280330652672e+01
-9.500080650568006035e+01
-3.903769569081770783e+02
-9.133827196115669267e+02
-1.284073404317871336e+03
-1.037453838764136663e+03
-7.115261257160847208e+02
-5.792923304687835753e+02
-7.227250726787018493e+02
-4.828189210407971927e+02
-4.315487524144848521e+02
-5.439309196268967526e+02
9.703692431380885353e+01
6.539710991409879171e+01
-4.588679204658810136e+02
-4.148355188298887697e+02
-1.954811371365895809e+02
-1.977742670328519807e+02
4.322648654763717673e+02
9.806677411970642879e+02
9.714253774046329681e+02
2.274792888604064842e+02
-3.202119419200079165e+02
-6.397696792013717868e+02
-8.601669998205596812e+02
-6.614379574824406518e+02
-5.466258003005551700e+02
-5.937369104385393257e+02
-6.427237483063141781e+02
-5.585994403715938006e+02
-3.414422973545575815e+02
-1.642780652467425000e+02
3.285352487489542028e+01
3.419153162656079417e+02
2.638763391324075656e+02
5.067333984188020963e+02
1.624038971928294188e+02
1.218655736805533252e+02
2.613868328528852558e+01
3.401466791784367842e+02
4.218694000884037791e+02
3.402924927538762176e+02
1.223826565330117120e+02
-9.060111174677579129e+02
-7.209920913438629668e+02
4.547242803756051188e+01
-1.776170129512159690e+02
-3.853939492696738398e+02
1.011639606275434886e+02
2.999701894959385413e+02
3.119571439360967133e+02
-8.088945051184012414e+01
2.329005933451606225e+01
-8.916833803164148549e+02
-4.132013374379475863e+02
3.639143002860107003e+02
3.338182264542459734e+02
3.855098113170873830e+02
6.224642030819584306e+02
9.814651563395891571e+02
1.302933628476192098e+03
1.299519296691607224e+03
1.070595643644256143e+03
1.291449046933372529e+03
1.303003853682876979e+03
1.078078704663234703e+03
1.566394641138513862e+03
1.970780627461693712e+03
1.972609195044732132e+03
2.478010944493176794e+03
2.216932442795230600e+03
1.785918065422538120e+03
1.900176018227666191e+03
2.059434342838927932e+03
2.120821577555006115e+03
2.360462627609955689e+03
2.420886017403635833e+03
2.555583026874035568e+03
3.042895103856538299e+03
2.883600865598229120e+03
2.586123303693633261e+03
2.106396621924427109e+03
1.940051616808938206e+03
2.011966382717854685e+03
1.891680260529323050e+03
1.798445537204877837e+03
1.297845638435630462e+03
1.577132863963496220e+03
2.139613796128166086e+03
2.704301844504143901e+03
2.251524311767147537e+03
2.015976309196355260e+03
2.175658846785018795e+03
1.971639306258935221e+03
2.169838753450173499e+03
2.541189206954540168e+03
2.678675505865120613e+03
2.701362634747582888e+03
2.864253127745050278e+03
2.886241630052061282e+03
2.737282103036261560e+03
2.358426561313624006e+03
2.366682805928488051e+03
1.935003915346301028e+03
1.424421311797111684e+03
8.818983981446158396e+02
-2.128647366996098754e+03
-6.387124158614408771e+03
-9.744508412325096288e+03
-9.490821520000736200e+03
-9.442091601185500622e+03
-8.816292211651883918e+03
-8.379381516917894260e+03
-8.043332326929368719e+03
-7.783133569958262342e+03
-7.314824613614907321e+03
-4.353399332001639777e+03
-4.228614286495149827e+03
-6.371228540175714443e+03
-6.016639701524605698e+03
-6.650813658291163847e+03
-4.184742538583749592e+03
-1.516377925034061263e+03
-6.517537328696357690e+03
-7.436136684859350680e+03
-7.250569334747358880e+03
-7.170592115464524795e+03
-6.516190772639434726e+03
-5.773295387476767246e+03
-5.790849478556036956e+03
-5.795816427089762328e+03
-6.124190129125840031e+03
-5.957837945906966524e+03
-4.972768919992175142e+03
-5.275989154316868735e+03
-5.080454603772354858e+03
-8.031015185161134013e+02
2.921854266785200593e+02
1.221496288591165239e+03
3.705853551247754694e+03
4.590297417621131899e+03
4.682823727656706978e+03
4.476519902716963770e+03
4.403426039670912360e+03
4.158566688655473627e+03
4.119050786974993571e+03
3.965930972728394863e+03
3.684241319407709398e+03
3.353046551862255455e+03
3.312390242054576447e+03
3.742338696233479823e+03
3.855982586285419529e+03
3.790434131256223736e+03
3.754740530909384233e+03
3.933950881604524966e+03
3.923054956035089162e+03
4.039116871221759538e+03
3.985283391741016658e+03
3.795652644402975511e+03
3.686200528819544616e+03
3.534041475952086785e+03
3.125194163728486274e+03
2.905598025673240500e+03
2.751302611661395076e+03
2.436399324737685220e+03
2.474941749726552189e+03
2.373013396303427271e+03
1.921655534828345253e+03
2.042895352079091026e+03
2.548748113446611569e+03
2.394178170221068740e+03
1.778168103243747964e+03
1.577054096755699220e+03
2.068072923576062749e+03
2.493344597796989092e+03
2.415869063266103240e+03
2.443681037029856725e+03
2.345103393075540225e+03
2.143517407958275271e+03
2.021866418029025226e+03
1.353804627037444561e+03
9.003651707155892154e+02
1.014615640451217587e+03
1.170650725140084205e+03
1.242405189892750286e+03
6.201562118092605260e+02
3.765084713897629172e+02
-8.073407558450031729e+01
-1.342033537546607249e+02
4.510948892842747568e+02
4.490478882541897860e+02
1.608409246151123684e+00
-7.093611569414395746e+00
6.926411447117377520e+02
9.278851294434645069e+02
7.895759072695593659e+02
8.796939323958771411e+02
1.281281195037631051e+03
1.490323413660774122e+03
1.408805292801469932e+03
1.064756535508187426e+03
7.551976985228063768e+02
2.716434894481017537e+01
-2.384186815155424028e+02
-2.195370019696638337e+02
-6.602367506962001471e+02
-8.445214889685566959e+02
-6.014168739263305952e+02
-3.609231993647783270e+02
-2.890409378916011178e+02
-1.807574121099468130e+02
-4.020825054248843458e+02
-4.950644717709866995e+02
-5.657019506618071318e+02
-3.770122775348405639e+02
-6.050090046425661967e+02
-3.767758137365456719e+02
-1.031821402518749942e+01
3.183866987819834549e+02
4.673140579988279910e+02
2.064564359722776885e+02
-1.552132844219119363e+02
-6.997522792173424477e+02
-1.022198371315571990e+03
-1.003545018970260571e+03
-1.125871465231416551e+03
-1.276198983722955290e+03
-1.384547654977834782e+03
-1.024965590061911371e+03
-4.885284410622837186e+02
-2.452043442272601226e+02
-2.370369703485767161e+02
-1.431066043918684159e+02
-1.445120866293997164e+00
-1.862076644430697797e+03
-5.943080155801906585e+03
-1.102045568637260658e+04
-1.122218405153409731e+04
-1.093830171856856396e+04
-1.130792874893482622e+04
-1.043913166901657860e+04
-3.313875950672943873e+03
9.077735945661286223e+02
7.687218516030551427e+02
-6.029403805000209786e+02
-1.453008790423427854e+02
3.096787694736124763e+02
2.317693275908686417e+02
5.019174805383584044e+02
8.921053884158156961e+02
1.117239231179562012e+03
1.133252837990450871e+03
1.308208686972342548e+03
1.087113799422656484e+03
1.214898367297268123e+03
1.524539500379663423e+03
1.579031990463404554e+03
1.351422206237698674e+03
1.851698037402869659e+03
1.931882209930776980e+03
2.086847295801516793e+03
2.051494253132533231e+03
1.643653203518256760e+03
1.302295218771590726e+03
9.905111602713801631e+02
5.423075985878361962e+02
4.635549384073524379e+02
5.681589898556575235e+02
7.992155834535926715e+02
1.055697528058748503e+03
1.207521203583094803e+03
1.094652141601790163e+03
1.060059188482358877e+03
1.270725414635981451e+03
8.926728354353051600e+02
8.698466242086421971e+02
1.384143048702567285e+03
1.859530018507841760e+03
2.020066110950741859e+03
1.766776047020014857e+03
1.956718914312913739e+03
2.152907299884679560e+03
1.337245336905154545e+03
3.456487206654423403e+02
6.890942089847989109e+02
1.072529674711582174e+03
1.062990642293339988e+03
1.161541529294430120e+03
1.115149401450360756e+03
1.169796312267827034e+03
1.149475154607601780e+03
1.285184074863279420e+03
1.115897339213868463e+03
9.686640169600625541e+02
1.325562434493605224e+03
9.426376548699157638e+02
7.729233283610338958e+02
1.339381730798141234e+03
2.114137470967709305e+03
1.975342179999227028e+03
1.538978597922893641e+03
1.398850956388726900e+03
1.270835053148005045e+03
7.169621374163316432e+02
9.082010926608778618e+02
1.004504449570127690e+03
6.620918499034212346e+02
3.541013239372591102e+02
-8.696407643449874740e+02
-5.361939136247290662e+03
-7.016367082585646131e+03
-2.978395001794622658e+03
-4.770100045324651546e+03
-3.294400879378942136e+03
-2.406155046817102175e+03
1.527644318021142681e+03
-6.600844976189068802e+02
-2.013773742078265627e+02
-4.349773296674662788e+02
-1.974724902680404057e+03
-1.754635491444655372e+03
1.342317440209269762e+03
-2.874945794032696540e+03
-4.086511564987220481e+03
-6.822403455368555115e+03
-3.824606647092373805e+03
2.118998667708080461e+02
-4.206772110852465630e+03
-3.453505935344388945e+03
-3.350259835517535521e+03
-4.340034309632956138e+03
-2.997874055731699627e+03
-3.569784532222840880e+03
-3.324673097571559538e+03
-3.327590482257695840e+03
1.280370146791482284e+03
-1.434715057329918864e+03
6.471691458983090115e+02
-1.263929042825433044e+03
-1.639742298265023237e+02
1.527075377723677320e+03
-1.915764208001372936e+03
-1.533485010561495073e+03
1.539272262438692280e+02
-1.063574659618301894e+03
-1.403956111950586546e+03
1.317747425592122227e+03
1.158694696479169352e+03
1.109049481127530953e+03
1.815872533580223035e+03
2.146217014626829041e+03
2.081082002941176142e+03
2.126338464241728616e+03
2.359082178002904129e+03
2.566363929684490813e+03
2.332081886746953387e+03
1.723138034426123113e+03
1.759617008905614739e+03
2.056654934548642359e+03
2.158170334472830291e+03
2.145191205135402924e+03
2.135756524342637022e+03
1.624673355405713892e+03
1.414197142659764268e+03
1.403600662430203784e+03
1.110340098614163480e+03
1.037219977012886602e+03
1.020154824631984184e+03
1.034059225935911627e+03
1.188078804928371255e+03
1.239109031010014860e+03
1.256030072376807311e+03
4.650634616339094123e+02
6.691481757336350711e+02
6.821267745290091398e+02
1.345999416658632299e+03
1.967451696871278727e+03
2.014804356287666906e+03
1.996763671361036586e+03
1.855688707128996384e+03
1.829571490511020329e+03
1.845338234650198729e+03
1.410896470183480687e+03
1.156960372928317611e+03
1.435408788665136399e+03
1.215304628929497540e+03
9.317401451275050022e+02
7.736655254672032243e+02
1.198218162730736367e+03
1.617445556806781042e+03
1.946104665019464392e+03
1.865335861042854049e+03
1.424185975511090419e+03
1.419926260595165104e+03
1.592477133823094846e+03
1.524039966218322888e+03
1.928641789725094668e+03
1.913784549906383745e+03
2.048094711659403401e+03
2.233325041160447199e+03
1.873454437206947205e+03
1.592433238077048600e+03
1.431072248474087473e+03
1.303323163088460205e+03
1.053297277385197958e+03
7.580014750895338693e+02
3.692860780734864079e+02
3.551219572970645686e+02
7.235082757849761492e+02
1.265335644235350401e+03
1.648568989477429341e+03
1.739184153310020065e+03
1.445235640757745159e+03
1.569586609263107903e+03
2.079257261407257374e+03
2.236351553142683315e+03
2.361907778036835680e+03
2.902114012750994334e+03
2.653721931202142969e+03
2.502534631120082850e+03
2.633630220638634455e+03
2.250929586615359312e+03
1.805477899211996601e+03
1.459517673609431085e+03
1.031091777373785817e+03
-4.609625540458623050e+02
-3.331832854461274110e+03
-7.686583180002775407e+03
-9.589254075089480466e+03
-9.718953972299123052e+03
-9.217681994539314474e+03
-8.653308233617166479e+03
-8.944707893892837092e+03
-9.017925763118697432e+03
-8.339002899494984376e+03
-7.731978185607255000e+03
-7.169867101396801445e+03
-7.150569334730898845e+03
-7.480030653555500066e+03
-7.088412439583177729e+03
-6.919783128944832242e+03
-3.143017769908654827e+03
-3.024984577470255772e+03
-7.529775603799660530e+03
-7.800417459838408831e+03
-7.626850790794275781e+03
-7.408143301071897440e+03
-2.565216740235948237e+03
2.783834443665590697e+03
3.669061531533073321e+03
3.954488249700227243e+03
3.864094806599688582e+03
3.723914147356266312e+03
3.647027805677902052e+03
3.623465174663301696e+03
3.477197508415717493e+03
3.255229773090976778e+03
3.276636059612695135e+03
3.566456434214828732e+03
3.785741391431940428e+03
3.726496022047647784e+03
3.351766975858579826e+03
3.006556070126252507e+03
2.545798215846871244e+03
2.128501077696532320e+03
1.795739567286634610e+03
1.625512106445431982e+03
1.899827366707378360e+03
1.949790884526198624e+03
2.055537168566283071e+03
2.179125233207965721e+03
2.426562313465625266e+03
1.837894168246895106e+03
1.272053788250471371e+03
1.213032558743493155e+03
1.208951303817735834e+03
1.543774514100138504e+03
1.510523261314854608e+03
1.326272325170937620e+03
1.059079487917549386e+03
9.330361015680081209e+02
4.761368824454723381e+02
2.384477491939051390e+02
-9.805774143933383868e+01
-7.473642087048621079e+02
-1.027468550008177772e+03
-7.653847023202831679e+02
-8.110314157889283706e+02
-4.884288148802356773e+02
-4.426819897534348911e+02
-5.597333009707813289e+02
-7.642879511933284675e+02
-6.977442444282969518e+02
-2.028654461532809989e+02
7.580335339162140826e+02
5.878866560690599954e+02
2.427918839896732948e+02
3.237143777529387876e+02
-2.417994991741728370e+02
-6.723043181824705243e+02
3.395452910370573107e+01
-3.599364458954125325e+02
6.489224648367622876e+02
1.138611281536409479e+03
9.431386361532422598e+02
2.094172820878166306e+02
-8.145346007168431015e+02
-1.976704988608457825e+03
-2.152082353827595853e+03
-2.433647729254629212e+03
-3.031358703223208067e+03
-3.463226368057633863e+03
-3.729269790956387169e+03
-3.287459532466736619e+03
-2.190724397691684771e+03
-1.371087281334332602e+02
7.943568057492808521e+02
1.108724756325188764e+03
2.120285643053542231e+02
-7.107428203822723844e+02
-2.465800617650850768e+02
5.985633620044956160e+02
6.886698588429645724e+02
-3.283122776162322225e+02
-2.033353837831437261e+01
1.324606980118783213e+03
1.542421057338301807e+03
1.032055142448827382e+03
8.365168114336045164e+02
9.028174371381228411e+02
1.404015239343030316e+03
2.364141471573987928e+03
2.441094267214195952e+03
1.757822036720393498e+03
1.000309547362901299e+03
6.135900514727674135e+02
1.303649607636294604e+03
2.598420207887396828e+03
3.512868034548545438e+03
3.559086158273359160e+03
3.229039631085493511e+03
2.114620910321800693e+03
1.422805390176583387e+03
1.724575382277158724e+03
1.672863522479796757e+03
1.425687762866152525e+03
1.186026025334771020e+03
3.917964075637246992e+02
-7.010458168844340889e+02
-2.191446813489981196e+03
-2.811379403684474710e+03
-3.187981442445328412e+03
-2.846273257579186065e+03
-3.356317539715363182e+03
-2.571163635501296540e+03
2.821177025606451139e+02
2.416540724758950546e+03
3.368106076687444329e+03
3.373736526676620542e+03
2.556375605125426318e+03
7.280052617106758817e+02
-1.800432264730460929e+03
-2.386975736670322931e+03
-1.625682522634950146e+03
-4.078625665344065510e+03
-4.226055781983333873e+03
2.325940645563705687e+02
2.605792742836212028e+02
-6.757195664643041937e+02
-1.893638454639359907e+03
-1.675725315966002881e+03
-1.443114082951954060e+03
-2.539026943218589622e+03
-4.877530359334324203e+03
-4.905412052669785226e+03
-3.337989944404009748e+03
-1.458868677702274908e+03
7.373769646526393444e+02
1.687948767077629782e+03
2.088919418373823646e+03
1.879055328405635692e+03
9.937622829154501005e+02
3.696554180194582386e+02
-8.010038170112142097e+01
3.155514964108126605e+02
1.593769145071892126e+03
2.921810731740751180e+03
3.499047093715373194e+03
4.016011311853400912e+03
5.505043657462379997e+03
6.425711583266546768e+03
6.372188600013280848e+03
6.362333671973755372e+03
5.978738349097650826e+03
5.500510467990264260e+03
5.307168120678847117e+03
5.583461003878896918e+03
5.610292707736101875e+03
5.430160951887812189e+03
4.520516963214216958e+03
3.177467917884314829e+03
2.068082321744296678e+03
-5.967536796716522218e+01
-1.977035074687971473e+03
-2.243694084797045889e+03
-1.573889603715986141e+03
-6.467342597422713197e+02
7.257799315126329702e+02
6.256762930932666222e+02
1.471963011263512271e+03
2.989630212340819071e+03
3.442717875314053344e+03
2.255246597852620198e+03
1.559273886976061704e+03
2.149773757724700317e+03
1.947716743349859826e+03
1.388099975121143643e+03
8.759915770356708435e+02
-2.963594932281519959e+03
-7.691592071858953204e+03
-1.247903038837543136e+04
-1.218087874458139959e+04
-1.105105793917559095e+04
-1.105059702482351349e+04
-1.154248104772253282e+04
-1.005766432325357528e+04
-9.617136886445265191e+03
-1.074193688119182843e+04
-8.485006987261238464e+03
-2.925160501580595337e+03
-6.393958096087426384e+02
-3.747298908443476080e+02
-1.852217407218453445e+03
3.819625952622116927e+01
2.277638724209211887e+03
-3.003827549905766318e+03
-4.129227304447406823e+03
-2.603508777615571944e+03
-4.985900943394635760e+02
-1.718399193498841214e+03
-3.974921097869865207e+03
-5.322111985251844999e+03
-6.131942228062174763e+03
-7.565385839709920219e+03
-7.467384499397323452e+03
-5.718897514675914863e+03
-5.528894580317613872e+03
-4.177327873581114545e+03
-7.341207248184125547e+02
-1.207167667390908491e+03
-5.424472526024533181e+03
-7.431981522888911968e+03
-6.965620373647552697e+03
1.246154088534228492e+02
3.488796116752864236e+03
4.296042924717036840e+03
5.604349359536169686e+03
6.796853336439846316e+03
6.217639919292792911e+03
5.056698349244978090e+03
5.440081354364460822e+03
6.355871001136230007e+03
6.078145421123464985e+03
6.348963325112656094e+03
6.865331930491258390e+03
6.170236762488196291e+03
5.202701080843787167e+03
4.276805963706892726e+03
4.092652527345480848e+03
2.382329950131784699e+03
6.378187832169830926e+02
6.112152152656094017e+01
2.623110576339239515e+02
3.559462192864883036e+03
4.146632889596469795e+03
2.460904060892587040e+03
1.762283244851380914e+03
-2.732076051563653891e+02
-1.613478370978335988e+03
3.225202290525601825e+02
3.260686294749717945e+03
5.567058239714311640e+03
6.614684257941732540e+03
6.595083379917430648e+03
5.574664798930011784e+03
3.222304407134568919e+03
1.206858893657763929e+03
7.303779606095653207e+02
1.571816587642291552e+03
2.247327104184091695e+03
2.478853624466058136e+03
2.139334282606193483e+03
1.589805500924623175e+03
1.670265123174166092e+03
2.703748627559188208e+03
2.301386861008999404e+03
8.681725197097589444e+02
7.755332971688776524e+02
1.692487973940309303e+03
1.788440837285269936e+03
1.111718646507381436e+03
1.422043204123055602e+03
1.549379756451237199e+03
2.176735971435325155e+03
8.859841655398282683e+02
2.469920760642898188e+02
5.125391932927007019e+02
-2.344263217972636326e+01
-8.699378700387480876e+02
-7.519880882579221861e+02
1.243181315716108593e+01
1.812675225750806476e+02
-1.305079521100128943e+02
-1.139101346613800843e+02
1.210903189615430762e+02
2.044276241833832444e+02
4.300964485990529624e+02
1.357050170587652701e+03
1.643300517854305781e+03
8.868041613014041786e+02
1.325121130451282454e+02
-7.258698086941288352e+01
-9.295413439045680661e+02
-2.288402455922924219e+03
-3.354186725309148642e+03
-3.126904248874885980e+03
-2.437662625348667916e+03
-1.599552001146598059e+03
-8.006116351028791769e+02
-7.128248378442277726e+02
-9.702132493357878502e+02
4.419016868118778518e+01
2.013533263821084063e+02
-2.807999317139939421e+02
-5.283219366846491312e+02
-8.622028542549214762e+02
-3.384824045406567734e+02
9.879060786915223957e+01
9.575750195398775304e+02
1.107786419504146352e+03
1.039412039562000700e+03
1.073394690259395020e+03
7.497009590674673518e+02
8.072317927856569213e+02
-1.550199991298357531e+02
-3.367140656258072795e+03
-7.147204240827407375e+03
-1.083625705265833676e+04
-1.075332559602453694e+04
-1.019745824946016364e+04
-9.790763341064490305e+03
-1.010631697692560010e+04
-1.025806421993921322e+04
-9.879030387507929845e+03
-8.083297651003124884e+03
-1.168882253425952513e+03
-5.788431750610768631e+02
-5.463421200116775935e+02
-3.681713161030771744e+02
8.554086917778595307e+02
1.712388192093388398e+03
1.677782542511258043e+03
1.865549464065284155e+03
1.930736640944387773e+03
1.735350008520317488e+03
1.741291793669887511e+03
1.697472964761915136e+03
1.664884938582635186e+03
1.433492707577410101e+03
1.161306941072867630e+03
1.358247124560049087e+03
1.707203992873990956e+03
1.199033778650519025e+03
1.339802339906525503e+03
1.740500064851983780e+03
1.548223823774213315e+03
1.366004102115689648e+03
1.742710781023004984e+03
1.716269494800357961e+03
1.300701188321906784e+03
1.768045786276486524e+03
2.672197429726466453e+03
2.757079839822482427e+03
2.144789569895116074e+03
1.303375531338844439e+03
6.007890573874459506e+02
1.032020414085209950e+03
1.551978603685465941e+03
1.292582904506872183e+03
1.126963810447152582e+03
1.050231826525901170e+03
1.452427192404647940e+03
1.575541310961845511e+03
1.546422825329219222e+03
1.407992673443357489e+03
1.699273932993668723e+03
1.461373973999702685e+03
1.398340594848702722e+03
1.526290116628864098e+03
1.468197464845907916e+03
9.800080899495775384e+02
9.107904131400897541e+02
1.086595817442057751e+03
5.114101423896395886e+02
-2.037283431033585543e+02
-1.857273639868616044e+02
7.424999423148801725e+02
1.066961715832434720e+03
8.896181122242099946e+02
4.594460963774687343e+02
6.535222636119401614e+02
8.868133895659053678e+02
1.036205504656038329e+03
1.409711895664538815e+03
1.618412085710337806e+03
1.649412040954937765e+03
1.457795106244987437e+03
1.792671979952442598e+03
2.233237417535694476e+03
2.063437200540100548e+03
1.351104666510669858e+03
-3.936412582446517717e+03
-6.444206460870160299e+03
-2.956653961026694105e+03
1.058199550888519447e+01
-6.804401889274711721e+03
-4.638553355819364697e+03
-3.477923382590386609e+03
-3.764893187329634543e+02
-3.477118444361205547e+03
-9.726124959580231462e+02
-2.561065082231474662e+03
6.445718272439603425e+01
-2.579113602769089539e+03
1.389150714797585124e+03
-3.546114587480439013e+02
-2.852327839015912105e+03
-1.859932801958758546e+03
9.816413863780512656e+02
