1.288737436933476374e+03
1.282354921049091445e+03
1.632754062473095928e+03
1.750970333473718028e+03
1.637195484609373807e+03
1.686440090181180494e+03
1.614635095478234007e+03
1.196775720496398208e+03
1.203796536287742128e+03
1.577770534719242733e+03
1.780798639801298123e+03
1.242980110033180381e+03
1.378527388052755668e+03
1.358503364222972777e+03
1.413870699533973720e+03
1.115510414838368433e+03
1.211424232143523568e+03
1.268690506407872135e+03
1.218247929453448705e+03
7.619676076083763974e+02
-2.210937501708735375e+00
5.338909599683387341e+02
1.043288121614199554e+03
1.267077735285776271e+03
7.394526516265592591e+02
3.723259456771889973e+02
8.116166695424961972e+02
1.058397945008495981e+03
6.597523808701633925e+02
7.786272017036781108e+02
4.929743462229749298e+02
4.388691449652297933e+02
4.193105282220738559e+02
5.751714514316810209e+02
9.585339094207852213e+02
6.494680910494654427e+02
-2.310876994716337549e+02
-2.239152807656540517e+03
-4.182623365643525176e+03
-2.518487695526735934e+03
-2.472726353936154283e+03
1.416625408670392687e+02
1.507247208758376757e+02
-1.615458436055422681e+03
-2.527875207592579500e+03
-5.885596859191950898e+02
-2.732402127442513120e+03
-7.533115611085002001e+02
-1.421642807387285359e+02
-3.439273242465945373e+02
-1.063817081659660289e+03
-2.919898722339863070e+03
9.690087123574377870e+01
-7.426333636991702747e+01
-3.769369176587329548e+03
-2.809375694270540862e+03
5.427286491082054454e+02
9.268980578699172383e+02
5.250992746638354447e+02
-1.082629838245777819e+03
-2.910191302874659868e+03
-4.685249181630877047e+02
-2.519682204508889299e+03
-4.226785134630965786e+02
-5.031374826885643614e+01
1.075396951067077680e+02
3.069429424908669830e+02
2.377982502579297659e+02
1.179761958706670271e+02
8.350187853459514997e+01
-1.155543225366314317e+02
-2.992364218243700407e+02
-1.595355622864887835e+02
1.634945779931759660e+02
3.289584347533988193e+02
-8.408133737900499227e+01
-2.706849003097453988e+03
-2.140291470452001249e+03
-1.131284825460396405e+03
-9.273358562691369400e+01
-1.560062893861885058e+01
4.320551676796575862e+02
8.881120292224127297e+02
8.314827684539197890e+02
3.942097069281064705e+02
6.063913625378677352e+02
1.631253536730881990e+02
-5.252947669890767912e+01
3.433490307452716479e+02
4.837930783233965144e+02
3.369839413091538063e+02
1.909142074514578553e+02
5.055342767614585142e+01
1.342731604697889907e+02
1.626938750994520149e+02
7.377511281075598504e+01
-1.765686157700626381e+03
-9.995654817298543549e+02
2.817615831207443762e+02
3.009877793151110836e+02
7.277642956536752763e+02
8.341732340432939736e+02
1.022938727113941468e+03
1.158650661497531019e+03
9.750456982224943658e+02
9.351868759019932895e+02
7.596342823357746283e+02
3.025118494153303459e+02
2.397684597441614471e+02
7.613016323886841974e+02
7.570765431193419772e+02
6.644856938852969961e+02
5.036526100652197329e+02
3.151825684350099550e+02
5.501350787369981390e+02
4.425297145252195037e+02
4.157277017995698998e+02
2.398860262504691150e+02
-1.580589594075456183e+01
3.237624568656881934e+02
4.875926355276253048e+02
1.071027296217401272e+03
1.446576941463105641e+03
1.390446636910792222e+03
1.108646766285362219e+03
9.512608185048861742e+02
6.810753749350714088e+02
6.961119848825161398e+02
8.215152875714933316e+02
8.880655271931111656e+02
1.100650684234260780e+03
1.145228712954002731e+03
1.334621940575730378e+03
1.254840688310059932e+03
1.050039514227277778e+03
1.344272305292821784e+03
1.012483213178445567e+03
9.606072523129652154e+02
8.716292258904049959e+02
1.205709327135057720e+03
1.447823215159189431e+03
9.088903205744165916e+02
3.677333579953375988e+02
1.043303996636249487e+01
-3.696248902976005724e+01
6.867283159924313622e+02
1.234455314012688177e+03
1.068113898934004055e+03
2.027255061413757460e+02
1.932422538111443373e+02
1.634909601208302774e+03
1.792858756176012776e+03
1.371740110351885733e+03
-2.043671450116683445e+03
-5.700352150607051954e+03
-6.174378884242800268e+03
-5.656881266899058573e+03
-6.013827024635893395e+03
-6.049145109868743930e+03
-5.884611590148633695e+03
-6.254063022364942299e+03
-6.664639351429015733e+03
-5.526600175049460631e+03
-2.052914813538202907e+03
9.631695288294905595e+02
-1.101438021262666780e+03
-5.489725536867068513e+03
-1.901666282579147492e+03
1.346834274580794954e+03
-2.534031223285342094e+03
-3.198290575728741715e+03
-4.372067124818628145e+03
-3.413265000034427885e+03
-1.370958528046080573e+03
-1.295096569553912786e+03
1.822373913935400651e+03
-5.995520600588583875e+02
-4.709450779137192171e+02
1.029019875253852433e+03
1.253447592920246279e+03
8.615090438726170987e+02
9.301888119541901006e+02
8.844434889081975371e+02
5.382811968516407433e+02
2.896041263659911351e+02
5.133707682661724903e+02
1.104718660819211891e+03
1.312792590455384016e+03
6.636042421408853897e+02
3.160447585824676935e+02
9.229079431928237227e+02
1.426453363095514305e+03
1.244949655909666717e+03
1.070369998217233615e+03
6.284129277467314978e+02
6.938186093575041014e+02
1.378617268946769627e+03
1.680188479417498456e+03
1.492738641707913303e+03
1.167263133635172608e+03
9.638184267073753517e+02
1.176587918640042972e+03
1.766360528781851144e+03
1.984850937865980313e+03
2.464911203371897500e+03
2.632581514660949324e+03
2.321869562554410095e+03
2.049755407093241502e+03
1.614202315656267274e+03
1.460165497655158333e+03
1.795586822196612275e+03
1.633962030897689601e+03
1.443532531917769347e+03
1.450515631084576171e+03
1.035497681371379713e+03
1.172928104905559621e+03
1.153925810037989777e+03
8.899407315529597327e+02
1.445706654129575782e+03
2.270191748262323017e+03
7.857337344265204138e+02
-2.375202901463181888e+02
7.582723235930352530e+02
2.330198801308928978e+03
1.499283242461493501e+03
1.292078960450751538e+03
4.927054965040603633e+02
-1.131799249386469000e+03
-1.775422926462274518e+03
-1.180429536793041734e+03
-7.373003439851831899e+02
-3.996724781249118337e+02
6.263471505488058000e+01
5.956085876968808179e+02
9.378837467612298724e+02
1.890554234859162989e+03
2.642814013254037945e+03
3.046934985215418237e+03
2.858829476533238449e+03
2.204670131297123135e+03
1.451336143369330102e+03
3.677454213437928843e+02
-5.899223350768480714e+02
-2.157891900276636079e+03
-3.151260035456829428e+03
-2.955941481145591752e+03
-2.322779102728275120e+03
-1.989713974526975562e+03
-2.065623985474847359e+03
-1.330757749839003964e+03
-1.404246619248315255e+02
4.275403295958066678e+02
-2.375515437690452245e+02
-7.796807528950673714e+02
-3.810802275393903642e+02
-1.108922788766129912e+02
2.769485403868406479e+02
5.294601815633659498e+02
-7.794748994003386997e+02
-2.635936243873290096e+03
-2.248712261666662926e+03
-1.137798651904406825e+03
-1.298204083439558417e+03
-2.065922428835273422e+03
-4.185049385288135454e+03
-6.622631937360338270e+03
-8.233562745330737016e+03
-9.093908502951682749e+03
-7.616680340116568914e+03
-4.886535706664091776e+03
-2.882535279335438645e+03
-2.364754796496995368e+03
-1.881886596736962474e+03
-1.300852442599635594e+02
1.097852259326031572e+03
3.527890236197337686e+02
-1.883823544239727880e+03
-2.502652807047970327e+03
-3.456462791965400356e+03
-3.341061820483276733e+03
-9.315642941704280702e+02
2.687100746350267855e+02
-7.145628825476894974e+01
-6.844115287206959408e+01
1.473361197981385430e+03
3.046848000433161360e+03
3.668171027733932988e+03
4.099738033099733002e+03
4.308258233342746280e+03
4.229448585537075814e+03
4.759051276785336995e+03
5.413978948512658462e+03
5.490412001956430686e+03
4.872895744245365677e+03
4.406776689088173953e+03
4.136894268801134785e+03
3.582107315927426043e+03
2.877566902977758673e+03
1.943726315612884946e+03
1.511546100059556466e+03
1.427404422974776480e+03
4.721740852068921868e+02
-1.086360327471914502e+02
1.004456082060268329e+02
1.836372499874818232e+03
3.705260908014121469e+03
3.384415822065936936e+03
2.144781979812647933e+03
1.369203953737617667e+03
1.318351640395579807e+03
1.533277363476020128e+03
2.115436515761743976e+03
2.606683093791029933e+03
2.400567668658809453e+03
1.280098559022162362e+03
8.142327881984883220e+01
-3.115198889484890401e+02
-8.557868389301340812e+02
-2.626535869910529982e+03
-4.345055644409044362e+03
-4.330825424063706123e+03
-3.005990352023061860e+03
-4.422946641036876940e+02
9.238322789204505625e+02
5.991723900823880058e+02
9.474658583971228154e+02
2.028647178318964734e+03
2.374612145661379600e+03
2.590578971617501338e+03
1.849715074629391438e+03
1.690078920711370756e+03
2.611828981557206589e+03
2.006039183740657563e+03
2.649205752080509342e+02
7.571140123602955896e+01
1.114893844480850703e+03
2.115612080735632844e+03
2.465150229916251647e+03
1.864286236254308051e+03
6.503599029907785223e+01
-2.232017804895757308e+03
-3.533559921715573637e+03
-4.044499267752629294e+03
-4.375648218839775836e+03
-5.595277272573835944e+03
-6.505172690897641587e+03
-5.344619896003759095e+03
-4.408388023269420955e+03
-3.289336817193312072e+03
3.868609263053292580e+03
5.742841520569124441e+03
6.102300275030886041e+03
5.814982110159993681e+03
3.574147891857790455e+03
8.946416998834720289e+02
-4.165638947604334135e+03
-4.085811753863227295e+03
-2.800912695847979194e+03
-6.188980560806739049e+03
-4.997210828450883128e+03
-2.300699634408323618e+03
2.519784009592312486e+03
1.032372197613995240e+03
1.013123958803820415e+03
8.588828829811221794e+02
-1.046362468677400557e+03
-3.881564050262442379e+03
-3.189558025868455388e+03
-4.571282631826161378e+03
-2.716894950389834776e+03
-3.169424441348831351e+03
-1.469777516446429672e+03
5.729353712842971618e+02
-1.305128176896753530e+03
-2.330873745336216871e+03
-3.080170216898352919e+03
-3.982617037298443847e+03
-3.006319897815901641e+03
-4.859724560404846670e+03
-2.655971472552217165e+03
-1.292035637440499841e+03
1.611152866755327068e+03
1.821547932905049493e+03
1.399434227281351696e+03
1.898910073083077123e+03
3.147112813270816787e+03
4.473189585073254420e+03
4.521613627800298673e+03
2.756152158021945070e+03
8.825042970659085313e+02
2.909361784691640764e+02
8.772983821578776542e+02
1.034549004020736902e+03
1.275474948050394488e+02
-1.238831939191460151e+03
-7.586152354536743587e+02
1.369660760693004704e+02
1.019445691785271322e+02
-1.720400526429732508e+03
-3.459154225490684439e+03
-5.084382284952372174e+03
-4.416101565818312338e+03
-3.939317975856738030e+03
-4.741160545638043914e+03
-4.837718445438606068e+03
-4.980896555104428444e+03
-2.476486840114474944e+03
2.912449838231954345e+03
5.357024076808823338e+03
5.320504673174761592e+03
5.959259590956111424e+03
6.074188769118445634e+03
4.293277617837275102e+03
7.345229482874304949e+02
-2.034187639495774420e+03
6.083587215306766893e+02
4.566021804246119245e+03
7.974532402262749201e+03
9.567572833095880924e+03
1.165748584654990009e+04
1.081216864045844159e+04
8.828728304140155160e+03
6.497706037313783781e+03
4.167141424897715297e+03
2.537064354649332927e+03
3.238836245542168399e+03
3.556997621478365090e+03
2.629221574005543971e+03
2.522291722229780589e+03
1.750944092744583259e+03
1.332184578209130450e+03
2.159426185911786888e+03
3.401545048918600969e+03
3.690447440763642135e+03
1.371709508404870121e+03
5.647166230062908632e+00
6.112784075147404792e+02
8.587839739828132224e+02
1.024961134021267526e+03
1.149920497451971414e+03
4.357245386403737797e+01
-2.088394596240376814e+03
-3.833060766822658024e+03
-3.299398004054143712e+03
-1.901358261313640924e+03
-1.943784565565587400e+03
-5.385804782254886959e+03
-6.016407601546865408e+03
-2.994250131786724523e+03
3.054288586858729104e+02
-2.325247021497303876e+02
-4.664138098257313686e+03
-9.661452825103702708e+03
-1.085034834094635880e+04
-9.670736513993171684e+03
-8.107763507887766536e+03
-5.909373206115962603e+03
-9.036040281852327780e+02
3.028443964813953698e+03
4.182751708039930236e+03
3.681390760432805109e+03
3.569375085601015144e+03
3.516687966744786991e+03
3.412335376174087742e+03
2.281279500860188818e+03
-4.794808894463700994e+02
-4.834955035153026984e+03
-4.030214409436910955e+03
-1.088188138004971734e+03
3.575048309746131508e+03
4.702491571211107839e+03
-2.517270360429199627e+02
-4.087541779548812428e+03
-3.342992879340528816e+03
-6.163127084811762870e+03
-9.617145227224558766e+03
-9.944092245063931841e+03
-8.417770468194281420e+03
-8.895002947454237074e+03
-7.667076442669857897e+03
-3.731052607045848163e+03
-1.230810228463257317e+03
6.036041270530150769e+02
1.967292204235880035e+03
9.043694921850875517e+02
4.157707425102976799e+02
6.541369144362116458e+03
5.834125456197850326e+03
6.714049158357418492e+03
7.937107802253770387e+03
3.640279123413732577e+03
-7.323916333909403420e+02
-2.932930873020352919e+03
-2.083412208563214790e+03
-2.462839931595938651e+03
-9.631256437005893076e+02
-7.621715357837163083e+02
-8.870295887252328839e+02
1.503224544364616349e+03
1.402531682849846675e+03
-5.368746645669453983e+02
-1.790826148705971718e+03
-1.458253550653507546e+03
-1.642398598254327453e+02
3.454935482262364076e+03
4.428248002083329084e+03
1.307587789998515063e+03
-4.848916604503402823e+02
1.848021714977873216e+03
5.138149161625776287e+03
6.652351617365938182e+03
6.607626473992555475e+03
6.616011655201944450e+03
6.878487987516430621e+03
5.843065747503505008e+03
3.800856960789210916e+03
4.084964051701161225e+03
4.258260899550441536e+03
4.540601840777351754e+03
4.865079955110596529e+03
3.404744436557829431e+03
1.228805806688277471e+03
4.443161320113849797e+02
-1.707744519213900503e+03
-5.636449441621910410e+03
-5.043029190036018917e+03
-5.403647437790470576e+03
-6.980275632848467467e+03
-5.001864813766607767e+03
-4.354469522803639848e+03
-5.752215709207773671e+02
2.177873883408551592e+03
-2.917071211014466371e+03
-5.209562791830219794e+03
-3.285655916960060949e+03
2.162629479746028665e+03
7.364066382438719302e+03
8.541407633694210745e+03
6.955680059408361558e+03
2.648585774852898567e+02
3.891462290388865313e+02
-1.759474811829026748e+03
-1.791151151697006298e+03
3.693079980303319644e+03
6.763237910383812050e+03
6.635357541366404803e+03
2.898424445013323748e+03
-2.933652914291215893e+03
-8.711866119117710696e+03
-9.103151191645147264e+03
-6.308488212346071123e+03
-5.627849104308997994e+03
-2.750248497871398285e+03
1.624357551725304120e+03
2.602983369997723457e+03
6.936558325595760834e+02
1.483344972564407499e+03
1.204020511016650971e+03
-3.000229819889971623e+03
-6.273421982548485175e+03
-6.566628371005933332e+03
-6.482033376563174897e+03
-2.800681222638665076e+03
3.975842990568515347e+02
5.458422878831405569e+02
1.632073978187621151e+03
5.662790683312130113e+02
1.252400348176513035e+03
4.933343727003226377e+03
6.507148850536027567e+03
5.839864708207073818e+03
6.241544343637167003e+03
4.146186074022741195e+03
-2.122766321484286607e+02
-3.277793075986287477e+03
-1.930276412740138312e+03
-2.561697972446456788e+03
-7.242236320129163687e+03
-9.857993969498837032e+03
-4.861061596181781169e+03
-1.987400734477120295e+03
-2.278968308514901764e+03
-3.659790522982734728e+03
-7.350956564147313657e+03
-9.118472130589956578e+03
-8.736361513607738743e+03
-7.247519283848128907e+03
-3.209040799291806252e+03
2.336969137640578992e+03
9.629623345854341096e+03
1.121603046790789267e+04
6.367070707215994844e+03
2.485584461314573673e+03
6.135649641464775641e+02
-4.723950283392622623e+03
-1.146390040778839102e+04
-1.236019544938145373e+04
-9.589787495005692108e+03
-4.103737340961692098e+03
4.899883798176389973e+03
1.272607470521588220e+04
1.199487615618294512e+04
6.568270263140024326e+03
2.503981473864788313e+03
-8.760773388631721446e+02
-4.346711289653683707e+03
-2.992329714986238741e+03
-2.319844299655519535e+03
-1.795295917882672939e+03
2.963385609363939466e+02
3.431470525790839019e+03
6.807961201461534984e+03
8.127205169125257271e+03
9.774906018281286379e+03
1.098988741857895366e+04
9.747513045195446466e+03
6.602326132346989652e+03
5.433117834395630780e+03
5.869646441105830490e+03
6.998368588586164151e+03
5.608178223796826387e+03
3.867071205631646080e+03
2.902169362540586008e+03
3.383476399958371530e+03
4.648674604788918259e+03
3.697147044529927371e+03
1.769429925437055545e+03
9.582120632642148621e+02
-2.306179468875028761e+03
-4.373742474201876576e+03
-6.108058567960993059e+03
-6.830550624570337277e+03
-1.377945003969603249e+03
3.840814455815802376e+03
4.472879729391672299e+03
2.959317384979706731e+03
7.276012992307337299e+02
-1.656239012411274416e+03
-5.590403547391347274e+03
-6.939745199200327079e+03
-7.202368254480085852e+03
-5.607020921609560901e+03
-1.611783312066315148e+03
-4.200764010040862559e+03
-1.140594378974821302e+04
-1.050318946486599089e+04
-5.928396809030482473e+03
-2.577634216761943662e+03
1.582960879295413633e+03
4.057462436782752320e+03
5.569005044636471212e+03
6.993613733711482382e+03
5.857131630238269281e+03
4.744542263565706889e+03
6.387918821140207911e+03
7.021420653467255761e+03
6.877074900290767800e+03
6.667949267561400120e+03
7.233909785087238561e+03
5.983971209812590132e+03
2.186210364418493555e+03
-2.428422897950130391e+03
-4.644879749461993015e+03
-6.698382920672672299e+03
-9.145244412380738140e+03
-9.244297707284471471e+03
-8.125362085640746045e+03
-9.637516627216367851e+03
-8.891613891343495197e+03
-6.896410522787347873e+03
-7.001774145066404344e+03
-3.714686518434507889e+03
-1.264503405416259739e+03
-2.690381462491803177e+03
-9.415353656380035318e+03
-1.123526317740997729e+04
-1.178116269683100472e+04
-1.050481844796461883e+04
-6.585106038245266973e+03
-4.552896192834919020e+03
-7.173126277551934436e+03
-4.564786485801604613e+03
-1.437000992754086838e+03
8.882917820382806440e+02
-4.176430569904598400e+01
-2.625211100914470535e+03
-4.101969318523564652e+03
-1.764037893636112358e+03
3.546512608644997272e+03
2.936660571608329974e+03
-1.412497694413732233e+03
-4.546858844507451636e+02
-2.790708669196231995e+01
2.598682561498150790e+03
3.652129506651477186e+03
6.705477099207935680e+03
9.148792351911026344e+03
7.954240112174146816e+03
5.959935305499418064e+03
4.516899553524713156e+03
3.205967027443793995e+03
2.937065615383935437e+03
1.056307091961896504e+03
7.107027595077302351e+01
4.075235588212152379e+03
5.197478550963082853e+03
4.520726604378532102e+03
3.018244704672823900e+03
1.148412332807931307e+03
1.489409897725614883e+03
3.112045567037034743e+03
2.685154148026566418e+03
2.891690922833506647e+03
2.822590399663476092e+03
1.899575789435925117e+03
1.129616581698890968e+03
1.030919840741755706e+03
1.662601959956698920e+03
2.122668854541163000e+03
2.384167267291052667e+03
2.268137302433055538e+03
1.949671333068775766e+03
1.777913827785831472e+03
1.229147128580864546e+03
1.152023423173108540e+03
-2.478432849408491023e+01
-1.291625642090459905e+03
-1.437230299456903595e+03
5.220206808454197756e+01
1.355801832081010843e+03
2.164224624206992303e+03
1.360726733759643821e+03
2.834014855209979373e+02
-8.528976282519544156e+02
5.367003459828069936e+02
5.324263556007158513e+02
7.712592797125653306e+02
3.136475475376680606e+02
-3.265293419229871574e+02
-4.074676094150325980e+02
-3.575936578662788889e+01
3.636410499321618772e+02
5.274444281929731915e+02
2.394128194954742241e+02
9.086057476938943012e+01
-2.371901025508635712e+02
-6.907601183211626221e+02
-6.365375896737779158e+02
-1.476920094285423923e+00
-1.876515042755417824e+02
-6.832741975456536920e+02
-6.432797159355316126e+02
2.171004068795481032e+02
2.709295374119200801e+02
-1.407774215724251007e+03
-4.617258277974508928e+03
-6.423362640581422056e+03
-6.006949161173673019e+03
-3.172073090647324079e+03
-3.485919720443700243e+01
-2.284106547880703886e+02
-1.224984390311870357e+03
-3.079446833560501545e+03
-2.382428907084495677e+03
1.240979880087763604e+03
1.919410070993292038e+03
7.456858464996463454e+02
2.778805324381427795e+02
2.160909663119468576e+02
1.143289859021011807e+02
9.752871240732146418e+01
-2.042140793645920098e+02
-1.658772487774989770e+02
4.153302088696609076e+02
1.174687755225138233e+02
-1.794430653190989347e+02
-6.494761347997335861e+02
-1.045124463983387670e+02
3.725866988465367626e+02
1.115708586768301984e+03
1.588927187364613928e+03
1.689433762335233496e+03
1.582895491962201277e+03
1.835302902985373748e+03
1.630733198882466240e+03
7.269297225726198803e+02
-5.571279584452636300e+02
-2.436758442559705600e+03
-5.432955629204445358e+03
-4.205098315664059555e+03
-1.980384703870580097e+03
3.782462947579087142e+01
4.701715037952918124e+02
4.636204347162029080e+02
6.050783298892257989e+01
-2.444064140868363666e+03
-2.332718799407184633e+03
-4.178714588822049905e+02
4.476216931186689294e+02
2.876221471292534488e+02
3.266625125760928654e+02
7.538312868034598750e+02
8.072519304291367916e+02
3.132530909294790717e+02
1.370938832543938872e+02
3.148432787543503650e+02
-2.486885810915656592e+01
-2.331412827619001504e+01
-9.837454184711936023e+01
3.274781388562075790e+01
9.181189283189401351e+01
1.050041296232398906e+02
1.115946426959940538e+02
6.537901712234983620e+01
2.224788967335945813e+02
4.813274625666090287e+02
7.038173674867310865e+02
4.247698815100434899e+02
2.061203143003000946e+02
3.646451271087628498e+01
-2.171968279654000753e+02
-4.946538266151663379e+02
-3.704335065685803130e+01
1.678466609629518018e+02
-2.860942613694797387e+02
-1.041379674922909118e+02
2.308292111327857015e+02
3.399562617820615742e+02
1.702284251177336785e+02
-1.811949514993649473e+02
-2.608619626163960703e+01
-1.104038891358302692e+02
-5.639795179638426958e+01
-6.658304726550047690e+02
-1.032401675272623152e+03
-6.082392368582459312e+02
-5.088970940123021336e+01
-2.623047594219090115e+02
6.971713397841364213e+01
4.643178984645807645e+02
4.857830900590534497e+02
3.100728675976547493e+02
6.830340509301397560e+02
5.194848501004698846e+02
3.482594209274841432e+02
3.152299199200833186e+02
4.530807672247240703e+02
6.041758416404011314e+02
2.401190156404724689e+02
1.838924265977940706e+02
3.674973379966000380e+02
6.223552348677850432e+02
7.966883299165147037e+02
8.070940822115757101e+02
8.072967640136810132e+02
6.880228754260156165e+02
8.998956832923420279e+02
8.338403150973409765e+02
8.395280804672514705e+02
-4.836056285052841872e+02
-3.128552354657702836e+03
-2.880233113353763656e+03
-1.324845456018587981e+02
2.883496875474564831e+02
-9.556427262025499658e+02
-2.770435633658010374e+03
-1.488142043661375283e+03
-2.922913540727321106e+03
-2.648825210611659713e+03
-1.267686626474512195e+03
-2.174869227869926647e+02
1.106824258756511426e+03
1.298446664137267362e+03
1.063565202784742496e+03
1.021141988888452374e+03
1.190097576605244740e+03
1.513382540414303094e+03
1.902265870588948246e+03
2.092859100426750047e+03
8.180976323823182383e+02
-1.601082300004228728e+03
-1.379743628788757860e+03
-3.977684266748757636e+03
5.612671977381985471e+02
-6.468987734820267406e+02
-1.072955455402857979e+03
2.080939003182638771e+02
-3.719758112486910250e+03
-4.633505909140993026e+03
-5.328634913268080709e+03
-1.717189959479051367e+03
6.901105529139607597e+02
8.804440535090038793e+02
1.243981717967486247e+03
1.255766143971883366e+03
8.699850401599388761e+02
-1.917497864830859271e+03
-7.517134042693453466e+02
6.962206562323997332e+02
1.431018007697108487e+03
1.369174035179321208e+03
8.552067110032693336e+02
9.895409777397147764e+02
1.192819341006481409e+03
7.110935605819896637e+02
7.131944265944308654e+02
1.273173412938119327e+03
1.400084619004179785e+03
1.131928074865952794e+03
1.109867858532684522e+03
1.089967000911158948e+03
9.370029123366773547e+02
5.469493965401013611e+02
5.149048933178326024e+02
8.401036807006021263e+02
1.282345658302174570e+03
1.310703039652836878e+03
1.110212520966670809e+03
1.303162584036616181e+03
1.473680858460632408e+03
1.376973757684970678e+03
1.248265125958943599e+03
9.589404216995045545e+02
-4.919733410751057789e+01
-1.810798852704500206e+01
8.300570647386408609e+02
6.844150695963516000e+02
3.761974826258909275e+02
5.892777001921410829e+02
7.145499458311752505e+02
4.879561593305562042e+02
7.586599860417647960e+02
1.011658819324062847e+03
1.140062907632137239e+03
9.306686054818843559e+02
1.043383581671901993e+03
9.490671799753164350e+02
7.288182603915292930e+02
7.054275581348442756e+02
8.528532177083770875e+02
1.196717652773508689e+03
1.366389762829533538e+03
1.419130811432967903e+03
1.287932507706010938e+03
1.127403186260197799e+03
9.413896265559832273e+02
8.011016440243936358e+02
9.385197109645449700e+02
1.163254604768141235e+03
8.664936516143106928e+02
4.509607358909029244e+02
8.377557300330845180e+01
1.567341833283486494e+02
6.936739820415824624e+02
1.006887627648513103e+03
1.200392964210921718e+03
1.064104170169041936e+03
7.390259643625580566e+02
1.440561444151384762e+02
1.663055379248509951e+02
7.026884187554269374e+02
8.427762603388695197e+02
8.987425952574488974e+02
5.486738727155911874e+02
1.335752721528087079e+02
-1.225025835294732417e+02
-1.086968182196758761e+02
-4.209702469181340234e+01
1.638190203976275683e+01
2.005829876406540677e+02
4.354924825440771201e+02
1.532122568226579062e+02
1.437223207655498527e+02
-2.400491053969709867e+02
-5.781709943926128972e+02
-5.546265554532186570e+02
-2.734690718297312628e+02
-1.547442126533280202e+02
-5.533798660911758134e+02
-4.006029503159381777e-01
8.261977717360483666e+02
-3.863212679361833324e+01
-3.354822201211240099e+03
-7.063308495925799434e+03
-7.845194837926279433e+03
-7.160626906037684421e+03
-6.693631252014331039e+03
-6.813216147572949922e+03
-7.339264988138842455e+03
-7.196691195437919305e+03
-6.607541408623753341e+03
-4.549931896311993114e+03
-4.781071636687358506e+01
1.645755598189271723e+03
1.485805534198750593e+03
-1.659639032331675708e+03
2.873941159260140807e+02
8.258322952565060859e+02
-2.242320891756235596e+03
-1.207036539036924523e+03
-2.181279773155876683e+03
-1.201061382259111042e+03
5.636278250233743847e+02
7.598152353977678786e+02
4.264732376851894742e+02
5.935793122627364937e+02
1.186214427766236440e+03
1.819377610061948417e+03
1.801990120772035425e+03
1.737021458734936232e+03
1.820552528183180129e+03
1.777730836711875781e+03
1.840731379328321054e+03
1.818515968321068613e+03
1.572938940623326744e+03
1.406768651651115761e+03
1.337938049651092570e+03
1.184715609433478448e+03
9.142167648342451685e+02
1.284512576991854758e+03
1.547423383402096078e+03
1.594732038478530740e+03
1.345571576970478418e+03
1.107143938745095966e+03
9.614388796558448576e+02
1.305416200366827525e+03
1.419128932223954735e+03
1.684608452520066294e+03
1.051893918592704267e+03
-1.270736861347523075e+02
-5.002998480492701674e+02
-1.946918597391848778e+02
-3.812512467306950157e+02
-7.828921102862384487e+02
-2.976581569288103992e+02
1.684549013491310347e+02
2.154138455160144474e+02
5.242514700743191725e+02
1.112008398808007314e+03
1.096772823938283864e+03
9.504927234092572235e+02
1.545121955908113932e+03
1.307724807960933276e+03
9.673382634063275418e+02
8.023613886115966807e+02
7.490023797759977242e+02
2.209619832232567944e+02
-6.258676915884493610e+02
-1.498233402618330729e+03
-1.521151188433579819e+03
2.593876304149830503e+01
5.563221133454670735e+02
-5.761747555569157697e+01
1.207684186449770749e+02
-1.574886074184533697e+02
-1.793380191042847400e+02
3.251650910098846339e+02
1.047998660416084476e+03
7.821126660564607391e+02
7.445627371596482362e+02
8.664332780050194742e+02
5.787116188799874408e+02
2.523598871758691757e+02
1.004582888527638715e+02
-2.204688961181832596e+01
1.058916930971896022e+02
-2.967604801646733677e+02
-1.030993130936035413e+03
-1.358764564525526794e+03
-1.790108817132426793e+03
-1.635990222097729884e+03
-1.584020985861166082e+02
1.976274391009707756e+02
1.006074918385078149e+03
1.607029978300207404e+03
1.205477488395288219e+03
1.227400793296841812e+03
1.365818045127111645e+03
7.667725724602138371e+02
6.061513574336398733e+02
6.599880516259520391e+02
7.333085261017720313e+02
7.610856066375403088e+02
4.043400655240562287e+02
7.360625071388511742e+02
2.042362795502669996e+02
-9.011287111759324944e+02
-1.557081521189282512e+03
-1.477607205087961574e+03
-2.177192026003736771e+02
1.976442686876213486e+02
-5.953173900325533907e+01
4.676826550485405960e+02
4.142266623878851419e+02
-1.698740722919843336e+02
-6.036566699728166441e+02
-6.401331509464715737e+02
-1.473106332628593975e+02
2.448203053487899297e+02
-6.348307650698196767e+02
-7.472226005015412511e+02
7.764609255985608627e+01
5.878685166897228953e+01
-2.468964860992918489e+02
-8.843621461552798735e+01
-8.247154792119100648e+02
-7.738140893795313104e+02
1.620948043830507146e+01
4.923272058191213887e+02
3.705395409371334381e+02
2.948005916381937368e+02
1.611304913933818170e+02
2.414845009444595405e+02
-5.619750672960786630e+01
1.581031529148937409e+02
-3.357623040365372447e+01
-5.811629001271428479e+02
-9.905840164416176776e+02
-7.480618643044808778e+02
-7.618361717093154084e+02
-4.347630464296295258e+02
-9.074510157399579668e+01
4.011678957508335657e+02
2.937731867206180141e+02
-2.166660413872835704e+02
-2.730644140204061614e+02
7.125061007985597428e+01
6.204110651864117472e+02
8.730878955461025726e+02
5.064648538941424363e+02
5.326106941809492810e+02
5.882844830183668137e+02
4.265494478095521913e+02
7.215654714622888832e+02
1.356129443818928621e+03
1.210213124407294117e+03
1.183914569826051093e+03
9.073556995871704203e+02
5.553366107288148896e+02
6.070881698123167780e+02
9.590058490294038620e+02
9.133454305491494551e+02
9.902504920079978774e+02
4.347684344729101440e+02
2.591069871419718993e+02
3.578606683363472598e+02
8.431374554412866473e+02
8.976267537771506113e+02
6.374083523923134180e+02
1.106598001617858927e+03
1.176285951365721758e+03
1.043276381650248595e+03
8.095735925973045823e+02
8.703374338765383982e+02
1.383274403442451558e+03
1.267445184536114994e+03
9.219404084186766113e+02
1.206936988534836701e+03
1.371258828786125832e+03
1.304775516650054897e+03
1.720431057694877836e+03
1.758538273084725915e+03
1.548921900480583417e+03
1.475518074551613608e+03
1.627349445978161384e+03
1.255452109572154313e+03
1.312836109334757339e+03
1.288506147796839514e+03
-1.558001869651139959e+00
-1.101335082550458083e+03
7.631891617177045646e+02
1.158002994404044557e+03
5.440613437805338890e+02
-3.403606339883359851e+03
-6.468973755068258470e+03
-6.792071579307860702e+03
-4.515851000075446791e+03
7.927633165504829549e+02
1.157790099567918560e+03
5.321802676691104352e+02
-2.515920461011065527e+03
-5.986618284188843063e+03
-6.666994131347655639e+03
-6.005899798835623187e+03
-2.356351182079657974e+03
1.037643920591349570e+03
6.061571247417344921e+02
-4.546812614339879474e+03
-6.601316903186650052e+03
-6.164337033980564229e+03
-6.005841749231185531e+03
-2.924798164169319080e+03
-1.847187739587896203e+03
-4.010956276353053909e+03
-3.487059579186052815e+03
-1.527522431682343040e+03
-4.245338131647013142e+03
-5.469505404490157161e+03
-5.238991462785026670e+03
-3.980759027934762798e+03
