3.326570777591684418e+03
4.246362651416921835e+03
5.105692744044940810e+03
5.617249407070783491e+03
6.291022473257108686e+03
6.878675456913296330e+03
6.798971611654691515e+03
6.231997115098878567e+03
5.974822969598752934e+03
5.486269603515896051e+03
4.490341552603395030e+03
3.372960583781810328e+03
2.451389484586461549e+03
1.692395407418219065e+03
7.949057106254376777e+02
4.297700225655515283e+02
5.669474369277018013e+02
9.404875770185288957e+02
1.938399451342681459e+03
3.518674091318509454e+03
3.667232100953020563e+03
2.393922193609235364e+03
1.079426989251493978e+03
5.007762755716451011e+02
6.803312059219857701e+02
7.064004395762534614e+02
6.344716191235929728e+02
6.515576435507432507e+02
-1.291451204344237567e+03
-2.944445062258386315e+03
-2.770242652046926651e+03
-3.117095984341031453e+03
-4.181976360306662173e+03
-5.492834789295538940e+03
-8.029781114855774831e+03
-9.378752356044882617e+03
-8.639826512683654073e+03
-5.934036268818287681e+03
-4.686301686101556697e+03
-7.168541764835307731e+03
-7.896009574460405929e+03
-3.453816472279740537e+03
1.083441916538907179e+02
3.399272143344144865e+02
-2.405348876756688242e+03
-4.032393972399720496e+03
-2.679815372996200040e+03
5.253370640422357383e+02
2.495074794568403831e+03
2.339347912853456364e+03
5.600154643000321357e+02
-2.033956821252230839e+03
-1.077583006073420393e+03
-1.041813742092896518e+03
-4.340546108035672660e+03
-7.330699604814747545e+03
-1.241317038345499350e+04
-1.883978599788288921e+04
-1.633737109811566552e+04
-8.415904571520281024e+03
-8.490287622087349519e+03
-9.344383726112811928e+03
-5.346013803781841489e+03
-6.116050251025957550e+03
-7.879423484721785826e+03
-6.917977437560610269e+03
-9.668569321617253081e+03
-1.325015229764756259e+04
-1.238565235513581320e+04
-6.505960419680313862e+03
-4.139665555371047958e+02
-5.885873976779024588e+02
-6.007753852354098854e+03
-1.087934059525841258e+04
-1.915413172749220030e+04
-2.095990780168498895e+04
-8.617488037790400995e+03
-1.852786801291734264e+03
2.707136629959909442e+03
-1.796368517698694802e+02
-5.074929565814524722e+03
-1.620544987231388859e+03
5.254633352074183676e+03
9.896808978600662158e+03
1.057414510637096828e+04
1.151472847672693752e+04
7.328584827214130200e+03
1.816791419018647275e+03
3.747539923856380142e+02
-9.350447587085972145e+01
-2.513933858021573997e+03
-6.436438760776622075e+03
-1.056693095422914485e+04
-1.597128857443138259e+04
-1.331041093110250767e+04
-7.550155433070574873e+03
-1.018641708209522221e+04
-9.316065182614267542e+03
2.016022365572440776e+03
2.098396461412875215e+04
3.026292412573482216e+04
2.379302257750378340e+04
2.101240617466373442e+04
2.057416385615648323e+04
1.894443832159204976e+04
2.100735039262320788e+04
2.322898558617512754e+04
2.162444881865745265e+04
1.715780031778687407e+04
1.338013222059740292e+04
1.234249361503393084e+04
1.176691354432946719e+04
1.457846113220067491e+04
1.840728661330580871e+04
1.878141812559518075e+04
1.777183486820605685e+04
1.428661022678852169e+04
1.045184912592028195e+04
8.341617982558238509e+03
5.565012099013159059e+03
1.979116240130358619e+03
-1.993984435186675000e+03
-2.749234638142286713e+03
8.484199926827416220e+02
3.683073251971395621e+03
4.146778587638075805e+03
5.604512311306340962e+03
3.030305459040267124e+03
1.599199643906498750e+03
1.702170112152940419e+03
1.243249433728415170e+03
1.283376768604851804e+03
1.461591932842964525e+03
-2.446067278154910582e+03
-5.197696824511936029e+03
-2.029294165824149104e+03
-8.667735451648483149e+02
-6.209434122664337252e+00
-2.166188436088115452e+02
-1.577960646882630044e+03
-3.123207652594668161e+03
-2.707307725086423943e+03
4.307390026851332436e+02
1.389772737186865925e+03
-5.663736491939913549e+02
-3.110393711056271513e+03
-6.360069051541726367e+03
-1.043727266782110382e+04
-1.282133808947642683e+04
-8.494425267085276573e+03
-2.438739115634227346e+03
-2.273140936838937250e+03
-2.835779708295144246e+03
-2.463883636856043267e+03
-2.368591266696274488e+03
-5.082899606797760498e+03
-4.944848989609615273e+03
-5.635556559353379271e+03
-5.449120303425532256e+03
-5.617508082744964668e+03
-5.591816269983173697e+03
-5.269102507275412790e+03
-3.007375185302525097e+03
-1.099691416790680933e+03
-2.271148248904217326e+03
-3.547795161333887336e+03
-2.883737705808804549e+03
-3.142025500729316263e+03
-5.720824884606434352e+03
-8.592188834581169431e+03
-9.509224658262937737e+03
-1.054005756861751615e+04
-1.052576173434369412e+04
-9.754481619220732682e+03
-1.286431564167768374e+04
-1.260635815754880059e+04
-9.392670091485782905e+03
-6.886385679495855584e+03
-6.097631166240621496e+03
-5.426459788856209343e+03
-4.803903027722933075e+03
-4.364007505020121243e+03
-2.732915506870803256e+03
-6.607224237267880653e+02
1.080586697116704954e+03
2.492902446957016309e+03
1.811773663616248484e+02
-3.487482694091051485e+02
3.150305379163398243e+02
6.964187831342862864e+02
-7.270766864173177169e+01
-2.094449447385641747e+02
-8.188804567246602346e+02
-1.107087308994540081e+03
-2.262184430577029616e+03
-3.112234655472012491e+03
-2.840320246175996999e+03
-1.992547948231441069e+03
-1.114968895717712030e+03
-1.626595653336499254e+03
-2.936503536941272159e+03
-2.217773491370702686e+03
1.070603340349098744e+03
2.973559551826039751e+03
4.852995247901079892e+03
6.262906504661866165e+03
5.244215357489733833e+03
3.742812299240113134e+03
3.750641347992868305e+03
3.324641478626709159e+03
2.921725330655326161e+03
2.563786131138114342e+03
1.661787188958242723e+03
1.180696203402226729e+03
1.090480042606196776e+03
1.563010564365836672e+03
1.699537670520384381e+03
2.070905008273840849e+03
2.617798849369301479e+03
2.539624248015735247e+03
2.304008903478300908e+03
2.771054845489486979e+03
3.755681086297042839e+03
4.343799098064625468e+03
4.125635412735163300e+03
4.232029227399934825e+03
3.954216283537222353e+03
3.888015450702543603e+03
3.215388431097440389e+03
2.636191919516525559e+03
3.086436473130589548e+03
4.060088034002528730e+03
3.050062004912998873e+03
2.504535201600860091e+03
2.699042474786856928e+03
2.613943919016337986e+03
2.337868703294812804e+03
1.393025605504113400e+03
5.687394814597113282e+02
5.326380848224616784e+02
1.016014970376093288e+03
2.108459518732363904e+03
3.085376589830987541e+03
4.482167702014085990e+03
5.556471630825630200e+03
6.998132801952071532e+03
7.665249046546904538e+03
6.043966896059752798e+03
4.637229664302967649e+03
3.518884656527142852e+03
2.170140521588717093e+03
1.885415130851936638e+01
-2.719802011891218172e+03
-4.163817304492015865e+03
-3.834475026690969571e+03
-4.659665776529282084e+03
-4.197335841917447397e+03
3.084792064382535273e+02
4.221833713198570877e+03
5.912929591221365627e+03
8.157656516709983407e+03
7.832994716003151552e+03
5.591986341695222109e+03
4.430699658823303253e+03
4.548267423985583264e+03
3.764661372177176872e+03
2.600937488961293639e+03
-6.538335317371205520e+02
-1.434616117789257260e+03
-2.970450625906225923e+03
-4.096046599358707681e+03
-4.968447451928816918e+03
-5.722735023494132292e+03
-5.649851436870494581e+03
-4.845790438124658976e+03
-3.711696023518783477e+03
-3.316644512379809385e+03
-4.109589266190348098e+03
-4.561323828904771290e+03
-4.245705400458640725e+03
-3.018729561098991780e+03
-1.373699883409068718e+02
-1.961528809184704187e+03
-2.852138023502549913e+03
-2.592378531050656420e+03
-2.530110050544361457e+03
-2.869983252899452054e+03
-3.670261765743201977e+03
-3.561811000887360024e+03
-2.544597184563510837e+03
-2.950569847746279265e+03
-3.194534560547348519e+03
-3.389605960009686896e+03
-4.269045823550311979e+03
-4.996059219540306003e+03
-4.080538465117817395e+03
-2.976044858076616038e+03
-5.350689586428694383e+03
-6.900890769890806951e+03
-7.677521028999830378e+03
-7.066291324961754071e+03
-5.941847276532036631e+03
-4.689278567450027367e+03
-2.537975675449709797e+03
1.275830288787718018e+03
4.610253295767539385e+03
5.333471078254506210e+03
4.864630680299699634e+03
4.368924020807323359e+03
3.747011904986311492e+03
2.549798083579315971e+03
1.267642476653203403e+03
4.707355814322183392e+02
2.793216639765461764e+02
4.365560284365064376e+02
2.587735601137246135e+02
-6.565572377388289169e+02
-1.489887124351384273e+03
-1.424168892228232380e+03
-8.346906298928445267e+02
-4.041864051659401298e+02
6.954143343161115354e+02
1.951958530034047499e+03
2.716798278403920449e+03
3.146031129489365867e+03
2.766383545906969175e+03
2.546382224055452753e+03
1.914845790442723683e+03
3.351388125038628232e+02
-1.530274605367761069e+03
-2.931317145820821679e+03
-2.582607908092085836e+03
-1.065669821348966764e+02
2.329512562037783937e+03
2.140963734292826757e+03
1.021794204979483993e+03
6.154885870471753151e+02
8.163613907431698635e+02
8.008595078383222017e+02
1.433690813018828067e+03
2.547830022113388168e+03
3.542515297380210086e+03
3.320723818372919141e+03
1.108841120958702959e+03
2.327052830718089353e+03
2.933305355244048769e+03
2.794687132558186931e+03
2.551311154116687703e+03
1.863260142259289069e+03
1.381534830662434160e+03
8.582482310713763809e+02
6.558023156071017183e+02
3.570205136468375713e+02
-1.675987975746250243e+02
-4.705013183945922037e+02
-4.174237020569045740e+02
-5.710965518165176036e+02
-7.532646475203742966e+02
-4.418195529211755570e+02
-3.029273198988409490e+02
1.132034121853648578e+01
3.970530618059402173e+02
8.579422727805305158e+02
1.673977204535838609e+03
2.063429220594498474e+03
2.103515715687278316e+03
2.196318070715863087e+03
2.052680442765888529e+03
1.538600439751395243e+03
1.056802975549069743e+03
5.931379564600407548e+02
3.177863172042702331e+02
-2.551437481257691502e+02
-8.284044080205876526e+02
-1.174957114758017042e+03
-1.316989381405224094e+03
-1.470384821857035604e+03
-1.401822191759727502e+03
-1.248135470605237970e+03
-9.455632705751162348e+02
-5.555129817698785928e+02
1.719745414033080806e+02
5.560299145782180403e+02
1.047589838321961452e+03
1.442066269723909272e+03
1.471397229506654867e+03
1.737422702989609888e+03
1.204031450075409339e+03
7.201711061732331700e+02
5.878356921852678170e+02
2.724069730970838350e+02
-3.820814488920374856e+02
-5.901876156752214229e+02
-9.008904850884215421e+02
-9.851393144527185086e+02
-1.291910036992129562e+03
-1.250141384239343779e+03
-1.456693950019885278e+03
-3.232622030065927447e+03
-5.443232853538828749e+03
-6.329551782326317152e+03
-6.062344474288389392e+03
-5.405502223590310678e+03
-4.741786251815447031e+03
-4.463056842977605811e+03
-4.207510789743526402e+03
-2.498781123504768402e+03
5.089932476848488108e+01
1.271904990839826496e+03
1.083210018508800204e+03
1.627404012656037082e+02
-3.049599795406786740e+01
-2.193121283187689414e+02
-5.549416470316698451e+02
-9.033176233621966276e+02
-8.954411257889375975e+02
-9.443077224753437804e+02
-1.160021909954229614e+03
-8.435821898433583783e+02
-3.761276637176064241e+02
1.722470450985904620e+02
6.088060342885704586e+02
7.016640502097994840e+02
1.867653031142487862e+03
2.043747397294983330e+03
2.223068131476691178e+03
2.175760332839180137e+03
1.669721348083850444e+03
1.472909470265489745e+03
1.377191152035096593e+03
1.164450251146663277e+03
7.169635568484092119e+02
3.414902562746313492e+02
-1.612494968270271727e+02
-4.542630263603996355e+02
-5.574798919106694939e+02
-6.948919867126469398e+02
-5.514879474191573081e+02
-2.922669603677530290e+02
-1.103213638894381461e+02
2.572864302223367190e+02
8.065967993832612137e+02
1.490588089204996095e+03
1.881505360824424770e+03
2.249230396870948425e+03
2.615684248681797726e+03
2.229920857743250508e+03
1.592011835535305408e+03
1.013946166546417089e+03
6.398106810625131402e+02
9.950141408772560681e+01
-4.029584070166193897e+02
-6.485697964680240375e+02
-9.423401907546264056e+02
-1.514334254399846259e+03
-1.419598543395657089e+03
-1.472974890155769572e+03
-1.424374852560379850e+03
-7.769076004762578123e+02
-1.868527693874539750e+02
-2.681067903584980172e+02
3.524567858424381939e+02
8.507474229556057708e+02
1.178052546299378264e+03
1.133548860616107959e+03
1.095085546676888043e+03
9.436816530108156940e+02
7.473744584498614358e+02
3.271714223938848249e+02
-1.138281484033550015e+02
-5.326760360913634713e+02
-2.614456501166546786e+03
-2.650158316239829219e+03
-1.618641205119728284e+03
-3.830928890190457423e+03
-2.663060565994225726e+03
-2.862952007950608731e+03
-9.885001510410355650e+02
-1.632753753189834242e+03
-2.969743587969031523e+03
-1.117380356148647934e+03
-1.166499293037921234e+03
1.232926064000957467e+03
4.193132927983260316e+01
1.018562867362163843e+03
9.249197999971257786e+02
2.694030614801293268e+03
6.508302280671201743e+02
1.006277523021457682e+03
1.382564151923449117e+03
-1.431313523249452373e+03
-4.784109119471802387e+02
-1.440652569011054538e+03
-3.079958660252426398e+03
-1.303272686128514579e+03
-1.482547654534682351e+03
-2.124739209229369408e+03
-4.487851917346441041e+03
-4.957927600272328164e+03
-1.259896758429254987e+03
1.772977463179552728e+02
8.916534704162270373e+02
-9.098599783430884145e+02
6.238764755787688046e+02
2.932091517224832387e+03
5.988387370518141779e+02
7.091319260170606640e+02
1.324027435064882866e+03
2.804669826634000856e+03
2.685178260313008650e+03
1.675463284439694917e+03
6.014141902104274777e+02
-5.080518009373416533e+01
-1.225280186114254320e+03
-1.982374419679360471e+03
-1.861074791369455568e+02
-8.632020411420504047e+01
-3.100605617601773361e+02
-3.271225575195830970e+02
-4.841801468448304036e+02
1.568205582267013369e+02
3.447972332596472711e+02
5.788256568092440375e+02
6.619155604460427185e+02
3.812400118283078996e+02
-1.120439071803134084e+03
7.051829410618526026e+02
1.596284192221297872e+03
1.545922005505834704e+03
2.467011987862360456e+03
3.703467522873623238e+03
3.708259499979912562e+03
3.238314809760005573e+03
1.506690101981970884e+03
6.258245076099629500e+01
-5.811785177636714934e+02
-1.222609135213977197e+03
-1.277732227809354526e+03
-4.607019389011430803e+02
1.090999621622354653e+03
1.413250903132768599e+02
-1.955138190367501693e+03
-1.002194371466472518e+02
-5.276937267990700775e+01
1.047328348717665676e+03
1.629861339397218444e+03
2.204734822373261068e+03
3.578123872933744678e+03
4.226010873967904445e+03
3.307364977947792340e+03
1.661217204692758969e+03
-1.894429476506254559e+02
-8.207550369717476997e+02
-1.975750020296393132e+03
-3.369043011145454784e+03
-3.333723873145856487e+03
-2.522114138898883994e+03
-2.671962503305124983e+02
1.769122773427410948e+03
1.866877267081819582e+03
1.236610051600599718e+03
1.289065539488399736e+03
1.632495885071245766e+03
1.918962575290754330e+03
3.383481914288443477e+03
3.994013189406242873e+03
2.349543221396384070e+03
1.095123080887080960e+03
1.598718469091076258e+03
2.195321077373534536e+03
1.989891863922110360e+03
1.623358454675864323e+03
1.161679152804551222e+03
7.009371553388835991e+02
-2.269005898298996726e+02
3.800491385013070840e+02
1.166939663765185173e+02
-6.989106042805425432e+02
-9.888766636067875879e+02
-6.672604115548034542e+02
-6.640262108301940316e+02
8.883999401925798622e+01
9.623765300405441394e+02
1.552560231938538209e+03
1.442392034570258829e+03
1.320983265469231355e+03
1.452388512583707552e+03
1.478555198550054229e+03
1.402320078372009675e+03
2.544697356417718197e+02
3.068883967849652663e+02
-2.572577991926846721e+02
-2.103898403649448483e+03
-3.314131690054989576e+03
-3.631003601400490425e+03
-2.821532385655559665e+03
-2.966822687632161887e+03
-3.430861333784338058e+03
-3.886671595002593222e+03
-5.237200305311043849e+03
-7.301223240698334848e+03
-7.178018786456369526e+03
-4.872541457292176347e+03
-2.847743241196869349e+03
-1.604643412109879591e+03
-1.319180749875067931e+03
-2.028375963829851571e+03
-2.742251567733837874e+03
-1.247845475279244965e+03
-9.421280990824363926e+02
-3.198148454316311017e+03
-2.989959008270613595e+03
-6.264560201960745900e+01
6.258826212320266222e+02
1.106432305104241181e+02
-2.844290603030097486e+02
-3.428424228430043286e+01
4.490447839556252916e+02
4.625030312069265506e+02
1.075045656852783850e+03
1.488693671331257292e+03
9.474826675136195036e+02
9.354441704515401170e+02
1.013580201150460653e+03
1.361875471499574132e+03
1.984341944972062720e+03
2.744002158604901524e+03
3.044898972406528173e+03
3.316026759090410906e+03
3.785374045945148737e+03
3.461913719947680420e+03
1.381650104781817845e+03
-1.070419162403979499e+03
-1.348301092836690714e+03
-7.530087429036664162e+02
-3.895516735990502184e+02
-3.519577062517161039e+02
-6.702015856971055427e+02
-1.259261112023895294e+03
-1.414102522551665288e+03
-2.117684664037025186e+02
1.289727450714085535e+03
2.617471540671966068e+03
2.191460006959135171e+03
1.569801500022463642e+03
1.062504201735968763e+03
9.885592563494266187e+02
1.945992923064507750e+03
2.076825239874658564e+03
1.166031965729280046e+03
9.356279297917204758e+02
9.654316973687052439e+01
-1.417269534958135409e+03
-1.737814158812331243e+03
-6.169584099393977112e+02
2.335179305145387048e+02
-6.672683586413297689e+02
-1.638369838775412745e+03
-2.407834704060954209e+03
-1.298624847863375635e+03
4.582644400947040140e+02
1.156875415877032310e+03
1.095404694801400183e+03
1.492537427180144050e+03
2.036973906234753031e+03
1.773990603535615719e+03
1.691639599479788558e+03
1.758845096004889683e+03
1.287632623888772514e+03
4.180381511953501672e+02
-4.549719338184905268e+02
-3.724108674611218817e+02
-3.053376430107271062e+02
-1.268805674925035646e+03
-1.822724950746128343e+03
-1.707115121014517172e+03
-2.482015867944338879e+03
-2.788424860366937537e+03
-1.757337999108883650e+03
-5.267488940181791577e+02
-6.770335923063660744e+01
-5.481159498254664868e+02
5.204727691807118362e+01
1.250832816530089076e+03
2.043276961597177433e+03
2.427338547140333958e+03
2.473966961152766999e+03
2.074204528698925969e+03
1.699046611486769507e+03
1.251434301050701379e+03
8.333902590496998073e+02
3.691938162016070635e+01
-6.410097172791887488e+02
-1.086442759124646955e+03
-1.597358107002472480e+03
-1.860801472418224648e+03
-2.002805307692035967e+03
-1.367355238602727013e+03
-7.614631279568534410e+02
-7.902124340725144975e+02
-9.865300431047960501e+02
-1.055420105808205108e+03
-5.698927158434295279e+02
-3.329301012294696989e+02
3.215070901084958450e+02
1.714401499588673914e+03
2.131701767538234890e+03
1.700405625410686980e+03
1.056555617872797256e+03
1.185234279222934902e+03
1.085343306184272251e+03
3.948019925480691086e+02
9.949327672822859370e+01
-3.815853892455511982e+02
-6.004677496806529007e+02
-1.705197710063317118e+03
-2.708805880208519739e+03
-1.926288919652879713e+03
-2.647692035470086921e+03
-2.456034419651557528e+03
-9.223649804981376974e+02
-3.462139087211333077e+01
4.492244898874022851e+02
1.134108747692707993e+03
1.670033619217606429e+03
2.613963011714981349e+03
2.943873359898943363e+03
2.073828311870022844e+03
1.379949625616660569e+03
1.808010911717731005e+03
1.899882534171865927e+03
1.304758111977389945e+03
6.323447755677119630e+02
5.437204616438765470e+02
2.966667862834756875e+01
-8.167069485495389927e+02
-1.373340007786122897e+03
-1.105481447165665941e+03
-5.869723249136679897e+02
-4.351286546837575884e+02
5.631945796398264292e+01
7.702216844238270141e+02
1.461629218536670123e+03
1.991379187235611425e+03
2.316800077713792234e+03
2.708684323076432520e+03
2.886997629620583211e+03
2.523958938051103814e+03
2.284251706519180971e+03
2.299005208272983509e+03
1.619218519232619656e+03
7.195726270703393084e+02
4.031826913429259207e+02
1.107563355765934254e+01
-7.615922879665210985e+02
-1.151989819249462471e+03
-5.725059599104048402e+02
-4.550036842369253804e+02
-5.574710597782468540e+02
-1.157099525284411925e+02
4.530173268897524963e+02
1.180632772094379561e+03
1.711463984386429502e+03
2.048330797321816590e+03
2.646189961899054651e+03
3.274966839233291921e+03
3.162738887076395713e+03
2.809560249134033256e+03
2.941458096167958502e+03
2.861395747919777477e+03
2.371401191673532139e+03
1.603450857377349394e+03
7.872886379661575802e+02
-2.329720709318251579e+02
-1.675259811648433015e+03
-1.817681001684102966e+03
-9.482419402470386558e+02
-1.609744550024349792e+02
4.291795348316243235e+02
2.112268914279884200e+02
-9.648169045864660802e+02
-4.141882138910471440e+03
-5.338837671907680487e+03
-4.518965116618471257e+03
-2.905204405702074837e+03
-2.418484160142337259e+03
-2.445894573068563204e+03
-2.146449024589283454e+03
-2.360048194119053278e+03
-2.605689428519936428e+03
-1.608280592685541478e+03
-2.776757850917020278e+03
-3.814166986029716099e+03
-4.348497316177479661e+03
-4.924777573601276345e+03
-3.389085346356456284e+03
-1.517465183395644999e+03
-4.020716613348977262e+03
-4.988721408070064172e+03
-4.591733303547008290e+03
-3.076566798003927488e+03
-3.298305207677308772e+03
-3.749890502473148899e+03
-3.258281178688293039e+03
-2.737608701819826820e+03
-2.450787699074337525e+03
-2.472667748210945319e+03
-2.607163826004368730e+03
-2.792155035507947559e+03
-2.821684651524720266e+03
-1.200691789773794426e+03
1.318642787554221627e+02
-2.127105280796439274e+03
-3.001677900970011706e+03
-1.666976157874031060e+03
1.350036877667920407e+03
3.395472626727833472e+02
-1.680291988972589252e+03
1.904973797374761944e+02
1.375936003239041383e+03
2.062031855583874858e+03
2.422652806357056306e+03
2.642909946435194342e+03
3.022034428811432917e+03
2.824023454323073111e+03
2.990788105319640181e+03
3.495360288321503958e+03
3.805842435635036964e+03
3.538253625928432484e+03
3.745623193113356592e+03
3.704028355341080442e+03
3.195543690989601600e+03
2.222030352897141256e+03
2.093571541947391324e+03
1.609265557315991146e+03
1.013090971778651124e+03
8.189314363794488827e+02
8.738672116805532823e+02
8.899337368359456377e+02
9.621337293384328859e+02
7.695811756586862202e+02
1.045408893192889082e+03
1.678638597416867924e+03
2.098272064774373575e+03
2.428301911042601205e+03
2.920717882890862711e+03
2.875858573456518570e+03
2.901687544097363116e+03
3.005141289283681544e+03
2.570252902338758304e+03
2.282066566097980285e+03
1.696587977996808377e+03
4.918959732572614030e+02
1.850323264163892247e+02
-1.483235900326979504e+02
-8.693757159217095705e+02
-9.508123584926570402e+02
-1.180319670508775062e+03
-1.044916831049313487e+03
-7.687704115021061853e+02
-7.049691569338717727e+02
-2.053878318074204117e+02
3.620490136545054725e+02
7.301224288363813457e+02
1.069020036907247231e+03
1.920722023062572134e+03
2.076235246167594141e+03
1.783948588233996816e+03
6.454771517696716501e+02
3.804639008115174192e+02
3.272676439221168607e+02
-1.606973641740551528e+01
2.396126704125632330e+02
4.393079837579908826e+02
1.446948106351425452e+02
-6.335438024064516185e+02
-6.976270602130240377e+02
-5.425592340816364185e+02
-2.031677739594628349e+02
3.496730142702291459e+02
5.568085099749791880e+02
4.630970556149702020e+02
5.405886049074612174e+02
1.130363842576186016e+03
1.896572507629745587e+03
2.229211255376404551e+03
2.059555868830740565e+03
1.991718787059714259e+03
1.991807975961844477e+03
1.784677247506344429e+03
1.509145440597333163e+03
1.074405739085459572e+03
2.571455132480952557e+02
-3.231767185994751799e+02
-3.016692924928302091e+02
-1.211208073724695993e+02
-3.915633814714474283e+02
-1.067238491644627402e+03
-1.182973244721978972e+03
-1.237620588674681812e+03
-8.314817367258614240e+02
-4.481059191793389687e+02
6.569249333455714179e+01
6.822534338716124012e+02
1.085692549954956803e+03
1.481821956216602302e+03
1.870662593465374584e+03
1.393027042762945712e+03
-4.003972138111299728e+02
-2.605702014234186663e+03
-4.017826796222217126e+03
-4.898912518305395679e+03
-5.609611221540526458e+03
-6.431309118706959453e+03
-7.147279194047206147e+03
-7.092592143685827068e+03
-6.908380668401285220e+03
-6.506020522654463093e+03
-3.165593788370358197e+03
-1.628827605385466768e+03
-2.572705289949982216e+03
-8.019969411150630094e+02
6.791389084447946516e+02
3.570901940839575559e+02
8.767101855097126872e+02
1.940168454983192987e+03
2.501556335996812777e+03
2.853965157042436658e+03
2.744565009584598556e+03
1.690317539734599450e+03
1.369129870475670259e+03
1.244838976227405283e+03
7.493210347442682178e+02
3.477321260889214045e+02
-1.316921437140512410e+02
-1.015006084566372920e+03
-1.455210235783820508e+03
-1.737839779056277848e+03
-1.579949329841563440e+03
-9.512140915683748972e+02
-2.154701199744113751e+02
3.935372703878993548e+02
5.366190149118478985e+02
1.209740321060366568e+03
1.706272889091497063e+03
1.514442441946776626e+03
1.409223834105744572e+03
1.568589125147072764e+03
1.587646697443576159e+03
9.883288651039641763e+02
9.895286492234664593e+02
6.553417937507822444e+02
-1.300813534950349606e+02
-4.865702133149956126e+02
-6.162207440806824934e+02
-1.513124238213699073e+03
-1.607067528799058664e+03
-1.529762763107366254e+03
-1.287296910812892293e+03
-1.386966308825491524e+03
-1.176671729842768627e+03
-1.055253112973941825e+03
-1.331589645267875312e+03
-1.807397915529908232e+03
-1.651619425047419099e+03
2.357111040301590208e+02
1.407747677515062833e+03
1.614695195609881239e+03
1.186518607438800927e+03
7.730074970264063268e+02
2.023136784713055363e+02
-4.145185974052964895e+01
-3.341484192680096612e+02
-1.005610480082079789e+03
-1.302758369770186164e+03
-1.587708740918776130e+03
-2.399284341785806646e+03
-2.565360170038460637e+03
-2.012103356103440092e+03
-2.029392409808106777e+03
-1.749227744412036373e+03
-1.888592733393885737e+03
-2.186381194495050750e+03
-1.341413091186610473e+03
-3.204280141322262807e+02
1.256033377993224320e+02
6.105681928837746000e+02
6.405582260968395758e+02
5.318089648323549454e+02
5.701724954062822235e+02
4.776808384446725881e+02
-2.944485563262423966e+02
-1.072237503583505941e+03
-1.590721596539638767e+03
-1.409930198851062642e+03
-2.269796796866593013e+03
-2.957147822116673979e+03
-3.236887440938999589e+03
-3.572918105725397254e+03
-3.665495124384251540e+03
-3.006665224875416243e+03
-2.363365306035537287e+03
-1.543474215332645599e+03
-9.220037754190705073e+02
-3.789262446207763446e+02
4.018089706678489392e+02
5.982214325493831666e+02
4.534916211324382402e+02
3.135762950618647551e+02
2.123034996897381461e+02
2.927791574100910452e+02
-1.090577791365239335e+01
-5.468923224835117480e+02
-7.442821969519548020e+02
-1.065021763697007827e+03
-1.365207997339103713e+03
-1.603855707800627215e+03
-1.378908379258833520e+03
-1.392533951261254970e+03
-1.417809186359190335e+03
-1.225759892546096353e+03
-6.085465741411165936e+02
-1.551654693104285911e+02
1.664528714442967043e+02
7.183296296278355157e+02
1.236406536798593379e+03
1.561615194206093520e+03
1.934960307091953837e+03
1.829357659580477048e+03
1.783761437974362025e+03
2.451085964730726118e+03
1.993171961721142452e+03
1.142761953264989870e+03
5.607085567631122558e+02
2.479795928854370572e+02
1.948675937932214097e+01
-2.338463525345972300e+02
-5.703161168045019025e+01
3.520953591398595677e+02
5.023388309915818013e+02
8.094390438812990851e+02
1.174218831592579363e+03
1.413615191408891633e+03
2.048582783376381030e+03
2.929063069879979594e+03
3.298958339982038069e+03
3.150102743058521810e+03
3.539110199409471988e+03
3.762182072531287758e+03
3.803366938539270450e+03
3.777435802070528553e+03
3.478334600682975179e+03
3.376551193890904415e+03
3.143062013635243602e+03
2.515816856380369245e+03
2.158837986800621820e+03
2.333612706886615797e+03
2.384195729697526531e+03
2.623510460703040735e+03
3.358417443049816484e+03
3.213715229903608360e+03
3.371104363244655815e+03
3.555672472743452545e+03
3.422555775387003450e+03
3.872711225484652459e+03
4.455661597380082640e+03
4.859271443377129799e+03
4.949303888722795818e+03
4.817537144293382880e+03
4.145266579608723077e+03
3.188094221241148716e+03
2.466940392185166274e+03
1.928437625165976442e+03
2.118700371418479335e+03
2.290726881664371831e+03
2.764113961506851865e+03
3.077739616744675914e+03
2.697401741248929739e+03
2.712981718227335023e+03
2.933730877130173212e+03
2.730447392224935811e+03
2.611014619802445850e+03
2.755276282548459676e+03
3.150204813830011517e+03
3.235699696611734907e+03
3.114827907323268391e+03
3.539590126757331745e+03
4.039802299590755865e+03
3.959305831971648786e+03
3.747082548661214787e+03
3.744052416008635646e+03
3.490263742635256676e+03
1.781725177876105590e+03
5.735095944000998003e+01
-1.061064366354831236e+03
-2.471520282250176479e+03
-3.109950182231626059e+03
-3.090468349601556383e+03
-3.162143681802079755e+03
-3.293968174211109726e+03
-4.018937485676231972e+03
-5.581038346747715877e+03
-4.351188580675689991e+03
-2.369418511645353647e+03
-1.780790225973963516e+03
-2.608317679427315397e+03
-2.980900439497214848e+03
-2.776500250026497270e+03
-1.340336357185490215e+02
2.801634471691862473e+03
1.322512895051967462e+03
-3.849280195885241938e+03
-7.385792486321292927e+03
-8.792032733399008066e+03
-8.765988334937192121e+03
-8.376591904869850623e+03
-8.901799482878668641e+03
-8.185527708117239854e+03
-7.040752062350326014e+03
-1.002036374800363410e+04
-1.135924078493559318e+04
-1.073324462361893529e+04
-1.089333583438963069e+04
-8.547434407868629933e+03
-8.578376727713417495e+03
-1.019498170518338702e+04
-8.916126763504338669e+03
-7.870657671468437002e+03
-3.970498444877410293e+03
1.941357410951523661e+03
5.534061872398321611e+03
5.359788525455997842e+03
2.982702193437657115e+03
4.886945823589235971e+01
-2.050619898594206461e+03
-2.111625363539925274e+03
-4.072042079482871486e+03
-8.061727126041888368e+03
-1.179245760052575133e+04
-1.484799340863334146e+04
-1.675206449534549756e+04
-1.901055840416588399e+04
-1.730742889839846612e+04
-1.406651293246870773e+04
-1.034168103319417969e+04
-8.424731036984885577e+03
-6.128470275197332739e+03
1.217294417052309655e+03
6.535748001740692416e+03
5.665068937489206292e+03
3.002422468432407186e+03
2.731934450979639678e+03
2.811724297429158923e+03
1.582001854475092614e+03
3.806936314465997839e+03
9.636671519880419510e+03
1.143737353346185955e+04
5.809158159696947223e+03
1.688208464874759557e+03
2.239692629822783147e+03
6.472797684499077150e+03
8.915691891001237309e+03
1.159853964133925547e+04
1.345049291746311610e+04
1.089078789627220431e+04
5.547608473630846674e+03
1.019135274702229935e+03
-4.798340568583594177e+03
-6.907555548543976329e+03
-2.284416127016707378e+03
-3.437472687902420603e+02
1.441505397950759289e+03
4.359460177831920191e+03
4.112265458424003555e+03
2.027179385796139513e+03
2.832875840030224936e+03
4.954258820043956803e+03
1.168495969258450714e+04
1.749283646998654149e+04
1.643187023569037774e+04
1.329031120716221631e+04
1.121923300436977843e+04
9.359671056946912358e+03
8.132736666671231433e+03
1.011949441299522368e+04
1.221811212626396809e+04
1.231074507182891466e+04
1.028643367657822455e+04
6.501249361446010880e+03
2.676214727671497258e+03
1.425400903713239813e+03
4.708845832623316028e+02
-4.222685653740920770e+02
4.417955151632596426e+03
8.583561714950825262e+03
5.014546677463847118e+03
3.438918733446874739e+03
4.627672569006223057e+03
2.682832307627329101e+03
-1.145549070895695877e+03
