-2.242283836223253729e+03
-1.760713295794621899e+03
-5.895068171114788129e+03
-3.043289704871962385e+03
-1.121316458750225138e+03
1.988931795701730380e+03
2.122612935094282875e+03
3.797658384042262696e+03
4.417013227653224021e+03
3.298831434905131573e+03
2.326919685956866488e+03
2.113120946962174457e+03
2.879615192589088565e+03
3.876449304093267074e+03
2.877475504624251244e+03
7.397306079338430891e+02
7.116975483237393973e+01
-6.894325825859702945e+02
-2.797253301032736545e+03
-3.751242839486624689e+03
-2.949136359425898718e+03
-1.834900001266891650e+03
8.576090523044096017e+02
3.960609264555961545e+03
5.299128292982651146e+03
5.359239222771656387e+03
3.977958418235785757e+03
5.699736763355272160e+02
6.206802838409078049e+02
2.501518649112837920e+03
2.580280431644899181e+03
1.309375630637692439e+03
-6.639897508182627917e+02
-1.476281264269528037e+02
1.851410312179369839e+03
2.160195003319903208e+03
3.250542962237533402e+02
-4.255097032308752205e+03
-6.896951959857681686e+03
-6.282929024859337005e+03
-4.018941428145530153e+03
-7.436173300087975804e+02
1.028119645534757638e+03
7.657230776838899544e+01
-7.538635358755466314e+02
-1.049919377022848948e+03
-1.137205583953521909e+03
-9.211483016375176476e+02
6.507224638169083164e+01
2.499796624107658317e+03
3.808219752767344744e+03
3.216812589202577328e+03
2.659248631407516314e+03
-1.241353801794567033e+02
-2.766324115422213254e+03
-2.626033486815304514e+03
-7.445697986655916338e+02
7.407595140140109606e+02
1.735868557535167383e+03
2.091859222192750167e+03
3.164721972820604151e+03
1.620492451463652742e+03
-1.179757591732942728e+03
-1.839996818155257415e+03
-5.452314718171489858e+02
3.135561779429760918e+03
5.510462779399434112e+03
6.740460678073543022e+03
7.421604377699771248e+03
6.727943098466110314e+03
5.636495204834991455e+03
5.670326264177711892e+03
4.993572570638141769e+03
5.453203926273394245e+03
6.554245546370598277e+03
6.004708362320044216e+03
3.581595770878359417e+03
4.178546155805017861e+02
4.204854094881499691e+02
6.984076376766050771e+02
-2.147350457449599617e+03
-7.104716350335900643e+03
-1.008071619475041189e+04
-8.794136100185736723e+03
-9.649815864090724062e+03
-1.025371844762931323e+04
-7.604806943769281133e+03
-6.433103364625843824e+03
-7.618487233723621102e+03
-9.761872984340428957e+03
-7.575320919797170063e+03
1.325281788295421848e+03
4.171200657533240701e+02
-2.189674666211757540e+03
-2.934369069450903680e+03
-3.690153799669394175e+03
-5.416486916012965594e+03
-4.200398388571587930e+03
-8.788063687628591651e+03
-9.574481473153224215e+03
-2.662650215797045803e+03
8.314936960509337496e+02
-1.022958376447674482e+03
-7.626944881109330709e+03
-1.342349943461347721e+03
4.368737832620172412e+02
1.709852894338469696e+03
1.575656805270371024e+03
1.152424028352834284e+03
1.477179661075462036e+03
3.933978535579894924e+03
5.926833173959434134e+03
3.842834288455806018e+03
4.205054919094782235e+03
6.242459070275895101e+03
5.592080581412350512e+03
2.210920509076853250e+03
-4.780502404284163163e+02
-2.580754820873239623e+03
-3.143126233641597992e+03
-4.342328909503969498e+02
2.767033041874622540e+03
2.732806323263592731e+03
1.684186112325049180e+03
-1.974227611520852577e+01
-2.749907991725751231e+02
2.402467540538978028e+03
4.819737446192110838e+03
4.787777178099738194e+03
3.773640592397445289e+03
3.019514493462063456e+03
2.352466840134753056e+03
2.074557316079317843e+03
6.609002423573468832e+02
1.242340711383381631e+03
8.347489115760320146e+02
-6.898827076374222997e+02
-1.943570308965228435e+02
4.361994586073617342e+00
-1.168754999613634027e+03
-1.375724637541680522e+03
-1.317540376081651402e+03
-1.179176069997150535e+03
-2.805384048205808085e+02
4.844369909845844404e+02
4.399889278481302313e+02
1.054200638682655608e+03
3.312095278918383883e+03
4.142452555904263136e+03
3.538387654284679684e+03
4.039379090008294497e+03
3.448195429216146294e+03
2.639401749822549391e+03
3.303770295795604397e+03
2.743694994939787648e+03
-1.113794010978307654e+02
-4.195504628717490050e+03
-3.553594436281946855e+03
-2.850245721430451340e+03
-3.610482213195330132e+03
-3.871160004285619380e+03
-3.923204169707399615e+03
-3.098933842332395216e+03
-1.026300829678591072e+03
6.988199938803011264e+02
1.749373459068457578e+03
3.443405537466680016e+03
3.484973604283704844e+03
3.598097673323042272e+03
3.150774076781485746e+03
2.251011744817090857e+03
2.361716413303925037e+03
3.225970338820977304e+03
1.699819074544862815e+03
-3.168550539426458954e+02
-8.480955002632954347e+02
-1.979012867661447899e+03
-3.152690911262197915e+03
-3.712238824753500467e+03
-4.871686434524383003e+03
-4.104079069894597524e+03
-2.072341106471741568e+03
-1.282563734352947449e+03
-1.474821740958423561e+03
-2.370226396585732800e+03
-1.303690279207465210e+03
9.018616964817499593e+02
6.392525048891360484e+02
6.095189272379295744e+02
1.976223974934654279e+02
1.963453736074120002e+02
1.584634840721313594e+03
3.452513377245194533e+03
2.871015448183341050e+03
1.043228949258034618e+03
-7.379485219177238378e+02
-3.380740920720571921e+03
-4.616232541872812362e+03
-4.684645298552090026e+03
-4.443999605349975354e+03
-3.121381656122066943e+03
-2.357814237609555676e+03
-1.452242651479410142e+03
-5.666696428525764304e+02
2.084562203939341174e+01
2.050154108154728476e+02
1.025876333409549659e+02
-9.974649576026681643e+02
-1.435214178086353741e+03
1.048319158332348479e+03
2.866296043969490256e+03
3.147714348516461541e+03
3.337626801036245070e+03
1.112092886629961185e+03
-6.393026309936481084e+02
-6.656327795407090662e+02
-1.597952234555683390e+03
-1.934445216302093058e+03
-1.910252386833213905e+03
-2.064445463816402935e+03
-4.435143991072957760e+03
-5.354355495473604606e+03
-3.555147672044293813e+03
-2.653600858624723060e+03
-1.561739616490335948e+03
-3.840378694454862512e+02
2.529912497036986224e+03
5.301311161034854194e+03
5.261146524726807911e+03
6.922319656396624850e+03
8.592198554290178436e+03
7.610565640428629195e+03
5.823519091240904345e+03
4.745678276293394447e+03
4.545052239515228393e+03
3.107761982333274773e+03
5.739710102956095170e+02
-9.694870954851680835e+02
-1.550458643785217873e+03
-2.480343085289214287e+03
-3.932113033018537863e+03
-4.484242728460925719e+03
-4.348246826205120669e+03
-3.218225283634094012e+03
-7.764700291457691037e+02
1.312019103780112573e+03
1.526832811483503974e+03
2.075603378322091146e+02
4.571217110131886443e+02
2.939151582957066694e+03
6.919645353943740702e+03
1.063221219571893744e+04
1.053414429014616690e+04
7.399590973690006649e+03
5.536704973803872235e+03
4.520801996509379933e+03
3.075420058841216814e+03
1.918346904033802502e+03
5.230134970227793900e+01
-1.467514414121540767e+03
-2.388619815588421716e+03
-2.703969883947775088e+03
-1.473130008111327470e+03
-8.464549298240515895e+01
1.123449648683591022e+03
4.203053771654525917e+03
5.333342128683539158e+03
3.924362483040564257e+03
4.048058882753198304e+03
5.035337893053745574e+03
4.398104312276183009e+03
4.656499105387967575e+03
4.926619497147745278e+03
2.571393404425883546e+03
-2.620184277307177126e+03
-8.056998667921328888e+03
-1.035810284789798970e+04
-1.317265209630764366e+04
-1.456564776234520104e+04
-1.264923459010441002e+04
-1.025452124871576052e+04
-9.072398890669956018e+03
-8.150688068510689845e+03
-1.055244022052353330e+03
3.613306693973654546e+03
1.910738289144806913e+03
-4.472223981867123257e+03
-6.670324618364897105e+03
-6.626002108505414981e+03
-4.633391300016573950e+03
-2.102748774205044811e+03
3.078818625264122147e+03
1.173485166181020759e+03
-3.015612429507277739e+03
-3.429150570259821961e+03
-2.939141531547694285e+03
1.273190637565039196e+03
-1.382497167715239357e+02
-7.720554170452743165e+03
-9.053626168746515759e+03
-9.155217618044960545e+03
-9.482243698047852376e+03
-9.204694361134967039e+03
-9.029429606367624729e+03
-3.475388145586202882e+03
4.390450214979894554e+03
6.126001587276099599e+03
1.769426295901612320e+03
-5.031056743188075416e+03
-1.739364641210527225e+03
1.490745025914352937e+03
3.177343924077497832e+03
6.195357655253202211e+03
6.714653937774842234e+03
4.352200851452064853e+03
3.264044646814909356e+03
2.458255188901619476e+03
1.728822560411844051e+03
1.308024432472104991e+03
1.603081901125532568e+03
1.794929978650937983e+03
1.938487672943479993e+03
2.310595646535370634e+03
2.785419485214588349e+03
3.202131615162033540e+03
3.728823820651309688e+03
3.440682555656283967e+03
3.280864223488669722e+03
4.131387838156823818e+03
4.130383727730974897e+03
4.395802574249169083e+03
4.897620100201760579e+03
4.978952914707666423e+03
4.925041899780018866e+03
4.460080863528083682e+03
2.994908083673842157e+03
1.352511120954429771e+03
-1.037871365087300717e+02
-2.458760286517184340e+03
-3.057533047695887490e+03
-2.203401177617010944e+03
-1.471132526145913971e+03
-6.472591639030664510e+02
-2.209767379319564498e+02
7.238598505903086107e+02
1.873543146270106718e+03
1.505283554548979055e+03
1.527843933896904218e+03
2.686852149937481499e+03
3.541705925080762427e+03
2.682950161530247897e+03
-9.890426170479413486e+02
9.879080294326024614e+02
2.484298441534235280e+03
1.869735343495689449e+03
1.313185571429013635e+03
-6.470872090011785360e+01
-1.278130679173891167e+03
-2.032184159734257037e+03
-2.679482429162898370e+03
-2.845791842264651223e+03
-3.158274014334806452e+03
-2.519753537076619523e+03
-1.532257089489515920e+03
-2.104595862359938252e+01
6.699331250670849158e+02
1.299709838654094938e+03
1.661052972925443783e+03
2.172959825299266413e+03
3.290737390657945070e+03
3.499175933374908709e+03
3.399064534830662069e+03
3.048552576934326680e+03
2.003895074909262803e+03
1.174065187228787636e+03
1.180360118687525386e+02
-1.698334227323760842e+03
-2.703322646614787118e+03
-2.937095042861175898e+03
-2.889505986509043851e+03
-2.287500733747315280e+03
-2.065023782546238635e+03
-1.619197428016056847e+03
-9.222329741527570377e+02
-8.730911856320061588e+02
-6.916438762150002049e+02
4.741271159034721450e+02
1.287246223227280097e+03
1.431705394538130577e+03
3.226388082827376820e+03
4.010335850721784027e+03
4.181315296032154038e+03
3.588329671953074467e+03
2.392441499242685040e+03
1.236459947826083862e+03
2.713083269192566149e+02
-7.030089560724942430e+02
-2.002625299200608652e+03
-2.598650692411592900e+03
-2.472127536338928167e+03
-2.656201961775679592e+03
-2.564947401647727020e+03
-2.581364168776356109e+03
-4.742510869362189624e+03
-7.823514903661864082e+03
-1.033932327023176367e+04
-6.933884773780795513e+03
5.196790267376418342e+02
1.493437678216138238e+03
-4.910647336025921504e+03
-7.660781565921687616e+03
-5.542960945895030818e+03
-3.518030320489423502e+03
1.418046602259732481e+03
6.277067313563725293e+02
2.201702551095067122e+02
-4.097859426101502436e+02
-1.592996759354418600e+03
-2.562474402265199387e+03
-3.047543966426067527e+03
-3.038475612673454179e+03
-2.705321397436784537e+03
-2.103104707273304939e+03
-1.208928168174565371e+03
-3.356569631854341651e+02
6.976407322202817340e+02
1.930001987496521906e+03
2.407450584785180126e+03
3.155875281475463453e+03
3.467160907476300963e+03
3.726440708733444808e+03
4.106696506296196276e+03
3.592799310748725475e+03
2.587701151942735578e+03
1.888364687597529382e+03
1.396707704139234238e+03
6.706863237886340130e+02
-2.158694953415338773e+02
-1.207171979964917000e+03
-2.152168249019160612e+03
-2.003835108554922954e+03
-1.498153064659843722e+03
-7.042703902681696491e+02
-2.753201157128989394e+02
6.038960521505322276e+02
1.006393461304689254e+03
1.543185616255904506e+03
2.444220934946104990e+03
3.488404805977771957e+03
4.251659726677954495e+03
4.770104524369953651e+03
4.896810178587640621e+03
4.351765073971792845e+03
3.600050343888189218e+03
3.076603615136233202e+03
2.776286518159179195e+03
2.261003884222407578e+03
1.070669514684567730e+03
5.727167770260582103e+01
-8.223942222817240122e+01
-4.078876299018032796e+02
-4.326432178615211797e+02
-7.407109032157519479e+00
8.828102655404761663e+02
2.159173855440018087e+03
2.103666005512036918e+03
2.712089722607734529e+03
3.548547708341637644e+03
3.694182027798939544e+03
4.262001130017177275e+03
4.269199421974035431e+03
4.191749517433637266e+03
4.127569479146695812e+03
4.018760028046030584e+03
3.726225105083637573e+03
3.701893773282085931e+03
1.397999704406475757e+03
-2.820360497531205510e+03
-8.212296129538937748e+03
-1.161985518232271897e+04
-1.132905697375913223e+04
-1.032889231450894840e+04
-1.015240601481803969e+04
-9.344703285447812959e+03
-7.955691050319279384e+03
-7.899079859321724143e+03
-7.096036534259241307e+03
-5.321466561795575217e+03
1.459947560962897342e+03
6.728329712402544828e+03
5.939647136063533253e+03
-1.176134356150333588e+03
-3.216823108761479489e+03
-2.976278979671708385e+03
-3.433538377109757675e+03
7.663767398375370021e+02
-2.174439041943014217e+03
-6.818952149029641987e+03
-8.339131236918006834e+03
-9.041979673745267064e+03
-9.287517216736254341e+03
-3.761881418949873932e+03
2.949788387791589344e+02
-5.581701526840308361e+03
-8.000693241040081375e+03
-6.098030187176333129e+03
-4.802828407541041997e+03
-4.438155709809729160e+03
-3.766018755491932552e+03
-2.603089757284957159e+03
4.682890125973820432e+03
7.686910906975859689e+03
4.696994093779913783e+03
-2.157780819106148101e+03
7.762203392035392824e+01
4.863470253410374085e+02
1.544465319735118555e+03
3.583933658112840021e+03
2.956990781868108229e+02
3.562047431359002303e+01
1.427754594914314794e+03
1.019150437618770866e+03
1.116680124704152604e+03
1.889537005430575391e+03
2.830964696720522170e+03
3.934977578480477860e+03
4.515527432232610408e+03
5.046804420515499260e+03
5.353774244943048870e+03
5.899491882006926971e+03
6.140211201885867922e+03
6.074241527551148465e+03
5.953696048262278055e+03
5.358377497674590813e+03
5.036422889939706693e+03
4.646781118263988901e+03
3.603154629449698859e+03
2.153429265814172595e+03
1.261680054291853821e+03
-5.913486749174654733e+01
2.193672254668891242e+02
2.352710738506638961e+02
-1.914689606152702936e+03
-3.263608319330900940e+03
9.758037168710463902e+02
2.626351349868562920e+03
3.048004203484912523e+03
3.507661533810343371e+03
4.462266747218978708e+03
4.379649382837474150e+03
4.268438389746219400e+03
4.424558085210026547e+03
4.100912986989917954e+03
3.925964561739514465e+03
3.635531987711321108e+03
2.963817474996895271e+03
1.951155758667134251e+03
9.317173531110780687e+02
-6.495247255295740842e+02
-1.324694130858435301e+03
-1.817487502546175392e+03
-2.000896496754773807e+03
-2.227946436237472426e+03
-1.840286735873232374e+03
-1.152461134959251012e+03
-1.468543391287790314e+02
7.044849042055744803e+02
1.252498322222594652e+03
2.747049730234699837e+03
4.114432856076012285e+03
4.537507608319509018e+03
4.630659368760026155e+03
4.286676018354529333e+03
3.752407155759984107e+03
3.088830241119893799e+03
2.399900205296852164e+03
1.498546834166364533e+03
4.937445025793660420e+02
-6.665998986467612895e+02
-1.335542816519299322e+03
-1.472118030382009920e+03
-1.689354765818051192e+03
-1.854317381861681497e+03
-1.529919652896072648e+03
-7.191321996300606543e+02
3.419742071406284367e+02
1.282437375101990028e+03
2.153232361685382330e+03
2.238337887618086825e+03
2.365783162952177008e+03
2.792527745748658617e+03
3.252545225433766518e+03
3.185894239492498400e+03
3.071598088743388871e+03
1.872598930987269341e+03
-1.203044751684045877e+03
-5.662488467420706002e+03
-1.117492730196688717e+04
-1.210340719788798924e+04
-1.287798925820019031e+04
-1.357368779342158086e+04
-1.356252975349580265e+04
-1.269962316324810672e+04
-1.069984429759099839e+04
-4.755304264121056804e+03
-1.745859389712049278e+03
-7.572487397646655154e+03
-8.515144038135529627e+03
-7.779588291608286454e+03
-1.375278193001652198e+03
4.136758071563256635e+03
3.380629075845364241e+03
4.532924587944929158e+02
3.546787445503097842e+03
3.516094179718295891e+03
3.126189672025766868e+03
-8.129319152549913952e+02
-8.468390604089760018e+03
-5.139190942498231379e+03
-1.424439886967018538e+03
-1.966160691249847559e+03
-2.336462011325861567e+03
-1.535306271779688586e+03
-1.006657281776076502e+03
-1.644662451128272380e+02
8.472681409336856859e+02
1.736504580425915492e+03
2.223338060725301602e+03
2.365814718116140739e+03
2.785979143361021215e+03
3.080923499143549179e+03
3.339583395803252643e+03
3.319951425760196344e+03
3.692085757870243015e+03
3.607958374975024526e+03
2.831506509858052141e+03
1.736659098681869182e+03
4.223630180846043345e+02
-1.241397986442358160e+03
-2.288614285784529329e+03
-2.090321420866569042e+03
-1.876462243490039100e+03
-2.082048350214974562e+03
-1.390104802578019871e+03
-1.195550213764636140e+02
7.556845914814501839e+02
1.621490134941737779e+03
2.173962326262613715e+03
2.564181403133577987e+03
3.179208273814724635e+03
4.117143839302327251e+03
4.783954942333626605e+03
4.826689696339467446e+03
4.667378277957102000e+03
3.986017434753067846e+03
3.472588848319272074e+03
2.557032000758673803e+03
1.256340424906774388e+03
-3.926449457024079948e+02
-1.696954258896531428e+03
-2.093188413758236493e+03
-2.147940999701660530e+03
-2.230154718547858010e+03
-2.027228671431593057e+03
-1.144271080394628825e+03
-1.527969446037945147e+02
6.593734877158847212e+02
1.279075914934624507e+03
2.127963946591169133e+03
2.232680294063994552e+03
-9.862790995482335177e+01
1.345984160166265156e+03
-8.300645151434483751e+02
1.303239605966968782e+02
2.331263980732158416e+03
2.455587432521507708e+03
1.424282381422185153e+03
3.842873798538832375e+02
-8.084073891617889558e+02
-1.892805659788391949e+03
-2.147978403074385369e+03
-2.603932200184031899e+03
-2.581684741378611307e+03
-2.173204519145121139e+03
-1.497396640632088292e+03
-5.692437695116138912e+02
4.853621460299164596e+02
1.211408841076152612e+03
2.297922682568545497e+03
2.784011231441012569e+03
3.181738785562863541e+03
3.635074675083522379e+03
3.320003820091626039e+03
3.229539127243492203e+03
2.498705020028904528e+03
1.934504425839716532e+03
1.070967512565778861e+03
-2.050178901453797380e+02
-1.274492022052819493e+03
-2.367487319454825411e+03
-2.988009260576367979e+03
-2.965088452552050057e+03
-2.887713202224490487e+03
-2.809881984152939367e+03
-1.993561051271329688e+03
-7.557346308426911037e+02
2.356548913851838449e+02
1.001594858604398041e+03
1.547133413681876618e+03
2.001363577690553257e+03
2.902287251918316997e+03
3.363874599400874558e+03
3.105096268355165648e+03
3.108993756849090914e+03
2.708558463122985358e+03
1.919761074855924790e+03
7.965217978105462180e+02
-3.841605536034142006e+02
-8.833427185585154575e+02
-2.124079657232784939e+03
-2.783430048668943527e+03
-3.556443252401716563e+03
-4.019050273634056339e+03
-3.470342794882686121e+03
-2.395230493202368507e+03
-1.219669193424313335e+03
-2.327551825232692693e+02
2.515630984251411348e+02
1.041347397545897138e+03
2.015567131075468296e+03
1.985208993688450164e+03
8.702551200338258468e+02
2.234467350532083856e+03
2.075989137415128425e+03
9.820434771519716151e+02
1.652146892577141216e+03
1.130177232488992331e+03
5.887798675775644597e+02
-8.920862445234174629e+02
-2.356383671521825363e+03
-2.834234927393827547e+03
-2.682754032121697037e+03
-3.465851983462769113e+03
-3.317433905555325509e+03
-2.141451732796477245e+03
-8.955980928603592019e+02
-1.403768047081757686e+02
3.924552157895861342e+02
1.492995960646878984e+03
2.386088270005311642e+03
2.795630010556126308e+03
3.062176402174161012e+03
3.454149400946078458e+03
2.779406363657521524e+03
2.378061971469348919e+03
1.813914130696610528e+03
1.394846083304338208e+03
1.188318366292833304e+02
-1.281317848860133381e+03
-2.238235483133871639e+03
-2.837592150282314378e+03
-3.286068666566631691e+03
-3.415877709301423238e+03
-2.709012841476118410e+03
-1.874452033422153590e+03
-6.359728507464546965e+02
-3.156952421740702519e+01
4.866429219587886905e+02
1.221482324608562976e+03
1.716886871159890916e+03
2.084300640824483708e+03
2.702844097193966263e+03
3.756103956774121798e+03
4.147346993876368288e+03
3.746699119567136677e+03
2.430410118479310313e+03
1.507233863701358587e+03
5.839198657657301510e+02
-3.444332883550642350e+02
-9.458754084776124955e+02
-1.738481040200416828e+03
-1.621321099577348832e+03
-1.633437090670099906e+03
-1.249788173808808097e+03
-8.603205273809221580e+02
2.016055026605699130e+00
1.020181266023604167e+03
2.037199454139019736e+03
2.732094267505757671e+03
2.811875623302554231e+03
3.289544047771679743e+03
3.916069568700660056e+03
4.019453439357157549e+03
3.486744122030780090e+03
2.869962736773952201e+03
1.288940964514428742e+03
-1.771288672020028116e+03
-5.747485598336102157e+03
-7.226713485508364101e+03
-2.594971114403140746e+03
-3.739321427968772241e+03
-5.988142280109071180e+03
-6.926285638958950585e+03
-8.443648848175726016e+03
-7.149215645581440185e+03
-9.419841117779645856e+02
-1.945839918771968314e+03
-7.167254837861942178e+02
5.733644175652648300e+02
-6.495401820443454426e+02
3.912539714926295801e+03
4.507626401904811246e+03
1.465765243506026309e+03
1.446994041609730175e+03
9.383728078220481166e+02
-6.110699522100725289e+02
2.085620762504638151e+03
-1.734506406292674683e+03
-2.140481261447551788e+03
-2.878301508677019683e+03
-4.308980047067027044e+03
-1.341582000616241203e+03
-1.618050974859934058e+03
-1.614269837944963456e+03
-4.368164288190369916e+03
-1.083807292566748174e+03
-9.361555090869675269e+02
1.661935338399876628e+03
3.186523827732750306e+03
3.351671197465733712e+03
3.474398405317486777e+03
3.548780383339458240e+03
3.823792202015194562e+03
4.178483728457951656e+03
3.682924275797400242e+03
2.968199564509240645e+03
2.204281074296255611e+03
1.258150104598854568e+03
-2.541620180272505252e+02
-1.458645322935320564e+03
-2.128310955009860663e+03
-2.398210730504947605e+03
-2.664358449717613894e+03
-2.658597801585282468e+03
-2.202863725175238415e+03
-1.196027938056695120e+03
-2.530002222099354015e+02
4.202661476254480704e+02
1.116779197102902572e+03
2.103634274409159843e+03
2.703884285755336805e+03
3.180471451149286167e+03
3.530529395188495528e+03
3.272293565361464516e+03
2.807311580577772020e+03
2.071335770553912425e+03
1.045387225793294192e+03
5.074672726549526942e+02
-8.694333152204626458e+02
-2.118354598385792542e+03
-4.674340767198484173e+03
-4.092505789984996227e+03
-2.765502783292694403e+03
-2.076260268365516367e+03
-1.254737194917353690e+03
-4.230715823247963954e+02
5.043034039151693833e+02
1.295534605215083729e+03
1.855128566749490801e+03
2.189818946765005876e+03
2.391773245076908097e+03
2.807894790597531937e+03
3.433953019431611210e+03
3.156894339839187069e+03
2.730684440458747758e+03
1.959936582056380985e+03
1.459165055911558056e+03
3.504948691592830983e+02
-1.013141559460935127e+03
-2.022837439956562093e+03
-2.701571972182788159e+03
-3.212394651981940115e+03
-3.520309703369778163e+03
-3.360239656932720209e+03
-2.823087867607253429e+03
-1.844835774361844869e+03
-2.444665699632717804e+02
8.260445429532289836e+02
1.541759742682171236e+03
2.001672601326210497e+03
2.672685297895330223e+03
3.298856875690306424e+03
3.332258367685637950e+03
3.285827662092406626e+03
2.612528522763900128e+03
2.154445670968082595e+03
1.389611341825616137e+03
4.769874670696740964e+02
-8.504292936196197843e+02
-1.792643651129277259e+03
-2.198837204548735826e+03
-2.344193170768414802e+03
-2.420721654934990056e+03
-2.070422900568634304e+03
-1.271229685424134686e+03
-5.630800831836943416e+02
5.970250686334537704e+02
1.022080618220006613e+03
1.907104575574774799e+03
2.930115521228419311e+03
3.230080411081493821e+03
3.611957118717688445e+03
3.714739574190117764e+03
3.120427175986415932e+03
1.100644113176304906e+01
-4.916512792705955690e+03
-8.583187899749427743e+03
-9.566095837971053697e+03
-1.055227476452107294e+04
-1.113876240800610140e+04
-7.554670221590800793e+03
-2.259094682282916438e+03
-2.374061565125196012e+03
-2.456616608163517867e+03
-2.474834237256525284e+03
-7.575454612242759140e+03
-7.987600961977390398e+03
-8.662537991777221578e+02
-2.643663761884666883e+02
1.244394258792201981e+03
3.702669763305334982e+03
4.073178035397304484e+03
4.471005404824589277e+03
4.342143901570766502e+03
4.224495260395804507e+03
4.240105170566285778e+03
3.544030773216572015e+03
2.547132281984307156e+03
1.212374877765023257e+03
2.526218086231252755e+02
-4.732749889325363597e+02
-9.393623138713305707e+02
-5.636858819675436507e+02
-4.972710561221385888e+02
-4.412705154982810996e+01
8.406712046906285423e+02
1.921215889200025458e+03
2.765621281106084552e+03
3.521950186841143022e+03
4.086187446186961097e+03
4.617091798939325599e+03
4.832527903974229957e+03
5.227585185955264024e+03
5.148420776614659189e+03
4.901043843209112310e+03
4.574326735976048440e+03
3.782100144974625437e+03
2.963389507688641970e+03
1.663123463134525764e+03
2.330913501576849569e+02
-5.508542959814520827e+02
-9.366918867386903003e+02
-6.903821655032505760e+02
-6.919111898387104702e+02
-3.722737903174797225e+02
5.625129414567633148e+02
1.375465751555285351e+03
2.089690801503059447e+03
2.769171166399898993e+03
3.972848422527107687e+03
4.478707444158198086e+03
4.699841852913600633e+03
4.787248051262473382e+03
4.764871074333253091e+03
4.368512065160060956e+03
3.805973555836792002e+03
3.132360459078910026e+03
2.489650266948145145e+03
1.514868442638127135e+03
-7.598009430767719152e+01
-1.429268177314215507e+02
-3.199922727325196092e+01
-5.213155430836054620e+02
-7.519245715221463797e+02
-3.467111467056137286e+01
6.684941103015129329e+02
1.554571204842609632e+03
2.434604451881160003e+03
5.898424212457862268e+02
-2.397989806079006485e+03
-5.912987482615674708e+03
-5.359084364987400477e+03
-5.147199176450012601e+03
-5.944931688137383389e+03
-6.174270683515489509e+03
-6.279478641844533740e+03
-6.939806355835635259e+03
-8.072342108275414830e+03
-9.139159167590369179e+03
-7.725093493939300060e+03
-3.231099431348563940e+03
-1.172062528138989421e+02
-3.010476613288231874e+03
-9.117840110382983767e+03
-8.974257727707006779e+03
-6.284708754286953081e+03
-1.507292643001797614e+03
-2.240050222715355630e+03
-5.365704812939315161e+03
-4.345929149910274646e+03
-3.986789849251824762e+03
-3.365490981934978208e+03
-3.172066437826510992e+03
-2.400436657674209073e+03
3.788528310605330716e+03
2.784884923691808581e+03
-4.880280399592934373e+03
-6.957027600332880866e+03
-7.449483131388473339e+03
-7.757587924248285162e+03
-8.216193610189833635e+03
-4.574213956725875505e+03
1.558315154060497662e+03
1.842254716124009519e+03
-3.441608241223703317e+03
-2.985197875821963862e+03
-1.401346889604787521e+03
-2.199858785357611850e+03
4.147287473639783457e+03
2.942895868962909844e+03
5.235048686905002796e+03
5.983927884325241394e+03
6.658580412840668941e+03
6.294076583240390391e+03
5.722772854992788780e+03
5.123702906828490995e+03
4.474834650275491185e+03
3.331259597421466879e+03
1.987760402825725578e+03
7.222282533225312591e+02
1.774788280599372854e+02
2.503493083395015617e+02
3.029064395465824191e+02
6.301595333520783697e+02
1.193164535550884466e+03
2.083036389477155808e+03
2.686260617613604154e+03
3.286045800418996805e+03
3.972075460188348188e+03
4.676337200157729058e+03
5.118862447796562265e+03
3.539631309618477189e+03
1.160706672818330844e+03
3.317431215603356577e+03
4.935194514031328254e+03
4.242744626331090330e+03
2.786333057801617997e+03
2.134246709314699274e+03
1.311819470888489377e+03
5.390110276355255792e+02
-2.012009064617537319e+02
-5.321107387793344969e+02
-5.393428904660722765e+02
1.805319485137522051e+01
9.010862315117179833e+02
1.672638428610521260e+03
2.208274371230014822e+03
2.766282487609727013e+03
3.303848429422282152e+03
3.633096733978389238e+03
4.346906199339036903e+03
4.367421299962380544e+03
4.134746444769339178e+03
4.281461520768721130e+03
3.973349079967018952e+03
3.165984835250085325e+03
2.308225326913194294e+03
3.620532077772396065e+02
-1.122316652725510039e+03
-1.654172580347126541e+03
-1.843574474684284041e+03
-2.250058886900706511e+03
-2.354132653284841581e+03
-1.693473683577310567e+03
-8.021472522802008598e+02
1.860100544047456026e+02
8.928715915961473684e+02
2.056188140986396320e+03
2.436023405782852024e+03
2.652509490901487425e+03
3.023610777663879162e+03
3.745210201661120664e+03
4.035360733243430786e+03
4.114228669149734742e+03
4.018850668449841578e+03
3.524218369786576659e+03
2.774169500904290999e+03
1.219542796286864586e+03
-1.003442186650550411e+03
-2.011567148911580716e+03
-2.776950164069342463e+03
-3.257813202949399511e+03
-3.096196040572810489e+03
-2.392126932940378992e+03
-1.806673759080000536e+03
-7.980071165227687970e+02
6.089324819011339969e+02
-4.597681816516067670e+02
-3.279168654045154653e+03
-6.794322813317508007e+03
-6.558110572088385197e+03
-6.134499704981574723e+03
-5.836459982882876830e+03
-6.024970435367667960e+03
-6.144216404882684401e+03
-6.213197225091295877e+03
-5.639891744112696870e+03
-1.250192995993212890e+03
-7.659079461282456577e+03
-1.123073973239462066e+04
-1.115015832293169842e+04
-1.162953632299519450e+04
-1.149316443738601811e+04
-8.814041718749205756e+03
-4.774896532002115237e+03
-6.943540464892776981e+03
-7.237911939420608860e+02
2.466195703245986351e+03
2.410259794667358165e+03
-3.512704715664586274e+03
-3.266770023025863793e+03
3.095981078673419688e+03
5.536511190223582162e+03
5.986909472237757655e+03
5.485477130065133679e+03
4.733212245404494752e+03
3.820949474382105564e+03
2.341571344993564253e+03
6.979474044865778524e+02
-2.829088339366154514e+02
-5.159912649189298008e+02
-9.684783630157497782e+02
-1.014515056498165563e+03
-8.391921167998392548e+02
2.745462025747379471e+02
1.292621077559841524e+03
1.645069054390449992e+03
2.486902099982085474e+03
3.723253635555718120e+03
3.809502597537828024e+03
2.837629153367902290e+03
2.063458942434893288e+03
1.947822212129771060e+03
2.683636954872540173e+03
3.843810815827838269e+03
5.000381144043777567e+03
5.146659878761851360e+03
3.819638010829862196e+03
2.037850355376623838e+03
1.856243909207953493e+02
-1.163931909110956440e+03
-1.835174827974994741e+03
-2.090338188113030810e+03
-1.661546518682832129e+03
-6.616858667418046025e+02
5.663426052761807341e+02
1.710709330415670593e+03
2.156548004055556248e+03
2.989845202616655115e+03
3.741579386674221951e+03
4.121578585510974335e+03
4.320072126016721995e+03
4.110234406118816878e+03
3.937932139994514273e+03
3.940968829574002939e+03
3.813460763869086350e+03
2.831694361527927413e+03
1.559810830914000917e+03
4.101961691130115355e+02
-1.228382174099711165e+03
-4.014595396206249916e+03
-2.865397404319753605e+03
-3.454263731531548274e+03
-6.627222033226010353e+03
-5.404962650832743748e+03
-2.692123597593689283e+03
-5.320484689351914085e+02
5.369320876646889928e+02
1.695010560971182940e+03
2.150338824943259169e+03
1.508027191709439421e+03
1.385150817055319521e+03
2.415728885156369415e+03
3.022627054965526895e+03
3.551960604880792744e+03
3.300822601856802066e+03
1.886049221623647327e+03
4.016703116188390368e+02
-1.115277210378535528e+03
-2.483006809472160967e+03
