-5.630323591646962313e+02
1.912707610503857495e+03
2.010434226947825437e+03
1.469151259501602908e+03
1.436901394258616165e+03
1.639748069032976218e+03
1.795717503880341610e+03
1.836830933008877309e+03
2.044140773404789115e+03
1.943727387462226034e+03
1.887582335493981645e+03
2.492715225959367672e+03
2.995111650060156080e+03
3.080807398704236221e+03
2.769946406068503620e+03
2.512578096902648213e+03
2.226793480080033532e+03
2.306628796689269620e+03
2.140081690885606804e+03
1.861213941114090630e+03
1.298076835981825525e+03
7.296560425097167126e+02
3.029692753684400373e+02
-2.929092775702810059e+02
-6.289281018764227156e+02
-2.760614941706874674e+02
8.687471502939381480e+02
1.428533596060894297e+03
1.566392696200219461e+03
1.496389791727692000e+03
1.429577879184482754e+03
1.361042756898257949e+03
1.653847716913982367e+03
1.754017632484465821e+03
1.711616954364776802e+03
1.314717532714773824e+03
1.042397640945157718e+03
1.265647245456980727e+03
1.448522911959107205e+03
1.148061122651060487e+03
8.852627935751045243e+02
5.670528949940852499e+02
-3.813630881323295512e+02
-1.354714379434054081e+03
-1.431392444617748652e+03
-2.252731615312517533e+03
-2.239650482714880582e+03
-6.951555371189550669e+02
2.257946590875846482e+02
5.062117026170423060e+02
3.167361243119071332e+02
-1.962568824316614666e+02
4.045655719690552132e+02
5.257423481085359072e+02
7.961902619527833167e+02
1.165939539433249138e+03
9.860850511747289602e+02
1.044678029113701768e+03
8.377954446612135371e+02
3.514607030641362826e+02
1.976128992192681437e+02
-4.417536682281041180e+02
-8.726183739893393749e+02
-1.291940366357354378e+03
-1.375734945405150711e+03
-1.284034355022688032e+03
-1.243783453995027912e+03
-1.135869015147809932e+03
-3.722758654341339479e+02
-1.200097999696516098e+02
1.759322456944732949e+02
6.645414374528858161e+02
6.248756018865603892e+02
8.649535011377039382e+02
6.157811567054443458e+02
6.313606899923493074e+02
6.447427498442780234e+02
8.078903185099097755e+02
4.017818636441346598e+02
-6.956610448767618493e+01
-8.321626000993231855e+02
-1.198079161604091041e+03
-1.080355023594080194e+03
-1.132963353817581719e+03
-1.358969975626565883e+03
-1.283437308226609957e+03
-9.182685459885748287e+02
-5.684820273592082458e+02
-2.741532985227328254e+02
2.367172952746573173e+02
2.071615522229220971e+02
-2.228305713811136854e+02
-1.202848750256133741e+02
3.087734723729642496e+02
4.922886547498094956e+02
8.522039854353718056e+02
8.185781777934530510e+02
1.184373348900655401e+03
1.072516739697152389e+03
6.029002553973029990e+02
7.523544960969328343e+00
-4.226347798835875551e+02
-8.286925047985115498e+02
-9.767288072433018442e+02
-1.269848983072115061e+03
-1.132941953426306554e+03
-5.550881040887894642e+02
5.165680755542619096e+01
-1.474496519927335214e+01
-1.433714478882879746e+02
-6.221664037944483994e+01
1.643581441061029436e+00
4.851642991605319821e+02
6.892418185781775719e+02
6.558083811419702442e+02
9.047811946789895501e+02
2.251145975505166916e+02
1.485314909882265226e+02
1.243571544746725294e+03
1.585090477240718201e+03
1.543617788033732950e+03
9.431855566106886499e+02
5.202870041722128462e+02
7.695985587449715126e+01
-3.796767233180239032e+02
-5.412177837597164398e+02
-3.960602849872733486e+02
2.607280871244491323e+02
7.702489953163062637e+02
9.717898542249145066e+02
1.023114053948903461e+03
1.660643470935021469e+03
2.209198995948351694e+03
1.966998262738314679e+03
2.386245980324175434e+03
2.490065073669811682e+03
2.402828514402586279e+03
2.514994727633385537e+03
2.725142569430178810e+03
2.825695525273019484e+03
2.100455000528493201e+03
1.913670244627972806e+03
1.586345871399627185e+03
1.213007224863143165e+03
9.221754539586199826e+02
8.103097664680398111e+02
9.216689709934571511e+02
1.212383339964752167e+03
1.626046814954421734e+03
1.964195246556249458e+03
1.890735210836794067e+03
2.252963383320630328e+03
2.905878189398403265e+03
3.427004913858262171e+03
3.234565662601581153e+03
3.350375916604236863e+03
3.675431761601985272e+03
3.369728455511120501e+03
3.192199328874583443e+03
3.167822948836255819e+03
3.112557461174576019e+03
2.404412269094951171e+03
2.047350106515422340e+03
1.541396507110701805e+03
1.502469849025259919e+03
1.595520199838851568e+03
1.800548125158855100e+03
1.784541938754239709e+03
5.364717762391026099e+02
-1.784696072505698112e+03
-7.054900674867345515e+03
-8.899130835125075464e+03
-8.447380668497884471e+03
-8.080541264157393016e+03
-6.984604063349061107e+03
-6.255589349438528188e+03
-6.432575286890059033e+03
-7.022525600743442737e+03
-6.566384556183063069e+03
-5.718199208394374182e+03
-5.619789980016556910e+03
-6.509929066309770860e+03
-7.381012829536075515e+03
-6.054045676500530135e+03
-2.083988892370038229e+03
-5.169806944200398902e+03
-6.280427645608132480e+03
-6.625825474675420082e+03
-6.470003341178882692e+03
-5.841844245373309604e+03
-5.658264361074146109e+03
-5.693242118121143903e+03
-5.514761885463219187e+03
-4.947769534292131539e+03
-4.323302211453032214e+03
-4.299281781223709913e+03
-4.558542884492793746e+03
-4.127027253074500550e+03
-1.742781449620107878e+03
1.089277757906160105e+03
-3.443834691129870407e+03
-5.862104310442868154e+03
-6.392475856268753887e+03
-5.718898291245574001e+03
-9.523406583056133741e+02
3.014225841124763065e+03
4.131852483892653254e+03
4.403576833620284560e+03
4.748435766336546294e+03
5.024621952901966324e+03
4.982259071568760191e+03
4.775356037181450120e+03
4.944932716380540114e+03
5.288052613221958381e+03
5.459770294485817431e+03
5.460070057472282315e+03
5.447101149344806799e+03
5.736980414171088341e+03
5.348674798592405750e+03
4.892239136549165778e+03
4.274788354598394108e+03
3.863398384984565382e+03
3.633035605683883205e+03
3.102709328166823070e+03
2.745547073630711566e+03
2.132606927597332742e+03
2.089999147416787309e+03
2.515789695515182757e+03
2.622992476080409233e+03
2.609691829526419951e+03
2.616911129511552190e+03
3.240701008960214040e+03
3.431014048863672542e+03
3.238848222678715501e+03
3.244235474145741136e+03
3.380532481749260114e+03
3.684979427700179713e+03
3.491774130445903211e+03
2.929098910002227512e+03
2.798080808532177798e+03
2.445509620371366509e+03
1.840389187962683764e+03
9.486897481585864398e+02
7.959179517143118687e+01
-3.850694365117562370e+02
-5.124170148575262829e+02
-5.551913590605652189e+02
1.997268826740370855e+02
6.667441769161406455e+02
1.043356208381582974e+03
1.290222406455507780e+03
1.600700198025990176e+03
1.385776397768304605e+03
1.549182903979951107e+03
1.860500204292615990e+03
2.119479959148740818e+03
2.074155668971350678e+03
1.707262491454154770e+03
1.616895679556018422e+03
1.341117134053195969e+03
9.197141700283614227e+02
5.116064215460443734e+02
5.377168733456284855e+01
-5.038232952252836867e+02
-6.931588017198180296e+02
-7.022029703534952887e+02
-3.338853114309615648e+02
6.674913108423743324e+01
8.062294104880977841e+01
2.777896815912130819e+02
8.242794715490870203e+02
9.680668564447412336e+02
1.104199440036609076e+03
1.589701487184416919e+03
1.393606130716413873e+03
1.020919562957223775e+03
1.096656196893966580e+03
7.607721846088195434e+02
5.950920318845144266e+02
4.964897902755427594e+02
2.909287407703722579e+02
-4.896271135710459816e+02
-9.291988668821861665e+02
-1.261824112658337071e+03
-1.373460202264238205e+03
-1.328048158450369328e+03
-1.595680470675736160e+03
-1.317409000808077963e+03
-6.351722887954643966e+02
-3.299881722753995632e+02
4.161606973471870141e+00
2.613580555338457998e+02
5.535875585918873867e+02
6.797313252040439693e+02
6.926387722026793199e+02
7.491986792129439436e+02
4.894111055723032564e+02
-2.241615380363684380e+03
-6.334118862461476056e+03
-1.028019181400390153e+04
-9.849793168384263481e+03
-1.051594368156594646e+04
-1.049963794648565090e+04
-1.067896250462606258e+04
-1.097206455648230985e+04
-1.041500169003814699e+04
-1.080174120750498696e+04
-5.806215292161494290e+03
-1.045477273748472840e+02
1.045191700046115784e+03
1.456088813027442029e+03
1.354158258644373291e+03
1.256410168372264934e+03
1.501698062159639221e+03
2.244017496607624707e+03
2.682472789056812417e+03
2.539116238143584269e+03
2.405882672130162973e+03
2.440767638789654484e+03
2.284726571160124422e+03
2.249682452723709957e+03
1.563380182073924288e+03
1.083633549855206411e+03
8.725523885890011115e+02
8.762356388671386185e+02
7.425576082305898353e+02
5.978096853559075043e+02
5.352003501479580336e+02
7.194696153365105147e+02
7.482964675573251725e+02
1.045523207042116837e+03
1.495014895770514158e+03
2.324653812735772135e+03
2.666456603619182260e+03
2.677374778403263463e+03
2.672362944914840682e+03
3.103554541940926811e+03
2.938861449649543829e+03
2.550250574554064315e+03
2.426712408436480018e+03
2.269292702830857252e+03
1.130937821829865925e+03
6.436069506738916743e+02
4.233927081601751183e+02
2.494081885754987979e+02
6.396009994511369712e+01
1.059185000424443359e+02
5.352058174802853046e+02
9.431820410169111710e+02
1.440712408863329301e+03
1.923442431176475338e+03
2.054181771250905513e+03
2.535879036543425173e+03
2.848668232285794147e+03
2.903486121014054788e+03
2.901478171081675100e+03
2.944742423631151269e+03
2.739349845588723838e+03
2.231160850104729889e+03
1.686795955858615798e+03
4.932096196508881008e+02
1.099727797300345856e+03
9.193331554141605011e+02
5.088848762986965539e+02
1.982255210055560610e+02
1.746042121391362301e+01
3.628269877981538230e+02
5.583164996538068863e+02
9.311178578159046992e+02
1.116109439051799427e+03
1.111304916026300134e+03
2.884658516730108246e+01
-3.667245869552179556e+03
-4.110682871785384123e+03
-2.765579162872654251e+03
1.813597678583112838e+03
-7.940443135376718828e+02
-5.294503602434177083e+03
-2.149766862196061993e+03
-2.199726870218354179e+03
-2.421257824440605873e+03
-7.963319034257921203e+02
-3.299707558408358636e+03
-4.024229721764812439e+03
-6.292207310403434349e+03
-4.899040225226832490e+02
-1.547983858100076077e+03
-6.855874264500575009e+03
-4.128751956882957188e+02
-1.338471895213370090e+03
-6.796150681119963792e+02
1.808951505395880531e+03
-1.888666718191786003e+03
-1.626555847339720458e+03
-3.767632765782601837e+03
3.762894687588113243e+02
2.144167598494723734e+03
-1.679025829699140559e+03
1.017632604590979440e+03
1.588146421620532692e+03
-1.807471464616558706e+03
1.473967808358321008e+03
-7.635526893289312511e+02
-6.348035259733789644e+03
-1.083403408910375674e+03
-1.053690686850338579e+03
-6.329941015086994412e+03
-1.701997338434475523e+03
-2.065899126934515152e+03
-2.054490717828434754e+03
1.258360385479341858e+03
1.606585101965210242e+03
1.334268008670630252e+03
1.676476984980588213e+03
1.854203720306956711e+03
1.924569931160805254e+03
1.918870834570888519e+03
1.960939946845503528e+03
1.578819388358054539e+03
1.848409606961439067e+03
2.175578799140871070e+03
2.143481262260584117e+03
1.964988230385964016e+03
1.774142509259428152e+03
1.573031965860789114e+03
1.155614546262326257e+03
1.072890978959363338e+03
1.303092867675457001e+03
1.080989056865189696e+03
1.402661631836150036e+03
1.609553533240828529e+03
1.989554212929469259e+03
1.837628121264929632e+03
2.028013956640289052e+03
2.107738733509104350e+03
1.221680601582043664e+03
1.584781709428506474e+03
1.539147497010715597e+03
1.855835657267582292e+03
1.676831183059093064e+03
1.201853654913026276e+03
6.935875760190759820e+02
2.687751213255307903e+02
-2.528892721171443441e+02
-8.246744433583247655e+02
-8.043784472637129284e+02
-7.000020433830673028e+02
-4.225699686493362606e+02
-1.429136961541771029e+02
5.320803992160364260e+02
8.211872764193328749e+02
3.613029575057763054e+02
6.834250733744671606e+02
1.504606724318941588e+03
1.422726864567775692e+03
1.803623799578005901e+03
1.981314951619214298e+03
1.874586337325610657e+03
1.693827963716631530e+03
1.822885233506115355e+03
1.911817325755030197e+03
1.824270801708195904e+03
1.346431971257665964e+03
6.690585006439702056e+02
3.100705704838417276e+01
2.531754259152339728e+02
8.356587429096351798e+02
1.273478596251760791e+03
1.748601422268395709e+03
2.393898808532723706e+03
2.877289403623421094e+03
2.860728459460702652e+03
2.940225497390380497e+03
2.670767800789332796e+03
1.899348852168951908e+03
1.504935078746629870e+03
1.294470554155746186e+03
1.127034436266473904e+03
8.737505071910660490e+02
2.957077732888987498e+02
1.927125367237202624e+02
-5.048410691714074261e+01
-7.617774532107682717e+02
-1.028208031373334052e+03
-8.898726857097666425e+02
-5.775521056088167882e+01
5.950598612211689442e+02
1.137444204335616405e+03
1.702556000321853560e+02
-2.589417376809860343e+03
-6.479477695885497269e+03
-7.062909959468020133e+03
-5.784748021655380398e+03
-5.181116129144609658e+03
-5.062032393117430729e+03
-5.631477730196618722e+03
-5.984518214417019408e+03
-6.459114207364066715e+03
-6.557236643964612995e+03
-6.131930516403250294e+03
-6.734146027141924606e+03
-8.442824398703742190e+03
-7.942044753801475053e+03
-6.252814784644221618e+03
-1.221408233570336506e+03
-1.108861152686049536e+03
-5.168161596061762793e+03
-5.467404207001452960e+03
-4.789621853982628636e+03
-4.710670684374333177e+03
-4.699611861114000931e+03
-3.916544377875582541e+03
1.777694826730770274e+03
8.820976883451611457e+02
4.498504130156358769e+03
7.723850220129043009e+03
7.958230511207349991e+03
7.586748631504558034e+03
7.106468863081917334e+03
6.041333449740525793e+03
4.909221151047673629e+03
4.215029467251842107e+03
4.113812466617972859e+03
3.460612620458499805e+03
2.443525671138361758e+03
2.109547191504942475e+03
1.893439806378906269e+03
9.250562805650139353e+02
5.424901105799265224e+02
5.088617820323416936e+02
1.592181703747548227e+03
3.076444188624222534e+03
5.340645909872848279e+03
7.540801537095208005e+03
8.022980090917889356e+03
7.215175865128628175e+03
5.699350034179564318e+03
3.787527013785464533e+03
2.222774636066373205e+03
1.211096569918869136e+03
5.544704334371812138e+02
6.429423676650089874e+02
-3.794958808606459684e+02
-2.030803134654884161e+03
-2.826002495041744623e+03
-3.200143777810451411e+03
-3.094224258889725206e+03
-1.411228667094682805e+03
6.319037269875493621e+02
2.132201426113379512e+03
2.998729869235552542e+03
3.087522211162980511e+03
3.228588804668284411e+03
5.590847666891500012e+03
5.624548588197116260e+03
4.019849835793080274e+03
2.854216749591886128e+03
2.539382856541124966e+03
1.855477920738622061e+03
1.161529217491271311e+03
7.135539676715156929e+02
-4.454257515645864487e+02
-1.423381980093804941e+03
-1.628217274826489529e+03
-3.623373386680741532e+03
-5.391926282834872836e+03
-6.316945283340659444e+03
-6.534277684996874086e+03
-5.921626842969285462e+03
-7.369213291035553993e+03
-8.552126357391365673e+03
-8.375456150934040124e+03
-7.297072604886298905e+03
-6.063869393160112850e+03
-4.687813066964172322e+03
-2.952878875107753629e+03
-1.414010887741556871e+03
-2.340247382069386731e+03
-5.584453764081503323e+03
-7.740647070313753829e+03
-8.526901716707154264e+03
-1.008822753404072137e+04
-7.822536981159798415e+03
-1.216791902737926648e+03
4.350011722429572728e+03
6.801865904369086820e+03
8.510817619247171024e+03
8.664885058216648758e+03
7.865105167563485338e+03
7.521472934050920230e+03
6.982016522486620488e+03
5.314802009231389093e+03
5.283886909482863302e+03
3.769252966192078475e+03
1.917952228256359604e+03
1.800570471859984423e+02
-1.330449274883511634e+03
-4.106545535194532931e+03
-7.817140306343461816e+03
-1.074026477687766783e+04
-1.268594295620808953e+04
-1.057416909220840716e+04
-9.309914087646606276e+03
-9.306160767702569501e+03
-4.450939193960149169e+03
5.167088439346287032e+02
2.286817070727866394e+03
1.665438951460860380e+03
4.345702055352643924e+02
4.371457837499453376e+02
1.822302779832574871e+01
1.098795792486422670e+03
3.434925942456573921e+03
7.206657450813417199e+03
1.008602120416731486e+04
8.114066884916881463e+03
5.045742437273280302e+03
5.569140738550990136e+03
6.379102388236746265e+03
5.862626847896331128e+03
2.936773609181159372e+03
-1.895024820663582830e+02
-1.068239269406932408e+03
-2.353515683626672399e+03
-1.495375498667680176e+03
-1.891806740158964885e+03
-2.723797096003616844e+03
-2.268417974055555533e+03
-1.355575820206275921e+03
2.658938146456014692e+03
6.462072742368582112e+03
5.697943551112212845e+03
5.331189568804168630e+03
4.137346689331520793e+03
1.669634203612944930e+03
-3.056643633480610447e+02
-1.590367046713243781e+03
-3.440439119474184281e+03
-2.478109588283632547e+03
9.800303092159405196e+02
1.190799230425203177e+03
-2.880686418184516242e+03
-3.941030125584459256e+03
2.537383826452692574e+03
6.870530532000489075e+03
4.974277204542181607e+03
1.913430414209828541e+03
2.028892565184507703e+03
2.972508758755418057e+03
2.224640991500129076e+03
2.222960533470463361e+03
4.662737583563507542e+03
6.647455290422898543e+03
7.319169221514902347e+03
7.088281676640733167e+03
6.143263309195664988e+03
4.481253842050876301e+03
4.639620693936094540e+03
4.275050189080759083e+03
3.558353893816029540e+03
3.558855710068951339e+03
2.842939353635832049e+03
8.119105688680052708e+02
-4.286741784530469204e+02
-2.579630835062375809e+03
-3.092766969065635749e+03
-2.275994703760041830e+03
-3.504430808509145209e+03
-4.005334622217333617e+03
-3.834748276832927331e+03
-4.941995941275647965e+03
-4.983829941957987103e+03
-9.741845133127255849e+02
1.323645082789123308e+03
3.694628811409716036e+03
5.207812974824651974e+03
4.605156594114045220e+03
6.257598227579532249e+03
6.384054361117188819e+03
7.092549226857467147e+03
8.846078077945745463e+03
8.675641274453389997e+03
6.482222368880265094e+03
2.313741910413185451e+03
-3.855833710421167325e+03
-8.435517644127508902e+03
-8.013408550750744325e+03
-8.220512274903203433e+03
-9.333807279042650407e+03
-8.369221715392535771e+03
-7.436787807491446074e+03
-6.943580290509826227e+03
-6.586626310492180892e+03
-5.337533347904398397e+03
-4.143503316244383313e+03
-3.048660434685776636e+03
-3.136008027441903323e+03
-4.027476606804320454e+03
-2.144142599713823074e+03
-2.495953204887301581e+03
-6.170815232370996455e+03
-7.314710634470107834e+03
-8.039768628793677635e+03
-9.618031667644678237e+03
-9.276487399845922482e+03
-6.723102002787515630e+03
-5.975931299077671611e+03
-6.081978938019870839e+03
-6.622162671181122278e+03
-6.661452810133478124e+03
-7.426889032917205441e+03
-7.877349879181112556e+03
-6.632854437484276787e+03
-1.825391939488923526e+03
-2.867975051091248133e+03
-4.409551364457083764e+03
-3.738024684032506229e+03
-2.148368421932964338e+03
3.501416797243610745e+03
5.195374835468994206e+03
4.954557192960024622e+03
3.743946687583227231e+03
4.028534133953927267e+03
4.833334368276588066e+03
5.616393564962896562e+03
5.633686383580988149e+03
5.204236640719704155e+03
4.336180417283705538e+03
3.644607719008342428e+03
3.005580718000250727e+03
2.934184175617934670e+03
2.014483514146099651e+03
2.434544766930697790e+02
-7.838075872590383142e+02
2.517234629529425547e+02
3.509086999317792106e+03
4.929339030022037150e+03
3.675480495611489005e+03
3.665580757284622905e+03
4.128774056053083768e+03
4.418069112284555558e+03
5.271425650815516747e+03
5.530822448559993063e+03
4.511336223728735604e+03
2.387988940608648136e+03
1.039973998651779766e+03
7.464028716379663138e+02
1.252362085626059525e+03
2.042726060055371136e+03
1.950583918072220513e+03
1.454300229107660243e+03
9.879994806762315420e+02
2.227598299653544700e+02
-9.738635474547847082e+01
-1.094341657694047001e+02
-9.433260355649695157e+02
-1.135184557615208860e+03
1.470876655022088926e+02
1.348720549557031745e+03
3.279556815998176717e+03
3.175596208265566929e+03
2.750550059687329394e+03
2.769962934910612148e+03
1.693079268162412291e+03
2.891845333727028446e+02
3.045843221532844609e+02
1.374061043683272487e+02
-1.032326984964046915e+03
1.366385517754652881e+02
1.465962898433452210e+03
6.296893873331630402e+02
-9.436193749627142324e+02
-1.672944300761733075e+03
-1.189092483541121510e+03
4.499944390892412684e+02
1.709350742145498998e+03
1.449088334020554839e+03
5.023180550702650038e+01
-6.702878928825909952e+02
-3.874561495215306195e+02
1.643801907166531691e+03
3.930527784261236775e+03
3.720697338078814028e+03
1.841329356930836639e+03
4.424748779473316631e+02
4.330556351380817546e+02
1.048044704348114465e+03
9.833925194514307577e+02
5.010353253962537110e+02
4.838917609883931163e+02
8.769279528285712786e+02
1.319270788409538454e+03
1.240063854284917625e+03
1.195375218981006810e+03
1.181272157304709708e+03
1.264725219807168742e+03
8.756306636198428350e+02
1.051993050709234922e+03
1.129800383512487315e+03
1.232039992132270299e+03
1.425742229965141860e+03
1.307854268624512770e+03
6.453123629653370017e+02
-1.499396265404463975e+02
-5.970671850721919327e+02
-9.651780333534344436e+02
-9.523093323528474912e+02
-9.164672173005981222e+02
-1.030612533684079381e+03
-3.180732629087850000e+03
-6.000005347486188839e+03
-1.036635670094589841e+04
-1.064968010351915837e+04
-1.087300004225012162e+04
-1.095244501558175580e+04
-1.037506550952984253e+04
-1.002390127212124389e+04
-9.844987678354205855e+03
-8.576272010724836946e+03
-6.929846460426609156e+03
-4.807785292267306431e+03
-1.120999636627185964e+03
-1.960474916135776539e+03
-1.845245698515315553e+03
1.716533779045171286e+03
2.646691296566557412e+03
2.539317304569850421e+03
1.366361014576032858e+03
1.158709213752267715e+03
1.396261538403963186e+03
1.730974865441596648e+03
2.276734944800685298e+03
3.148452696944172658e+03
3.406040999313816428e+03
4.461641527946160750e+03
5.246403508420432445e+03
4.983208411925096698e+03
4.324938564959286850e+03
4.200634389994490448e+03
4.166920332255311223e+03
3.868326763200807818e+03
3.289695156345855139e+03
2.712127395551492555e+03
2.216552053778455956e+03
2.038046641945610872e+03
1.997680030071269130e+03
1.614405784589210043e+03
1.405174035970373325e+03
1.614029623421426095e+03
1.840903040057061617e+03
1.929920504347835731e+03
2.457059338431088690e+03
2.823284942276390211e+03
3.248630301130565840e+03
3.564187686660840882e+03
3.772050304028286064e+03
3.662223187424705429e+03
3.386609670750642636e+03
3.191847677201920760e+03
3.247932636655720671e+03
3.222939338026879796e+03
2.512371659209230074e+03
2.171118866764451468e+03
2.504340955126185690e+03
2.430208936262324187e+03
1.745752887057079079e+03
1.514847476296210061e+03
7.764668346825474146e+02
5.774914029285420156e+02
9.468371842676899632e+02
1.512365968635678200e+03
2.489007240350453230e+03
2.777087801308885901e+03
3.529697133224631671e+03
4.174722849706470697e+03
4.226120794732350987e+03
4.897985794973087650e+03
5.211484859801161292e+03
5.255715797857512371e+03
4.911541979538184933e+03
3.869001266869074243e+03
3.126888941701490239e+03
2.364346991839177463e+03
2.784789235844669406e+02
-2.306830315532642999e+03
-6.165639502895905025e+03
-8.672259157706466794e+03
-7.856737223798714695e+03
-7.332619465284248690e+03
-6.508925921572952575e+03
-5.232593667296773674e+03
-5.318395208100508171e+03
-5.673266823442796522e+03
-5.582192624648791025e+03
-6.225100240025946732e+03
-5.600206239653919511e+03
-5.589707051259842046e+03
-5.734294631356280661e+03
-4.657547820027541093e+03
-9.426634403609157289e+02
-1.930307353329764055e+03
-5.865403422637307813e+03
-6.306474072618689206e+03
-6.157337533988013092e+03
-5.280163336790405083e+03
-5.690000245800849370e+03
-6.641675056011537890e+03
-6.509244369495093451e+03
-6.010799497311273626e+03
-5.948252729567716415e+03
-6.238471427249643057e+03
-6.681362741459903191e+03
-6.708835453247508667e+03
-5.865692380426504315e+03
-1.275038601851718568e+03
-3.800789809827953377e+03
-6.860899675718896106e+03
-7.042340541725163348e+03
-7.505974859730482422e+03
-6.309638985518885420e+03
-5.028314010793562375e+03
-5.115840322141731122e+03
-3.059303990914584574e+03
2.707162836653946215e+03
4.045784716258789558e+03
4.985598048727103560e+03
2.643572112175029815e+03
3.645834585874112236e+03
6.335366310375884495e+03
5.887877005297532378e+03
5.406471408353530023e+03
5.396130847135850672e+03
5.971007300799626137e+03
6.419278797092857531e+03
5.834798994960680830e+03
5.650727768837705298e+03
5.674002961055293781e+03
6.028517867203589958e+03
6.282499851930138902e+03
6.112150282094641625e+03
6.123717716979130273e+03
5.753506609160845983e+03
4.757507923028109872e+03
3.597415838594170964e+03
2.939296845009906065e+03
2.787238639904039701e+03
2.709081767611761279e+03
1.586745290130393869e+03
-1.372895903679473122e+03
2.057534385057566851e+03
3.227996492937980747e+03
3.472700000367686698e+03
3.271312361446180603e+03
3.656171877825101546e+03
2.878195664160488832e+03
2.617255973091633223e+03
3.400622092206485831e+03
4.452529573381911177e+03
4.482415172916065785e+03
3.961778389854232955e+03
3.649367891752092874e+03
3.729426180355730594e+03
3.479273048114633639e+03
2.643301425669396394e+03
1.693801607860065133e+03
1.558477689994692582e+03
1.299004294051896977e+03
1.560860690033042829e+03
1.904864378095950769e+03
2.049040367466262978e+03
1.392800519099860594e+03
8.206995840470599433e+02
1.463010069593472508e+03
2.278085169768934520e+03
2.711242424837109411e+03
2.957293823834314935e+03
3.189106326426887335e+03
2.622696013437151123e+03
2.199129073286121184e+03
1.905284441785915988e+03
1.672074400235634585e+03
6.274923575270294123e+02
-5.904519540542313507e+02
-7.807451342440349435e+02
-8.243377146224288481e+02
-4.782574306125210342e+02
1.495030564312950787e+02
5.468520885554419237e+02
3.048275619334381759e+02
8.575476580891880758e+02
1.288958911472519048e+03
1.598892988202722336e+03
1.655109637024387212e+03
1.505739675009343273e+03
1.438961504318646575e+03
1.967642074230423759e+03
2.464707991185467563e+03
2.279141834148657381e+03
1.979857159707936717e+03
2.045858750600411895e+03
1.804210929928439100e+03
1.838013601390561007e+03
1.931969947448283165e+02
-3.685351585174808406e+03
-8.177691471798046223e+03
-1.118790375255780054e+04
-1.094498303061039769e+04
-9.970921418779336818e+03
-9.126709950066555393e+03
-8.137337186883591130e+03
-7.717806053725817037e+03
-6.627173524719260058e+03
-7.004378103699201347e+03
-7.889383800644452094e+03
-7.874337492566167384e+03
-8.410283487964095912e+03
-7.984395996371640649e+03
-7.402598842251252790e+03
-4.031895249691025128e+03
-1.957337863724675344e+03
-6.658853071828400971e+03
-7.565415716476661146e+03
-7.914139052133331461e+03
-8.555004145962637267e+03
-5.064973765627090870e+03
6.937404020106001781e+02
1.610112164837821638e+03
1.585278613908519219e+03
2.074310281898351150e+03
2.297128942925173305e+03
2.394701494669626300e+03
2.458911528205642298e+03
3.002746736749068987e+03
3.409288126875195758e+03
2.920671656152247124e+03
2.865875941831812270e+03
2.981798915810266863e+03
2.932209459684752801e+03
2.980044511526762562e+03
3.291494487116471191e+03
3.355673274980416863e+03
2.728587232996888361e+03
1.854151846453669123e+03
1.448291714662466120e+03
8.630570009309775514e+02
4.074910966710087337e+02
-3.546838458965940077e+01
-2.518293437286162373e+02
1.283907101235090806e+02
5.672113054377190338e+02
1.303692650744849288e+03
1.889860096633191688e+03
1.595681458918656062e+03
1.702173092378406409e+03
2.735330963500762209e+03
2.806212626522011760e+03
2.583812028769214521e+03
2.527134987648214519e+03
2.249178301682567962e+03
2.025963070620264261e+03
1.850551304020657426e+03
1.494963336940685849e+03
8.841774639005557219e+02
1.191559121300170432e+02
-5.501681431441439827e+02
-6.288421746706205795e+02
1.003188401105334862e+02
3.658122966453182130e+02
7.189408936601705591e+02
1.484380246065800520e+03
1.948177484179107296e+03
1.865346915434629182e+03
1.603908762781800306e+03
1.522894360774014785e+03
1.827339623208102694e+03
1.456122440024102843e+03
1.314121213732687465e+03
7.953223030857310505e+02
7.916552609476781299e+02
1.631775925477612191e+03
1.901221626955308693e+03
1.546453837011863925e+03
7.565935976997129728e+02
-2.792322608448190522e+02
-1.044930323269600876e+03
-1.452540239768272613e+03
-1.251106908941384518e+03
-1.284653593793160098e+03
-9.361684867484691495e+02
-6.866832711511334537e+02
-2.041100630111773171e+02
1.435080451088818450e+02
1.061855212510727426e+02
2.940489345113142576e+02
7.451837487879394075e+02
1.147558045264990596e+03
1.905164903588564812e+03
1.989023947563318188e+03
1.973168785111789248e+03
1.364621009564634505e+03
8.713661909319403094e+02
6.884249062587832668e+02
7.367921841717330835e+02
3.104902970127150184e+02
-6.224648532317042964e+02
-6.621199117986933516e+02
-2.214638861409371202e+02
-3.214741931523855669e+02
-8.231449812752995285e+02
-6.705113003736757946e+02
-6.675894533719272204e+02
-7.953577334936603620e+02
-4.277389110211569232e+02
-4.247024204449397189e+02
-5.202288330310624360e+02
-6.392901014806861895e+02
-4.409286425561900273e+02
-7.291756084983504707e+02
-7.029350929825185403e+02
-6.002385579956090851e+02
-1.981555874261175916e+02
8.136007096158346030e+01
1.003965751841912208e+02
-5.541362240749338071e+02
-1.128214689740770154e+03
-9.708462693993794801e+02
-9.108830189605173189e+01
8.303651667766436617e+01
-2.585481199447331733e+02
-1.390794681063494863e+03
-7.787623626995047061e+02
-1.214542778995997168e+02
6.112492985832215027e+02
6.782267064809864223e+02
9.956164805328289731e+02
1.297369530806713783e+03
1.375458957648232172e+03
7.519358528945189164e+02
5.407979221296401420e+02
9.600238633559961272e+02
1.060785861460171418e+03
8.641106779429339895e+02
1.001613703280604000e+02
-9.491216179180802328e+02
-7.330085081220980783e+02
-8.345357946453801787e+02
-1.617754304236461394e+03
-1.702685587009194705e+03
-1.390271420687385898e+03
-8.605411656533042333e+02
-6.405381025037901281e+02
-8.772048840407629768e+02
-9.936397153418292874e+02
-2.468272451383595296e+02
9.512511798374207501e+02
1.807479460463657688e+03
2.084577371688450512e+03
2.212851968819051308e+03
2.069555375387421009e+03
1.888448636676843307e+03
1.764446621023342004e+03
1.397475817744441429e+03
9.485885017709118756e+02
-3.611824102186740788e+02
-8.909465309446630954e+02
-8.147632924674666128e+02
-5.645914305127464559e+02
-5.554860764582163029e+02
-9.194272822381839205e+02
-4.204524210540352556e+02
-1.756781230132423559e+02
4.255275929043943961e+01
-2.712266626847648467e+02
-2.669094610384824477e+02
1.312825073937183049e+02
4.403571662545181766e+02
8.521679835250416772e+02
1.525630842244928999e+03
1.969836167484304042e+03
1.541557570581205937e+03
1.264402140804932515e+03
1.401652631385643872e+03
1.245332682200942145e+03
7.236896595637798555e+02
2.274473991317846071e+02
-3.157689625631387997e+01
-4.291634909757128185e+02
-1.045296757850721178e+03
-6.219993162464608076e+02
-3.583378937618405757e+02
-4.032894507164726150e+01
6.471553793739079765e+02
8.231166228476431570e+02
4.595478306886002997e+02
7.884208947999660495e+02
9.357670409053565663e+02
1.025612839989013310e+03
1.284926997553455976e+03
1.260700560032488511e+03
1.457998657772728848e+03
