5.195547956412922019e+01
1.205225838724209808e+02
5.025247004917233653e+02
1.102115052095303781e+03
1.253326042258701818e+03
9.880007639185037078e+02
9.414507309756278346e+02
1.692649468402803450e+03
2.868395188604496070e+03
3.722184113006447205e+03
3.210178867179462486e+03
2.622933358497736208e+03
2.081468507688419777e+03
1.981022005662382526e+03
1.344348021838794466e+03
1.299223122311500447e+03
1.088986179174540666e+03
6.592160630472576486e+02
4.922182100763826611e+02
-1.872272621346054393e+03
-4.960844858393473260e+03
-1.591055005036473403e+03
8.622998509671480178e+02
1.379923919969900908e+03
1.187672833570249850e+03
1.270031231671215892e+03
1.802047224652503473e+03
2.560060961162116655e+03
3.307486066884599040e+03
3.513524354381397188e+03
3.683171358213494386e+03
3.435379407095686929e+03
3.235433701617147108e+03
2.891808867548335002e+03
2.028861995658678097e+03
1.323180234387383507e+03
8.039190792053988162e+02
4.546784570166460639e+02
1.908850708029636678e+02
2.203599848577331102e+02
5.057553998404760591e+02
1.217919602592500496e+03
1.542302414975684997e+03
9.559123775778871277e+02
6.488197119744540942e+02
1.343496549771999753e+03
1.884137402657985831e+03
1.580725781197929336e+03
1.655251085140552505e+03
2.354720221555875014e+03
2.626119302532981237e+03
1.992416000435053547e+03
1.516610218162632464e+03
1.419708290181858274e+03
1.185691693818427211e+03
6.464692795028313412e+02
1.819982473993015333e+02
2.827107670888750590e+01
-6.876056669567707047e+01
-2.481470924077484028e+02
1.551592483771654258e+02
8.881336984832422559e+02
1.032752652100526120e+03
9.050381222967683925e+02
1.044966247287291935e+03
1.072552498929426747e+03
1.117849327100176197e+03
1.258792795224253723e+03
1.230312669365064039e+03
1.296455704933085372e+03
8.352321219782306798e+02
3.665982115219295565e+02
3.895769149519261418e+02
-1.988350068655321081e+02
-6.756357701115684904e+02
-6.788880254361031348e+02
-1.686071762761760340e+02
-7.917834477390981647e+02
-3.462499911689501459e+03
-7.963833126749706935e+03
-1.099477870889062433e+04
-1.023728427544603619e+04
-9.793301030929675107e+03
-9.457859200428796612e+03
-9.340940796193575807e+03
-1.005251694790126203e+04
-9.747615150318250016e+03
-9.610114345809377483e+03
-9.094125467486754133e+03
-8.346689106310750503e+03
-8.946759471460289205e+03
-8.609281355589058876e+03
-2.649279654759889127e+03
1.719297498073895213e+03
2.367396581549306120e+03
1.889985303238559709e+03
1.913068662666298678e+03
2.553640507003438870e+03
2.670710625714642447e+03
1.891310088685473829e+03
1.452395266507203587e+03
2.095993447888590708e+03
2.573166048923701965e+03
2.395949635359987951e+03
2.225351095919093495e+03
2.232400739859931946e+03
2.241084757356123646e+03
2.271402507669351962e+03
2.444391450901579901e+03
2.557084815727084333e+03
2.963530570762995922e+03
2.893742276395201770e+03
2.897733354032323859e+03
2.450504373330140425e+03
1.728051533876834583e+03
1.110378406139227309e+03
1.481517151670238945e+03
9.925007037305252879e+02
5.512596455292898554e+02
3.608354669201052047e+02
1.652610080316881351e+02
1.205341885631637808e+02
6.266771371574658360e+02
1.333785196040518258e+03
1.561845934562299817e+03
1.429906098278332593e+03
1.183059151355425911e+03
1.884324924692069317e+03
2.304729697502053568e+03
1.896215300944668343e+03
1.665854658869933701e+03
1.452736026914343483e+03
1.356809500959432171e+03
1.149109194206472239e+03
8.027226925228359278e+02
7.069245970494664277e+01
-4.589860385112082213e+02
-7.104900189247318849e+02
-5.306251615653961835e+02
-9.223220582028517356e+02
-9.749505325611105491e+02
-4.846932627797971236e+02
2.224326460580271316e+02
4.360946478290092045e+02
5.282258484550172852e+02
5.391426207691170021e+02
4.285946653401981052e+02
-2.464634168489959904e+02
-5.028399774268655165e+02
1.051370876746430440e+03
1.284123188379095609e+03
1.034517845757520718e+03
5.625513202157595742e+02
2.672691244533254462e+02
4.866057554386171802e+01
-1.722624245569801360e+02
-2.145285287999506068e+02
-7.621407350106371723e+02
-7.600560871721747844e+02
-8.992768751520532078e+02
-1.386808140862394794e+03
-1.051645331260171361e+03
-2.677697749960388478e+02
2.238204412296804833e+02
1.611302001239128856e+02
4.391888086249395542e+02
5.120439726803608664e+02
4.456854007894340270e+02
7.281234231256922840e+02
4.693688140459894385e+02
3.933843214244558908e+02
5.331973155414106031e+02
-2.154056475296946438e+00
-3.937186596191839385e+02
-2.507669709520739421e+00
1.804776253328454629e+02
-2.388108137683663017e+02
-7.493131893354953945e+02
-9.460316757154357674e+02
-1.318061711287715752e+03
-1.355432506226959276e+03
-1.167105330890189180e+03
-7.310478383192299816e+02
-1.753196600373908609e+02
3.780650838947274224e+02
6.351314745995484827e+02
5.108409621802793481e+02
2.052451372101774041e+02
3.063797859874358096e+02
7.692697065650908144e+02
9.657874497160640885e+02
7.768998574810273112e+02
4.086025633093196916e+02
4.878515669573270657e+02
1.866172192525776836e+02
-5.840448522149000610e+02
-9.852341005893970305e+02
-1.376059051307794562e+03
-1.475547617089070172e+03
-1.655633540317796815e+03
-1.169353598198160398e+03
-8.417085799782025788e+02
-4.126969573251712404e+02
-2.084046403139849133e+02
4.021734706752442889e+01
1.661288259982901536e+02
4.972686520691473220e+02
7.336218272271106571e+02
1.022184727699926270e+03
1.390970010053254327e+03
1.135938048740890736e+03
1.560720968794891235e+02
5.103923267016268710e+02
6.141069909321695377e+02
3.796835956280649498e+02
6.207980073906415441e+01
-3.124896787032085967e+02
-4.436276637271956247e+02
-5.668952371882118086e+02
-6.510556436668580318e+02
-7.348378673683951092e+02
-4.857474636534790875e+02
-1.455763356394404582e+02
3.333302255055987189e+02
6.113218693475512282e+02
6.400071841216102939e+02
1.039863754516030212e+03
1.638519798339770659e+03
1.840461996663381569e+03
1.786813867101826645e+03
2.257649209000566316e+03
2.807375365097864687e+03
2.798752273829507885e+03
2.238042792884474693e+03
1.495633096826259816e+03
9.330065058112584211e+02
3.748378243058011776e+02
1.894493536334760506e+02
-3.282914200375051337e+02
-2.108993949318583248e+02
1.130198281158358213e+02
-5.556491690188463650e+01
6.204435821653331686e+02
1.119033280966412576e+03
8.236650440025008493e+02
1.076258304151678658e+03
1.532814308440784998e+03
1.883670500222817736e+03
2.280487612111992348e+03
2.300134683800465154e+03
2.449706930066243785e+03
2.026209135144167703e+03
2.057645291107141929e+03
2.208035861226851011e+03
1.562324929634308319e+03
-2.498589560895514751e+03
-3.359608401921006134e+03
-5.675768311911928322e+03
-6.070151289902288227e+03
-5.077779302673498933e+03
-3.775703654669269781e+03
-3.956882841247690976e+03
-5.612909038422210415e+02
7.770713636681117578e+02
-3.485884760669559000e+03
-5.613225226603505689e+03
-1.615881908693879950e+03
-2.058734738971615116e+03
-2.149772491104793517e+03
1.026980355550408603e+03
1.213497013479970292e+03
-6.281697412408351511e+02
1.746932765286606127e+03
-1.753155683117993703e+03
-7.724247047429971644e+02
-2.354909172902495357e+03
1.128681700415195337e+03
-2.700567460345195286e+03
-2.265282843975256583e+03
-3.709407982713454658e+03
-1.645428480642531895e+03
-3.663543198205895806e+03
-4.480758354153825167e+03
8.689270529422126401e+02
-1.518479132249254917e+03
-1.799946294752204722e+03
-1.639425572749628373e+03
-2.098940076917107490e+03
9.105452297429267219e+02
-1.316939078136925900e+03
1.048664354561309665e+03
-1.423575433947390366e+03
-5.156345864349674457e+02
-3.084225861490675129e+02
2.771072349965116700e+03
-9.941354387298536039e+02
-1.186055522112870676e+03
-2.630673022575510913e+03
-4.779744679116808470e+02
6.311367283787294582e+02
4.478158530237628838e+02
6.430571601267538426e+02
1.344769325709545228e+03
1.682004312531475762e+03
1.760868045193215494e+03
2.042422052120759645e+03
2.148664895805991819e+03
2.148595675338033288e+03
2.040245884257166381e+03
2.260690231149254942e+03
2.711032194280938711e+03
2.981289883735526928e+03
2.764451216409288463e+03
2.541497221138823079e+03
2.168528654179287514e+03
1.427573874622442190e+03
1.040573505494438905e+03
4.775498720747062293e+02
3.285350898439247658e+02
2.375743674487213184e+02
-1.901863835640213267e+02
-2.325795984069661415e+02
4.594616292950890397e+02
6.289880180176090789e+02
4.260098797489658864e+02
6.525084220564948509e+02
1.185551860899191752e+03
8.792401976996172834e+02
9.556640142078044846e+02
1.525737129666496685e+03
1.984280988765076017e+03
1.788219530450006232e+03
1.601524038033304350e+03
1.881501866831668167e+03
1.717567520892108405e+03
1.183010196313857932e+03
9.009905862690649769e+01
-5.963580320123902538e+02
-4.696513624740713908e+02
-8.675316635660452675e+02
-1.068116973336819456e+03
-9.454328292257711155e+02
-7.653619754796740153e+02
2.350359851597033582e+02
6.808874257336283335e+02
6.732869602444383190e+02
7.486037106432816017e+02
1.020500311953743449e+03
8.287863993654403885e+02
1.212411794697077312e+03
1.284143464270625827e+03
9.498420521564927412e+02
3.797235036491617848e+02
2.397318269282372682e+02
2.127463586869414200e+02
1.417527925920864504e+02
-6.681842861185357378e+02
-1.464002584605835409e+03
-1.572925873128221383e+03
-1.267103088632179151e+03
-1.090520821779361313e+03
-6.179390598610046936e+02
-4.272080451930173695e+02
-5.263863986923686298e+02
-3.604713896947369562e+02
-3.145330454315737256e+01
3.026820617183945501e+02
7.037393105949873870e+02
8.567471394152969424e+02
8.167779355101793044e+02
1.051066310928569692e+03
7.546931626440424452e+02
4.914924561150468207e+02
5.526346485033224099e+02
3.572693104265516695e+02
4.011357789289810967e+02
1.999123025018568001e+02
-4.253608502900565895e+02
-9.475035776226712869e+02
-9.920160415764316895e+02
-8.390675727700011066e+02
-8.784914919201745533e+02
-8.091883389236274979e+02
-3.883348092847529642e+02
7.104329726109891396e+01
-4.689134671302603152e+01
6.189121859132366410e+01
1.834602120045963147e+02
4.764510596639138384e+01
-2.336634687243946473e+02
-2.755406649501965717e+02
8.047529879763230198e+00
2.932193724399783719e+02
-1.842108142652640481e+03
-4.776994187660120588e+03
-9.551334137495305185e+03
-9.990131502396579890e+03
-1.105652001313274195e+04
-1.077456903828855138e+04
-7.229440789733079328e+03
-4.318125037194547076e+03
-3.566907206646482678e+02
2.489316889117317544e+02
-5.582488260764459937e+02
1.448198750248961915e+02
8.093216393556090225e+02
1.031088389998536286e+03
1.472097339633181491e+03
1.773251950696396079e+03
1.872436793976047511e+03
1.946534688323927185e+03
2.314731606602629654e+03
2.620128448124618444e+03
2.372470984085695363e+03
1.988679734262718057e+03
1.663681185964809174e+03
1.282548226795931441e+03
9.603170557744118696e+02
1.027841189922917692e+03
1.032123126826644921e+03
8.681990958824113704e+02
6.341226174740286297e+02
1.032859817610131586e+03
1.368197122114617287e+03
1.665147731153165751e+03
1.963933143129205064e+03
2.210669679179625746e+03
2.455337476787792184e+03
2.540810312470637200e+03
2.547841783804041370e+03
2.452291873574832607e+03
2.620143008804026067e+03
2.318561690092294157e+03
2.273656369650159377e+03
2.432581227779727669e+03
2.574294854647053398e+03
2.165624378878436346e+03
1.832524389366598825e+03
1.286899653180663790e+03
9.366352524634029351e+02
6.487339734713638109e+02
8.741749868353717829e+02
1.016036175428271576e+03
1.362482721445891002e+03
1.970573739364734593e+03
2.518253327297363285e+03
2.685491926358182354e+03
2.663098538391911006e+03
2.589958414699171499e+03
2.917120043369998257e+03
2.985608853190413356e+03
3.301559537050305153e+03
3.169234401030229037e+03
2.564672643743797380e+03
1.835805010306624581e+03
1.694559459134698500e+03
1.129781199811216766e+03
6.773160243054564944e+02
6.713096907062197261e+02
5.967079273803312844e+02
8.344979611658593512e+02
1.280897202930476396e+03
1.529915369044631234e+03
1.626340550407900537e+03
1.613314729524609675e+03
1.860852783631100692e+03
1.933804498285904401e+03
1.934233116196777928e+03
1.362288507541631589e+03
-1.157133571052426987e+03
-5.056901648631795979e+03
-9.155914204809238072e+03
-8.705399803873580822e+03
-8.351252949380514110e+03
-8.256350372826518651e+03
-7.640730867359005060e+03
-7.373584714133069610e+03
-7.868899524418507099e+03
-8.058570506789262254e+03
-8.025611288026296279e+03
-7.793058253212469936e+03
-7.135848378725286238e+03
-6.931913739202453144e+03
-5.545188266247435422e+03
-9.057704154234708085e+02
-2.026751340614435776e+03
-5.738103277793776215e+03
-6.261731005026150342e+03
-5.996634583127473888e+03
-5.461802389771176422e+03
-5.146147366789426087e+03
-4.853688708662428326e+03
-5.003454996822988505e+03
-4.813469004259130998e+03
-4.531777449487924969e+03
-5.177333539591676526e+03
-5.437129944764861648e+03
-5.591210868755231786e+03
-4.262499883565232267e+03
2.702088808858121283e+01
-2.890557502533216848e+03
-5.666263098351481858e+03
-9.132964378745796239e+02
3.895396481328766640e+03
5.396882444879628565e+03
5.366087001425412382e+03
5.614095117932266476e+03
5.761892407693404493e+03
5.733524273694168187e+03
5.820015176596862148e+03
6.099393081572347000e+03
5.848770462668971049e+03
5.956443341243219948e+03
6.013242257242837695e+03
5.583274469123371091e+03
5.332325100751187165e+03
4.826165922810625489e+03
4.533622407345627835e+03
4.171844309586032068e+03
4.004604156106444407e+03
3.588943202702763301e+03
2.915190499731655564e+03
3.014149220113690262e+03
3.405495893146506205e+03
3.819925685223044638e+03
3.858404747788927580e+03
3.886595846845977121e+03
3.923718424273789424e+03
3.781923729106383234e+03
3.871786231719307125e+03
3.690779524233813845e+03
3.029576923338904635e+03
3.422395050133627592e+03
3.387835693171322418e+03
1.408338520950059547e+03
-6.944648907086331064e+02
2.173866507386620469e+03
1.953937245002961618e+03
1.613601429121371211e+03
1.515103267815158915e+03
1.655933075964532918e+03
2.186691926733261425e+03
2.782242761157238419e+03
2.874466124796919303e+03
2.647402655124520606e+03
2.400790124997709427e+03
2.275969939825223264e+03
1.935584680148827147e+03
1.358899849948269093e+03
1.536627090354150369e+03
1.559905551627517070e+03
1.351728646623589839e+03
7.730950463828154398e+02
9.861804999794804871e+01
-4.382225082626747508e+02
-5.153867680298305913e+02
6.494553466717988499e+01
3.895449214636080910e+02
1.362099168634399007e+02
3.679319005695365519e+01
-2.078183556467651982e+01
6.505057275848798781e+02
1.775682179405862598e+03
2.315784139053991566e+03
1.816781493623827600e+03
1.710622380489417765e+03
2.880300613378090929e+03
3.897835758823802735e+03
4.015197198160342850e+03
3.261415780538089621e+03
3.474476335702436700e+03
3.640372325157447904e+03
2.280134883133164749e+03
9.737589185697199810e+02
-2.827502435431735535e+02
-2.392427582067808089e+03
-3.904272864848715017e+03
-3.700321103875506651e+03
-3.159584524040371889e+03
-2.274130280397506340e+03
-1.417917095526543790e+03
-1.335867799494194742e+03
-6.720392892470320021e+02
4.524959091329713488e+02
2.577772066271727454e+03
4.064829989046048468e+03
2.078688915430976976e+03
-2.165623891251591431e+03
-8.170083104380388249e+03
-1.132566713421639543e+04
-1.118240437539664526e+04
-1.011025995291049185e+04
-8.416185362345842805e+03
-8.937091414644846736e+03
-1.029096772593618698e+04
-8.918919671216806819e+03
-9.240863392117855255e+03
-1.056271456908049913e+04
-1.192454855240312645e+04
-1.379233881965174623e+04
-1.479113518830547764e+04
-1.445188041210095435e+04
-8.345467774568738605e+03
-7.119885287301249264e+03
-7.474103609668262834e+03
-1.392028914266057654e+03
2.698331616931271583e+03
2.330035229981053817e+03
3.675152484308189742e+03
5.030725775968831840e+03
5.772772853633621708e+03
6.008306744383506157e+03
6.123399328171173693e+03
7.411185739796002053e+03
7.085704829220585452e+03
4.471963170093217741e+03
5.819518715618449960e+02
-9.632932462041385406e+02
-5.577167288514212942e+02
-8.542921872644679979e+02
-1.115935312207475818e+03
-1.049619936658461711e+03
-6.943360204600135148e+02
-2.611037098264107499e+03
-5.085679077260142549e+03
-7.071131912284044120e+03
-6.672325831326412299e+03
-5.326207496661379082e+03
-5.961695849166645530e+03
-2.985733688387857001e+03
2.321707377874181020e+03
5.570681240293815790e+03
5.551263513673819034e+03
6.396516956334185124e+03
1.066952251223251005e+04
9.935347496731723368e+03
7.287005617915278890e+03
6.282531220396883327e+03
6.434016734738614105e+03
4.216496502871472330e+03
2.491023390656136144e+03
2.878593429739674320e+03
3.261290763183009403e+03
5.296166441362718615e+03
5.799281874897925263e+03
5.358694816418485061e+03
3.933449945390842458e+03
2.768611052464703334e+03
2.827081795209189750e+03
2.155868807682227271e+03
1.050223790917348879e+03
2.090666339787362176e+03
3.160593660741822077e+03
3.363665711757593726e+03
3.763953275407311139e+03
2.783452360439382574e+03
1.684924644382649376e+03
-4.193450256279161295e+02
-1.785674585184942543e+03
-3.177186175221124358e+03
-4.587670906170598755e+03
-2.964295048427706661e+03
-6.450427897750890907e+02
1.208148774702063974e+03
2.060298509025310977e+03
1.522455183068395399e+03
-4.083496581521609983e+02
2.469657081841210413e+02
2.937363716205582023e+03
3.266858228405042155e+03
2.266513156412044736e+03
8.303260500232569257e+02
2.443434915351494396e+02
-1.014363307272312369e+02
-1.430043057056648195e+03
-2.089466172778765667e+03
-2.225704010571135314e+03
-1.867772549907630491e+03
-1.168686470581264075e+03
-3.306518148025365917e+03
-5.786278062840980056e+03
-5.055974608684235136e+03
-2.757673556259663201e+03
3.576330756392297303e+02
3.075988432221518451e+03
2.405419823523406649e+03
-2.601081467257848772e+02
-2.865610028041428450e+03
-3.752114974228051324e+03
-3.854601725176439686e+03
-1.780102563457383667e+03
7.442754328466687639e+02
1.373513857819867781e+03
2.029628810837520405e+03
1.934540065845984827e+03
6.492873507163253635e+02
-5.611441591673309404e+02
-2.174862186251632465e+03
-3.265001643617509671e+03
-2.600553292922787477e+03
-1.080636955503159925e+03
5.646910065617422561e+02
2.831404556322226199e+03
2.806446586773895433e+03
6.707834548796505487e+02
-1.674590430488619404e+03
-3.900732712632413950e+03
-5.323728828244531542e+03
-4.055660520961674592e+03
-1.626507957924641460e+03
3.676708901144267543e+02
2.133830111535767173e+03
1.983886351938370808e+03
2.828066444119208427e+02
1.085037712618358086e+02
-7.641047298066845315e+02
-2.346111141916988799e+03
-1.177602549977664466e+03
2.944072149765253243e+02
-7.322452695378340195e+02
-1.146423606203327239e+02
9.221971779366206192e+02
1.081920002630063919e+02
-8.637043607169331381e+02
-1.089626764663212953e+03
-1.645673792758717582e+03
-8.067911641163181002e+02
1.221468410011026208e+03
1.482615874795901902e+02
-1.582452118440497735e+01
1.644110134326188700e+03
3.060049304430540360e+03
1.962867942550947646e+03
5.444674933841391749e+02
5.008384225444157209e+02
2.769691772165588759e+02
-4.342704351030238286e+02
-7.169778573819684198e+02
-4.953258982450729491e+02
1.093730939597071028e+03
1.926205651733573177e+03
1.165144952737184440e+03
1.478603463939618621e+02
7.329034990370755622e+02
1.577084507797362903e+03
2.131199405323600331e+03
3.272117451551330760e+03
3.935824448244072300e+03
4.269317043627463136e+03
4.096575654857107111e+03
3.397460107219729252e+03
2.593925395045980167e+03
2.233920147543923122e+03
1.324324265875725359e+03
6.352257475489850549e+02
9.625414916360290363e+02
2.630350790714554932e+03
3.440323512648883479e+03
2.096638857672794074e+03
1.430789929082999379e+03
1.496888021711805777e+03
5.935146807185874422e+02
2.509942239811621789e+02
-2.819337466017573206e+02
-1.050421271901042928e+03
-1.263509671941173565e+03
-9.911603218154064052e+02
2.256526803320237207e+01
1.091679576484143354e+03
2.970225658599852977e+03
4.948195528412197746e+03
6.285570467427014592e+03
6.502272224374125472e+03
5.074359665332782242e+03
4.053820257854571537e+03
4.119645231446001162e+03
3.310823921060992689e+03
3.683817185078887064e+02
-4.755673531038803958e+03
-8.763350859844807928e+03
-8.170655673502289574e+03
-7.474703897487579525e+03
-7.215449571314242348e+03
-6.447845693016227415e+03
-5.670791062551068535e+03
-5.878251420563871761e+03
-5.922275085130799198e+03
-5.868793240380721727e+03
-5.447728839940877151e+03
-4.471088169866891803e+03
-4.955893521196489019e+03
-6.425954281247778454e+03
-3.891087704649547959e+03
-2.045662566797729824e+03
-6.225530551587617992e+03
-6.840615341803984848e+03
-7.134825597874317282e+03
-6.829145420714025931e+03
-6.181646187437702793e+03
-6.341318260342409303e+03
-6.425860055818816363e+03
-5.751049312325741994e+03
-5.445039685432721853e+03
-4.735987061778787393e+03
-5.172808367543394525e+03
-6.056326717932230167e+03
-5.484497778742627816e+03
-7.212269368832468217e+02
-2.200397572172608307e+03
-6.019885588386714517e+03
-5.270625564576942452e+03
8.783286795404291070e+02
5.889128571754658878e+03
8.061866565968967734e+03
8.746417167430194240e+03
8.571858547342433667e+03
7.328347030941858065e+03
6.140974215358254696e+03
5.609704492362829114e+03
5.639515363878174867e+03
5.436474261582833606e+03
4.558791644551989521e+03
3.997467263497873319e+03
4.183435548098977051e+03
4.119850769839478744e+03
4.170860486367055273e+03
4.155645114161353376e+03
3.979253469492091881e+03
3.807748987790776027e+03
3.924312109637884078e+03
3.976067225282294203e+03
4.050129466035846235e+03
4.322580271263644136e+03
3.818379038497397232e+03
3.459518217872191599e+03
3.027062908855418755e+03
2.663061558575256640e+03
2.933599593353407727e+03
2.959773542970257495e+03
2.383556399096688892e+03
1.173829571178361448e+03
5.444514493372328161e+02
5.874189433819517490e+02
9.635286906831681790e+02
9.812527666385352632e+02
1.122959587206828473e+03
1.264496545779587905e+03
1.274608653702583297e+03
1.254283732973345877e+03
1.421549405563585651e+03
1.741685926941874641e+03
1.184901861357326879e+03
7.657595275244677850e+02
1.293393212992946701e+03
8.960899603356331227e+02
5.290580762599769287e+02
5.542632447144696783e+01
-5.474411163150915627e+02
-6.523205758403862546e+02
-9.745390155390957716e+02
-1.172823144434772757e+03
-1.078031827062884759e+03
-9.035361042454417202e+02
-6.718952738636043023e+02
-4.042960850890993925e+02
-4.240318365468835964e+02
-4.010958048845888584e+02
-6.914225653586885301e+02
-7.069595898001067553e+02
-3.617089110086466803e+02
-2.237992488784778971e+02
3.995200653077528585e+01
8.179507562003240650e+01
-1.021560427881053528e+02
2.089634480151874243e+02
5.598496796606696080e+01
4.497007365751493069e+01
-1.903427151254966887e+01
-4.570693903749326523e+02
-1.016221295588914018e+03
-1.703336487010782548e+03
-1.690314585478912477e+03
-1.671143414510208686e+03
-1.344009553910140994e+03
-1.176031408400234341e+03
-9.970785410156920534e+02
-8.424201115348854501e+02
-1.003315534776809955e+03
-6.867566741724820076e+02
-4.955311319189095229e+02
-5.037345039781391733e+02
-4.107302351788364376e+02
-4.531847950290652989e+02
-5.829527263103235555e+02
-4.121685861172242085e+02
-3.709279157867173922e+02
1.319550630381465339e+02
9.940585816394232666e+01
-1.137453911995632438e+02
-1.734727011055359753e+02
-8.195248179835093083e+01
-1.861815693195788981e+02
-6.611862782811390389e+02
-8.678873254081363484e+02
-2.904260628338407969e+03
-6.129434102902677296e+03
-1.044336687683733908e+04
-1.082508749326479483e+04
-9.449695460533861478e+03
-9.150244112644886627e+03
-9.280764113316970906e+03
-8.661369783503500003e+03
-7.601031120459466365e+03
-2.284754199994828468e+03
1.689511936583490979e+03
1.411706314719769125e+03
2.024881607949914269e+03
1.651972538322520677e+03
1.148664570359499066e+03
6.498138622473373971e+02
2.513310965122895766e+02
4.523754939603699654e+01
-2.664643209773153671e+02
2.222744677495294923e+02
4.252348759617386804e+02
6.691492513292612330e+02
1.079156548477704064e+03
1.131480954433347506e+03
1.691141273486925229e+03
2.099965949478668790e+03
2.068855347794860791e+03
2.542841096048088275e+03
3.106825789325549067e+03
3.405764127144684153e+03
3.489599694617737896e+03
3.366253246339463658e+03
3.202914350751594156e+03
3.058566824238233949e+03
2.154891219512354837e+03
1.305664871435237501e+03
1.120712873227309956e+03
1.389970400876760777e+03
1.411650982978713955e+03
1.395893966680678432e+03
1.592683692858449604e+03
1.969910252060152970e+03
2.628516493896425345e+03
2.589294153260242638e+03
2.757132157118117448e+03
3.036068095058466952e+03
2.714085407080292043e+03
3.064239531332310889e+03
3.985572760972728247e+03
4.198024607659514913e+03
3.720652111761696233e+03
3.880427615191027598e+03
3.332183214407352352e+03
2.955795815185286756e+03
2.929127667891388228e+03
2.480085855493295185e+03
1.978855241912829342e+03
1.967598749997890536e+03
2.418376481303913351e+03
2.343204219076522804e+03
2.236022401924152291e+03
2.776612914225614077e+03
2.862826602391119195e+03
2.867636315004514927e+03
3.124041917900175122e+03
3.335163403593896874e+03
3.273195468993178110e+03
3.412001272064428122e+03
3.144616744936277883e+03
2.910088684593007656e+03
3.771190031719176659e+03
3.387886753477966522e+03
2.584375769568105625e+03
2.184537962250588862e+03
1.834307091755167903e+03
1.577785383321593145e+03
2.119812719438421595e+02
-2.746991087423718000e+03
-7.504093323628047074e+03
-8.645542611536331606e+03
-8.234430477447200246e+03
-8.070457554995635292e+03
-8.258616788818108034e+03
-7.909139255373831475e+03
-7.530959819151563352e+03
-7.699886743571428269e+03
-7.913872544563437259e+03
-7.055943874850924658e+03
-6.570057787735498096e+03
-6.047194166161059911e+03
-6.244364314322301652e+03
-5.172604868049378638e+03
-9.319938139970399789e+02
-3.822445653587326433e+03
-8.095866122358834218e+03
-8.271200871513538004e+03
-7.337538518984397342e+03
-7.324875888817524356e+03
-7.881161602234198654e+03
-8.031443749200311686e+03
-7.322675541849364890e+03
-6.301823557007912314e+03
-5.786803633136773897e+03
-4.756500768609783336e+03
-4.464841372375045466e+03
-4.740801753576519332e+03
-2.939279749620055100e+03
8.567241928003419389e+02
-2.799834625204584881e+03
-5.037095055725971179e+03
-5.333965569178712030e+03
-3.602165943970561784e+03
2.444244502559594821e+03
1.866208193608314787e+03
4.923824343672395116e+03
5.936130251360992588e+03
5.449187152817680726e+03
4.478016734606289901e+03
4.343555499032043372e+03
3.913801528601685277e+03
3.269788052027211506e+03
3.757548583423926175e+03
4.507015017048727714e+03
4.823195016520906393e+03
4.380142946047347323e+03
4.430940804954566374e+03
4.568707699694731673e+03
4.538498710475726512e+03
4.550132092061502590e+03
4.597661651099422670e+03
4.310317749774112599e+03
4.569814106246800293e+03
5.171212608866266237e+03
4.280169856138566502e+03
3.282678814381549273e+03
2.479765732700705030e+03
2.714373072715069156e+03
3.033577103634323066e+03
2.688420881661545536e+03
2.590882630151840203e+03
2.549953611485994315e+03
3.173548245600381051e+03
2.784731430042612374e+03
2.087859007510313404e+03
2.635952619460128062e+03
3.225142629626023790e+03
2.492770988030840726e+03
1.864412205605942972e+03
1.998872275865436450e+03
2.054089332922001176e+03
9.509899891470919329e+02
-8.074441603863346018e+02
1.448592400817772727e+02
3.526910307027684667e+03
4.800633377924649722e+03
3.455984927904717551e+03
1.803926280799555116e+03
1.016551446716087526e+03
5.891051881833442394e+02
3.961796116163286570e+02
6.670909459263706367e+02
1.389651060656844720e+03
2.071125618065947947e+03
1.199195260518305531e+03
1.790636988616445024e+03
3.807360403761883845e+03
3.457150554133977494e+03
2.523990192159857997e+03
2.751924429240330483e+03
3.428062808011448396e+03
3.707347269093163504e+03
3.514736235914992449e+03
2.804212505744174450e+03
2.751778996614333209e+03
1.980461573510469179e+03
5.632107435612140307e+02
6.594236773629874904e+01
-3.683962375950217734e+02
-4.757511090458677927e+02
2.891353385269357190e+01
5.245643971020434719e+02
8.051929002228306445e+02
1.586778207967331127e+03
2.918302595115276290e+03
3.331806837705386897e+03
2.397248632667788570e+03
1.848648647203417340e+03
1.608999708902084421e+03
1.642275551267832952e+03
2.201491366027532422e+03
2.639609841460645839e+03
2.634658571242702237e+03
7.186191251496908308e+02
-3.200486623873025565e+03
-9.548723435098425398e+03
-1.114213368449656082e+04
-1.079875788489433580e+04
-9.444581200865372011e+03
-8.939655398012881051e+03
-9.548959998267104311e+03
-1.007443438198920921e+04
-1.000313138087922380e+04
-8.902054936947641181e+03
-6.351253753681255148e+03
-7.047597256707349516e+03
-8.418054278159797832e+03
-7.991710036129822583e+03
-5.395425543053199362e+03
-1.703294693183027221e+03
-6.211341667531641178e+03
-7.785530000744040990e+03
-7.497877757020113677e+03
-8.025378633480259850e+03
-8.743057674979303556e+03
-7.301910230539945587e+03
-3.797263411970635616e+01
1.740767278665414096e+03
1.519274575873397680e+03
1.454553664441630872e+03
1.669628792784448478e+03
2.033564868210447457e+03
2.159403637852751672e+03
1.772086945336174267e+03
2.070637065345400060e+03
2.927086799644140228e+03
3.169472025770845903e+03
3.311810747699908916e+03
3.073081626175570364e+03
2.909336417730401990e+03
3.404563788301537897e+03
3.877837047031796374e+03
3.740185749876485261e+03
3.129620798593357904e+03
2.696220982196113710e+03
2.426941441353654227e+03
2.087764103419242019e+03
1.543680592589914795e+03
9.036831143619438080e+02
9.298415007585190324e+02
1.403192392259872804e+03
1.396789526284565000e+03
1.583625585226414614e+03
1.871752794738897819e+03
1.942243818214485373e+03
2.095103424705917860e+03
2.099401387565153073e+03
1.855181249185745401e+03
1.756452100652231593e+03
1.792206569180176984e+03
1.189447963133589838e+03
6.322292148928522693e+02
9.326268685959242930e+02
1.526650689109406812e+03
1.522293381150499954e+03
6.105742458963254649e+02
-2.484402621233308253e+02
-5.137176119308578564e+02
-9.012306152502143277e+02
-1.107891107269004351e+03
-1.928442292098619646e+03
-1.352720488817779369e+03
-3.687558051494658002e+02
3.345168516310254176e+02
5.681624661208090856e+02
3.392001850127433045e+02
2.125600814992619974e+02
-1.130894692609962675e+02
-3.674777012724511565e+02
4.046910097681660545e+02
7.909833569611690791e+02
9.744398807266730955e+02
1.294060362526889094e+03
1.282851755767805344e+03
1.626861543069170693e+03
1.338098241392086493e+03
4.875590064530090331e+02
-2.978074387193105395e+02
-1.662951251136394148e+03
-2.902889638195939824e+03
-2.105607742111719290e+03
-9.251009882530198638e+02
-5.063440709881123212e+02
-5.473382587388043703e+02
-7.660513729306615005e+02
-1.272467697051707546e+03
-1.372581324523152716e+03
-9.923762445733121922e+02
-3.808012323755813213e+02
4.691252178589282948e+02
9.823896619281013045e+02
1.102037707955244969e+03
9.651157772736762581e+02
6.676187717430784687e+02
4.164964912064333475e+02
2.906859678851338344e+02
1.199910395137859354e+00
