1.476610875851245282e+03
8.290197295212028621e+02
4.702676816354905895e+02
2.013320049967822172e+02
-6.587517043207730012e+02
-3.412914336905795608e+03
-9.101386490897310750e+02
-7.948443090946571488e+01
-1.301944843341494106e+03
-2.802511179504665506e+03
-2.178134135727095327e+03
-1.642779267163704844e+03
-2.347436416751211709e+03
-2.355142847183705271e+03
-8.808840322838839256e+02
4.103729932346861347e+02
9.026438755124650015e+02
1.109939043670441151e+03
-1.692682403064328582e+03
1.917672261530110234e+02
-2.186793999957403116e+02
-2.517030208605700409e+03
2.674533340056142805e+01
-2.933213758831476525e+02
-2.610198458805263272e+03
-2.529089360959533792e+02
-2.335448717287726140e+03
-2.193832561863938281e+03
6.899905864874781969e+01
2.290266137781254656e+02
-3.679305093346310684e+01
2.544729978865051976e+02
2.068579383990150973e+02
-6.848898655276730096e+01
-3.105247571315427422e+02
-2.497288780479150773e+03
-3.204792961209188434e+03
-1.910008528061495554e+03
5.160788413475571588e+02
1.424962836070245089e+02
2.602129175725585242e+02
4.252555489151165489e+02
-2.763537286289774784e+02
-3.324538292341775559e+03
-1.342391558988402039e+03
-3.249234294964902574e+02
1.929001182942126604e+02
1.710943561018260084e+02
3.895908850857648531e+02
5.593285278152728779e+02
7.604033138605512931e+02
8.948943004794626859e+02
1.064862778058593221e+03
1.689411668654724735e+03
2.093697194847005449e+03
2.170230351412630171e+03
2.281068141653623115e+03
2.074278904056057399e+03
1.421153996989691223e+03
1.509663922240200691e+03
1.760364683786737714e+03
1.389395676517051470e+03
1.277744250161566470e+03
1.050948251151205341e+03
8.288056512771759117e+02
5.501834214081737855e+02
4.018569976227202005e+02
6.404348095337428504e+01
2.781457870460302502e+02
4.587677731366711669e+02
3.209106456456437968e+02
1.025395676852152519e+03
7.343249411277503214e+02
-9.741760637343463713e+01
3.782890487947363454e+02
6.307872733007634451e+02
1.457485736044403211e+03
1.613595538030927628e+03
8.644709590162453878e+02
8.746504783165999015e+02
8.619584272396773486e+02
8.604688904126097668e+02
6.517739224799302065e+02
2.954607923600307231e+02
-2.526145717378221534e+01
-2.738487251589448306e+02
2.165009940054322612e+02
4.089922299532922523e+01
1.434395984790245677e+02
5.519795222423837231e+02
6.828883324313346748e+02
6.427357879065605850e+00
-4.309924123902873134e+02
6.679043321591015570e+01
2.295728126789794032e+02
4.002880786491755885e+02
4.749445210108977449e+02
8.534537845580064186e+02
1.078747509706867504e+03
1.265848950852222742e+03
9.436769563301551216e+02
7.321885362878191472e+02
5.284322519444144746e+02
5.393584262975828096e+02
7.378674562066872795e+02
6.290318562292848128e+02
4.918594485496407174e+02
1.822903231060280405e+02
1.128445312975642523e+01
-1.224217156790211369e+01
1.217040463865356088e+02
4.490952605882026205e+02
8.899187826550504496e+02
8.451704875090794076e+02
9.188006638177541845e+02
8.017740376477717064e+02
1.200146403807125353e+03
1.420880584085982946e+03
1.268983586083729051e+03
1.109479319772981853e+03
1.198284410099681963e+03
8.563065321052436047e+02
6.845915245062963095e+02
4.831655870676359541e+02
7.190402346654359462e+02
7.051683440866598858e+02
2.552701012799328950e+01
-3.249140900077578067e+02
-1.011834052711097627e+02
6.968172610424106495e+01
-8.162676689593619130e+02
-3.016063579679005215e+03
-4.391699000352911753e+03
-7.305095807732031062e+03
-7.474154522639311836e+03
-5.472936710493280771e+03
-2.875004315757677205e+02
1.078171246116614384e+03
1.182025402486988241e+03
-5.709670999057320842e+02
-6.048862588350322767e+03
-7.305595191940127734e+03
-6.924072773303762915e+03
-6.983381230522918486e+03
-5.009500415678434365e+03
-2.734473126995843813e+03
-2.632942104467236391e+02
1.760399632833390342e+02
3.095582304989109161e+02
4.843122397104441461e+02
4.242691425707900521e+02
9.554381665048509831e+01
2.541911531912849966e+02
1.020154358039280055e+03
1.363374377428136995e+03
9.718497660690135262e+02
8.805874758352512117e+02
1.122640526585787939e+03
1.532052855387511499e+03
1.506862798467033372e+03
1.680127134380847110e+03
1.314903991547397254e+03
1.248247009723870860e+03
1.015193957515978241e+03
9.177108882331619952e+02
9.217702345781485747e+02
4.814628372944636112e+02
1.337448550286469242e+02
3.645528966810963993e+02
7.358645380410306416e+02
8.097787475325255855e+02
7.253392988716334457e+02
7.847017570625289409e+02
4.629238632135986222e+02
1.999690784320634123e+02
8.377321552589296516e+02
1.427223926423085459e+03
8.376365083568545060e+02
3.420100405887932311e+02
2.783662956700612767e+02
1.056732941024916528e+02
-9.313005563361178929e+01
-2.439083511968859455e+02
-6.184591016952450673e+02
-6.708114260844577075e+02
-6.550889628724272598e+02
-9.203060126523488407e+02
-1.018306070607646916e+03
-8.785571881548339661e+02
-8.722565185993506702e+02
-5.074286778797356874e+02
1.306908340711245842e+02
3.692874668316039788e+02
1.625823930078276760e+02
4.575543563936463443e+02
4.760718576061335625e+02
3.081177044096896793e+02
-1.009102521080910186e+01
3.832197421791406668e+02
5.491152005761252894e+02
9.048335688894361510e+02
1.181047857670347184e+03
9.709192399939752249e+02
8.145150422738350926e+02
3.388528078011484581e+02
1.638071113011759792e+02
6.443222461336114293e+01
-3.621880522274856418e+01
-7.101273673860935887e+00
1.409114814146134904e+02
7.486506632854410270e+01
3.796085843139001668e+02
4.880299722811374750e+02
3.762045842655164734e+02
1.432144757827367414e+02
1.659933687938282958e+02
3.616326582198088317e+02
6.392925358712876687e+02
3.359619367669794201e+02
2.165307251829194115e+02
6.100191926764633621e+01
-1.635748330851911021e+02
-1.912425755132291272e+02
1.500110616405820565e+02
2.562209643914226262e+02
1.644513353731763914e+02
-3.322976788509484436e+02
-4.730960128209218851e+02
-3.940016780143678261e+02
-3.760686834295091217e+02
-2.743052994750865992e+02
-1.961261270027874559e+01
-8.096217789713499258e+01
-4.242990929189944609e+02
-2.896710871662987188e+02
-4.229834165023315222e+02
-2.894572581766370263e+02
3.888429976651343054e+02
3.131538710884257171e+02
2.805790059233372062e+02
6.710960972497139210e+01
1.025698662683903706e+02
-6.912574536671027658e+01
-5.399159945535244560e+02
-1.041925686961382326e+03
-8.402164253609432762e+02
-7.726886422569698425e+02
-4.153289222737554383e+02
-7.782472507879596151e+02
-6.924103004785245048e+02
-5.038330867417940340e+02
-2.623577830830905100e+02
1.580104715509581581e+02
6.069023821940608059e+02
3.571828265012415500e+02
2.169169901313511275e+02
8.582060470769841913e+02
1.083086057369262107e+03
1.020446478038023201e+03
6.733536616084985553e+02
9.901530651517909121e+01
-1.558997880113840928e+01
-2.409707788928476901e+01
2.936287883602606144e+02
3.337308529548722191e+01
-1.126220070883003075e+02
-2.229308706941006335e+02
-5.871466109157876367e+00
2.395329567701877238e+02
3.061375489985882155e+02
4.397689364193670940e+02
5.266254497140026842e+02
3.255055619758012426e+02
1.284883298906592302e+02
6.205441961768782448e+02
8.820296835370816098e+02
1.140793006563554854e+03
1.240815833841958010e+03
1.315910472313173386e+03
1.332446505462190999e+03
1.294535657400749187e+03
9.594160992573479234e+02
7.997867859304249123e+02
5.888092135861496672e+02
7.374131678428649366e+02
7.033107888181413045e+02
5.034813839589061217e+02
4.936257965744996454e+02
5.704710351325402371e+02
7.502897537737301263e+02
7.031867094721675358e+02
8.647227665189594745e+02
1.020858611690034536e+03
1.357330434774436981e+03
1.763259351714392778e+03
2.229290444131534969e+03
1.987446754596015580e+03
1.835986620643719334e+03
2.089759309896321611e+03
2.438696481631880488e+03
2.288195053956660104e+03
1.924987957448008729e+03
1.484638627982740672e+03
1.344426980226483693e+03
1.369435386735025759e+03
1.209466931736125844e+03
7.824820922306503235e+02
8.295133479204248488e+02
1.002467405109584433e+03
1.129569585425942705e+03
9.059192103533987392e+02
1.012417668421854273e+03
1.247996504599501577e+03
1.309307672601705008e+03
1.593477916029637299e+03
1.135692954510248228e+03
-5.041686974036044262e+02
-4.004102143803675062e+03
-6.045184578138842880e+03
-5.393596146707379376e+03
-5.271337399291966904e+03
-5.418575193856059741e+03
-5.766285478381737448e+03
-5.762189390377847303e+03
-2.463906414439979017e+03
-1.674749667615702265e+03
-2.637975556117952237e+03
-6.613229728789871842e+03
-6.556112898656948346e+03
-4.670773069134694197e+03
-5.954342734465448302e+03
-2.220628328034380957e+03
-4.997520320296788668e+03
-5.587214500448071703e+03
-7.038582236115856858e+02
1.803176690114122266e+03
1.537943481393602724e+03
-1.583215473989080010e+03
-5.283432031357488995e+03
-3.135673467675263964e+03
1.895147656192452587e+03
2.192398192668823867e+03
-3.785965518545214650e+02
-2.068170720739681656e+03
-5.771831470199278556e+03
-6.602071768576697650e+03
-5.481864416646319114e+03
-3.917833488433330331e+03
-5.018743632998515750e+03
-4.015746497418720651e+02
1.245660201894635065e+03
1.748000795927495346e+03
2.209179524199178104e+03
2.412775514349250898e+03
2.210202165791869447e+03
2.464351953095956105e+03
2.597960276810372306e+03
2.400802600087074097e+03
2.306168682767841801e+03
2.485345605858388353e+03
2.308063348301251608e+03
2.800346663904489560e+03
3.187557909587913855e+03
3.566752217641197603e+03
3.905951124356191485e+03
3.418738047311107948e+03
3.124021135130632956e+03
2.499639133063348709e+03
2.158559054686102627e+03
2.090950202066763268e+03
2.033291312347851090e+03
1.942613983764043724e+03
2.020694321663471555e+03
1.868646284748123890e+03
2.219688975766724070e+03
3.098785193992428503e+03
3.235709285992973491e+03
2.283459975663126443e+03
1.749209855631768505e+03
1.859859836192388457e+03
2.151414123867339185e+03
2.427299238135964060e+03
2.063656916824293603e+03
1.661474946845167551e+03
1.260423374910197708e+03
4.922861785261580962e+02
3.872517413135022366e+02
-2.826017561941845315e+02
-1.317039121672547253e+03
-1.386158900752182944e+03
-8.575559113932354194e+01
9.412990766426516984e+02
9.536291949220600372e+02
1.477658940694456760e+03
1.908286172047354739e+03
1.531769916296235579e+03
6.707372322141342238e+02
5.572917815568225706e+02
1.180587769307391227e+03
1.116085164055866699e+03
1.216941584935473429e+03
1.098117404129791794e+03
6.550544507633284184e+02
4.432314239124945061e+02
4.933797877085182648e+01
-4.427336686258183818e+02
-1.226129460047936618e+03
-7.137788869964381320e+02
7.043064755175121263e+02
1.379176097092615464e+03
1.118524396093085443e+03
7.343009408477845454e+02
-9.520612229441478291e+01
-1.176746929523235849e+03
-1.200213312999823302e+03
-1.663750162846370586e+03
-2.218630776328217053e+03
-1.727255751829756946e+03
-9.150040219133411483e+02
2.347519687678964573e+01
5.396454708932394624e+02
4.944320805157359473e+02
1.302787680168830548e+03
2.085879543682769963e+03
1.609801298590399711e+03
-2.168120944205324463e+02
-1.111088611739494809e+03
-1.171488823089494190e+03
-3.504951986160025399e+02
2.122366505942991637e+02
1.111158528821978280e+03
6.818565389161191206e+02
-8.817041623367940701e+02
-8.297294080564129217e+02
-5.242478223134615973e+02
1.304644516217890100e+02
2.153489590830226632e+02
-1.428411293957559110e+03
-2.178369782111279619e+03
-1.162191266557444123e+03
-5.127513337579857762e+02
-1.853356887889314748e+03
-3.887239728810056022e+03
-5.017732380125205054e+03
5.906760487310877039e+01
9.693365260453716701e+02
-9.797475324466292932e+02
-5.990376832233039750e+03
-8.388618838539990975e+03
-8.528439208054545816e+03
-8.435774916617336203e+03
-5.433462667007966047e+03
-2.851279930773063370e+03
-4.624193689372758058e+02
-1.437321105541187762e+02
-1.240645070580231277e+03
-1.531091347960058783e+03
-1.086090345846554328e+03
-6.448671812291455581e+02
-1.493059359962866210e+02
9.254651798845933399e+02
1.710794352800462832e+02
-5.531644837921492126e+02
-6.679349405921270773e+02
-9.113597940846699430e+02
2.747153039374968557e+02
2.881620610443765145e+03
3.704256907720803611e+03
2.623126179071639399e+03
2.076358427211941034e+03
1.522944071864093303e+03
1.217475332944554935e+02
-4.193909148635793258e+02
9.986508967649106125e+02
2.035763590464921890e+03
2.013775285991796409e+03
1.938468569292196889e+03
2.327414398037540650e+03
1.846195226162277095e+03
1.485648539260130747e+03
1.482291373661768603e+03
2.386999641668783170e+03
3.452487733943863986e+03
3.906822710830520919e+03
3.541274570177221449e+03
2.182681406803469599e+03
6.579591065854031058e+02
-2.225464027691548097e+02
-7.039292117186917039e+02
-8.705752696375985806e+02
-3.975116709956026853e+02
1.333113938292095327e+03
1.784675935082819933e+02
-2.439332829180550107e+03
-2.330515837586808630e+03
-6.946844107000076818e+00
2.415306439267867063e+03
3.142390452282838396e+03
2.837254235975312440e+03
3.200735710672347977e+03
2.770918831181161750e+03
1.883149054022027713e+03
1.627423839497275594e+03
1.750849904509577527e+03
7.761283529610693677e+02
3.529284775292029508e+02
-4.328116004331527620e+02
6.248989506583020557e+02
3.061984807786743204e+03
2.457549969670140399e+03
6.278742783371101268e+02
-1.609839379830218149e+03
-1.678776098863211928e+03
-1.872141574946242827e+03
-4.058119231808019777e+03
-5.370014917978935955e+03
-3.611798955400483464e+03
-2.079896094996924603e+03
3.043058033378962591e+03
3.422189283058226010e+03
-1.829770714330540216e+02
-3.249011714378625129e+03
-1.207207859195825904e+03
-4.458682905438113835e+02
7.853962403625918114e+02
-6.940372679920114933e+02
-3.987268957921444780e+03
-2.915754597471697252e+03
-3.802415530098533054e+03
-3.955707431954730964e+03
-4.340100445229732941e+03
-2.941745115324514245e+03
2.405251248065947948e+03
7.235653538422942802e+03
8.751169151866282846e+03
7.605230620661014655e+03
5.385503160781510815e+03
3.878032960524039936e+03
3.396967265553799734e+03
6.236122866650322294e+02
-1.248771536537946304e+03
-4.653419984334047513e+03
-1.101172675437902035e+04
-9.028017066436619643e+03
-9.442352618406635884e+03
-5.896373199691642185e+03
3.944853032737129865e+02
2.515216581608852266e+03
2.567313603823727135e+03
4.726733422409404852e+02
2.403135291464192960e+03
1.991698676348378058e+03
-6.864226869040742258e+02
5.799372607414451295e+02
4.917023858634962039e+02
-1.333864420065150853e+03
-7.387409274282307479e+02
2.092121873799697823e+03
-9.690539387666138964e+02
-8.215465673959762398e+02
3.607025686951896546e+02
-4.029409984623309811e+02
-1.696713135828218810e+03
-2.549531441987642211e+03
-4.835537303851286197e+03
-4.185089852560458894e+03
-1.024249472550843620e+03
1.740053228417645187e+03
4.231708959272817992e+03
2.593588894345897643e+03
2.132034081024510215e+03
3.797219800662534453e+03
5.095125744393785681e+03
7.252746956192559992e+03
8.338140506441106481e+03
7.449274570717566348e+03
6.212855643014858288e+03
2.148190726050367175e+03
-2.903292191097503746e+03
-5.291859617194480961e+03
-3.108465366383433320e+03
-4.338448816361460558e+03
-9.804876009771371173e+03
-1.217987137842798802e+04
-8.466325933158297630e+03
-7.057744035310878644e+03
-8.135954060336002840e+03
-5.388276758708538182e+03
-4.872315081770952929e+02
3.692795601029094996e+03
6.214632853101078581e+03
2.733272779544751756e+03
-4.161758071421216982e+02
3.293375790579780187e+02
-8.499754113909835951e+02
-2.403351178600291860e+03
-3.643505051237513271e+03
-1.523408533068100610e+02
8.978702313062993198e+03
1.664276496144550401e+04
1.826170515334940865e+04
1.322838311417667319e+04
7.294451244346319072e+03
4.624263247100949229e+03
3.313876013759401303e+03
1.687495242001858742e+03
1.117958146891192683e+02
-2.009365108642806263e+03
-9.089507231140287331e+03
-1.027702215296525719e+04
-5.757038358453309229e+03
-1.993787443059338102e+03
-1.422114977072533293e+03
-5.050445996628312969e+03
-5.906845792986321612e+03
-3.295407009009180456e+03
-4.134345849761220052e+03
-5.081785856255733052e+03
-1.760587122877506545e+03
2.869496396626142996e+03
8.550394900574938220e+03
9.499992450612828179e+03
9.153335002237048684e+03
6.135192267193163389e+03
1.598617555023975228e+03
-2.006317746952108337e+03
-5.839291647553307030e+02
1.415731799504036871e+03
2.534906840091674596e+01
7.787805790320767585e+01
2.825185611958249865e+03
4.999110208851322568e+03
4.010649685918823252e+03
2.551067576132134946e+03
2.235564948605255722e+03
3.595237183158708660e+01
-3.312896019690429057e+03
-1.314907993968497522e+03
2.691751819344605337e+03
6.455217838577969815e+03
6.322524320804197487e+03
3.221664269708291158e+03
1.582902098325522047e+03
-1.119583086818072616e+03
-3.546839635016211105e+03
-8.172838485559137553e+03
-1.400472187067884624e+04
-1.744968379100859238e+04
-1.034395372176678029e+04
-5.233103188721027436e+03
-3.852772353355287578e+03
2.029161633260920325e+02
-2.748217804167699342e+03
-1.077521143125789786e+04
-1.545079790716046591e+04
-1.330911636280369021e+04
-8.938300733171405227e+03
-1.436104381433059189e+03
8.785027347378313607e+02
-3.062432325621757172e+03
-8.396409186615375120e+01
1.755667683891757633e+03
1.928454989792410288e+03
2.802382853453123516e+03
3.276559457949421358e+03
5.058076264366331088e+03
3.605874404373148082e+03
5.529049418122247062e+02
-1.179877233576206663e+02
2.888454324756253754e+03
8.764685440089722761e+03
1.457341835089860797e+04
1.770727002580972112e+04
1.618737348421199022e+04
8.005028100219289627e+03
2.826028513017406112e+03
2.690270785717487797e+03
1.501028896135965169e+03
-6.595485765758573962e+02
-1.592748983159006002e+03
-1.445798290080044126e+03
-6.019370569889551007e+03
-1.366019586782236001e+04
-1.598242676628123081e+04
-1.160327288681880964e+04
-6.488821045766029556e+02
5.102566458138052440e+03
6.576166264205706284e+03
9.233718485789602710e+03
9.959228359881752112e+03
9.309068871974934154e+03
4.496223646768004073e+03
-2.079295988514776127e+03
-7.993397978667603638e+03
-9.096793920271522438e+03
-5.481473125449660984e+03
8.653772519625199493e+02
5.085762141025142228e+03
7.455775590065565666e+03
5.506429913227462748e+03
1.896772071299279560e+03
3.025055771650495444e+02
9.448698040498728687e+02
-3.778045925234351330e+02
-2.423269935063952744e+03
-4.713802783773697229e+03
-7.096633160272361238e+03
-7.024028657474732427e+03
-3.725063649865804564e+03
-2.310463785225951597e+03
1.722882196142613338e+03
1.747774871444712744e+03
2.862167616375495527e+03
4.602969109412160833e+03
3.828133870664350979e+03
4.268748420836041078e+03
3.234741908493072060e+03
-3.741930999710048582e+03
-7.940145797951837267e+03
-8.255879357422392786e+03
-1.040021651038943492e+04
-1.058505086502984159e+04
-5.573488090094720064e+03
-5.077430771567271677e+02
-5.468352534317244817e+02
1.444358579435064030e+03
3.938897638158418431e+03
5.303860801556695151e+03
5.303473822191035651e+03
7.672726773222158954e+03
9.647261455716023193e+03
9.348971265513790058e+03
6.224865451321231376e+03
-3.990042663633275879e+03
-8.588825126535472009e+03
-1.783461983692657441e+03
6.490281159911094164e+02
2.040643102476188005e+03
-3.396481534359480179e+02
-2.761944107228916891e+03
-1.376225084359607536e+03
-1.489456837604337125e+03
-2.708521985058910104e+03
1.169653742595734229e+03
5.313932045762418966e+03
4.936169716405481267e+03
3.922379091428442280e+03
1.183590319529127783e+03
-8.336973124586901207e+00
7.067646165806610270e+02
-7.859555021835831212e+02
-1.323699437082003897e+03
-2.816709986512346404e+03
-2.674060529803211466e+03
-2.821648880138108325e+03
-5.522399849416573488e+03
-8.112330604507325916e+03
-6.438403397179066815e+03
-3.398603657993256093e+03
2.188085517668528610e+03
5.633584646824830998e+03
4.602945303592647178e+03
3.014087034142235098e+03
1.143987950621918799e+03
-2.132474918538015572e+03
-4.437472492196352505e+03
-3.032793158193951058e+03
1.135670021402661860e+03
4.026914765942009581e+03
5.875794079876885917e+03
5.373386662741493637e+03
1.283363066344411862e+01
-6.843966626391538739e+03
-7.628286003707143209e+03
-2.794081652824912908e+03
5.550186188462271275e+03
9.948788107672118713e+03
6.721037122419323168e+03
-1.648092332768695996e+03
-2.171006110502173215e+03
3.360686528311526672e+03
1.519716219484384510e+03
-2.467687550842942983e+03
5.355374444850391455e+02
5.644303699207407590e+03
5.278899753989879173e+03
-2.161079613618565418e+03
-1.326257821634041466e+04
-1.474965255388263540e+04
-5.372878340842007674e+03
2.359701898694730971e+03
4.055195154559147795e+03
1.283901934548473264e+03
-1.702961060987234305e+03
-3.833691286094227962e+03
-1.977805385690819321e+03
4.174789842992389822e+03
9.141698771404302533e+03
9.656286526634594338e+03
5.341718726342767695e+03
-9.925688179730426555e+02
-3.834366406467845536e+03
9.292714553749906372e+02
6.789894168198271473e+03
7.196608471393029504e+03
6.263432838350500788e+03
2.955459309711116475e+03
-1.206184259128964868e+03
-3.329345487432597565e+03
-4.509110453651039279e+03
-7.236745091214427703e+03
-6.536120382884336323e+03
-5.210168532650342968e+03
-3.409975638393494137e+03
1.816576633943516981e+03
4.248818389173230571e+03
8.523535953018932560e+03
4.865510714909440139e+03
-3.671218971741976020e+03
7.554222247749321468e+02
4.863400353622423609e+03
5.046898749190314447e+03
4.353753914665013326e+03
4.020725713251756133e+03
2.283780089424578819e+03
-1.755095196612192240e+03
-2.217581849815466740e+03
-1.272889516196338811e+01
1.594333848977209982e+03
1.864640301853192341e+03
8.007512650631763051e+01
-1.927314348087679036e+03
-6.052321385154643394e+03
-7.449893373717782197e+03
-3.323699012082431182e+03
-2.249536013308017573e+03
1.554665376031653636e+02
2.543013319766071618e+03
2.388354205268273290e+03
-1.738131974264110340e+03
-9.791588917368926559e+03
-8.990427539011612680e+03
-3.077524819657832268e+03
-3.728682723110120151e+03
-6.172231469440431283e+03
-7.700395313851620813e+03
-1.031717685263130988e+04
-6.974530762317075641e+03
-2.711913297962522847e+03
6.586983860463664087e+02
4.331079736216855053e+03
3.903417944215215812e+03
-7.462202993958647994e+02
-1.004797765594588782e+03
2.257318958440013375e+03
4.886604160129824777e+03
6.558049775925719587e+03
3.528057978347658263e+03
-2.953813186619631779e+03
-3.907302104838188370e+03
-3.439539023907023875e+03
-2.839562674243550646e+03
1.967065371089567805e+02
-4.906685905465348583e+02
4.664388722717428209e+03
5.631348764375544306e+03
4.740895154261326752e+03
-3.924546026689563973e+02
-4.377757320525020987e+03
-1.274765481415156955e+03
1.288969269419865896e+03
3.227268016037050984e+03
2.782892752740310243e+03
-1.438357446827324395e+02
-1.196919086004518022e+03
9.473066073426605271e+02
2.682691546314976222e+03
3.163056994806529019e+03
3.367680424250404030e+03
1.917109578134032688e+02
-3.837581357700858462e+03
-8.044003923211615984e+03
-3.341536031338506291e+03
1.843518278682930486e+03
3.721059302520140136e+03
5.579346483441392593e+03
5.640338618790466171e+03
3.818785162802619197e+03
2.069705659747154641e+03
2.837312437413391308e+03
5.285692515197312787e+03
5.791858267173168315e+03
5.135998304338499111e+03
5.485204444102613706e+03
3.425049228281590331e+03
1.816572431037103570e+03
-1.134431145819277305e+02
-3.049790971049640575e+03
-3.773161254348124658e+03
-1.641586278535816064e+03
-5.404680621190364036e+02
4.678931759823836956e+02
4.546483328241537833e+02
-8.378060611356097525e+02
-6.075506396068951290e+03
-7.802365230939874891e+03
-4.295366019965668784e+03
-1.724174406742239398e+03
-2.169812784483765881e+03
-4.255189327742199566e+03
-2.517206727725434575e+03
-1.582719080920269334e+03
-3.251043884947616789e+03
-1.776388451512350002e+03
1.470318124944721774e+02
2.725596670824390003e+03
5.305439006476749455e+03
4.691976846377930087e+03
3.403276485116904951e+03
8.424064292036995312e+02
4.183183640432476409e+02
2.415982098638677144e+03
3.474286828041140780e+03
2.981482452181636745e+03
-3.452943571407733430e+02
-1.714203591250814497e+03
2.502384694074828985e+03
4.682138713199563426e+03
1.170954865916650533e+03
-1.809990786706058998e+03
-1.884212068975862167e+02
-6.637632069369873307e+02
-2.534093242782403649e+03
-1.313750187805972928e+03
1.779355532091529994e+03
2.552306262290159793e+03
3.240206197193854223e+02
7.293977217610449770e+02
3.249873049789721790e+03
4.867778275932878387e+03
4.640769758632386583e+03
3.239281729457434267e+03
-1.394382255350568812e+03
-5.543056719224518929e+03
-6.604733799798153768e+02
4.094188761598506517e+03
2.599035339837083939e+03
7.171533503211835523e+02
-1.069058559655923773e+03
-2.640363164526345827e+03
-2.711757358554671555e+03
-2.033578568400568429e+03
-1.884145340520321952e+03
-1.819794383901840320e+03
-2.772506974033162805e+03
-5.170262387405286972e+03
-7.061775099967118877e+03
-6.188811331119765782e+03
-5.426526172782351750e+03
-3.013096884474166927e+03
-7.674126352159986482e+02
1.963665604488391736e+01
-3.492232496963860910e+01
-3.691085432028024115e+03
-5.638047714448914121e+03
-3.669086039563171198e+03
1.161875506771882783e+03
2.635506827129051999e+03
2.234014939720982056e+03
1.201364121898134499e+03
1.784779168588468963e+02
3.815060944996840249e+02
-7.269064677429635424e+01
-3.059834657014493473e+02
-7.008161092316205441e+02
-9.343482719701820542e+02
-1.784845803741550299e+03
-1.379149983277624187e+03
-4.753976398913570165e+02
-1.150713641094419870e+02
-1.326288880605632357e+03
-3.183727060431639075e+03
-4.234574271075945944e+03
-4.481974305977769291e+03
-2.590876206160872698e+03
5.987539478996135358e+02
2.048705807809179078e+03
2.511952110941663705e+03
2.405641876864772712e+03
2.610014306926932022e+03
2.619751108401555939e+03
2.140567601524507154e+03
1.479572314478926955e+03
1.174979779562369004e+03
1.733816767378930535e+03
1.723371192121854392e+03
1.758711410738580071e+03
1.609553120069718489e+03
1.982013482889510442e+03
3.189149106956319429e+03
3.362521600939390737e+03
2.002048116686906724e+03
9.560171830647622073e+02
1.100499074070357665e+03
1.269668482068112326e+03
1.004475685556927260e+03
8.897662191106687715e+02
7.996702631490871909e+02
3.021160541997298310e+02
-3.207513139710806058e+02
-8.380690476781921916e+02
-1.280810716099171486e+03
-1.092775800226866295e+03
-9.718949503565792156e+02
-1.083476871726124273e+03
-1.746875737282809098e+02
5.071871991440120269e+02
1.030223058582512294e+03
1.216737944137063323e+03
8.128225644746682974e+02
9.085028462879719200e+02
8.919404063974873225e+02
1.034114189894626861e+03
1.274794922466680873e+03
7.296809550394449388e+02
2.618231820275275368e+02
9.081618816062375572e+02
1.463899755552714623e+03
1.453533979790222020e+03
1.318334171764747907e+03
2.305869679496138360e+03
2.194670002594779817e+03
1.663353096449866825e+03
7.430985618965924004e+02
-1.004484064972269380e+03
-3.341892092136333304e+03
-1.447605159956578746e+03
-1.931148933153015832e+03
-2.140991079859760703e+03
-4.127908312531258161e+03
-3.141389490697760721e+03
3.813280081335461205e+02
-1.353631773570306223e+02
-1.188119587460484183e+02
1.476476291066694557e+03
7.888992532411286902e+02
3.504432161297614243e+02
-1.408913372916246999e+03
-2.216761311675361867e+03
-1.773746182467634981e+03
-5.313781390507966535e+03
-1.861864190232088504e+03
9.307136917850060627e+02
-8.874478899028858905e+02
-3.403499945223458099e+02
-1.963671208793485221e+03
-3.376013448644067466e+03
-4.532111120015288179e+03
-1.721144001201417041e+03
-3.719991963230352194e+00
3.230069188404535794e+02
-1.030601687625113755e+03
-4.241412349193908085e+03
-1.963191688904411421e+03
7.551871132038760379e+02
-9.238390265683743507e+01
-8.439469872330023463e+02
-1.347323808763500665e+03
-3.362767453622120684e+03
-4.750346963556142327e+03
-1.812118490858604218e+03
-1.944250968801820889e+01
2.318843850216862393e+03
3.446556846136153581e+03
3.224286685820080038e+03
3.037579504268909659e+03
2.377477319805652314e+03
2.004931693200787777e+03
2.133244802656186039e+03
2.104477824942331608e+03
1.864631557971238863e+03
1.677815483653658703e+03
1.315278941661035105e+03
9.357889318905944265e+02
9.241240621322624520e+02
1.192287001321506523e+03
1.080382496323504711e+03
5.975507386773421103e+02
4.678628807430695247e+02
2.856014945291864038e+01
-2.555708344833526979e+01
7.308531239782639943e+01
-4.729861309589228568e+01
3.971124936861364745e+02
6.242724783864540541e+02
3.733699563595101267e+02
5.476020134924490890e+01
5.518598497658796305e+02
9.100104786699722581e+02
1.245693244637824137e+03
1.200411835854925584e+03
1.188292258249494807e+03
1.367132670017701685e+03
1.023108456300479475e+03
1.186036587781837852e+03
7.398863677024013441e+02
5.968870440844980294e+02
5.415968597482383302e+02
2.551442209270215926e+02
2.162595524001705627e+01
-2.680627391478782897e+02
-3.979260692667670014e+02
-2.730136827587600123e+02
-2.189740283977730257e+02
-6.006127818056380647e+02
-4.390987254212790845e+02
-1.756127691608390364e+02
1.151843844673868347e+02
4.388379853636517964e+02
9.562895814919465920e+02
1.191952254314654283e+03
9.955014337844254442e+02
1.271687079347699409e+03
1.274885785799541736e+03
5.123646053446808537e+02
-1.759616118556726860e+02
-8.463328657929334042e+01
-4.317087631739164522e+02
-4.632060682443931796e+02
2.240682490516930443e+02
3.923567420742917307e+02
6.135249012679064435e+02
1.088272327298059736e+03
1.496592954611800906e+03
1.322578668601135860e+03
1.516252577959487553e+03
1.802901285899395134e+03
1.783647559300710554e+03
1.592601040245247532e+03
2.022082821809796314e+03
2.019925836538001931e+03
1.774327188528960960e+03
2.039245797885226239e+03
1.947824694166761219e+03
1.941213895260604659e+03
1.341434649885222370e+03
6.652660809289355939e+02
7.605509474446255354e+02
8.884030833556190601e+02
3.594267977743379561e+01
-1.643898172859727993e+03
-2.129324880406444720e+02
-8.731184191057290036e+02
-2.845366375173732195e+03
-4.978597014050522375e+03
-7.505961999781209670e+03
-4.037669232777441266e+03
-4.586673206874718744e+03
-6.798126721831579744e+03
-6.871704951442259699e+03
-6.192307219278496632e+03
-6.096374302704494767e+03
-6.168335261732112485e+03
-4.645658998153149696e+03
9.016713180830366809e+02
1.602856722832526657e+03
-3.514954122375885163e+03
-6.018053393535975374e+03
-6.404407761682603450e+03
-6.303783212272044693e+03
-3.850445778444859116e+03
5.765553625001367664e+02
9.671439677797311560e+02
8.132658958375583325e+02
1.150166798539877846e+03
1.120968224157911209e+03
1.469814104976604995e+03
1.362603889274997982e+03
1.573134135080714486e+03
2.019456139207119577e+03
2.261719003773544500e+03
2.581173829084548288e+03
2.317758037370113016e+03
1.909020439761419084e+03
1.693072560890765772e+03
2.410349253890546606e+03
2.427891737706127060e+03
1.901339350640988641e+03
1.674860046615523743e+03
1.573611729908783218e+03
1.584433910492790346e+03
1.437122985180448950e+03
1.251812837239596774e+03
9.247799147076744930e+02
1.135833079350345770e+03
1.273809416493898880e+03
1.377742147502442094e+03
1.599855852270050264e+03
1.891281786831146746e+03
1.616344516442659142e+03
