-6.480087981040024715e+03
-2.288816251878349249e+03
7.505133791171394478e+03
1.126979770293669390e+04
1.145831702669901642e+04
1.723580349337996449e+04
2.096330234343904158e+04
2.128386549445333003e+04
1.839358627064734537e+04
1.268153670716277702e+04
8.117801483215960616e+03
7.128511666734149003e+03
7.930698663769406267e+03
6.725402700133576218e+03
3.753716364210448774e+03
4.589641991824939396e+03
8.697196094265955253e+03
9.891416293349479020e+03
7.922408672320182632e+03
6.840219822062172170e+03
8.971912772799923914e+03
8.973516511252953933e+03
6.866076025619742722e+03
5.472665223732195045e+03
5.900357728335677166e+03
6.644205072386459506e+03
6.879242474299858259e+03
6.909368271266956071e+03
3.410530949539624544e+03
-2.977375476929766137e+03
-2.162451676199130816e+03
-1.263831063784640719e+03
-1.368172015550549645e+02
-4.562893607701306564e+02
-1.132182805619364672e+03
-1.319630219083460815e+03
-2.648642913421273079e+03
-5.728666532370016284e+03
-9.581067789604698191e+03
-1.043576988332772271e+04
-4.299170811676302037e+03
2.440194254533614640e+03
3.373767864229928364e+03
1.026714720921955177e+03
-1.704642830049721397e+03
-2.743982489669023835e+03
-3.865199013400235344e+03
-4.211838542383643471e+02
8.235862626617639762e+03
1.048534731831652607e+04
7.798999702248436733e+03
5.684945021589288444e+03
4.479766814962768876e+03
4.987562537716603401e+03
2.136919709647574109e+03
6.692978128199206367e+02
1.363683591571799809e+02
-2.641022362149778360e+02
-4.506751472014594242e+02
-1.028523323403627501e+03
-1.097800975242366349e+03
-4.565438477657662588e+02
-2.027832377345278701e+03
-5.033796937186328250e+03
-3.666485769152533521e+03
1.136135176346997923e+03
3.374991185526549998e+03
3.860998271960609600e+03
3.701130410755708908e+03
1.276377070419292295e+03
-2.302301974310612422e+03
-4.485970692598806636e+03
-6.490636542431469934e+03
-7.172391272708737233e+03
-6.228403610672343348e+03
-4.009738467805692380e+03
-1.440382681045118034e+03
1.158586067414093350e+03
2.592042292344277939e+03
4.863894697253045706e+03
5.884031135222998273e+03
4.672436667381063671e+03
3.373099377423580336e+03
1.503950833760834939e+03
-2.250107466335115078e+03
-7.181217950456064500e+03
-9.977375390873752622e+03
-8.221559597817289614e+03
-6.348810155906343425e+03
-7.081229171356943880e+03
-9.669842064872869742e+03
-1.097873139912253282e+04
-9.562953594966071250e+03
-1.091071427506793952e+04
-1.404445507507095499e+04
-1.708781841774829445e+04
-1.854470107956060383e+04
-1.805115839767860234e+04
-1.467606830320177869e+04
-8.989922571230967151e+03
-7.969613803567836840e+03
-1.371803031446539535e+04
-1.371423506591789010e+04
-8.977304070711201348e+03
-3.366290091677652981e+03
5.401733703473531023e+03
1.010482111402321243e+04
1.116600568227662916e+04
7.993294958106733247e+03
5.556628093760102274e+03
5.910957136576299490e+03
5.277259233555711944e+03
3.028422365917609568e+03
2.387418464976973610e+03
3.787220818859500014e+03
3.377853551702509776e+03
3.342320091007824431e+03
2.393524317965769569e+03
4.994364664797972750e+02
-5.908959175849561234e+02
-2.196396169261532577e+03
-2.466119954787147890e+03
3.119402506771357935e+02
2.307847937480159999e+03
1.033628359244411740e+03
-4.247192608558487450e+02
1.119719494390708178e+03
3.822931705914854319e+03
7.393990108144300393e+03
9.162986570779490648e+03
8.073955356074338852e+03
5.721931711286078098e+03
4.506932723678827642e+03
3.171961201078646354e+03
2.301009563329901084e+03
2.611970349626816642e+03
2.105903783648924673e+03
2.680921267015237390e+03
3.747035765687598541e+03
2.388255946851105818e+03
5.436399591791663397e+02
1.357212638405275356e+03
3.884010650100289240e+03
5.747015792560615409e+03
3.922232307879608470e+03
3.366827914126050018e+03
2.525045135593677514e+03
1.283837371103885744e+03
9.200895931610874641e+02
9.639135835332320994e+02
1.158281018727284106e+01
-1.015793480559577802e+03
-2.043979721869471405e+03
-2.962203623870207593e+03
-2.860593154749420592e+03
-9.769725001157588622e+02
2.865386736631319877e+02
-4.578361797645081424e+03
-4.483441819113771089e+03
-1.701760924606767048e+03
9.308518635603510347e+02
2.716482734290062126e+03
4.044238590662426304e+03
3.595242007449536231e+03
2.412545310865637020e+03
1.667146174263396688e+03
2.501995458316524491e+03
2.980168143296129529e+03
2.653663526149357494e+03
2.813565025702887851e+03
2.227979937663849341e+03
2.361919946717855964e+03
1.578440551848872019e+03
5.034849184640270323e+02
1.460320842909863757e+02
-1.099377524894206886e+02
-4.803487656218672441e+02
-4.611863684825783594e+02
1.015875941971988112e+02
-3.629533636346843082e+02
-3.086851989634291158e+02
-3.946132038309849577e+02
-1.347718849669492101e+03
-2.357026434507636623e+03
-1.346478490231074375e+03
5.200508665721954458e+02
7.616015660625063219e+02
-2.348571129599324934e+02
2.885972533181235917e+02
5.021107374952359805e+02
-1.323040018688466546e+02
-2.386294156868697769e+02
2.381830353651850203e+02
-3.437803694437947684e+02
-1.146644852141108458e+03
-1.146486105454259587e+03
-1.001333889009898485e+03
-1.342178141895860790e+03
-1.526062900943710019e+03
-1.696949578663019565e+03
-1.280715186048495298e+03
-7.003724655321467480e+02
-4.809425826033806857e+02
-7.439113419580918674e+01
3.243361569832628675e+02
3.551701750879394126e+02
3.989697125112501226e+02
3.984000873717459967e+01
-1.600989505469597134e+02
-6.719217908283571887e+02
-9.045092820628800609e+02
2.504524448361762978e+01
7.576703503964786250e+02
5.440563741692012911e+01
-6.559096738438308876e+02
-8.945332654686253591e+02
-1.243433845594941204e+03
-1.692693849957027169e+03
-2.140290391605713467e+03
-1.666225837925706401e+03
-1.570528112850861362e+03
-1.181219604226175989e+03
-9.122183361848808545e+02
-1.312809530430092195e+02
9.577817692980145239e+02
1.549078179743609098e+03
1.584527667124907111e+03
8.245528351641097515e+02
4.778338166836645655e+02
3.420577038726499097e+01
-3.658982337644195582e+02
-1.003004513483731557e+03
-8.693469974695289011e+02
1.087752810354947002e+02
9.332483767689817569e+02
1.166073259294430954e+03
7.102866383141360984e+02
8.234353198132636180e+02
4.584185482603619448e+02
3.362964017932063143e+02
3.609097496498854696e+01
1.590423622171376792e+02
4.614328773604838716e+02
5.070021158507866517e+02
5.734727671136906793e+02
5.059186617294009807e+02
1.275048458420613997e+03
1.391195501964116829e+03
1.355297045994139125e+03
9.045493698756428103e+02
4.957947386835207908e+02
6.840670855852549721e+02
1.233246481550335602e+03
7.433215526220042193e+02
4.246977978388522956e+02
5.628429570970464368e+00
-3.784147981821479334e+01
4.730669226038373836e+02
6.897849646093422962e+02
3.797323467607004659e+02
6.864526459023243206e+02
1.166112870887656527e+03
9.139234766697823034e+02
1.009931817497245675e+03
1.193336012730676657e+03
9.863682965791789456e+02
7.642884497253379550e+02
7.420684166313664036e+02
1.048422229905007498e+03
1.399163567721519939e+03
1.707396109427185820e+03
1.650321121608252952e+03
1.103647570900874371e+03
5.820912806229836178e+02
1.847937038697395167e+02
3.498664574970359098e+01
3.076232380443280476e+02
5.743424655977785420e+01
-4.994380627518379470e+02
-7.357934182839902633e+02
-2.866656787256562211e+01
1.353816374982884554e+03
2.177664970436878775e+03
1.809937544575656602e+03
-4.037759663823104717e+01
-6.755824837882672909e+03
-7.195111370509924200e+03
-3.693770719756875678e+03
-4.272770788209101738e+03
-2.567229396322093635e+03
2.224931269693126978e+03
-1.254195224312117034e+03
-2.392595536410954992e+03
-4.535191203457712618e+03
-4.309758047450732192e+03
-3.136149029463016177e+03
-3.084550052971354944e+03
-1.662574684200359798e+03
-5.433617438819543395e+02
-2.969504372108046027e+03
1.220301055349726084e+03
-1.647827036733215436e+03
-9.569522102209556351e+02
-2.977942510939572912e+03
-2.418122280036734082e+03
7.290037901649360492e+02
-1.776166033484360469e+03
6.258127052436647091e+02
-2.006062457753570470e+03
-1.549787970682237528e+03
-1.045377433149244780e+03
1.275503328235428171e+03
2.864771196960274210e+03
-8.765855606361592436e+02
3.395002893020176771e+02
1.508035561258164307e+03
1.269118667814311493e+03
1.604749138874027267e+03
1.919871836562903354e+03
1.269718999501706776e+03
6.735056963911830508e+02
7.749950466057555332e+02
1.070902049987334749e+03
1.108418494143144244e+03
6.537416726508040483e+02
5.030044928700224887e+02
4.484822613913967757e+02
7.333640167280775586e+02
1.503653129611554050e+03
1.823411320649435311e+03
8.666230352312260266e+02
3.062069959766988632e+02
5.030309660737643185e+02
1.184045666839059322e+03
1.646287596884300001e+03
1.370877609020812997e+03
6.777329344277018208e+02
2.699268259467388020e+02
4.545529116986359099e+02
8.576179842266270725e+02
9.934081495847497081e+02
6.654587234427982878e+01
-3.947489054735669356e+02
3.075102181284743210e+02
1.196993231978389986e+03
1.447788579737929012e+03
1.552085671552614940e+03
2.003133942979920448e+03
1.819897130299443461e+03
-1.969851024447163581e+03
-1.228870762837733309e+03
-3.688516547497496845e+02
1.121202253713450546e+03
1.194452967483166503e+03
-3.344016653941194477e+02
-1.589999386881601822e+03
-1.969239515850747011e+03
-1.491719185864904603e+03
-1.105941037312778462e+03
-7.822841505364430077e+02
-1.084157105793911796e+03
-1.834664383050594779e+03
-1.601947582740756616e+03
-1.098750687768264697e+03
4.409271693214893162e+01
1.299674834533890817e+03
1.830855257405486100e+03
2.330502585227952750e+03
2.212771429712978261e+03
1.919776110417387372e+03
1.396375789184468658e+03
1.381435886558660513e+03
1.563152412241572165e+03
8.184804027531363317e+02
-5.125718932381918194e+02
-1.077922098516374035e+03
-8.405872111199527126e+02
-1.475461289272909653e+03
-1.835677786086398328e+03
-1.570525084591019549e+03
-7.689732464123585487e+02
3.723710479201901080e+01
-1.738633898055490192e+02
-9.995543696549138986e+02
-1.553925925648423345e+03
-1.438113376662434575e+03
-1.135031442433054281e+03
-5.394873984103940074e+02
4.366057447607294080e+02
1.292123914497833994e+03
1.466077585440005350e+03
4.014872278659266840e+02
-3.987903849676647496e+02
-6.872041871534003121e+01
-4.642246630338474489e+01
-4.879449907773043265e+02
-7.381992453962163836e+02
-1.038163061561788936e+03
-1.460021410518526636e+03
-2.145010618241587508e+03
-3.395167174524100119e+03
-3.533239525799817329e+03
-1.284294962777122464e+03
2.426431394223884297e+02
4.375793371590652896e+02
8.534249660184229924e+02
1.246172443987121369e+03
1.175808059540486965e+03
1.022256995686831146e+03
1.242566909032406102e+03
5.977446585809358339e+02
8.126116200963076608e+02
-4.690839766003849149e+02
-4.346311271058614693e+03
-2.465615756248096659e+03
-2.606413863280718942e+03
-2.660016343772571872e+03
-2.508538098096628801e+03
-1.902035599987494606e+03
-5.245558145887590626e+02
6.699966824808163892e+02
1.217661109628234954e+03
8.184094426845199450e+02
9.390820676570959904e+02
1.173611281722510967e+03
1.443993917082456164e+03
1.756168533561224876e+03
1.394107285494990037e+03
1.821697829065857604e+03
1.914981905416339941e+03
1.563969639863712018e+03
9.365241373175116451e+02
1.175629552773385285e+03
1.388248326609884089e+03
1.121274416418729743e+03
4.995834805941100853e+02
6.161741457011212333e+02
8.809877720462068282e+02
8.019575775184276836e+02
-2.008720767244513468e+02
-2.325478260785647819e+02
5.777455762425488501e+02
1.181903350292355981e+03
2.000027776493255033e+03
2.310138860824732092e+03
3.223073440498125365e+03
3.572824456926128278e+03
2.918471440690994314e+03
2.494872141961956459e+03
3.044940922050835979e+03
2.760724936457278091e+03
2.250242805215857516e+03
2.002419067082785659e+03
1.953179734213313850e+03
1.799513614180482364e+03
1.650368112135855654e+03
1.283741391411504537e+03
8.915666601420209645e+02
1.306796383514035597e+03
1.993407674909734396e+03
1.752347268421693343e+03
1.489582668276789263e+03
9.061781290061925347e+02
1.262158959861824314e+03
1.786570658435504811e+03
1.813401708266933156e+03
3.245586634900096669e+03
3.886201506935261477e+03
4.364075629989373738e+03
4.651172984928437472e+03
4.467625212355338590e+03
3.807478862905160895e+03
3.406702513463280866e+03
3.221301312762633188e+03
2.607267328912716948e+03
1.726558013565583678e+03
1.728127287577114430e+03
9.629980488973321826e+02
-9.578101571576348761e+02
-5.939375916709188459e+03
-9.554697392261861751e+03
-8.390628214302885681e+03
-7.732197840417998123e+03
-7.691374447584728841e+03
-7.352093663614034995e+03
-7.507320403830169198e+03
-7.006993582256674927e+03
-6.190114309799772855e+03
-5.680614635765192361e+03
-5.290500618575216322e+03
-4.711863223939714771e+03
-5.310649194966910727e+03
-5.727812079840349725e+03
-1.626297825728515363e+03
-1.083132311859553738e+03
-5.796243615914371730e+03
-6.627615748247200827e+03
-6.953182302950554913e+03
-7.377969357648433288e+03
-7.487913162974063198e+03
-7.416956787930495921e+03
-6.867054074787356512e+03
-6.562129043334650305e+03
-7.473246126881496821e+03
-7.505300417695127180e+03
-6.920184875038337850e+03
-6.540800902207588479e+03
-4.245141078585318610e+03
6.357757394539030429e+02
-5.920636575619394080e+02
-3.742540588879946881e+03
-3.715602452037423518e+03
-3.840177842296466679e+03
-4.614259544865598400e+03
-5.237848218354054552e+03
-5.558884841324093941e+03
-2.378293285111217301e+03
1.119862270153253576e+03
1.711624887335663516e+03
2.600088645990711029e+03
3.667260075119729663e+03
4.670186619434610293e+03
5.532981637348741060e+03
6.291715242672027671e+03
6.624415507590561901e+03
6.631103941771152677e+03
6.073796252794436441e+03
5.911499597289314806e+03
5.693293718460630771e+03
5.933288709773320988e+03
5.956542075324543475e+03
5.786070320974532478e+03
5.535754988035329916e+03
5.169565087575039797e+03
4.718538756348882998e+03
4.365054025566684686e+03
3.680261513081813973e+03
2.850037114280431524e+03
2.399395589643116182e+03
2.152375524190731539e+03
1.344163026365599080e+03
2.306838754090261773e+03
2.936882723719161731e+03
3.192945878643766719e+03
4.235660236372956206e+03
4.273369179542472921e+03
3.754008939586489760e+03
3.697308100448939967e+03
4.031031514018545295e+03
3.843475979773623749e+03
3.982932448637381185e+03
4.152430512614805593e+03
4.117904292360825821e+03
3.584382085147014095e+03
3.163804659974749484e+03
2.727143219602529371e+03
2.226637739025945393e+03
1.665786551458040321e+03
9.170862565231994949e+02
1.009277735444782934e+03
1.458564385471606784e+03
1.891751054045860201e+03
2.039861692716563994e+03
2.428171247081157162e+03
2.183766099713006497e+03
1.815425701767924920e+03
2.347039412546369022e+03
3.101541459417430360e+03
3.132118538007814095e+03
3.112421861498483850e+03
3.428666095664871136e+03
3.425358915408537996e+03
3.629479885714462398e+03
3.687123694151483051e+03
3.151194111965577576e+03
2.487632308503351851e+03
1.741465899042689443e+03
1.333705163522958401e+03
7.422378924420208932e+02
1.540198265434210327e+02
-1.029257414675088000e+02
1.445929675781335355e+01
4.210946398470906615e+02
7.039452144427161784e+02
1.074960018826748865e+03
1.287070337568091873e+03
1.712258724636361194e+03
2.250623863402173811e+03
2.217127827880169207e+03
1.834670240087487173e+03
1.935157810117015970e+03
2.348562474909589582e+03
2.401913835694452246e+03
1.813199497175837223e+03
-9.826737221279105370e+02
-5.839739343493512024e+03
-9.920033374277638359e+03
-9.892574560054363246e+03
-1.008433870898375244e+04
-1.000935581824692781e+04
-1.043475043046132123e+04
-9.701597990766993462e+03
-9.465843612110820686e+03
-8.778477430786950208e+03
-8.167573348464350602e+03
-8.162108270600197102e+03
-8.350735400488449159e+03
-7.279821968366433794e+03
-7.268403000155420159e+03
-4.143570680031898519e+03
-2.820263001451679429e+03
-6.986386777859534050e+03
-7.259985987955215933e+03
-6.394116159102079109e+03
-6.783825582206988656e+03
-7.473153236238948011e+03
-8.544122472945908157e+03
-9.213668358598599298e+03
-6.690797195862573062e+03
-2.590603783138744802e+03
1.566864253895355205e+03
2.860539014318316276e+03
2.217413855820529534e+03
2.124556906425571469e+03
2.933973875985422637e+03
3.238715894653224041e+03
2.856794408113923055e+03
2.754256255360811338e+03
3.533098589401413392e+03
4.217286761503950402e+03
4.032877294703495409e+03
3.525947166021708654e+03
3.154479429349598831e+03
3.340455069802298112e+03
3.000974869065919847e+03
2.343978459078337892e+03
1.925421069128532963e+03
1.742279628534935910e+03
1.535550989457434071e+03
8.323207850229795213e+02
8.106689564352167281e+02
9.826172654821647257e+02
1.456142194096059029e+03
2.001296249793772404e+03
2.316070869988693175e+03
1.989466325572900132e+03
1.559524001156881923e+03
1.899331426544129727e+03
1.926020457773382077e+03
1.958592160403131174e+03
1.961024216036531016e+03
2.556350793058925774e+03
2.322638603838465315e+03
1.838932938029955039e+03
1.941280426786061071e+03
1.637728284918170857e+03
1.185344968820482109e+03
6.622333975254672396e+02
6.863468056492139340e+02
4.543338642406122290e+02
8.917100622898090023e+01
-2.647692591285570529e+02
2.698411436631718061e+02
1.840653959579221919e+02
-6.990136687026802065e+02
-7.163037209842588027e+02
-4.281874302344758831e+01
2.654985583142634908e+01
-4.611104408139490261e+02
-8.191939434983349599e+01
3.405320748769045736e+02
5.472910478032523542e+02
5.972764577823015770e+02
4.512845318548327782e+02
-5.874950393743744570e+01
-6.698767761486276413e+02
-1.175173604832002866e+03
-1.556596634563795305e+03
-1.462065166523643484e+03
-1.066494361902264018e+03
-9.638838536632324576e+02
-9.842100611872448326e+02
-5.904285706443185973e+02
-6.184998217398683664e+02
-7.663191190255229230e+02
-7.079000821216728809e+02
-3.112025464706924254e+02
-4.211776085112832106e+02
1.421711150396139622e+01
5.859607564595231679e+02
9.410594011755140400e+02
1.054571235304512129e+03
7.785791212351334707e+02
8.380418221242408663e+02
4.999139615100913261e+02
2.852160650634139074e+02
-3.329193464439707668e+02
-8.465793785291020868e+02
-9.678147309821908948e+02
-5.135880837628582185e+02
-5.359654609851862688e+02
-6.868941299286053663e+02
-6.374233202787776236e+02
1.414984652878504505e+02
1.099606661501725000e+02
7.391668461885483055e+01
1.231439606277397303e+01
2.472314932482672987e+02
7.286979856152669299e+02
9.216903832263858476e+02
8.681545944572794724e+02
5.480680263757394641e+02
4.684176152850489530e+02
4.682285687894163289e+02
4.565162694091970366e+02
1.301696882342095307e+02
-4.829042656796872848e+02
-1.393690273077002303e+03
-1.766189717958556002e+03
-1.658364239637673109e+03
-1.188351728330453398e+03
-5.001965708239428636e+02
-9.128416782073687727e+02
-1.048485371503146091e+01
1.668930191665865834e+02
-5.473217154244922256e+01
-2.037845439267920966e+01
4.919566209439028057e+02
1.078231675838297633e+03
1.669440746994157053e+03
2.034550840475141285e+03
1.674562640712903658e+03
1.492356701597770098e+03
1.119735690470525242e+03
1.182067536524422621e+03
-1.230146091269850928e+02
-1.267565173079397709e+03
-2.083264694503671706e+02
1.358170737175499880e+02
2.026967616001643933e+02
-1.136380521568777198e+02
-4.877035534030203223e+01
3.427818654157372862e+02
3.765038560145599718e+02
5.982187532034153037e+02
1.198477629860677780e+03
1.349007023758294281e+03
1.982830809245077944e+03
2.507505179349920127e+03
2.680371418411563809e+03
2.626751176406920422e+03
2.518758102531817258e+03
2.291930001757194987e+03
2.167034108449890937e+03
1.519927780658024858e+03
1.315721548287674295e+03
1.056805542618601748e+03
8.373759865379302028e+02
9.036768222022359396e+02
4.761636719871432888e+02
2.107531297665707370e+02
6.330398087424579217e+02
1.434260163703344233e+03
1.851509374658815887e+03
2.116743737314557620e+03
2.137818148786255279e+03
2.072601895833693561e+03
2.177624829451023288e+03
2.482491097851450377e+03
2.690967955466559033e+03
3.007312966874063932e+03
3.411220129353612265e+03
3.793952978283105040e+03
3.405383437149731890e+03
3.207022761981908388e+03
2.884710143151057309e+03
2.291865026677043261e+03
1.718234142458549741e+03
1.550647670830001289e+03
1.649073194904285856e+03
1.757481831180459494e+03
2.020894123489244294e+03
2.139287046842776363e+03
1.849724285422987123e+03
1.676163683117335040e+03
1.841594899635409092e+03
2.210005337463208889e+03
2.392386931132787595e+03
5.457958758647049535e+02
-2.346765273652720225e+03
-6.694349401457151544e+03
-7.790982765203774761e+03
-7.280672821735305661e+03
-7.813392821372515755e+03
-7.698139930563523194e+03
-7.777967074610847703e+03
-6.905915781674249956e+03
-7.067807811588158074e+03
-7.482761356843789144e+03
-7.399757739844664684e+03
-8.049801183363086238e+03
-8.373952731453347951e+03
-7.226092978400232823e+03
-5.474148418011963258e+03
-1.436132520531287582e+03
-4.790998606218463465e+03
-6.684637773014427694e+03
-6.427980318934583920e+03
-5.886007237442769110e+03
-5.965760444600547999e+03
-5.220199088742166168e+03
-4.691260961707813294e+03
-4.760845177624458302e+03
-4.394900658815098723e+03
-4.479412266495574841e+03
-4.618408135526155093e+03
-5.044910064279404651e+03
-5.643940975164228803e+03
-2.404460922018524798e+03
-3.704021429558945329e+02
-5.434710390026893947e+03
-6.152237917278976965e+03
-5.304910120995770740e+03
-4.748799653247725473e+03
1.519067991840005789e+03
4.575783399786861992e+03
5.608386030696606213e+03
5.362954037595311092e+03
5.437558151443603492e+03
5.854282307317029336e+03
6.060184305804226824e+03
5.956375375065495973e+03
5.499961871724714911e+03
5.374088819980407607e+03
4.732805710830949465e+03
3.987233560290405421e+03
3.576475395656516412e+03
3.739499295920528311e+03
3.498309202923126577e+03
3.227979492344935807e+03
3.033623721602588375e+03
2.970272450931302501e+03
2.761960326452829577e+03
2.870682087730372132e+03
3.170450998900859304e+03
3.393416760722862364e+03
3.496684779472865102e+03
3.636331428100596440e+03
3.930383165578628450e+03
3.996874718220005889e+03
3.359772550450219114e+03
3.171626821953646868e+03
3.216871619500369434e+03
3.245561698339412487e+03
2.760206018225948355e+03
2.464990009220848151e+03
2.060076102918768356e+03
1.302503542598159356e+03
9.733209819817287780e+02
9.656166044778120749e+02
7.193462088379125134e+02
4.073638277968433954e+02
7.266854031356843961e+02
8.125068053152754146e+02
1.128936905998066777e+03
1.580748047011947619e+03
1.992528141864609324e+03
2.126872879711946098e+03
1.819413975565679038e+03
1.623887955694175389e+03
1.906124742208630323e+03
1.952089565503918720e+03
1.909760285785435372e+03
2.285085358619946419e+03
2.173223208555153633e+03
1.827973993549776651e+03
1.221025204279163745e+03
5.042102227892755764e+02
2.298765281748714528e+01
-1.367477389107243653e+02
-1.493598150498534665e+02
-9.789095518236544535e+01
-1.850338442145318254e+02
-7.467352920887816481e+01
4.320587441648454501e+02
7.130891098424044685e+02
6.245372669965031491e+02
5.003792582487940876e+02
5.084168765610410787e+02
9.223940713680323142e+02
1.682340796309326151e+03
1.722401568651109983e+03
1.577611595082034910e+03
1.562701427293040751e+03
1.453514672723194735e+03
1.177304794902322556e+03
7.924179931041957161e+02
3.537901206552286340e+02
-2.426297379803790193e+02
-3.678500957436129966e+02
-6.128741745686764943e+02
-7.047117182299060687e+02
-5.511647520454979485e+02
-1.851970159523301618e+02
1.647581220072320605e+02
1.313866443470156469e+02
4.525439405542059603e+02
5.280876443935753741e+02
4.549288134942511306e+02
5.732354803340227818e+02
6.962301458176169717e+02
7.164032368961260318e+02
6.895113568026598614e+02
6.346873498408758678e+02
3.405107877875023519e+02
-2.791780476283401640e+03
-8.145623235021564142e+03
-1.160045609069748753e+04
-1.164913294924126967e+04
-1.143957573748050891e+04
-1.118379945392935770e+04
-1.036800383131419585e+04
-9.817110837415417336e+03
-9.289044526990621307e+03
-7.101843742246585862e+03
-8.615763392656312135e+03
-8.996682263652415713e+03
-3.122681368182976712e+03
6.608096465768148846e+02
2.072925185244445402e+03
2.655751236859510300e+03
2.761186712676800198e+03
2.427154336420334857e+03
2.282715988788600953e+03
2.278941369696113725e+03
1.938873712790536956e+03
1.545480626706103294e+03
1.065647536710682971e+03
7.243585539557898301e+02
5.216228654475438589e+02
5.574698475509651416e+02
8.750041133362499295e+02
1.150350239119933121e+03
1.275396866565831033e+03
1.214981070605375180e+03
1.406816358212072828e+03
1.448013001834755869e+03
1.487662499888277580e+03
1.933623791695974433e+03
2.419082890578854858e+03
2.377074368567270994e+03
2.049612851877227513e+03
2.172558885846053272e+03
1.849802384669427056e+03
1.637289781222777719e+03
1.782132971016797001e+03
1.367569778498693950e+03
1.124521989945172891e+03
9.090949429985089409e+02
9.044661267769920414e+02
1.014404546640506283e+03
5.938545831462114393e+02
4.667200543055532194e+02
6.092302939026843660e+02
9.666436861010894290e+02
1.414599291353594708e+03
1.557023755815130016e+03
1.462984254671965573e+03
1.340512060114343512e+03
1.488822638253620880e+03
2.060897014006539848e+03
2.424558243637036412e+03
2.355789390117439780e+03
1.869825448349744647e+03
1.514654430728920488e+03
1.548304501582929561e+03
1.050899100186108626e+03
5.463527473985892584e+02
7.367257647235952618e+02
4.082298325041878684e+02
1.916467299360922993e+02
7.402217195639727265e+01
1.063258898204594232e+02
2.335440091060523287e+02
-2.942691247255563667e+02
-3.149177910838968728e+02
-3.044665743695197690e+01
4.002295545525166176e+02
-6.537839692514869512e+02
-3.367392145569907825e+03
-1.745597573501484248e+03
-6.076471990909950364e+03
-1.538897526692525162e+03
-5.537767264779763536e+03
-3.059032379749668507e+03
-1.756534468332325332e+03
9.667211213981346418e+02
-2.799453677955633339e+03
-1.950955981575393139e+02
-2.687188382679003098e+03
-7.074486313546135534e+03
-3.883847527378597533e+03
-2.859378416532904339e+03
1.277925624693073843e+02
-2.966261748792593153e+03
-9.484709012081548281e+02
-1.654913868703904882e+03
-3.365633533488497505e+03
-3.414615949806161552e+03
-2.371707617544928326e+03
-1.773776802093671222e+03
1.370186875626155825e+03
-2.320722680632688480e+03
-3.083401303622350497e+03
1.114048865708045923e+03
-6.924644447402780543e+02
-4.863974704306363492e+03
2.664267510360437541e+02
-2.663224187611668185e+03
-4.295826648537712572e+03
-3.621452278112591557e+03
-1.211280591526987038e+01
-2.945812882843938496e+03
-1.049569939326759595e+03
-4.963437254958114977e+02
-2.666107927254613060e+03
-1.846818342674459700e+03
-4.653452058027418389e+03
-3.535106144512524224e+03
1.151320281522818959e+03
2.042835962623812520e+03
-1.311557618710960469e+03
1.637122353426069822e+03
2.752808428027261016e+03
2.422503089269557677e+03
2.083158465448972947e+03
1.746695548177380033e+03
1.654086270210384328e+03
1.197237464342307703e+03
1.105082453516567966e+03
9.687041309676091032e+02
7.460407025394058564e+02
9.979608082656266106e+02
1.162545455493627060e+03
2.098729021863913204e+03
3.311591340136697909e+03
3.970273626706263713e+03
4.281036702224995679e+03
4.600623307680806647e+03
4.880757198889654319e+03
4.870362910169234056e+03
4.267347949961445920e+03
2.911642419574930955e+03
2.856850512524594706e+03
2.947310602061442751e+03
3.014216936294425068e+03
2.518656221364077282e+03
1.808095541473843014e+03
1.350677540038821007e+03
7.853609083963971216e+02
-8.147842932696165974e+01
-4.387251863310357862e+02
-3.113131133235293646e+02
7.899550375212945710e+02
2.102815494264625613e+03
2.474307553278734304e+03
2.375408845805544843e+03
2.604000663225912831e+03
3.680896418241974516e+03
5.046981493018551191e+03
6.235503608962891121e+03
6.355988268194475495e+03
6.447644167219594237e+03
6.088433197992916575e+03
5.667961513281284169e+03
5.197154930535992207e+03
5.033890628004254722e+03
5.572813154967807350e+03
6.401191819653797211e+03
6.714167765395272909e+03
6.427640069049527483e+03
5.889073392338335907e+03
4.902299281158998383e+03
4.372714636405064994e+03
3.558062189486595798e+03
3.140416042651328553e+03
2.439923174913862113e+03
1.520487753359709586e+03
6.598761837183205898e+02
4.630636001251691027e+02
2.400294365011655771e+02
4.657709277023240588e+02
1.204219272611148654e+03
1.049307426417485658e+03
4.199746798603946445e+02
2.162046590319896211e+02
6.969897508081967317e+02
1.084282838502155300e+03
1.120073926713018636e+03
5.463632741889763338e+02
-6.149241653932722329e+02
-1.383796790232219109e+03
-2.178197521995072748e+03
-2.450157440621421301e+03
-2.846719723847718797e+03
-4.059871944320267630e+03
-7.826666856769564220e+03
-8.512071097510284744e+03
-7.345061032425408484e+03
-6.243633262642503723e+03
-8.677765515594246608e+03
-1.007646421830855797e+04
-9.882762355902543277e+03
-1.033161061128109941e+04
-9.439939466438867385e+03
-7.990758499963862960e+03
-6.654060307730368550e+03
-7.492761395860661651e+03
-9.465782910299507421e+03
-9.885288752052352720e+03
-7.702166447859408436e+03
-9.720441747585879057e+03
-1.482415786847699928e+04
-1.450022721810088115e+04
-1.189754856729092353e+04
-8.948071866724159918e+03
-6.504744508418040823e+03
-5.446571753024255486e+03
-5.100497916471945246e+03
-6.278350776702419353e+03
-5.392111960997546703e+03
-3.318682984789334569e+03
-2.473990429830256744e+03
-2.568018435119416154e+03
1.590273920098583858e+03
3.316957053106761123e+03
7.321443690483879436e+02
-2.076148951791768468e+03
-1.550872585623128543e+03
1.070429357373936199e+02
6.836512724058483172e+02
1.603002917361612162e+03
4.864173576749307358e+03
8.056299554744301531e+03
9.070476648764702986e+03
6.916770444154296456e+03
5.471211073225231303e+03
5.413830845943433815e+03
5.679821546150791619e+03
2.502295983879811502e+03
-3.426693791843438248e+03
-7.158106790299917520e+03
-7.277822982130623132e+03
-7.361715556222396117e+03
-7.610659200169098767e+03
-7.228576378979597393e+03
-6.133460839774198575e+03
-4.553157274224005050e+03
1.653953817203772871e+02
7.145253107224684754e+03
1.129049517001758250e+04
1.237220680792491476e+04
1.230848833135736641e+04
1.074443639248010186e+04
8.812157099248122904e+03
8.522732228109423886e+03
1.169323522737659187e+04
9.562750313757016556e+03
3.331359494609283956e+03
-2.504817377986075826e+03
-1.180701030856065472e+03
5.220781515824503003e+03
7.409886253487673457e+03
4.175881995983674642e+03
2.662746819390795281e+03
3.521496142395231800e+03
4.395467227896154327e+03
2.129673043848309590e+03
1.798115631061140220e+03
3.986845359633242879e+03
6.286940704714513231e+03
5.411260614254662869e+03
7.648102741177298412e+03
1.013851591780566923e+04
7.463184252334473967e+03
6.389459630970376566e+03
6.563090706507912728e+03
5.295013138206361873e+03
2.707329276797183411e+03
6.681815099530458610e+02
-5.134681955258695325e+02
-4.956081619803335911e+02
-1.361895174415463146e+02
-1.253189064641674122e+03
-2.729516242765888364e+03
-3.671155502137658459e+03
-4.611031634440057132e+03
-4.194206043703419709e+03
-1.336712477097734336e+03
1.442513535075500158e+03
