-8.610848980255337665e+03
-9.677877816903601342e+03
-1.155294362483517398e+04
-1.387694643358672693e+04
-1.556497364020417081e+04
-1.704218261907521082e+04
-1.882571879621949120e+04
-1.934091394178575138e+04
-2.055922728011668369e+04
-2.244815975092428198e+04
-2.319321505452529891e+04
-2.283302811266827484e+04
-2.173130074756791146e+04
-1.989594761299811580e+04
-1.909986542549907244e+04
-1.860405647727741962e+04
-1.824041544338738458e+04
-1.855083247825010767e+04
-1.876637884447367833e+04
-1.846932122242822152e+04
-1.930889383181659650e+04
-2.177723911369488997e+04
-2.476786774876373602e+04
-2.738728799546590017e+04
-2.925886539005127634e+04
-3.091496879034430094e+04
-3.310337122950005141e+04
-3.625661437444092735e+04
-3.821121275296835665e+04
-4.032670629034324520e+04
-4.185862603060751280e+04
-4.260953440045366006e+04
-4.467603630109536607e+04
-4.661883640284533612e+04
-4.719172190537268034e+04
-4.756740134380940435e+04
-4.758643452664554206e+04
-4.634343265479840920e+04
-4.599813957307781675e+04
-4.590231581388085033e+04
-4.478163748134982598e+04
-4.375866961057949811e+04
-4.398696930685378902e+04
-4.344411521629295021e+04
-4.116669018270321976e+04
-3.865129290401782055e+04
-3.650245693062360806e+04
-3.349556212993848749e+04
-3.101893972985600340e+04
-2.970904197937540448e+04
-2.899121493221365381e+04
-2.794675953241505340e+04
-2.561997229577143662e+04
-2.378307164860286139e+04
-2.188316254744149410e+04
-1.944448556752614968e+04
-1.768306286115524563e+04
-1.724578347242832024e+04
-1.688351880628624349e+04
-1.636113795426999422e+04
-1.087647700829471069e+04
-8.484389273714517913e+03
-8.537523050614880049e+03
-8.907540717190700889e+03
-9.389075685848065405e+03
-6.381671857036652909e+03
-6.595659697621952546e+03
-1.027009897300361445e+04
-8.889294980393071455e+03
-7.147785455059614833e+03
-4.744736378281488214e+03
-2.591024494315153788e+03
-1.345639038965264945e+03
-5.636069622196962428e+02
-1.272818182271326350e+03
-2.078817331682586428e+03
6.478775012311473347e+02
1.536745607177086185e+03
2.676267743333587532e+03
3.427081959226400613e+03
8.868581905551950513e+02
3.599274634673383844e+03
4.844033711395222781e+03
4.222032666700962181e+03
8.019448837683350575e+03
1.041560255584110018e+04
1.277374542107010348e+04
1.474108654371884768e+04
1.693609188272181564e+04
1.976534658269754073e+04
2.097751821848212785e+04
2.572608336092286117e+04
2.833049950147792333e+04
2.912160992756410633e+04
2.915661775333341211e+04
2.899465837194414053e+04
2.976196575143686277e+04
3.068877513820608874e+04
3.011628526072567183e+04
2.960670552927537938e+04
2.861735021712383605e+04
2.470286153994547931e+04
2.453682714011125063e+04
2.343381689587025176e+04
2.169551980914932210e+04
2.034879681640776835e+04
1.811937999045255492e+04
1.363934209819782518e+04
1.114560843285813826e+04
1.248810044843684955e+04
1.405386608846987838e+04
1.351521317007263315e+04
1.269243282817564250e+04
1.161239852603614781e+04
9.905208135431796109e+03
7.427999192691526332e+03
6.685454266140378422e+03
6.426102258505739883e+03
5.431914296068771364e+03
3.519473166819178005e+03
3.442372183580804545e+01
-2.311702007521245832e+03
-1.608349843654930964e+03
-2.433843141288748484e+03
-4.192467444880842777e+03
-1.281306134430644761e+03
-5.499247723071779319e+02
-2.182854742767050880e+02
8.117838402301709948e+02
3.272387523332895853e+03
5.551613810109651240e+03
6.343146251218251564e+03
7.362488003935551205e+03
8.080364776328117841e+03
8.508961768731551274e+03
8.643978572880196225e+03
9.057575158238025324e+03
9.557351872082743284e+03
9.488103671059574481e+03
8.848015424672405061e+03
8.854452002432310110e+03
1.005675313984689819e+04
1.087297538861378962e+04
1.167716130114649604e+04
1.254430425362367714e+04
1.369344669504726699e+04
1.419819054113482889e+04
1.542760337483152762e+04
1.650759812260317995e+04
1.677536795918741700e+04
1.700487847305856485e+04
1.753764918015273361e+04
1.768022566710088722e+04
1.743246236599085023e+04
1.733532432887296454e+04
1.782071237855077925e+04
1.871452703924743764e+04
1.913369565540208714e+04
1.892085373552750389e+04
1.933727648480408607e+04
2.071791556314831905e+04
2.172247839299956104e+04
2.226558394005128866e+04
2.244431476687100803e+04
2.274061622572888155e+04
2.283257972241403331e+04
2.196173335527505697e+04
2.032741043940616510e+04
1.732829012415505713e+04
1.389970602790005614e+04
1.187806780689053448e+04
1.116328933370243431e+04
1.032694487739413489e+04
9.835858490181975867e+03
8.653209264113038444e+03
7.750866450087065459e+03
6.873368342686801043e+03
6.064317103798229255e+03
5.933278851181850769e+03
6.078526640472309737e+03
6.655139838837651041e+03
6.710597920930021246e+03
6.464526742827218186e+03
6.024431651675990906e+03
5.666009222773160218e+03
5.294717968670350274e+03
3.198941347148332625e+03
-1.428626299892510588e+03
-5.072124862657228732e+03
-5.085687198346018704e+03
-4.784855802616597430e+03
-6.454622731151134758e+02
2.343775906697571372e+03
-3.012845631825846795e+03
-5.295796220847716540e+03
-5.480459836079212437e+03
-5.764570642572003635e+03
-5.562243807951698727e+03
-4.255746298120739993e+03
-3.752273498376861880e+03
-3.786219331676440106e+03
-2.681026626883858626e+03
-1.403051792440757481e+03
-6.586311041103692787e+02
-2.351551126526055668e+02
1.650433745631584941e+02
-9.919277244061977683e+01
-1.405418101609240011e+02
1.976510116148849363e+02
-4.002978957789343326e+02
-1.366257815622457201e+03
-2.103688836043188530e+03
-2.661034830738933124e+03
-3.209016435637351606e+03
-3.350924349689886185e+03
-4.016095353328597866e+03
-4.853818876308308973e+03
-5.025221420306901564e+03
-5.284776519007695242e+03
-4.928660643322610667e+03
-4.693900879966361572e+03
-5.221777937675736212e+03
-5.597537938873551866e+03
-6.327531112475956434e+03
-7.405271743651185716e+03
-8.602034983282050234e+03
-9.452153065813810827e+03
-1.034326277959116669e+04
-1.128885116672402000e+04
-1.203824867450569036e+04
-1.179667023624921239e+04
-1.046222340808853551e+04
-1.106109814242740867e+04
-1.218775296564845485e+04
-1.283356294094857549e+04
-1.371684743018341214e+04
-1.398989394319664643e+04
-1.440111169558472466e+04
-1.596761136008473295e+04
-1.695658313320126035e+04
-1.735614823259039622e+04
-1.777128706912651251e+04
-1.830212013214649050e+04
-1.907956300627391465e+04
-1.973149677300661278e+04
-2.105499534189754195e+04
-2.105806915425322586e+04
-2.101786279717244179e+04
-2.208985078187031104e+04
-2.272107551746942408e+04
-2.168929601953492602e+04
-2.168976412251267902e+04
-2.250675100629319422e+04
-2.178934562146864846e+04
-2.136555204345352831e+04
-2.171865515766515819e+04
-2.231895382383710603e+04
-2.308960197186291407e+04
-2.348386181175425736e+04
-2.323686115957747097e+04
-2.346489545155343876e+04
-2.373879166215942678e+04
-2.336987057996123258e+04
-2.255512757516294369e+04
-2.212498300129621566e+04
-2.211062918376342714e+04
-2.191219759412810163e+04
-2.175399306677818458e+04
-2.114124166713084560e+04
-2.053912657961069635e+04
-2.040477878231975774e+04
-2.165731060639346470e+04
-2.203402205027346281e+04
-2.148502029880446571e+04
-2.050415274487966599e+04
-1.965058698503917913e+04
-1.866159161255039362e+04
-1.570730640149993633e+04
-1.396180183110337202e+04
-1.233912894507082274e+04
-1.079554234734744568e+04
-8.979240637579667236e+03
-8.530360161221395174e+03
-8.383049678297800710e+03
-8.431419502441658551e+03
-8.227652819818422358e+03
-6.578962348158183886e+03
-4.360701929947374992e+03
-2.769099138298799062e+03
-7.232118467159394868e+02
1.348192200380703696e+02
6.036837593203767938e+02
1.806100931108408759e+03
3.124806757586826279e+03
3.782410795113577478e+03
4.214748741548430189e+03
5.348585074194480512e+03
6.994501607577874893e+03
8.321236327515989615e+03
9.308585250138996344e+03
1.001218421718128229e+04
1.034048351904093761e+04
9.535016908996978600e+03
8.740556551808920631e+03
9.368725730793141338e+03
9.993136550493329196e+03
1.050549626145258298e+04
1.044046270627952981e+04
1.020167835395095972e+04
1.089775254671006041e+04
1.165530540833870509e+04
1.157791478093909427e+04
1.075917934041631452e+04
1.084972280470965597e+04
1.264135006047470051e+04
1.429280432140249650e+04
1.463264158270806911e+04
1.457329908825806342e+04
1.581448827421598980e+04
1.636555550130319170e+04
1.375915232988511707e+04
1.225402761479294350e+04
1.245841489849611025e+04
1.513803718126412605e+04
1.813788754949112626e+04
1.806919744411550346e+04
1.652227006216035443e+04
1.605652969271264374e+04
1.565052947795491309e+04
1.467992380846047126e+04
1.320838632246907218e+04
1.173878398743573234e+04
1.084592785896462192e+04
1.049391426307370784e+04
1.052138008322084534e+04
1.140507822233848492e+04
1.245367634381857533e+04
1.258803383611212848e+04
1.215530556317277842e+04
1.220408011096639530e+04
1.317107871997824441e+04
1.443551209726608795e+04
1.483909989818290524e+04
1.533744572218220674e+04
1.623309568343708816e+04
1.868361019424245387e+04
2.111846870227284671e+04
2.090065838662197712e+04
1.904654060876352742e+04
1.798187754252850937e+04
1.781654111735243714e+04
1.735246411663949766e+04
1.735748361062654658e+04
1.763619997364365918e+04
1.844444442264638565e+04
1.840922169511190441e+04
1.667343556909717154e+04
1.506413894617511687e+04
1.382552941984887366e+04
1.312812239492813569e+04
1.293086628768343689e+04
1.289271957384026791e+04
1.224765266583923221e+04
1.171747906459755541e+04
1.049513949328167109e+04
8.790584408940110734e+03
7.599351336329347760e+03
7.192591557811705570e+03
6.654620915959141712e+03
6.032541287360408205e+03
4.545466388927406115e+03
1.424625867107052727e+03
8.920945683469791447e+02
2.843619724105544719e+03
1.902241536670941059e+03
-3.973936721200486488e+01
-2.344327695016863800e+03
-7.842552357145844326e+03
-1.351068835653342830e+04
-1.687195476149595561e+04
-2.094814195857392406e+04
-2.300410118454956682e+04
-2.322114654886536300e+04
-2.238801947692798421e+04
-1.968761229865222776e+04
-1.603469531610941704e+04
-1.645873475759762368e+04
-1.951501082839801165e+04
-2.247916493944598551e+04
-2.484102787717955653e+04
-2.729531660761243984e+04
-2.743962088276787472e+04
-2.584747748620888160e+04
-2.964858252819768313e+04
-3.742651284313332144e+04
-4.166975196945949574e+04
-4.189888067976878665e+04
-4.105160294863196032e+04
-4.057557684418053395e+04
-3.997232036627645721e+04
-3.857441636596157332e+04
-3.661340736018987081e+04
-3.466579490881268430e+04
-3.639317795815785212e+04
-3.861329155268073373e+04
-3.983372497155262681e+04
-3.838905330614935519e+04
-3.382777179153465113e+04
-2.996348121056196396e+04
-2.725454780954337548e+04
-2.749039116418449339e+04
-2.622943514564182260e+04
-2.391233880877221236e+04
-2.290672710075917348e+04
-2.273608479197567794e+04
-2.238894116020460206e+04
-2.176577540647139904e+04
-2.052423400283326919e+04
-1.840785805142450408e+04
-1.784109622757036050e+04
-1.662731163275801009e+04
-1.453103574845026014e+04
-1.348302132485346192e+04
-1.251275199714200244e+04
-1.095460323463521854e+04
-9.604898198506267363e+03
-8.906982617214172933e+03
-7.595405888196407432e+03
-5.776736862434916475e+03
-4.394450348865414526e+03
-2.868123733618314418e+03
-1.525264420848690179e+03
-6.694661565221819046e+02
2.055466197451336541e+02
1.612117490255079019e+03
3.311491478812449714e+03
4.404987889219258250e+03
5.329000845590133395e+03
5.994157520264182494e+03
7.319793273902570036e+03
8.633331734157278333e+03
9.293059940875591565e+03
9.522392883613039885e+03
9.904873576238383976e+03
1.259784659134363028e+04
1.467864940973529337e+04
1.613481031399709173e+04
1.592371471147498050e+04
1.534738231222046124e+04
1.526881214053734038e+04
1.531082661264340459e+04
1.582938794792952649e+04
1.701350766320275216e+04
1.879053322658241086e+04
2.057624333217422827e+04
2.089326914099030182e+04
2.137889962572941295e+04
2.313618094057367489e+04
2.473591429360233087e+04
2.569524078997346442e+04
2.308173153195536361e+04
2.125728893085154778e+04
2.473770045120513896e+04
2.658089630076851608e+04
2.858663941174267165e+04
2.894259107501067774e+04
2.734463289601878569e+04
2.654171536374103744e+04
2.619249175496157477e+04
2.558164057978792698e+04
2.609190544629803844e+04
2.720683271552683436e+04
2.772401121158873866e+04
2.771012041488155228e+04
2.746469142464760080e+04
2.826625637349127646e+04
2.855443095496624301e+04
2.910077202223490167e+04
2.943484072958417892e+04
2.911615132847712084e+04
2.823724718191850843e+04
2.769273329002299579e+04
2.777420019218045127e+04
2.821903030667290659e+04
2.876542492278284044e+04
2.829708981380281330e+04
2.785742421894477957e+04
2.740348004984304134e+04
2.576266964730652762e+04
2.464488109380237074e+04
2.406332479831305318e+04
2.346185827866402542e+04
2.348782557918855673e+04
2.369169649199272317e+04
2.323389476623375958e+04
2.151475124809155750e+04
2.013742036752833883e+04
1.920409901608545624e+04
1.783616456700864364e+04
1.665797262351953032e+04
1.500075478717042461e+04
1.252278816116991220e+04
1.050544991603218114e+04
9.542807230562220866e+03
7.786966768101418893e+03
5.263231999140422886e+03
3.269825246657868320e+03
9.401071867006388629e+02
-2.753589393212623236e+03
-5.439175698493590062e+03
-5.127549053225558964e+03
-7.257369101067770316e+03
-9.750342701091931303e+03
-1.260312194641162932e+04
-1.466035480490384543e+04
-1.692677534603869935e+04
-2.179505638119852301e+04
-2.190585008747763277e+04
-2.353981033516331809e+04
-2.299772277925217713e+04
-2.399442755777799175e+04
-2.585555707848441671e+04
-2.816773631214593479e+04
-3.152752674083520833e+04
-3.485153009465825744e+04
-3.770035804555724462e+04
-3.900755107112545375e+04
-4.017575316331417707e+04
-4.334725145239181438e+04
-4.620130631397203251e+04
-4.558236096144340263e+04
-4.439595071848344378e+04
-4.339651906585270626e+04
-4.273049135314374871e+04
-4.245531436396307981e+04
-4.143429907378168718e+04
-4.141885174250761338e+04
-4.125120467158011161e+04
-4.039976350305705273e+04
-3.971374572831884143e+04
-3.935630826398177305e+04
-3.792658614003352704e+04
-3.688771964731810294e+04
-3.747291426302868786e+04
-3.782443163593957433e+04
-3.780729004704478575e+04
-3.700064291150874487e+04
-3.594543497491418384e+04
-3.517661313339849585e+04
-3.420024814153342595e+04
-3.347532766244733648e+04
-3.210168641707975985e+04
-3.029711937207949086e+04
-2.897753670610063273e+04
-2.705983431157879022e+04
-2.496285781536144714e+04
-2.266529001157970197e+04
-2.128481075195351877e+04
-2.122606657343876941e+04
-2.002261226530911517e+04
-1.798812242612574846e+04
-1.652526354101145625e+04
-1.532965211331183673e+04
-1.475589905262453976e+04
-1.413734640853146811e+04
-1.254153408939272049e+04
-1.137202770734774276e+04
-1.075533525840745642e+04
-9.857945683740952518e+03
-9.596008105038152280e+03
-8.477993697964038802e+03
-5.867491902685716013e+03
-3.727730457009465681e+03
2.420199733630829542e+03
8.926769474961503875e+03
1.046342604617849429e+04
1.213006595603207279e+04
1.563778815391183161e+04
1.863328543857222758e+04
2.056124650505363388e+04
2.385220536010013166e+04
2.775591529146836911e+04
2.897839292564522475e+04
2.900757160246139028e+04
2.838930512976789760e+04
2.746856889039936868e+04
2.671814906448497277e+04
2.755314968908633091e+04
3.098965114651561453e+04
3.193433274358445124e+04
3.167488036884652320e+04
3.368612457776237716e+04
3.660396590097168519e+04
3.961430993581283838e+04
4.242706720940413652e+04
4.419022296576792723e+04
4.551774120185616630e+04
4.627246546510601911e+04
4.747423606788584584e+04
4.878506119202439004e+04
4.880284855836911447e+04
4.790749218422321428e+04
4.507577305876323953e+04
4.433642097071274475e+04
4.312541633118446771e+04
4.072581897600962111e+04
3.799453626845610415e+04
3.637937091047315334e+04
3.512921169673874101e+04
3.208088468935530909e+04
2.919120337723617558e+04
2.676290986211424752e+04
2.482688447220658418e+04
2.486408164857859811e+04
2.610833676279129941e+04
2.647239904263103381e+04
2.695198079767040690e+04
2.765186009430938429e+04
2.977781586405854978e+04
2.971153264431072967e+04
2.642059551524127164e+04
2.370074378962576520e+04
1.839572032163964468e+04
1.500209924223913004e+04
1.330743123740506599e+04
1.214940634758121269e+04
1.158284115210774507e+04
1.271902463287165665e+04
1.319162616228297884e+04
1.075733843328824878e+04
7.520265707822018157e+03
5.394970357378958397e+03
-5.239283174400630969e+02
-1.316097751720289489e+04
-2.063046095117636287e+04
-1.795883752788735728e+04
-1.578980256570344500e+04
-1.507393954939955984e+04
-1.630602872641477006e+04
-1.936006308680598886e+04
-2.563407465102358401e+04
-3.326847499239501485e+04
-3.729001629576699634e+04
-3.577172760495648981e+04
-3.436242721949941188e+04
-3.432352092157548032e+04
-3.521757909247666976e+04
-3.573145213925834832e+04
-3.526184569227297470e+04
-3.540386524402427312e+04
-3.492785358950297814e+04
-3.326729791981957533e+04
-3.183843556622146571e+04
-3.127563584990133677e+04
-3.040312625163644043e+04
-2.890295882281991726e+04
-2.731585940588359517e+04
-2.505519225722438932e+04
-2.112154888739383387e+04
-1.767325856464684693e+04
-1.538030236231492199e+04
-1.345175915265837284e+04
-1.279376257246867863e+04
-1.193669546028034347e+04
-1.203128054019683441e+04
-1.077895045458744062e+04
-8.734968920712755789e+03
-5.170425109661657189e+03
-2.517952302255270297e+03
-6.175988212189893147e+02
1.334059017271144739e+03
2.336578726307022862e+03
4.299673551154004599e+03
5.679067101461086168e+03
6.417272497951810692e+03
7.483942050305547127e+03
1.027264120350618396e+04
1.339283986572391586e+04
1.335403732077122731e+04
1.219580911070911134e+04
1.121975037830609290e+04
1.033029571261940509e+04
1.013806153298603203e+04
1.023475776310186302e+04
1.085689646282017566e+04
1.223792414146387273e+04
1.381951081208155847e+04
1.562204038321692860e+04
1.767483512917283588e+04
1.806245657232729718e+04
1.754007461621740367e+04
1.537381723535849051e+04
1.202929265736121670e+04
8.724050103158981074e+03
8.003305969609225940e+03
6.673551880703708775e+03
6.135263255135499094e+03
5.148104546817969094e+03
5.624734079404066506e+03
7.943957752134400835e+03
8.449053257114175722e+03
1.061714876127904063e+04
7.032090349550853716e+03
5.701787290645838766e+03
6.866103135595131789e+03
5.916399292940404848e+03
4.958883470244889395e+03
3.930104923392664205e+03
3.533976788838381253e+03
7.043059560668707491e+03
8.299456148386154382e+03
5.718566928223183822e+03
6.040081282039446705e+03
6.980338196289338157e+03
7.461625568343033592e+03
1.180839592253221053e+04
1.223516604399305834e+04
1.291357918748331031e+04
1.284517897836987140e+04
1.341039973239966093e+04
1.361979044124930624e+04
1.246704201516386092e+04
1.152761624703750749e+04
1.267579562919813361e+04
1.315311270356248860e+04
1.347493873495019398e+04
1.472571416037406561e+04
1.511924549884245789e+04
1.425770257849530572e+04
1.371278926859210515e+04
1.273090534944252249e+04
1.070905824400588244e+04
9.743109811921849541e+03
8.787377245334788313e+03
7.309710056980980880e+03
5.685782272310442750e+03
3.949727914820703063e+03
3.138994307813110936e+03
3.772299350431023868e+03
4.036482726001203446e+03
9.798259690382488998e+02
1.258475896911827249e+03
1.883433384873845625e+03
-8.742343818385273835e+02
-2.086570888204440053e+03
2.332850441130811305e+03
5.512137345493797511e+03
3.195433500561547135e+03
2.790390147411205817e+02
-3.910827724558653244e+02
5.279816402448469717e+02
9.066352506815170500e+02
-3.008319166729173322e+00
-1.674167204583061221e+03
-2.196173175696560065e+03
-1.605312991395543577e+03
-1.539896542894394770e+03
-1.020457813790033242e+03
6.191043803842570696e+02
1.559176853545379572e+03
9.223587343781578056e+02
-3.603380580873036365e+02
-2.027094485883181505e+03
-4.557471672926928363e+02
1.874030508461948330e+03
1.495964177648925215e+03
5.356862652820631183e+02
3.201654758076082317e+02
-4.548557744147761355e+02
-8.140930766606729776e+02
-6.727787374038309736e+02
-6.310918585179123284e+02
4.973602870858049414e+02
1.927164196413012860e+03
3.969295945584404762e+03
5.562494743044859206e+03
5.500953946257408461e+03
5.186526040424761959e+03
4.255042470555713408e+03
3.862404735235432781e+03
3.076088899103448966e+03
1.984257423067771470e+03
7.869320886934026476e+02
-2.990828039809230631e+03
-6.515820228525285529e+03
-7.111775131487458566e+03
-6.585315526760661669e+03
-6.650108556586209488e+03
-7.065713300399825130e+03
-7.720629504566020842e+03
-6.942624594076488393e+03
-6.200551016049252212e+03
-6.247870287807229943e+03
-5.112609848665027130e+03
-4.957039992845981942e+03
-5.747507868352922742e+03
-6.304149883957749807e+03
-6.589367770130268582e+03
-6.479102393693875456e+03
-5.594181808546782122e+03
-5.650506290036399150e+03
-5.143933689930998298e+03
-5.115215709249305291e+03
-5.054055422700665076e+03
-4.730386354821882378e+03
-4.979206168500987587e+03
-5.758090166851431604e+03
-6.377742004564210220e+03
-6.264859613047102357e+03
-6.188478938002526775e+03
-6.408474881615218692e+03
-7.630556393696886516e+03
-8.303589348787543713e+03
-8.672174569063172385e+03
-8.771181167266740886e+03
-8.667736605446469184e+03
-9.321008417707287663e+03
-9.386783673718464343e+03
-9.763593616770840526e+03
-1.099516931310875589e+04
-1.038233602028358655e+04
-1.030981168608828193e+04
-1.028744977330837901e+04
-1.068802299332948860e+04
-1.286306833896558237e+04
-1.279600408881337171e+04
-1.297326438037563275e+04
-1.423381935676622197e+04
-1.375754880405233598e+04
-1.086260644167389546e+04
-1.079238635869667269e+04
-1.293928205734381845e+04
-1.380956997553818110e+04
-1.370876885057202708e+04
-1.399642869014889038e+04
-1.394404847532580243e+04
-1.444503142999588999e+04
-1.470768248262675479e+04
-1.530104910583870696e+04
-1.661305525610343102e+04
-1.732530986871436835e+04
-1.661565568635680393e+04
-1.779257619502321177e+04
-1.693865780841904052e+04
-1.338232815921845031e+04
-1.156604388531404948e+04
-1.186549781842767698e+04
-1.290635864446327105e+04
-1.321614495376185550e+04
-1.320343382202761677e+04
-1.410685070941879349e+04
-1.496092421739553174e+04
-1.489010286820788860e+04
-1.468598840182659296e+04
-1.488220463637529974e+04
-1.452034603988076378e+04
-1.390204606164864344e+04
-1.267979460476561871e+04
-1.065210211704496214e+04
-9.840538894213595995e+03
-1.027463004722882761e+04
-1.054551188297276713e+04
-1.008017834897631292e+04
-9.691555597359265448e+03
-9.279601915322222339e+03
-8.708324309148125394e+03
-8.069446238039227865e+03
-7.817991466227605997e+03
-7.482042659560252105e+03
-7.124765370467982393e+03
-6.429628561298028217e+03
-5.991008830840070914e+03
-5.870141582617937274e+03
-4.845308243166165084e+03
-2.677108794389015657e+03
-1.108779827669457745e+03
-7.744226351224914424e+02
-5.154267599478368993e+02
3.773455330410214259e+01
-8.514029468976447390e+01
-6.398770524213540511e+02
-3.609626421757205890e+02
3.204982872882624633e+03
2.518342251295194728e+03
9.690155927532915712e+02
3.974197453692785075e+03
5.188316044300489011e+03
4.915562028508288677e+03
5.459839526993765503e+03
5.472508254096548626e+03
5.245116696502503146e+03
5.451010286996492141e+03
6.278442164518512072e+03
6.711439709699990999e+03
7.439754764030910337e+03
6.141987147021591227e+03
1.485923949776353993e+03
3.340479776501547349e+03
8.349378966902952016e+03
7.443922015423712764e+03
2.922119303457331171e+03
2.882433481104252223e+03
7.308105204819950814e+03
1.307842398297862019e+04
1.142160903371991844e+04
9.253662291585307685e+03
9.260751356904673230e+03
1.052492538320108724e+04
1.128708812374336776e+04
1.150433970155840871e+04
1.082880090938631110e+04
1.033131714051366725e+04
1.574578855968894641e+04
2.065412773702661798e+04
2.179396921615328029e+04
2.160788432077165271e+04
2.033956571178524973e+04
1.951878727572213393e+04
2.054929737287748503e+04
2.305985972966778354e+04
2.412605924867088834e+04
2.380563615488546566e+04
2.357608425484596955e+04
2.357492371935568008e+04
2.092072024278232857e+04
2.355315488894657756e+04
2.269388664961614268e+04
1.967136752473938759e+04
1.736995615927664403e+04
1.651313385336271676e+04
1.511745450214549237e+04
1.575945655162910953e+04
1.502772173756009943e+04
1.362569225550134797e+04
1.241788102118205097e+04
1.046012442544398800e+04
8.871173401731568447e+03
6.331676077734680803e+03
4.476217598286989414e+03
4.345346576497792739e+03
5.080766143187675880e+03
6.116220704931831278e+03
9.868376130232978539e+03
1.364706307775847381e+04
1.625505577476235703e+04
2.051017520922012409e+04
2.170054266907465717e+04
1.899424427931007085e+04
1.818747680479587143e+04
1.791352128511342380e+04
1.379457285358012450e+04
8.550566805919037506e+03
2.682933217971151862e+03
-1.921049393927204619e+03
-5.853688086823532103e+03
-6.667709650226260237e+03
-1.063666410815629752e+04
-1.812866956719391965e+04
-2.277525849062482666e+04
-2.304930851189806708e+04
-1.988601471093244618e+04
-1.850052653243714667e+04
-2.072067284325066430e+04
-2.297742698230840324e+04
-1.944363283812661757e+04
-1.321802039911846441e+04
-1.017644089004475245e+04
-7.508119858477994967e+03
-3.023302080242840930e+03
2.802364531980790616e+02
2.718109039584583570e+03
4.911929018843798076e+03
6.975509995446985158e+03
6.636358891753852731e+03
6.202564968819215210e+03
1.006430324461063174e+04
1.368593065412171927e+04
2.084881410421255350e+04
2.683852429505971668e+04
2.765379758786468301e+04
2.830426296556504531e+04
2.601702492741853348e+04
1.996797227396360176e+04
1.597594374478811005e+04
1.954423687206091563e+04
2.454934859736678482e+04
2.670253491804708756e+04
3.423933123745821649e+04
3.329749251793029543e+04
2.614474090255413103e+04
1.939993223475124978e+04
9.810121217374933622e+03
2.434372445057054392e+03
2.283902560478031774e+03
1.561886355454881596e+03
2.202559366763113758e+03
1.085142708551313262e+04
1.276324951699117810e+04
1.695338390238755164e+04
2.599958821883756173e+04
2.473399502377595854e+04
1.524242213917612389e+04
6.723539810445345211e+03
-8.060376377160012851e+01
-3.140567709080086843e+03
-5.696070286282155394e+03
-8.952859925802860744e+03
-7.133624845941870262e+03
-4.153959708818197214e+03
-3.042291961388072650e+03
-6.004013387081346082e+03
-1.485156565867173413e+04
-3.131440982459289080e+04
-4.734985617764944618e+04
-5.431417293448100099e+04
-5.885462126401915884e+04
-5.637840921939288091e+04
-5.571249898825243145e+04
-6.065250099836580193e+04
-6.654943999608946615e+04
-7.246356357486621710e+04
-7.413698675117753737e+04
-6.914348023495386587e+04
-6.251084458182717208e+04
-6.340883609101016918e+04
-6.429423970834078500e+04
-5.826199092128661869e+04
-5.595885925377657259e+04
-5.124455369619028352e+04
-4.381203768654287705e+04
-4.799716351123330242e+04
-6.297570389282097312e+04
-8.122437830098142149e+04
-9.846881004792926251e+04
-9.975871517592310556e+04
-9.390074642185898847e+04
-8.602571471828603535e+04
-7.913245178945019143e+04
-7.508585240087358397e+04
-7.275276547695571207e+04
-7.199776048261577671e+04
-7.519464231987857784e+04
-7.967160381057496124e+04
-8.241172369156224886e+04
-8.417302566550487245e+04
-8.474070091791404411e+04
-8.810993929829563422e+04
-9.673013503631156345e+04
-1.052286231175323192e+05
-1.093736402892163169e+05
-1.103756400158069591e+05
-1.077832621607518377e+05
-9.834916485938355618e+04
-8.420202955876300985e+04
-7.014858742355884169e+04
-5.610573849010276899e+04
-4.485457946321675263e+04
-3.467409054754481622e+04
-2.406339497211592970e+04
-1.150071096562896128e+04
-2.583807224579059607e+02
7.691123416081833966e+03
1.815020580151988179e+04
2.944621717561331388e+04
4.303037323127076525e+04
5.452460135987276590e+04
6.462394571959580935e+04
7.663133041061171389e+04
8.844753549362473132e+04
1.040400867818503611e+05
1.192214428387212974e+05
1.292669061713835254e+05
1.348419625629697985e+05
1.401357440835325688e+05
1.472421939936626877e+05
1.539543488308154338e+05
1.581936205627128365e+05
1.614503963621236908e+05
1.626121802240388060e+05
1.606511950048455037e+05
1.577475516256014816e+05
1.562286213734540506e+05
1.551209451612857520e+05
1.483133401842660096e+05
1.364184968014717451e+05
1.264268531640313886e+05
1.209574744602446008e+05
1.177787097209443309e+05
1.124268413777293317e+05
1.057597434040237276e+05
9.916202961070724996e+04
9.087734561293707520e+04
8.090822890856672893e+04
7.303217608402429323e+04
7.115240499207780522e+04
7.488496035196442972e+04
7.704696201991313137e+04
7.419332149102710537e+04
7.051067560467429576e+04
6.488584928016173217e+04
6.112126157681192126e+04
6.132099866936327453e+04
5.751842818063344021e+04
4.995496524115581269e+04
4.405678086456466553e+04
3.856581985990748217e+04
3.230289437336393530e+04
2.632899853067191725e+04
2.097788669660585947e+04
1.490596930770683866e+04
7.527822529036114247e+03
3.219412698355708358e+02
-7.242413262574434157e+03
-1.462710202991057304e+04
-2.163689219478369341e+04
-3.028663842684649353e+04
-3.534435617061375524e+04
-3.222485592494039520e+04
-3.172711850497699197e+04
-3.237119219598655036e+04
-3.266728520621579446e+04
-3.333683390544756548e+04
-3.245313566876594632e+04
-3.140723431286513733e+04
-2.997941707285958546e+04
-2.848919341172153509e+04
-2.871583582664933783e+04
-2.960774862177202158e+04
-3.103043545476929648e+04
-3.218623843627439055e+04
-3.692641778001475177e+04
-3.870844022963340103e+04
-3.828378533027388039e+04
-4.060278570769717771e+04
-4.309086053499357513e+04
-4.502543304023848032e+04
-4.969864240241080552e+04
-5.191887880151821446e+04
-5.320661463092750637e+04
-5.228518998938004370e+04
-5.327953287001945864e+04
-5.426687805142854631e+04
-5.419375201521809504e+04
-5.365227687592638540e+04
-5.373508700495283847e+04
-5.318427302679172135e+04
-5.319175023774995498e+04
-5.748114998062610539e+04
-5.989941191923357110e+04
-5.849150263807363081e+04
-5.685305201680168830e+04
-5.753064505841070059e+04
-5.816171206229607924e+04
-5.849057699206209509e+04
-5.905304641695901955e+04
-5.938065074043162167e+04
-5.937092857496500801e+04
-5.722634656290755083e+04
-5.660237359158122854e+04
-5.643253725454994128e+04
-5.582596061192327033e+04
-5.633983863872872462e+04
-5.704271662390488927e+04
-5.775030223171897524e+04
-5.913498828973157651e+04
-5.944998255958936352e+04
-5.844344021053060715e+04
-5.801446041761471133e+04
-5.653100745982795343e+04
-5.353525838482587278e+04
-5.144501329996565619e+04
-4.954766597184246348e+04
-4.803255083801784349e+04
-4.648483284845208982e+04
-4.426270530596493336e+04
-4.191451584749545145e+04
-4.023040972049711127e+04
-3.828924031828009902e+04
-3.672058597338802792e+04
-3.536607267214517196e+04
-3.226816252431302928e+04
-2.776889904940303677e+04
-2.172898922506636518e+04
-1.583642581380065167e+04
-1.275393220150380330e+04
-9.309244189305405598e+03
-6.071292314060752688e+03
-3.652671669645438669e+03
-6.960815688225358144e+02
2.671188098592176175e+03
6.146925292399338105e+03
9.882806588149152958e+03
1.415082626536408861e+04
1.868412923910709651e+04
2.226197038122537560e+04
2.452843680440671233e+04
2.665570874830312096e+04
2.916815468289220007e+04
3.100028377435501534e+04
3.335942860594715603e+04
