1.280671803757772977e+02
4.931148448855345805e+02
7.783079189189207909e+02
8.356466903281745999e+02
1.002144944394392382e+03
1.218839339695642821e+03
1.272666008133637888e+03
8.286492808018840606e+02
7.327177261259221268e+02
5.558418609198239437e+02
5.210205656149503284e+02
-2.072754826756673907e+01
-1.933050366717522195e+02
-9.951308813305246304e+01
-4.495153034848103246e+00
-2.192703272243787183e+02
-1.881015148082895507e+02
3.723754316990538626e+01
1.828913889452570061e+02
-7.229387275724239714e+01
1.527321578426506221e+02
2.638702389920852056e+02
2.991155434961821129e+02
3.434107663145218226e+02
8.177304945825200093e+02
9.462174696151829494e+02
8.227516667445446501e+02
5.500303284219488660e+02
4.340073696123192803e+02
5.662200292891293429e+02
4.679463551261034695e+02
5.808583246582799120e+02
2.936343170982222546e+02
2.660228201493921460e+02
-9.108921775049633140e+01
-2.116214938480009380e+02
-1.174889492829465212e+02
-2.299228591897088592e+01
-8.859527535083711314e+01
-8.982771545769607258e+01
3.525604007803371474e+02
6.290942254226041541e+02
1.100276507896621979e+03
1.410264351548631112e+03
1.355248913364924420e+03
1.078689947813904155e+03
9.774052499297230270e+02
1.249508266642033959e+03
7.321088899462092741e+02
3.730636410037898258e+02
-3.194120847173422462e+01
-4.188312192090763375e+01
-4.486260906144622709e+02
-4.832930413429651253e+02
-7.397985785248163211e+02
-3.350151136517825762e+03
-7.076429313418165293e+03
-4.580597932220472103e+03
-2.981319855550033026e+03
-1.508600797203343973e+03
4.463954204712755995e+02
-3.035778337957439135e+02
-3.135530098657120107e+03
-1.557445498690446129e+03
-1.161265495995498441e+03
6.740922072772431193e+02
-8.633592390567154098e+02
-8.994603704294305544e+02
5.318245573098765817e+02
2.513316487917658378e+03
2.235958772696192227e+03
-4.812608941007167118e+02
-3.823543822249417872e+02
-4.114633946272676326e+02
1.366446560586517080e+03
-1.153425291658359583e+03
-4.378048748818077343e+02
-3.833669639046499015e+03
-1.498369714999310418e+03
-4.424155042351971133e+03
-3.858849688712059105e+03
2.045559749280890571e+02
-2.194932358168837254e+03
-2.287090325416366341e+03
1.767287553667101747e+03
1.054090550305507463e+02
4.013114927369233556e+02
2.304581606793019546e+03
2.221859877368781781e+03
-4.688065482150477123e+02
-7.323058602055842812e+02
-1.413717262507409487e+03
1.072904935165030565e+03
1.214939019260160421e+03
-1.896462677532722637e+03
-2.221761032329747195e+03
-1.794990895268949316e+03
5.723215281105506165e+02
1.542444328308339891e+03
1.265903675956629968e+03
1.649691436139570897e+03
2.138007720770134711e+03
2.145905385875542379e+03
1.997517340944652233e+03
1.634760282125888125e+03
1.074427029339585715e+03
4.725418181779775750e+02
-1.853638526207382711e+02
-5.231679230028470329e+02
-6.022488216595565973e+02
-7.948251681356094878e+02
3.742340078948159885e+02
1.931221348873042643e+03
2.708187424635773368e+03
2.343161665753826128e+03
1.124199464318701075e+03
6.620958336781279741e+02
3.540334871768753260e+02
2.229424312626157132e+02
2.536624625387999572e+02
3.772847985758833715e+02
9.378673505556110968e+02
1.824503130621916398e+03
2.180181111299793429e+03
1.391123121127610602e+03
1.275319019101089680e+03
1.292339897209756600e+03
1.195259099600212949e+03
1.314539795735521693e+03
9.561652922569487600e+02
5.782428840289474010e+02
7.559355650132425808e+02
6.920367026294270545e+02
2.969093812605469225e+02
2.173655815281279899e+02
1.315834367700327903e+02
-4.117826905663655879e+01
-2.439552840028714229e+02
-2.188442791251688391e+02
-1.680713954519185620e+02
-5.217665366469776700e+02
-4.414587238774728348e+02
-2.813504281981658437e+02
6.312900415883116523e+01
-2.654766639629781935e+02
-2.430183981209699482e+02
4.543012386365006705e+02
7.680400794461813803e+02
5.271656331649290905e+02
-3.237496501365502866e+01
-5.133071337138357393e+01
-3.299679718287911356e+01
-9.682493190456351329e+01
-3.587826681530426640e+02
-2.921249654449820810e+02
-3.669761529080949458e+02
-5.122104756700670123e+02
-5.258030056509861652e+02
-4.950439845493806388e+02
-4.556548805909006319e+02
-5.622756166698592324e+02
-6.940694914782835667e+02
-3.710835484458071960e+02
-5.992487836857175125e+02
-7.378520674323401636e+02
-8.388995402179838266e+02
-8.716701536121859135e+02
-5.521680611287752072e+02
-7.584876320391542492e+01
4.433038428910314792e+02
3.784295838150493410e+02
3.594254566698994040e+02
3.482881822277523725e+02
8.378671853252835433e+01
-2.600935989122148726e+02
-4.370292258127000196e+02
-6.320025932472996146e+02
-6.021498660059448866e+02
-5.335483284355113938e+02
-9.563149598831432741e+02
-1.282330319243893200e+03
-1.334807978043981166e+03
-3.075024610400490701e+02
1.008089674092852306e+03
9.826767429541873753e+02
8.600106649942573540e+02
8.859070228950887440e+02
5.864401454091037067e+02
4.967173364926172781e+02
4.137272205113265500e+02
3.817156151852324228e+02
9.849040691254720059e+01
-2.029245906852334429e+03
-4.985517220540017661e+03
-7.975130148561469468e+03
-8.453065064575415818e+03
-8.503331944761277555e+03
-8.391432390140354983e+03
-8.049464304028648257e+03
-2.709050223152513809e+03
2.849644223136304788e+01
-6.085687313543334085e+02
2.425396277792580690e+01
5.684848579632224528e+02
8.066711549547175082e+02
1.222975902453436902e+03
1.240669749900255965e+03
1.108729730627507024e+03
1.499079234978420345e+03
1.806544843978533436e+03
1.476602720871303745e+03
9.186356003531999477e+02
7.294949949052343072e+02
4.173966256907060597e+02
5.052987090225151405e+02
6.374101231449078568e+02
1.008512843411476069e+03
7.866424998040844230e+02
9.838182545285620790e+02
1.632887408239876095e+03
1.467518081836316242e+03
1.306922651473750648e+03
1.772259909726921933e+03
2.396760953487310417e+03
2.238795926185179269e+03
1.931153632160886218e+03
1.287350401671744066e+03
9.290784047213994654e+02
9.022784738427701541e+02
1.061112483257055374e+03
1.384657148948938129e+03
2.246018785540160479e+03
2.765064777530504216e+03
2.857214437971813368e+03
2.878631833235760496e+03
2.774030047449050471e+03
2.404203663141207926e+03
2.083962065084290316e+03
1.777112753615398788e+03
1.430570710471775101e+03
1.414150399753770671e+03
1.461235660410198307e+03
1.154701246077377164e+03
1.903465958948015896e+03
2.462434990039871082e+03
2.672587397410542962e+03
2.111190941263511831e+03
1.527237338438781080e+03
1.929433260074345526e+03
1.891884644309303667e+03
1.036761593414178606e+03
9.491581540163392674e+02
6.927226371045089763e+02
1.014349253872793952e+03
1.793061325714029863e+03
1.975933529103203227e+03
2.674156663281782130e+03
3.372869381347939452e+03
3.205613161601685533e+03
2.905200419120705646e+03
2.622998408034794465e+03
2.914069525038958091e+03
2.941319750198899783e+03
3.239496919191323741e+03
3.059633090057673144e+03
2.507938446620012201e+03
2.148376390184625961e+03
1.786955615409858865e+03
7.627539625381722317e+02
1.228497305663746744e+02
-3.857371386712849812e+02
-1.019214052520696782e+03
-5.129702274151144593e+03
-6.158194183816635814e+03
-5.541376845938460065e+03
-5.364476848117830741e+03
-4.878578888938959608e+03
-5.045270046244396326e+03
-5.664373008430105983e+03
-6.742345569044538934e+03
-7.689686367396827336e+03
-7.670509348157981549e+03
-8.073992063850250815e+03
-8.851028849683138105e+03
-8.711857384129705679e+03
-5.178868500655728894e+03
1.411735161859255641e+03
3.092010610087275381e+03
3.144171547954276775e+03
5.683062206423022644e+02
-3.698608124362698163e+03
-6.528674432317673563e+03
-8.299871137098980398e+03
-8.927490267036377190e+03
-4.056550532537150502e+03
2.088799890236577994e+03
-4.364629461005536655e+02
-7.133639549936155163e+03
-8.385487576597857696e+03
-7.779024560404441218e+03
-3.775704597736849337e+03
-2.854544089928436961e+02
1.090132338569925651e+03
2.506894712699925094e+03
5.279710809694589443e+03
7.361651404011076011e+03
5.624773411138483425e+03
3.796427585896614346e+03
3.720952735241457503e+03
2.243563706920298500e+03
1.447964077786525195e+03
7.187518001493600650e+02
-1.475120853684941267e+03
-3.711074482671383521e+03
-1.209310088296077083e+03
2.210279443822662415e+03
4.402363638600098056e+03
3.372729744532213772e+03
2.190792410709140313e+03
8.979818684072814676e+02
-6.883993332181607911e+02
-1.437172089395892954e+03
-1.958442048784104145e+03
-4.550035203910459813e+02
2.109178030870962630e+03
2.531289706126431156e+03
2.418291382912132576e+03
2.629478751209772327e+03
2.573890950934126977e+03
3.890699458985265835e+01
-3.189347335110479889e+03
-3.629713767605770045e+03
-4.819377616303354444e+02
3.824806058883909827e+03
4.565872995924314637e+03
1.605205920414181037e+03
-1.015486132603245863e+02
-2.051862895178485815e+03
-4.933874542818817645e+03
-5.928275644260955232e+03
-4.246415023156300776e+03
8.605498645491086336e+02
8.334806549115670350e+03
1.097636175469753834e+04
9.192979397088514816e+03
7.711273838889242143e+03
7.304912473543152373e+03
5.510316981204141484e+03
1.832403015533780945e+03
2.343093372180399911e+03
5.508479976897517190e+03
2.696386041194314203e+03
-1.693351285486969800e+03
-9.758639866566766159e+02
3.109190525857814464e+03
2.346031509573261246e+03
4.434978258992730389e+02
2.963380053685106645e+02
5.976803268008187615e+02
2.212602738727411179e+03
2.495128226499232369e+03
-8.367991201035229096e+02
-4.733259148568475212e+03
-2.016148266812590009e+03
2.940530300147920570e+03
3.141767458738504047e+03
2.515293766779741134e+02
-2.410978196347155063e+03
-1.861948021837325769e+03
-1.060468158148957855e+03
2.446122501284442023e+02
2.464210116635193572e+03
1.980330788871756113e+03
4.133965332613259307e+03
5.460088514114320787e+03
3.906653027996273522e+03
3.115755319693247657e+03
2.909375243036431129e+03
2.803740456119923238e+03
2.427752266281492666e+03
5.012331136554368641e+03
7.693328948553855298e+03
4.228472574954394076e+03
4.827927283436708876e+02
7.893760778194758814e+02
-2.431458959470151967e+03
-6.823722157559064726e+03
-6.690618080920214197e+03
-7.573131229061191334e+03
-9.061281899652785796e+03
-1.189311405996361100e+04
-1.280264786666986220e+04
-1.083179259244698369e+04
-8.013506408908705453e+03
-6.230621892615882643e+03
-7.333223462794675470e+03
-6.047589246182294119e+03
1.218233736710715675e+03
8.581972772017120406e+02
-7.746669005225910041e+03
-9.109357446990887183e+03
-7.786800083501369954e+03
-6.787055287865826358e+03
-9.904122389888525504e+03
-1.566941081906674981e+03
7.414483129890942109e+03
7.414042611826952452e+03
2.921536255516864458e+03
4.607128343353589116e+03
7.440046807762614662e+03
7.556459670502022163e+03
5.714096128296728239e+03
5.272815277889595563e+03
5.022501815750320020e+03
2.300680484661345133e+02
-2.251462244699929215e+03
-1.439398201897598142e+02
6.817492193884900189e+02
7.285254420218165023e+02
1.518193310193007846e+03
-1.912142433775532027e+03
-7.295493595468631611e+03
-3.548915870319784517e+03
1.309676505967837329e+03
1.011224659299742598e+03
7.434965580566820336e+02
2.502573725912378450e+03
3.083706725462373015e+03
4.167785963330225968e+03
2.118792300685100145e+03
-6.171716120786492183e+02
3.397920501354025191e+02
2.371555267649510370e+03
3.303141019309525291e+03
2.922558616676344627e+03
1.083785882183951117e+03
5.317428655539987403e+02
-3.364604686742603008e+03
-4.694260258252349558e+03
7.337913293474808825e+02
3.493553250509099144e+03
3.872031136449669248e+03
2.045270582130773846e+03
7.203607042632380626e+02
4.484498327151254671e+02
4.953149569370802396e+01
2.927572980966141131e+03
4.600342517334041986e+03
2.563872959877040103e+03
6.452288676269274674e+02
1.055282528143669424e+03
2.331199332897684599e+03
4.063135593094611067e+03
-8.497426001298645133e+02
-9.096477966081498380e+03
-1.374712087612469622e+04
-8.812998238034804672e+03
1.233161740744663575e+03
6.943199523156577925e+03
7.287937066310074442e+03
2.627395231621228504e+03
-8.233960130548047118e+02
-1.725505902448282995e+03
-2.448853897262166356e+03
-4.432368219153679092e+03
-9.425071990553818978e+03
-8.415972411462285891e+03
-1.514051156872221782e+03
5.558670340379349000e+03
5.020136559060168111e+03
3.408531019646227378e+03
4.773889966388031098e+03
3.758141240672277945e+03
3.388294181453944930e+03
4.063342871590919003e+03
3.163191752032350905e+03
-2.073217584973355315e+03
-5.899708421764068589e+03
-8.316244633135105687e+03
-7.591840865610848596e+03
-9.834187820880749769e+02
5.097048712515988882e+03
6.387541886966269885e+03
3.607109630762956385e+03
-8.893866299149739234e+02
-3.835019123129340642e+03
-6.223684444381363392e+03
-7.250322722961772342e+03
-1.051798975556126970e+04
-7.902720313638700645e+03
-1.468293816839773172e+03
2.763325665900021704e+03
5.835077431584106307e+03
7.751897851854090732e+03
7.608778261503428439e+03
6.509766942916761764e+03
2.908920826355351437e+03
3.754207369952300269e+03
3.676621665499085793e+03
3.026172815747919685e+03
8.498378150454346951e+02
-1.997259676306027131e+03
-1.035108907803053398e+03
4.992646262615692194e+02
-1.149047160272860538e+03
-2.119129867722427207e+03
-1.351950813555240302e+03
1.893561307652940513e+03
1.438371924270786394e+03
-7.624400112756770795e+02
-2.757021157820177905e+03
-3.981372203903403260e+03
-2.635372113496134716e+03
1.480901150568690355e+03
6.083959969438652706e+02
-3.118857289590640448e+03
-2.599866669644135527e+03
-7.005595405723597651e+02
6.380151011779304326e+02
-1.368155972094679328e+03
-4.038067234567256037e+03
-4.008696317083918075e+03
-4.582996720403303698e+03
-5.021001179616560876e+03
-5.072773641939969821e+03
-3.631301900815718454e+03
-1.125262246812540980e+03
-8.596321944294338664e+02
-2.655473471350597720e+03
-4.622783172912098962e+03
-2.302349124862359986e+03
-2.685514106566959072e+03
-4.950302555474693690e+03
-1.284751968907677337e+03
6.013979511364006612e+03
8.692052720721581863e+03
4.829652999510790323e+03
-1.354122589750628094e+03
2.380625333073372531e+03
8.458116343120820602e+03
1.259391711629307611e+04
1.229897779420515690e+04
9.164154902189855420e+03
5.584203635677337843e+03
4.212264046357629013e+03
3.101436452043675672e+03
1.404000432241003637e+03
-2.965218090945369568e+03
-8.379816817902352341e+03
-4.980710590123602742e+03
-1.058275443408241699e+03
1.439033533241813529e+03
4.175961352537864514e+03
3.649900168327750634e+03
6.245398612331237928e+03
9.486163979603068583e+03
6.695996961528334396e+03
3.508436167305223989e+03
4.785593492800769127e+03
3.924740829488684540e+03
1.148635735002983665e+03
-2.706129245802669175e+03
-7.213235908596023364e+03
-8.468389100390220847e+03
-5.105674414249901020e+03
1.556817929253779766e+03
5.876167535745510577e+03
4.939346709825311336e+03
-4.606757349198464340e+02
-1.507772670900293633e+03
8.011083594991531527e+02
4.667541457877066932e+03
4.819370265359215409e+03
2.611592832660619933e+03
2.585444164949082278e+03
5.628925797268792849e+03
3.826024662537815857e+03
2.724782906993078996e+03
1.358182484924130904e+03
-1.603753418626031817e+03
-3.869172329851254290e+03
-2.565206061540453447e+03
-7.237368310923988020e+02
3.305298485043078017e+03
5.492858086238781652e+03
1.635927613665138551e+03
-2.041206657730834422e+03
-2.543466230516576616e+03
-4.906074927762895641e+03
-7.541339536199720897e+03
-1.129138555735029513e+04
-1.102101822867227929e+04
-7.663968085321584113e+03
-7.005358200492712967e+03
-3.816131253366189867e+03
-2.643168617642679237e+03
-4.337551340429345146e+03
-3.834466942738070429e+03
-6.972238616415001161e+03
-9.278194408418077728e+03
-1.397305530658821954e+04
-1.340544349437361234e+04
-6.581321886902669576e+03
-4.211816864622935100e+03
-3.261802975176361088e+03
5.209686518546510570e+02
4.305212825448375042e+03
2.241656915037871386e+03
-3.371962815718896991e+02
-4.942136585304901928e+03
-3.397537216332523258e+03
5.842994120471787483e+02
1.909797210834061389e+03
5.610828216988369377e+02
8.309966813124365217e+02
1.744436994660012033e+03
2.977252762937214356e+03
3.355538484052969579e+03
2.237670030927069092e+03
2.039770945746240614e+03
1.439403321458071332e+03
7.123271303839346729e+02
-5.201490691851679458e+02
7.402740215074186381e+02
1.254634707242947343e+03
1.499717916566887197e+03
3.533510142119223929e+03
3.739988747712590339e+03
2.916065076667804078e+03
2.390915284737945512e+03
1.467317263019344864e+03
-2.217202924547496536e+02
-7.438682312826960015e+02
-1.508111654812101051e+03
1.570492667923615272e+03
4.841011456813023869e+03
7.656519357689803655e+03
7.924729867583413579e+03
5.051442834934448001e+03
2.072110169508358922e+03
-5.150714641799883111e+02
1.231846696111931578e+03
2.946192382537778940e+03
2.203179547610806821e+03
2.266536926316417521e+03
1.985359817168811333e+03
7.157545921353037102e+02
-7.491298916044698899e+02
-1.153424426573171331e+03
-1.004277877022427447e+03
1.787081895489671524e+03
4.646695785611438623e+03
4.553850356362535422e+03
3.485458068807132804e+03
2.092177410824386698e+03
1.090166092137394344e+03
4.270064410234688239e+02
3.014632724745412062e+01
-7.624993614095857311e+02
-6.707264620806281528e+02
2.818553794616073560e+02
1.044456743756442165e+03
1.900003543951108043e+02
-3.140273516606154317e+03
-4.798029734858557276e+03
-3.487735833509299937e+03
6.424757342506530904e+02
2.603813588455995159e+03
3.163411479611720097e+03
2.325241467522332186e+03
3.052841016803378125e+02
-1.696071903271269775e+03
-1.864928738891194371e+03
-3.716279781579767700e+02
5.449239469257991004e+02
-3.912158610754683536e+02
-4.781430346139339917e+02
-5.215074470432710996e+02
-1.204066546602559356e+03
-5.814998178059607881e+02
-1.099902923710395797e+01
-2.229188431195310386e+03
-3.563071459443058302e+03
-2.060816341654666303e+03
-1.551319461958136799e+03
-1.032657465004630694e+03
9.654272982085981312e+02
2.016118997971396084e+03
1.747100515122841216e+03
1.797241800162714298e+03
2.366611958057120319e+03
2.968300269337768441e+03
2.070348442795922892e+03
4.976389427982455800e+02
-1.257551139736980076e+03
-1.861331215595460662e+03
-1.867256292091053638e+03
-3.114193917860785859e+03
-4.191989056112372964e+03
-4.127468940147835383e+03
-2.273646061283404379e+03
2.274169442206685119e+02
2.996706436627383027e+03
3.235947256846870459e+03
3.715201261937254912e+03
2.819767982939516060e+03
-1.959327658319094326e+03
-6.695275425164957596e+03
-8.218231740806028029e+03
-7.368182824678029647e+03
-6.730595900424313186e+03
-6.344159805354564924e+03
-4.100043450086282064e+03
1.027014922559852039e+03
1.725429382974821692e+03
1.405342968854468381e+03
1.307991206547175807e+03
1.313965499181398400e+03
5.112078201349440292e+02
1.594175094995189284e+02
4.596208934485234749e+02
1.031234190615552279e+03
1.558365541210682295e+03
1.651518653740383570e+03
9.241355409122680840e+02
-6.779408658321294752e+02
-4.181940541550305284e+02
7.314425074813514129e+02
1.095766468060716306e+03
1.910934371908942239e+03
2.074944510639262262e+03
1.197644858214890746e+03
-3.288490499032909611e+02
-7.481274880347933731e+02
-9.931954057670519660e+02
-9.551859295681471167e+02
4.086479724855780660e+02
1.565860583285463235e+03
2.355320563226895047e+03
3.403292849234333517e+03
2.729100543447266318e+03
9.359240968078726155e+02
1.847384028575094987e+02
1.696286412012225071e+02
-6.649214283910863799e+01
-1.271439283799358691e+03
-1.796960308601758243e+02
1.513327138421818290e+03
2.479724494441293700e+03
2.245498973218328047e+03
1.593671847113906324e+03
1.210386524106828574e+03
1.243727008315715466e+03
9.709379160918324487e+02
4.627039353251032026e+02
-6.699401287370562841e+02
-1.364918755673228816e+03
-6.211225713697799620e+02
6.658393286367801522e+01
-5.060509013041532285e+02
-2.331276763061208044e+02
-1.673496638954684101e+02
-1.727464596656936635e+02
-3.184786782430331868e+02
-3.867691387303649435e+02
3.516434299598662960e+02
-2.660493947456846513e+02
-4.688515991635690057e+02
4.412446023149597636e+02
1.132024926495203317e+03
1.420183028902099977e+03
1.272110980087041980e+03
6.870687063031924708e+02
8.887180366985593309e+02
1.053951747841792667e+03
7.917869169076050184e+02
8.735113196561297855e+02
7.652126947585074959e+02
7.677360405754585599e+02
3.741549177219207536e+02
-1.186526330439866797e+03
-4.005353893966415853e+03
-2.684437135668525116e+03
-6.178814589683975100e+02
9.094806567717033658e+02
-1.693164001412625112e+03
9.422300737634670895e+02
1.283334064996623511e+03
1.143359656630521386e+03
1.031478288945465238e+03
-1.992763951103618183e+03
-4.037788544571675175e+03
-4.589315546271318453e+03
-3.856799417831693063e+03
-3.226950356640285008e+03
5.164988074779128056e+02
-1.388764521109822226e+03
-3.406637586812174959e+03
-3.456820019372687966e+03
-1.867999365896452218e+03
-1.931038174269129058e+03
-1.966092605708844985e+03
-1.103115305881894528e+03
-5.347993509621664998e+03
-4.132466897906810118e+03
-5.113380658692319685e+02
-1.122902853832955117e+02
9.545896051264955986e+02
1.999338821086354983e+03
-1.306832933266836250e+01
-4.624114393200815130e+02
-2.596541861150793906e+01
-4.979979318257206700e+01
-1.991452355685069051e+03
-2.042848925719451017e+03
4.697334374153801946e+02
8.714734389517471982e+02
-2.213496831113945518e+03
-1.389038747325421355e+03
-1.119621813812035356e+02
-1.754704726874282699e+02
3.320724039342403557e+02
5.233527707527190387e+02
1.011427878125217035e+03
1.247659791601333382e+03
1.531511256890632239e+03
2.194706396629761457e+03
2.498972324552817099e+03
2.772119694346278720e+03
2.744167370062702503e+03
2.837526937140306472e+03
2.648397743553067357e+03
1.881202532351862828e+03
9.050866315419084458e+02
1.482706085934279372e+02
-2.572241836581696361e+02
-3.282867657828592769e+02
-3.899026988205521320e+02
-6.211338485976162929e+02
-4.553098771836585001e+02
-3.765503312260289590e+02
-6.857111501643314568e+02
-1.754906352852793816e+01
4.361660351782149405e+02
4.781587966247348618e+02
6.436679808011613204e+02
1.552645764547564795e+03
2.334633133453488881e+03
2.783054817766478209e+03
2.325395830364590893e+03
1.793206578312296870e+03
1.103958410435031283e+03
6.517048717008289032e+02
5.317987443671762549e+02
6.030112899050907345e+02
4.647522711479924169e+02
3.127399643370573017e+02
6.314379138175970638e+02
1.330178434635329268e+03
1.206982477065962712e+03
8.537981764343767281e+02
9.645480460828124478e+02
1.126816293089748342e+03
8.078505485443120051e+02
8.757957955219493442e+02
1.039923841980442830e+03
9.454452961282352135e+02
8.376602535274198544e+02
1.754619977434830389e+03
2.964362759521545740e+03
3.758030316446696816e+03
3.696450382705432730e+03
3.043564190273657914e+03
2.183290483413798938e+03
1.826624705196637251e+03
1.278760100190260573e+03
1.367619101299294925e+03
1.507189294142082872e+03
1.362477572356135852e+03
1.420497972097751244e+03
1.277094018229592166e+03
1.091297972130277003e+03
9.500743427542734025e+02
1.124270002788364536e+03
1.407033723806507169e+03
1.298431297944148355e+03
9.124445908013293547e+02
-1.528720017446173642e+02
-3.034539180731743500e+02
-4.139831951987100922e+01
-2.976887596664656712e+02
1.463166316778434748e+02
1.171527004023687596e+03
1.739926271953235073e+03
1.406584342852312943e+02
-2.765004884544208380e+03
-5.380978819822047626e+03
-5.717243437049353815e+03
-6.112132470522883523e+03
-6.245653808813341129e+03
-6.119643598920400109e+03
-6.058151508141576414e+03
-5.676179560146309996e+03
-5.369613971711830345e+03
-5.424390683401195929e+03
-4.365608787109620607e+03
-4.799309360132461734e+03
-5.410673438463311868e+03
-5.350749320751943742e+03
-3.946314486297484109e+03
8.696697214714429265e+02
1.600369250391297328e+03
1.797873917165720741e+02
-3.123243507234271419e+03
-5.696786725437223140e+03
-6.154763245227542939e+03
-6.141229485554380517e+03
-3.920224876662848146e+03
1.096247151529093571e+03
2.079331609097376258e+03
2.337302753127483356e+03
2.335079166941690346e+03
2.276427437963212924e+03
2.493154265715646488e+03
2.123351564908065939e+03
2.393079784328958340e+03
2.483481375025452053e+03
2.287691315398717052e+03
2.035768783186631026e+03
1.862588541956714607e+03
1.977013358703921767e+03
2.192125836503200389e+03
2.029053833247486864e+03
1.736728303354426998e+03
1.384148904097362902e+03
1.188401608496457357e+03
7.334229860174821169e+02
4.832098081650887593e+02
7.702764818067417707e+01
-3.581305052641125712e+02
-3.725079011113542720e+02
-6.769979686006162183e+02
-9.955368986611005084e+02
-1.652844266340610204e+02
2.688565531933951434e+02
6.759439297821731998e+02
1.485990170185733632e+03
2.513999222281363018e+03
2.546947423607532983e+03
2.076984749952794573e+03
1.163215226032787996e+03
6.597290339175286817e+02
3.454768065499243903e+02
1.994304429627817683e+02
1.486968390259924035e+02
-1.071672597099910895e+01
-1.828599459277307915e+02
-2.288527080967580787e+02
-5.947911581022098062e+02
-8.508043059430127641e+02
-8.327258811230998390e+02
-5.755984373756887180e+02
-1.960210366646501257e+02
1.028221231035175549e+02
-4.052706280993899668e+02
2.760411964257477848e+02
1.077782686728699673e+03
1.092264482963239061e+03
1.055482279124519209e+03
1.460423601117976432e+03
1.755757374327338994e+03
1.875729496756890967e+03
4.243988216592971412e+02
1.019601244813087646e+03
1.274328860518651936e+03
-3.683268609417822290e+02
-1.955373909831082074e+03
4.871494280040117815e+02
9.872523263347237616e+02
8.709505360635079114e+02
7.152736414159772949e+02
7.282772640046615606e+02
7.910739374774179851e+02
4.505493836546788202e+02
5.576167112160693478e+02
4.763433915190445305e+02
1.027706854516664407e+03
8.947544057398960149e+02
7.275772125589263624e+02
7.992436702646263029e+02
1.244733824367405987e+03
7.390178865016032432e+02
-8.393372773106779050e+01
3.407744772014553973e+02
4.301469717702674984e+02
1.821556273230721388e+02
-1.872158343158138223e+02
-9.878172323804450343e+02
-1.636538056390150132e+03
-1.259453717472342305e+03
-8.586073835271340613e+02
-6.739702933136184129e+02
-7.404218153330281211e+02
-9.801396984098479379e+02
-7.112266082658522919e+02
-4.866377856112358700e+02
-4.282371583823197625e+02
-3.330337694863550269e+02
-2.670680667728464073e+02
-1.643348158366792688e+02
3.244547989847887504e+00
-2.123443302175910503e+02
-1.580670829359708875e+02
-6.699727946497324638e+02
-8.761762665072723166e+02
-7.717135778126084915e+02
-1.095546789712563850e+03
-8.297107808818459489e+02
-5.601856472193843501e+02
-6.370123239432580249e+02
-6.051897056959406882e+02
-5.887438133274081338e+02
-2.077653621465777576e+02
-2.231498829594708866e+02
2.290762327500148103e+02
5.888182942279844383e+02
4.930699545944625584e+02
8.458199963891404423e+02
1.089109842584038688e+03
7.369695439358198428e+02
5.783399197495240287e+02
3.821518049350077035e+02
3.313957316464500877e+02
-9.045712781519995360e+00
-1.282672044997241017e+02
-5.802200557226905175e+01
1.590994405206761897e+01
-2.866410923212069974e+02
-4.605661192093414229e+02
-5.292119223242200405e+02
-4.238724668864660430e+02
-2.601726510012322251e+02
-2.658997164057788609e+02
-2.676250172911400682e+02
-7.929135014063183462e+01
1.050444869878136522e+01
3.294740060158600272e+02
2.106644684148053273e+02
2.014741524097264858e+02
3.334008417340953656e+02
3.943663224222185022e+02
5.028060206956843103e+02
1.691997413113030291e+01
-1.355463187859073315e+01
-3.968741502540451052e+02
-3.410250925045799022e+02
-2.515020350036931873e+01
-3.681019428198059700e+02
-4.080317762555086460e+02
-9.787173627851542790e+01
-2.155454890597498263e+01
1.637804358039234103e+02
2.067836562047042648e+01
1.476376320363704053e+02
5.736192202547555041e+01
4.697175331919965515e+02
6.758044684566685874e+02
6.068173343969373263e+02
9.285660013008773603e+02
1.114057988149060293e+03
9.035892670699126938e+02
1.216893796493763602e+03
1.719827720898991402e+03
1.433214095683355254e+03
7.487455076433485601e+02
5.699460599780803705e+02
1.526555471004346032e+02
-1.680508614083145744e+02
5.079878776393173467e+01
7.426348497079249000e+01
-1.807241234993752244e+02
1.378137551536568139e+02
4.418140790830764217e+02
8.182004941977533008e+02
1.198039156645816547e+03
-1.755678409769365999e+03
-2.615942638709295807e+03
1.332270229898949083e+03
1.896100451932041324e+03
-6.413848391311502155e+02
-3.472715316075742180e+02
-3.426471854486050006e+02
-1.182549181473835688e+03
-2.025965238843777570e+03
-2.186537500528518407e+01
-1.128264961430779067e+03
-8.742134354516324493e+02
4.533462568805168189e+02
-1.393534248775415790e+03
-1.275930642074091566e+03
-2.091758154308950452e+03
-2.091013270312443183e+03
-3.743807621670152002e+03
2.181697149448794448e+01
7.278615939428943875e+02
-1.642681917773518535e+03
1.137245929389054709e+03
6.506185686548465128e+02
-6.444870352259903257e+02
-2.940065912268295278e+02
-6.678073718540206301e+02
5.400611325637030404e+02
-1.681465388014593145e+03
-1.259193601988770297e+03
-4.869091190313148218e+03
-6.443935757885637940e+02
6.386289864521778554e+02
2.979123577813411430e+02
-2.075331955366513284e+03
-1.349404365323197226e+02
-1.736818142925317716e+03
-9.007558300045667465e+02
1.093011677161324542e+02
-2.066845246557586051e+03
-2.501262737589296705e+02
6.626135709205580042e+02
1.091198481187992229e+03
1.027371157857164008e+03
1.221957243277001908e+03
1.184934354134609748e+03
5.354361308816863811e+02
9.114945677902064745e+02
1.312040424549408726e+03
1.268261360999867520e+03
1.169451797974541705e+03
5.724847749057065585e+02
5.541426019079818843e+02
6.103183631286532318e+02
1.440237046542641224e+02
-1.574171939818731971e+02
3.794239904707253430e+01
1.259767762519550729e+02
2.498376545125128985e+02
6.776483456518692492e+02
1.057440949805094533e+03
1.273183392620376026e+03
1.477830604710684383e+03
1.367374083484287667e+03
1.185856952404933736e+03
1.197252783974484146e+03
9.335356140068864761e+02
6.379684112112649927e+02
5.436142840648241190e+02
3.812303857940170246e+02
1.580816939416603475e+02
2.904048648120306666e+02
2.375507509766111127e+02
2.807898551221196044e+02
-1.086046675067845513e+02
-2.994562529018554642e+02
-2.359065800339830901e+02
-6.780579148883406333e+02
-1.265974699598139523e+03
-1.240658666836530074e+03
-1.029739221614388271e+03
-5.111127282501050786e+02
-6.461316772787539549e+02
8.046686512251560544e+02
2.761756156520615150e+03
2.908086659933771898e+03
2.246517367163361087e+03
1.848290106240252271e+03
1.327322566001605082e+03
1.122290574159554808e+03
7.373770015607270807e+02
3.814145275206333281e+02
3.627110660557133315e+02
1.829542459402260022e+02
-2.558495997196941687e+02
2.533216143333588661e+02
5.435866987718640075e+02
3.969777450142082103e+02
4.593788224635803772e+02
5.378284459371164985e+02
7.273518054563448914e+02
7.089074036919902255e+02
5.724456006706700464e+02
1.109010708900721966e+03
1.343591796137926167e+03
1.225173250327869482e+03
8.658508442948341326e+02
5.857721539876789620e+02
5.319221450449587110e+02
2.823603812599226330e+02
1.660995673824651249e+02
1.331682082815322872e+02
-4.735587666408130190e+02
-7.911999229391182098e+02
-3.727155569387638820e+02
-3.949920161397390075e+02
