-7.267278764903639967e+03
-6.635253994551057076e+03
-6.234350336552035515e+03
-6.840930949990068257e+03
-7.823425372468307614e+03
-8.253326213847522013e+03
-8.148144167641369677e+03
-7.738414038595349666e+03
-7.190700724436050223e+03
-5.852564900490928267e+03
-4.056514650205139333e+03
-3.010108396222466126e+03
-2.860848325630516683e+03
-2.313269612166096977e+03
-2.301005688348403055e+03
-2.190725335794867988e+03
-1.869013856345808335e+03
-1.961497435406772411e+03
-2.198733903369193740e+03
-2.486429627306142720e+03
-2.645196523805484958e+03
-3.194832588317305181e+03
-3.573201582265580782e+03
-3.715088256776660728e+03
-2.532153313939601503e+03
-9.089591617331118414e+02
-4.791241707149947047e+02
-5.018812580733707023e+02
-5.442622219224139144e+02
-6.731062577972179497e+02
-9.573840376899491957e+02
-1.853079238789805913e+03
-1.964105013394148727e+03
-1.615422052785217829e+03
-1.135938200484543813e+03
-6.416883624154105519e+02
-4.686672015323676419e+02
-3.709643285218454594e+02
-1.746515646330862523e+02
-9.808439374933077488e+02
-1.950627164941691717e+03
-2.562182515431877164e+03
-3.201685689663649100e+03
-3.761322483234735046e+03
-4.207322178493879619e+03
-3.428937106607152600e+03
-2.508369598970090465e+03
-1.926942510793683596e+03
-1.529066845303126456e+03
-1.640462673634397675e+02
-2.572950006906642670e+02
3.567930717684617434e+02
3.459063921177581165e+02
1.006521476275270288e+03
3.442143230692077850e+03
4.935234808963747128e+03
4.158305426115291993e+03
4.396804855330852661e+03
5.369164371116406983e+03
5.368817417072755234e+03
6.541140709637646978e+03
7.473341854327122746e+03
8.571196034655262338e+03
9.053288799019164799e+03
9.777187845117796314e+03
1.046887271470152155e+04
1.131375704640880758e+04
1.211775638711043212e+04
1.293308635954462261e+04
1.319495156705419868e+04
1.301449207352575650e+04
1.287088868233515495e+04
1.285579986665484103e+04
1.273595188241961296e+04
1.277196572349495364e+04
1.345057465959705223e+04
1.457602443729727747e+04
1.575329757207404145e+04
1.618860054412309910e+04
1.582714479200244932e+04
1.597638454300159719e+04
1.707800178153849993e+04
1.764547850887756431e+04
1.785674147765702583e+04
1.849866086869630817e+04
1.868348297695789370e+04
1.811514330567342768e+04
1.698448084024648779e+04
1.629882435240569066e+04
1.625222006330993281e+04
1.585159574283424263e+04
1.553844740921000448e+04
1.541109150148555273e+04
1.445660337829357559e+04
1.314521056553660674e+04
1.192359818009955779e+04
1.025048935987213554e+04
8.866266028509326134e+03
7.917224302972769692e+03
7.727265730503021587e+03
8.599842968496976027e+03
9.432173983335835146e+03
9.207398631465670405e+03
7.742805495130092822e+03
6.171710799932505324e+03
5.308345818159129522e+03
5.014824924161823219e+03
5.259440732040075090e+03
5.336651127219842238e+03
5.668818032398901778e+03
5.574298836407549970e+03
5.711435372530906534e+03
5.731707093231088948e+03
4.396567693627233893e+03
2.076466675256120652e+03
-1.457129224062950243e+03
-5.771673983744601173e+03
-6.810528635775077419e+03
-7.611120549038748322e+03
-8.146853713179450097e+03
-8.618063414392914638e+03
-6.180012085065540305e+03
-2.074967458510353936e+03
-3.931321439657993324e+03
-1.021325198599000942e+04
-1.306061774657280512e+04
-1.441599457987057758e+04
-1.565554794660760672e+04
-1.607337428501200520e+04
-1.799850841679394580e+04
-1.994693193009507377e+04
-2.144464365948793056e+04
-2.039359360539758200e+04
-1.943070258648353774e+04
-2.320782141930241414e+04
-2.391183585067754393e+04
-2.344959574817147586e+04
-2.358787978760769329e+04
-2.375043600014391996e+04
-2.368090706713575855e+04
-2.359499181115559622e+04
-2.332740939350970075e+04
-2.375582588303288503e+04
-2.425279916481700639e+04
-2.462782552012340238e+04
-2.186344631955862133e+04
-1.798917491139099002e+04
-1.812941940003166746e+04
-1.845761289007081359e+04
-1.903316388902790641e+04
-2.208238978456258701e+04
-1.944968387805814928e+04
-1.777836611151386387e+04
-1.826466832294639971e+04
-1.822179839046891720e+04
-1.811500380144794690e+04
-1.713345184061866894e+04
-1.466736194175158380e+04
-1.202888407203637871e+04
-1.111606586804919243e+04
-1.146195897499291823e+04
-1.139564972163220591e+04
-1.165420077457266052e+04
-1.226757283284009281e+04
-1.285266832660842192e+04
-1.324246076939738850e+04
-1.352799658248957167e+04
-1.334626360145032231e+04
-1.319919508697771380e+04
-1.333172819728855211e+04
-1.235874183947202800e+04
-1.138928998718229741e+04
-1.127337767302997599e+04
-1.153068643389932913e+04
-1.166406908946587464e+04
-1.197338682761072596e+04
-1.198955293304727820e+04
-1.166626715423685891e+04
-1.085417405466449418e+04
-9.819748437592019400e+03
-8.700855615975795445e+03
-7.049212702544720742e+03
-4.558377448341458148e+03
-2.363132812302054845e+03
-5.187004490729045791e-01
2.116770577668851729e+03
3.900022800828620802e+03
3.975424835029511996e+03
3.480985938103129683e+03
3.832822258316818989e+03
3.615078212126033122e+03
4.502062257171346573e+03
5.929188942106939066e+03
8.272050842096488850e+03
1.269869741808233812e+04
1.828955156121313848e+04
2.367487899152918180e+04
2.705287510791068416e+04
2.795003513855152778e+04
2.772218773671447343e+04
2.729394713948322169e+04
2.652069652107964794e+04
2.651225384451201171e+04
2.641553930799625596e+04
2.613422691076048432e+04
2.649562971293824376e+04
2.742964150169539062e+04
2.938213174435425026e+04
3.231601839984758772e+04
3.541526072538697917e+04
3.755575470174766815e+04
3.834933912920706643e+04
3.769171583534764795e+04
3.551070490358953248e+04
3.216816043801221167e+04
2.866782540023170441e+04
2.676238471473774189e+04
2.604051405814760437e+04
2.606493117574023199e+04
2.701020519058249192e+04
2.819403370544037898e+04
2.872499718141539051e+04
2.916960678234531224e+04
2.965238331248919349e+04
2.842288989186629988e+04
2.596154963360738111e+04
2.401263121562237939e+04
2.300656033784354440e+04
2.174481503116117528e+04
2.039768165128097098e+04
1.931040370915161111e+04
1.820921246919350233e+04
1.689038311690322007e+04
1.665816269544262104e+04
1.641060464739049348e+04
1.508373551104183207e+04
1.317955173992710661e+04
1.153708778634665941e+04
1.085732813718488433e+04
9.692214330370788957e+03
6.049522179964862516e+03
7.881301113543474912e+02
-2.926154147550799735e+03
-4.105656995731136703e+03
-5.944596346126456410e+03
-7.136233487776029506e+03
-7.852810503388894176e+03
-7.736678894850902907e+03
-7.155409415061901200e+03
-7.982348229508294025e+03
-8.307720376984492759e+03
-6.565965358150398970e+03
-5.610590390789711819e+03
-3.119114133295096508e+03
-3.736035089775146844e+03
-5.211908970156995565e+03
-6.226349827312335037e+03
-8.576862551033154887e+03
-1.091510163232601371e+04
-1.255672011453353662e+04
-1.316531254559320769e+04
-1.361150036222490780e+04
-1.359496206597721721e+04
-1.333040898879734414e+04
-1.380657918689255530e+04
-1.508234300249597618e+04
-1.562138920220670116e+04
-1.629743689401134907e+04
-1.700922382186805407e+04
-1.699155934873095248e+04
-1.687028092651138286e+04
-1.741204833547618910e+04
-1.791560201195289483e+04
-1.794777600097032337e+04
-1.701030020315206275e+04
-1.652404108677833938e+04
-1.479677084493171969e+04
-1.352624910222823382e+04
-1.381035327202107146e+04
-1.479700964325261521e+04
-1.505913866220413547e+04
-1.196469623731145475e+04
-5.300763406882878371e+03
-2.769386897081658390e+03
-2.362409196058455109e+03
-1.558795745451708854e+03
-1.961476238899455666e+03
-2.787322748526741179e+03
-2.976274051163964032e+03
-2.891532837584842127e+03
-2.857330870576673533e+03
-2.749751460752494950e+03
-2.103831192269089115e+03
-1.798594249681795645e+03
-1.341938039249021585e+03
-1.231997738906793984e+03
-5.737221028493227095e+02
-2.510205705743880742e+02
-1.370259274191068641e+02
-3.798230436322247670e+02
-4.254641256537410072e+02
1.941029902220861061e+02
1.156891887358715394e+03
2.004959364924919328e+03
2.321389546103984685e+03
3.098192041241401512e+03
3.302549860015133618e+03
3.389580155541685144e+03
4.722290751036780421e+03
5.216067346933576118e+03
5.124991505156542189e+03
5.231968926286430360e+03
5.300226114964712906e+03
5.634290172149027967e+03
5.431399494028455592e+03
4.848694063410781382e+03
4.373414250315388927e+03
8.089277682697655791e+02
-7.551338869662181423e+02
-7.213190071376241121e+02
2.079818479838539133e+03
2.625652018667612083e+03
6.155612573975612577e+03
6.099217556433892241e+03
5.859098207153696421e+03
5.588823307024012138e+03
3.417133266191434814e+03
3.888239939171401147e+02
3.586466419799971845e+03
3.071765576311699078e+03
5.919456148361326996e+03
3.884319776364876361e+03
3.367254500126658968e+03
3.204977864443222188e+03
5.152264695245689836e+03
1.773089007691955885e+03
3.837357445483719403e+03
1.724865670602897353e+03
3.993519805981520676e+03
4.016399211647533321e+03
8.639200198814932037e+02
8.048956995162245676e+01
8.580273864622421343e+02
2.310998715387452194e+03
3.326997341758622042e+03
2.429542483125685976e+03
5.165338567412120028e+03
2.180057018582156616e+03
2.831521225407702786e+03
2.868397970575708314e+03
5.612976262572069572e+03
5.193634517959435470e+03
4.607292587978326083e+03
4.755606813537296148e+03
4.338097328920573091e+03
8.662549303784793437e+02
2.708401865486151564e+03
3.827041230413832636e+03
3.556591926479695303e+03
2.862538251521516031e+03
2.763408595666853216e+03
2.500715926503053197e+03
1.990799380827331106e+03
1.534926787229197771e+03
1.287474886962373603e+03
1.035029607536042477e+03
1.109174943335366834e+03
1.777442045755822448e+02
-3.194492722661069593e+02
-1.477361832835800328e+02
7.664546792061585734e+01
-8.891557933760792594e+02
-2.168049010387935141e+03
-2.633144268022557299e+03
-2.872872561951757234e+03
-3.563421751752466207e+03
-3.684742769114565363e+03
-3.429597199911924235e+03
-3.278945481903751443e+03
-4.126440025372907257e+03
-4.920149196578075134e+03
-4.472677338841780511e+03
-4.544396967223814499e+03
-5.150624741953011835e+03
-5.930555062493754122e+03
-6.663423509923722122e+03
-7.045290675555730559e+03
-7.449010845274020539e+03
-8.165550357553518552e+03
-8.923737295758312030e+03
-8.892414342025158476e+03
-9.246128383805476915e+03
-9.986124074540539368e+03
-1.053559464752708118e+04
-1.092851183851593123e+04
-1.091002271505866520e+04
-1.099009564192464131e+04
-1.110684867587779263e+04
-1.177742783656824940e+04
-1.247279727381221164e+04
-1.260311923123666747e+04
-1.293555101226736224e+04
-1.354234865602940772e+04
-1.274888497962505608e+04
-1.216565495154213932e+04
-1.263562022786449052e+04
-1.278772225387054095e+04
-1.276782598358356699e+04
-1.284110349693839817e+04
-1.296910015964249760e+04
-1.300410019751801156e+04
-1.241453980251774919e+04
-1.183676384046814201e+04
-1.186041583632718357e+04
-1.177614621861775413e+04
-1.157258527292735926e+04
-1.133531438126009925e+04
-1.137587454426173281e+04
-1.137299040289789264e+04
-1.067930898607162635e+04
-9.421502890321437008e+03
-8.290318034565016205e+03
-7.866607377180492222e+03
-7.578168336269850442e+03
-6.823021469376597452e+03
-5.975111614090728835e+03
-4.774373420524770154e+03
-4.444883611710428340e+03
-5.006692600798183776e+03
-4.477940956298220954e+03
-3.420755515803606613e+03
-2.910327631091892272e+03
-5.014964471120752023e+03
-7.973890864793899709e+03
-1.039743293208330579e+04
-8.719043271954671582e+03
-7.761073723783480091e+03
-7.333959451706959953e+03
-7.736303460248298506e+03
-7.314744242234647572e+03
-6.631875997741841275e+03
-5.863297234296950592e+03
-4.421690267616540950e+03
-2.005734083909414721e+03
-1.498180318260375543e+03
-3.603975642428069364e+02
6.907353728494490497e+02
3.593244907412790781e+03
9.696110476580048271e+03
8.705371468831142920e+03
4.760077916777860992e+03
1.830115944099254193e+03
2.809245275781795954e+03
3.807335695938489607e+03
4.409403421653599253e+03
5.875554144940107108e+03
8.998713879858130895e+03
1.577476956073183646e+04
1.829056007590172885e+04
1.799678787619739160e+04
1.466320686167526765e+04
1.658656847008817931e+04
1.877244300107520394e+04
1.908530045164397234e+04
1.902496478824664155e+04
1.953314071767049245e+04
2.027224400635859274e+04
2.120765267011769174e+04
2.088303274165398034e+04
2.048605370940093417e+04
2.055132376505061620e+04
2.079748319692988298e+04
2.042718471539436723e+04
1.996282314183400013e+04
1.984071879540106238e+04
1.849929912305856851e+04
1.765491480304812285e+04
1.739793331416923320e+04
1.668283144079976046e+04
1.571707927723502326e+04
1.572398573965255127e+04
1.613313313577733243e+04
1.481813765648873232e+04
1.383438126145171191e+04
1.364120749225433065e+04
1.261104681630684900e+04
1.185136725966700033e+04
1.180565140533217345e+04
1.270239103528212581e+04
1.464305676506623058e+04
1.627901988620049997e+04
1.706775700242793755e+04
1.775400059001131740e+04
1.940338820633257637e+04
2.113833460442830619e+04
2.242529230997996274e+04
2.302204180774679480e+04
2.497151433182150504e+04
2.669051625547203366e+04
2.734570090138700107e+04
2.783866284226464995e+04
2.795896950716077845e+04
2.828239740678611997e+04
2.868272265513440288e+04
2.621470513044830295e+04
2.339509584774855466e+04
2.140480709367419331e+04
2.051675096946912163e+04
1.967880914421796479e+04
1.724499582530440239e+04
1.559495425922701361e+04
1.488127902570106744e+04
1.321532754913114150e+04
1.178605694861871416e+04
1.016988285880222247e+04
7.970163473459551824e+03
5.128145968485991943e+03
1.893181705075517584e+03
-1.287293594694687499e+03
-4.435747716770009902e+03
-7.789588831840934290e+03
-1.322822654608875382e+04
-1.755796718724576931e+04
-2.085108120046394106e+04
-2.427872032302532534e+04
-2.914798654160497972e+04
-3.469707112638716353e+04
-3.941202226215698465e+04
-4.339076598592865776e+04
-4.744520696530742134e+04
-5.064417824056007521e+04
-5.436947847532894957e+04
-5.715981095122153056e+04
-5.818496662353922147e+04
-5.915265337687869760e+04
-6.002432001828117791e+04
-6.042828281859276467e+04
-5.914890604727926984e+04
-5.818489429882948025e+04
-5.904691168029340042e+04
-5.860182293325567298e+04
-5.779167648990584712e+04
-5.602162368031542428e+04
-5.221858667159552715e+04
-4.734954127496813453e+04
-4.332648969641244912e+04
-4.100833433397289627e+04
-3.901887427486601518e+04
-3.691286361456909799e+04
-3.495501934714891104e+04
-3.114897756735684379e+04
-2.831733345528814971e+04
-2.548257967631553402e+04
-2.136223740188603551e+04
-1.834071202661769348e+04
-1.655635263181206392e+04
-1.591344543671280735e+04
-1.531035155855946323e+04
-1.402934181999381508e+04
-1.246062963146963011e+04
-1.090746141580292169e+04
-1.060293227687967374e+04
-8.152198727111610424e+03
-6.994235862588516284e+03
-7.022100417474811366e+03
-4.796920546605452728e+03
-2.915654168064686928e+03
-2.740221706063884994e+03
-3.367405782349399942e+03
-2.943036264406392547e+03
-2.160127773858231194e+03
-2.766468292976164321e+03
-6.065787309670937248e+03
-8.875898608158013303e+03
-9.020422016897640788e+03
-8.284306419142218147e+03
-7.839161313619917564e+03
-8.313040756547197816e+03
-9.824378404769253393e+03
-1.159811183639239607e+04
-1.266320488801071042e+04
-1.410501918397575719e+04
-1.466363515053447190e+04
-1.369946373892359588e+04
-1.401384997033336367e+04
-1.430918678752347114e+04
-1.484021481381962440e+04
-1.511400884175114879e+04
-1.308120670059272925e+04
-1.120449251729904245e+04
-9.495729083220234315e+03
-6.508981937253458455e+03
-3.574624856850805372e+03
-1.311182758997377277e+03
2.021757205874843066e+03
7.245184806338087583e+03
1.959790327306397739e+04
4.170119624922826188e+04
6.799579226207784086e+04
9.225970648754113063e+04
1.007074748221446789e+05
8.816494126729843265e+04
6.564430385622417089e+04
4.270489364161856793e+04
2.130764453729130037e+04
-8.589761315896357701e+02
-1.666762037684160532e+04
-2.302360150905085175e+04
-2.381363169682286389e+04
-2.231233668227327144e+04
-1.936480544171147994e+04
-1.501994159299073362e+04
-1.111432546612965962e+04
-4.790117001367329976e+03
2.025722181723308722e+03
8.826548260622139424e+03
1.542940308223076499e+04
2.239153649611991568e+04
2.803059947696583185e+04
3.067032478306676057e+04
3.087358431624447257e+04
2.995904929354910564e+04
2.777437132058203861e+04
2.653707706116373811e+04
2.670978069148987561e+04
2.596394879893317921e+04
2.351186409117232688e+04
2.441983850790199358e+04
2.809130763799947817e+04
3.245851944786548484e+04
3.793160638464833755e+04
4.539158878177418956e+04
5.899548868073810445e+04
6.839225004391196126e+04
7.303967717581083707e+04
7.523353343693108764e+04
7.332976193904980028e+04
7.306305685232813994e+04
7.241891993485589046e+04
7.058791162962901581e+04
6.763760841426375555e+04
6.353252099788052146e+04
5.768810012281700619e+04
5.408659179928850790e+04
5.237124835564324894e+04
4.324133421934943181e+04
3.636701315214703936e+04
3.073632522954945307e+04
2.519937410449363597e+04
1.906619943552417317e+04
1.356377095456811912e+04
6.949966713991399956e+03
1.972589839916325900e+03
-3.164457276635715516e+03
-8.551406118919569053e+03
-1.248852065974256038e+04
-1.666513039128074888e+04
-2.063570430604102512e+04
-2.159159940197503238e+04
-2.178617018558425480e+04
-2.888793478262354984e+04
-3.306640730549259752e+04
-3.296708758601501904e+04
-2.877857340020379706e+04
-2.834248664455325707e+04
-3.008242884744611001e+04
-3.228205753106630436e+04
-3.410105779900572088e+04
-3.411218008602223563e+04
-3.468914424717335351e+04
-3.461359838068401586e+04
-3.421129286062064057e+04
-3.463299863791144890e+04
-3.498045320006289694e+04
-3.566939789127740369e+04
-3.599260565431422583e+04
-3.584390123637314537e+04
-3.524610247982729197e+04
-3.488099965611872176e+04
-3.350531731752447376e+04
-3.305184219394763204e+04
-3.262934956051783593e+04
-3.185753475514804086e+04
-3.043529498682898338e+04
-2.830036889574975066e+04
-2.708937326085848690e+04
-2.591610415285335694e+04
-2.460943028454727391e+04
-2.459203981573582860e+04
-2.387343692677310537e+04
-2.298390566575151752e+04
-2.284091880886876243e+04
-2.177631748157728725e+04
-2.025166786433145171e+04
-1.939849240038878270e+04
-1.878923095383989858e+04
-1.848040504710033201e+04
-1.753055271546599397e+04
-1.689213150564978423e+04
-1.622255109322054886e+04
-1.790840547032650284e+04
-1.545093792016421503e+04
-1.288145163654242424e+04
-1.257189295273953940e+04
-1.332998672941684708e+04
-1.444939711005974277e+04
-1.469858155830864416e+04
-1.392235765150559746e+04
-1.374980362498836985e+04
-1.369220832321392663e+04
-1.356451795144602329e+04
-1.278166574423297061e+04
-1.231666946247131818e+04
-1.150642887139376580e+04
-1.074083365537327336e+04
-1.025776719323050565e+04
-9.824965372736021891e+03
-9.225935213549872060e+03
-9.667299510490018292e+03
-1.247276053204331402e+04
-1.201585541205549453e+04
-8.469060885533452165e+03
-5.604790582936803730e+03
-5.296459604303158812e+03
-4.569468280825960392e+03
-3.517110799401214990e+03
-3.216620967501017276e+03
-3.156141527521598618e+03
-2.022804931917632302e+03
-8.406960070536673584e+02
-5.478755756857659662e+02
1.285443453557456621e+02
7.606191674011872692e+02
1.082382847517867276e+03
1.610919354574963336e+03
2.914474121670049044e+03
3.021263657606685229e+03
3.364393174113551595e+03
4.630085240585734027e+03
5.525766099581695926e+03
6.056741582362780719e+03
6.060274425570313724e+03
5.985821685792224343e+03
6.334802118116976999e+03
6.956618188933137390e+03
7.189658160459482133e+03
6.890322693503230767e+03
6.128165306289668479e+03
6.913853143450928656e+03
8.382012619072040252e+03
8.084184346966575504e+03
6.726940864521539879e+03
6.907980032009491879e+03
8.228976569446367648e+03
9.199491607913898406e+03
1.071723159044253043e+04
1.344601682807048746e+04
1.352962510048050353e+04
1.430084451450995948e+04
1.544653574174392270e+04
1.693852833605722481e+04
1.798590566073355149e+04
1.797361201438045100e+04
1.804936159765215052e+04
1.937196350761057693e+04
2.055558655884398104e+04
1.818713743435699871e+04
1.899141166990185593e+04
2.172007160075640786e+04
2.180230964974058952e+04
2.230925624485880689e+04
2.314660077894592905e+04
2.292826014238612697e+04
2.276426693771979626e+04
2.231369660144079171e+04
2.255645330496057795e+04
2.363236234278812117e+04
2.373439394062833162e+04
2.295671042112231225e+04
2.247414837061793878e+04
2.235953227616763979e+04
2.268574707624612347e+04
2.237775701272321385e+04
2.188051797334574076e+04
2.107983969521522886e+04
2.001053765642477447e+04
1.932143141048631878e+04
1.951922741293163199e+04
1.981477458796380597e+04
2.009271440081156106e+04
1.881658970550813319e+04
1.684904229966136700e+04
1.565665752531603539e+04
1.550003224868052894e+04
1.439457925866670303e+04
1.301585136455225984e+04
1.321550559615809834e+04
1.319489692176017888e+04
1.311148843757867326e+04
1.349066760294459709e+04
1.346861946775767501e+04
1.293364161271661214e+04
1.208105388666413819e+04
1.116523891754235228e+04
1.015152000926520486e+04
9.373124503264998566e+03
8.315301503764334484e+03
7.250132737886779069e+03
6.320901794124300977e+03
5.457816109023559875e+03
4.676826485831321406e+03
4.189147640054083240e+03
4.072004932314856887e+03
3.279564847119515434e+03
2.969867370629679499e+03
3.298917640044650398e+03
2.877743720796875095e+03
2.561357809220049148e+03
2.049838772450629676e+03
2.234948743719483446e+03
2.039621251386810854e+03
1.557918316611480350e+03
4.286002984699172202e+02
-1.344468612325107415e+03
-1.471308043879328579e+03
-7.609459706912707588e+02
-1.640609266093335464e+03
-2.510612512305281598e+03
-2.736162465488398993e+03
-3.090228387343354825e+03
-5.082976001863353304e+03
-8.565898885643377071e+03
-9.035329741898085558e+03
-1.027653985827463839e+04
-9.146722008264236138e+03
-6.301136904671805496e+03
-9.301112503135147563e+03
-7.664005720417466364e+03
-1.044510270777463120e+04
-1.145886657801154433e+04
-8.291826613900349912e+03
-6.052268695306523114e+03
-6.255592865531274583e+03
-6.309187703002516173e+03
-9.216487910164103596e+03
-9.423084243007055193e+03
-9.521529107354936059e+03
-9.771318711226382220e+03
-8.684060427649257690e+03
-1.009229539107076744e+04
-1.135642836550985885e+04
-8.374979726763011058e+03
-9.464624028178988738e+03
-1.015663303494489446e+04
-1.176461887187069078e+04
-1.010684926229092525e+04
-1.140016029110567069e+04
-1.264103365409692560e+04
-1.001220308298460623e+04
-7.867989708591336239e+03
-7.845376004646020192e+03
-6.334495419621627661e+03
-8.372306029984554698e+03
-5.152352719601832177e+03
-7.073627205888750723e+03
-1.071993771214939625e+04
-6.760877846015854630e+03
-5.600054647696300890e+03
-5.876084012138231628e+03
-5.772426594227958958e+03
-7.646734676585608213e+03
-7.630503082035172156e+03
-8.090269322790512888e+03
-3.985516099911802030e+03
-2.677798776355950849e+03
-3.035428211966889194e+03
-2.255526864416530316e+03
-1.806213958675523600e+03
-1.346669526527711014e+03
-1.342949796994272447e+03
-1.322263654327241966e+03
-9.329479355834558874e+02
-1.385136399602546817e+03
-2.144821332106550472e+03
-2.122494024561024162e+03
-2.111627161472324133e+03
-1.481479954001074475e+03
-1.256198912233329111e+03
-1.386026878137035510e+03
-9.867192066878390051e+02
-1.093164012905533582e+03
-2.039110770169279249e+03
-1.683420083221582672e+03
-1.316859795425531274e+03
-1.297463299660639450e+03
-1.873022366287272007e+03
-2.271268994634510818e+03
-2.218013043236756403e+03
-1.348917769835149556e+03
-1.168541246597879308e+03
-1.322606045515621418e+03
-1.288102630355994506e+03
-1.421464554808272624e+03
-1.735176114902036716e+03
-1.856906375140445107e+03
-2.034244563693779355e+03
-1.940725969953884032e+03
-2.114097921459629106e+03
-2.664771202578874636e+03
-2.100400193871477313e+03
-1.354600122627658948e+03
-8.988850509427328461e+02
-6.528716127337374928e+02
-1.394131783224472201e+03
-2.033249124104189150e+03
-2.122802909450997504e+03
-1.304716809078994402e+03
-4.291933495210767546e+02
3.134698551982667780e+01
4.051708093508137836e+02
6.246522997526532208e+02
1.033038026754764587e+03
1.234771518205710436e+03
1.260323910003816991e+03
1.105381315406469867e+03
7.903011722111123163e+02
7.905042572200352424e+02
6.384467966779416201e+02
2.115305498839552172e+02
-2.666990282366922926e+00
-2.696053137875180710e+02
-6.427573238192607050e+02
-9.976912047531594681e+02
-1.146988122247428919e+03
-1.345124699338577329e+03
-1.452559455152864757e+03
-1.878910511993607997e+03
-1.880664884519747147e+03
-5.883277489053618865e+02
-3.534251863234223947e+02
-7.914908117594609394e+02
-7.721968028741022181e+02
-6.970123606473730433e+02
-2.256407431214745884e+03
-4.782958714122336460e+03
-9.006085356438894451e+03
-1.098933295404469209e+04
-1.160524038348995055e+04
-1.140728996129808002e+04
-1.148015868567889083e+04
-1.161959113084540695e+04
-1.157820094206360955e+04
-1.102558591636294477e+04
-1.097334158084376213e+04
-1.099413300016795438e+04
-1.009150266287403247e+04
-1.062114888577313286e+04
-1.181743389797115196e+04
-1.258623057659999722e+04
-8.803271199314602200e+03
-8.667128233139512304e+03
-1.066047279749588051e+04
-1.063701198793907497e+04
-1.067958580631580298e+04
-1.097298012740608465e+04
-1.122787755170415403e+04
-1.086805268891108790e+04
-1.069041478821400779e+04
-1.112894621143044787e+04
-9.988490697828476186e+03
-4.200890345276130574e+03
-2.141096649507144321e+03
-2.839968248879807106e+03
-5.579301847894843377e+03
-3.471049704483060395e+03
-1.806167533865604128e+03
-1.660468366480050463e+03
-1.898166701425212750e+03
-1.266641392935993281e+03
-4.670652107496014764e+02
1.206722371976789958e+02
-5.105667361924664647e+02
-1.344055938324018825e+03
-1.082829058343182396e+03
-1.239889078074993733e+02
8.192378225942992458e+02
1.956666748317288693e+03
2.503120169292693845e+03
2.204358012581757066e+03
1.739118429918046331e+03
1.460149965676583633e+03
2.034145511130689329e+03
2.843708320055131935e+03
3.265497626053087060e+03
3.912169120009211383e+03
4.670375489740986268e+03
5.419761100961373813e+03
5.705982927539070261e+03
5.879669805217419707e+03
6.039380028172915445e+03
6.124617943018066399e+03
5.950953333669206586e+03
5.581937029457975768e+03
5.328977804221541192e+03
5.676551314419115442e+03
6.509075470626004062e+03
7.674951958202895185e+03
8.524672035169747687e+03
9.791605789547969835e+03
1.047104304117304855e+04
1.083621128747721195e+04
1.098146185985013653e+04
1.107710579157221036e+04
1.106152574196159185e+04
1.048251566342677324e+04
1.065263037493275260e+04
1.102916137462707411e+04
1.143525177844864083e+04
1.208324857569707819e+04
1.094851391153277837e+04
9.385330322479247116e+03
1.145294272158980675e+04
1.217283290905347167e+04
1.206167373085357212e+04
9.289210791485740629e+03
8.683510306298441719e+03
1.124500290431909161e+04
1.095377179649437494e+04
9.777424960350515903e+03
8.960244446453534692e+03
9.455915709253484238e+03
9.697858317820211596e+03
8.550304511943357284e+03
7.570517004248678859e+03
7.295942535739784034e+03
6.829957134342329482e+03
6.374921087660592093e+03
5.822253120945691990e+03
4.790263106067767694e+03
3.804429506889579443e+03
2.740189446939744812e+03
2.053999435783813624e+03
1.365356671097092431e+03
4.783240709279139082e+02
1.987817618634599626e+02
-3.047428868104800586e+02
-8.787176198646197918e+02
-1.455556343699377749e+03
-2.487694801057454697e+03
-3.106605446995894454e+03
-3.859868990126220069e+03
-4.483982567470648064e+03
-5.129516843545131451e+03
-6.403115311233267676e+03
-7.381145177076694381e+03
-7.863051986353641951e+03
-8.663282298028427249e+03
-8.522221305176844908e+03
-8.663218381182587109e+03
-9.284589710213031140e+03
-9.790685455790095148e+03
-1.073777453140382204e+04
-1.189918689415977133e+04
-1.291622615234988734e+04
-1.353515058942170617e+04
-1.344224451114645308e+04
-1.420574644668318797e+04
-1.456084143479718841e+04
-1.440176702774047408e+04
-1.434674387834724439e+04
-1.485786170613186550e+04
-1.535033025713270945e+04
-1.543920958376625094e+04
-1.520656009071300468e+04
-1.484256387479456316e+04
-1.461523783420210566e+04
-1.553755282151175379e+04
-1.599448820497042107e+04
-1.587326119325260697e+04
-1.585715496564989917e+04
-1.583997081096120382e+04
-1.498361784112735586e+04
-1.349890965886507183e+04
-1.278084085842469358e+04
-1.335447527701215586e+04
-1.394118712512063576e+04
-1.384198206672003289e+04
-1.444272797496880776e+04
-1.484131750384403858e+04
-1.509647432694585950e+04
-1.468462994874383730e+04
-1.462101028430136284e+04
-1.509307476175937518e+04
-1.529718402852296822e+04
-1.510783688281279137e+04
-1.531025243980478081e+04
-1.573315030949683569e+04
-1.588039121234808408e+04
-1.591376317232015390e+04
-1.582064265984238773e+04
-1.554963230592496075e+04
-1.449596621197441345e+04
-1.427446682268603763e+04
-1.429890102074517017e+04
-1.440184758575021988e+04
-1.493917454590583839e+04
-1.482479106858226987e+04
-1.349448382767210023e+04
-1.146397280676365517e+04
-9.988437440384903311e+03
-8.792482694383108537e+03
-7.331488354651663940e+03
-6.213929347323160982e+03
-4.311431997249404048e+03
-1.993520849023332630e+03
1.573374407908193575e+02
1.828766307295175920e+03
3.184030140385798404e+03
4.283909723581020444e+03
5.508874209211951893e+03
6.286480164495071222e+03
6.966438907304340319e+03
8.021672724476632538e+03
8.827206767534526080e+03
9.392584482599086186e+03
9.792501377101960315e+03
1.053449922014309959e+04
1.206123864782290366e+04
1.323607780129563798e+04
1.427804356281420405e+04
1.448032168400746741e+04
1.485654568155989728e+04
1.539530374954236322e+04
1.576307428689271001e+04
1.574542240192623285e+04
1.628590732028932325e+04
1.757014549981105301e+04
1.858671952386195335e+04
1.940821935795683021e+04
2.051718312519684696e+04
2.045014855990148862e+04
1.909260967844520565e+04
1.704713736602022982e+04
1.619221639398218940e+04
1.661433405828498871e+04
1.678394421302582123e+04
1.745848467954794978e+04
1.849142879476803864e+04
1.956450417368791386e+04
1.886705673787632259e+04
1.786747995524953876e+04
1.763222810218914310e+04
1.782377488163432281e+04
1.687237082912787082e+04
1.595068856112955655e+04
1.526108817956388884e+04
1.686884808350796447e+04
1.749231503958835674e+04
1.328766511798093597e+04
1.216967840454811085e+04
1.150279308197887804e+04
1.128506933940805175e+04
1.138876676944010433e+04
1.000513103570854037e+04
9.404491033975760729e+03
9.291259946722353561e+03
8.381583500905611800e+03
7.600662554129546152e+03
7.451781462451966036e+03
6.873145097377531783e+03
5.921011065873087318e+03
8.127575592070479615e+03
7.185984240025876716e+03
2.898379494720142247e+03
1.605926919752925187e+03
2.123835574491470652e+03
7.533236262438758786e+03
8.331222245318313071e+03
6.829890546384034678e+03
4.204432762673479374e+03
4.153944241363189576e+03
4.487553624949348887e+03
3.635374270920779963e+03
3.101534159035256380e+03
1.877052520760599236e+03
8.859632090545067058e+02
5.183501920405199144e+02
2.062697459712751709e+02
-6.552302130001542082e+02
-2.201144259163016613e+03
-2.999502157990047181e+03
-3.319290664359900802e+03
-3.829461115975897883e+03
-4.854971343991725917e+03
-5.926937229944671344e+03
-6.859518510427418732e+03
-7.190633369074512302e+03
-8.473272428702704929e+03
-9.868551688971881958e+03
-1.049552707835096589e+04
