-4.103278931957865439e+02
-1.979849971866709950e+02
3.325312561442654555e+02
8.621989445326795476e+02
1.229062723440360060e+03
1.008172753640757719e+03
-8.464236163774835404e+02
-7.477528638097838893e+02
-2.508185503503312930e+02
2.637499021808887889e+01
-2.001981650620033975e+02
-3.415176385564144539e+02
-1.895626672314259338e+02
2.446865641871992523e+02
5.492058489952021318e+02
7.690041683896408813e+02
6.391400313367335002e+02
7.346217910326413403e+02
3.144226075341561000e+02
1.375731726214770845e+02
1.571202180670384791e+02
-1.010046888118049146e+01
-6.106003836510706861e+01
-4.134615691864683527e+02
-5.032415147844864123e+02
-8.306836517438246119e+02
-1.307557530749674015e+03
-1.281997620759918846e+03
-9.389532306115225992e+02
-2.242998420048855053e+02
-1.582698603321238124e+02
-2.136547701442897562e+02
8.959110411365752213e+01
7.491767076728236816e+02
1.309093108306533168e+03
1.453421040000593166e+03
1.400175877184892443e+03
1.175540178676634696e+03
1.224373479732784517e+03
1.300804269311558528e+03
9.937141066834791445e+02
1.148368859220702689e+03
1.012741072308942648e+03
9.515483336927611617e+02
5.496961729908949792e+02
1.269757931755197022e+00
3.144739030006946336e+02
8.181410943263034596e+02
1.484194181859749278e+03
1.399547759139548816e+03
1.356258619806327943e+03
1.189394998420019192e+03
1.240746967977333497e+03
7.923449643344979449e+02
3.853381191845153353e+02
4.337473696137676029e+02
2.545191330382323258e+02
5.156156369545654172e+01
-1.812973789922792491e+02
-2.587958046352133579e+02
-3.711368777102999843e+02
-5.283573303309609628e+02
-3.374487363290472217e+02
1.495577699119473323e+02
1.856785238063448276e+02
3.618794210444324335e+02
7.741534686961700800e+02
9.114196714387918519e+02
7.726970573358009915e+02
6.579757138472288034e+02
8.472217686510971362e+02
1.037431513591486691e+03
1.369547814958227036e+03
1.754559903381116101e+03
1.453480800302556190e+03
1.329320185013689525e+03
1.333016571280754988e+03
1.777444333408152033e+03
2.041639834418535429e+03
1.381681195248534323e+03
7.194999041942725171e+02
3.629082109137262933e+02
-1.700808668125484928e+02
-7.604293041976554832e+02
-6.321892124851885910e+02
-6.273850242918728100e+02
-1.143043379053083299e+03
-7.201606435470421275e+02
5.942754966028603576e+02
2.852050224796860789e+02
-1.374151895492043529e+00
2.995003066503606988e+02
-1.068202031356746147e+03
2.644638167040730181e+01
-2.654447310856160584e+03
-5.071778910191765135e+03
-4.507663168528365532e+03
-4.300179303762709424e+03
-3.292202063034130333e+03
-2.166893185761707628e+03
-1.555214323340530655e+03
-4.921331113086031337e+02
3.161625327553151124e+02
7.366153267957171238e+02
2.872158575695670606e+03
3.744778122214180712e+03
3.388571491324572435e+03
1.917671987745315619e+03
-4.720430080303393652e+02
2.116279266251164699e+03
2.962702408889825620e+03
2.622173059326915791e+03
2.153681023228362392e+03
1.816265981895815912e+03
1.084939307580497371e+03
8.866564645288888187e+02
4.114021927168166144e+02
-5.257985076612826560e+02
-1.260913916351745002e+03
-2.019941188981857749e+03
-1.971931526587432245e+03
-2.056946785019906201e+03
-2.214926081164517655e+03
-1.803822011066206414e+03
-1.585697917026653158e+03
-1.027600889827288938e+03
-1.555008969888083641e+02
7.066109504267770944e+02
1.154796271232168465e+03
9.360757452864655761e+02
-7.454562547501411984e+01
-1.004060930611007507e+03
-1.731427999913957137e+03
-2.466652348399300081e+03
-3.627773191379851596e+03
-3.337808792143690880e+03
-2.178713522393950370e+03
-1.862421593047519082e+03
-1.794931799345918307e+03
-2.201226997647275766e+03
-2.355255677665185431e+03
-2.005032191445807257e+03
-2.762587089067151283e+03
-3.723899874669807105e+03
-3.688981457272829175e+03
-3.399819671180349815e+03
-3.027430611700914596e+03
-2.441767092435923587e+03
-1.626754402995073633e+03
-1.178333291859619749e+03
3.884832315958942104e+02
3.393735525882688307e+03
4.502427294717208497e+03
3.749517801300032716e+03
3.209051328603532056e+03
1.926206133005632864e+03
1.110090636991288193e+03
9.289115851657554686e+02
1.399501521374829736e+03
1.716849983796081005e+03
1.034947793000828824e+03
1.108386837104940810e+02
-6.546729138458066188e+01
2.940692575537164544e+02
3.064765070667816644e+02
-3.132205456905084588e+02
-6.197653585264001919e+01
9.332444062340700839e+02
1.685507826790197441e+03
2.894822589984638853e+03
4.038214982543760470e+03
5.076752657149124389e+03
3.533500666952530992e+03
1.445474854584133254e+03
-7.832622739469104545e+01
-1.590870618941640259e+03
-2.612099028489846660e+03
-2.915985086752185907e+03
-2.295501173666929390e+03
-1.895521997129932515e+03
-2.651188113153425547e+03
-2.993452322779032329e+03
-1.009208424001867911e+03
2.104588473553028052e+03
3.748020910660617119e+03
3.795108946578404357e+03
2.154752473536168509e+03
-3.139998636743678162e+02
-1.854055143354077472e+03
-3.048367256615245424e+03
-3.108929426547227649e+03
-2.350745033501696071e+03
-2.352787153347114327e+03
-1.849006950943765332e+03
6.263238338530574367e+01
2.372179902478417262e+03
3.183658618963887420e+03
2.795055129235340701e+03
2.645402109791863495e+03
2.581672588372554401e+03
2.096826552155866011e+03
1.244920134434699548e+03
6.499857592113394276e+02
8.120451826504312294e+02
9.131540445143077704e+02
4.153237093199949186e+02
1.475532320207671546e+02
3.348421464763512745e+02
5.372175319987590001e+02
-2.182822373184274909e+02
-7.636515819560351019e+02
-1.131957031950746341e+03
-1.909201206742366594e+03
-1.086340604888185453e+03
1.446025725344426291e+02
9.406002230635540400e+02
6.907424797568469330e+02
-1.268868629099877353e+03
-3.115337907593592718e+03
-4.472750894393398085e+03
-4.895014451711949732e+03
-4.301162266425475536e+03
-3.916196787074286021e+03
-3.746048198268383203e+03
-1.753060967146463327e+03
1.989172575980528336e+03
4.604458329138427871e+03
3.599939046299840811e+03
2.078774206152681018e+03
2.092619148808661521e+03
1.709419078929689476e+03
1.447376062699768681e+03
6.594236507874932158e+02
9.616460004193679652e+02
1.070895344890420120e+03
1.042888537111488176e+03
1.172821408866715728e+03
1.581594000705681765e+03
1.588188887573146985e+03
1.371555146167704606e+03
1.175711672735738830e+03
9.318628083305387690e+02
9.786420067780956060e+02
1.494126869616888371e+03
1.463175348864778016e+03
1.418885053375568759e+03
1.361205472708964180e+03
1.383363509573789543e+03
1.339111421564432931e+03
1.172141411466445334e+03
6.976222397739785492e+02
4.746219393765133532e+02
-7.695814321952222770e+01
-4.400562534730233892e+02
-3.489624275642319731e+02
-1.015927138570458084e+02
-9.298033038764528158e+01
-3.516503191512311588e+01
1.117702751755802950e+02
8.976992335559779690e+01
9.675797438882813140e+01
3.156967554530958182e+02
7.946386068164241578e+02
1.029679555153076763e+03
1.441655966040086923e+03
1.785448350633567770e+03
1.528069429293193707e+03
1.365525204528604263e+03
1.442749257231618003e+03
1.431562634310185331e+03
1.266123411788316844e+03
1.128352517396564053e+03
1.107125195802153030e+03
1.016647236531682665e+03
8.328215310994745550e+02
7.055255707214238328e+02
8.057034689418633207e+02
-1.038664581783063113e+03
-3.287585032339713507e+03
-2.368072034972773508e+03
-5.571523575210293302e+02
-2.229902586661488840e+03
-8.232998448388306088e+02
-7.583501748031969782e+02
-7.391233382939253715e+02
-8.906788557439057286e+02
-1.313052894715502816e+03
-1.466249487287172769e+03
-1.391255443207114240e+03
-1.188122642843371978e+03
-1.571935748527920850e+03
-2.056768178739058385e+03
-3.213564095184610778e+03
-4.569315765869399002e+03
-4.510044388359448021e+03
-2.589778466887682953e+03
-4.082505249682848444e+03
-3.182237753936179161e+03
-1.277030296364097467e+03
-1.226839809856948023e+03
-8.696705507346216564e+02
-1.034497094827411502e+03
-9.633107712295890224e+02
-5.491793951234201359e+02
-2.701772646792889532e+02
-3.273004640094558795e+02
-2.072497602482485036e+03
-9.337993698706223995e+02
-1.513156594511134927e+03
-2.294564994035313703e+03
-1.309016904102117678e+03
5.004968166918243924e+02
7.269493646851074118e+02
1.214173546609099361e+02
-4.151084850976842517e+02
-4.966224764478910174e+02
4.638820680361548057e+02
8.294222489778580893e+02
7.660278341212799660e+02
5.166759731688421198e+02
8.813486479345442604e+02
1.240091378799518452e+03
1.581907230729736739e+03
1.203788432589301465e+03
7.987439012860062348e+02
9.228634547197830216e+02
7.061693113832011477e+02
4.766382541977429810e+02
1.512739700266907334e+02
-2.179334561831794019e+02
-1.649499331425766684e+02
4.443230674406561320e+02
5.918911263156835503e+02
1.747863697085616650e+02
-3.046494724726170222e+00
1.174453940785607529e+03
2.240407253637594295e+03
1.497831271964697635e+03
9.917402411526160222e+02
1.139252202167812129e+03
1.013344908634705234e+03
7.929419288733179201e+02
3.150785205312718631e+02
1.949457385075312743e+02
4.994297170347957717e+02
6.636291301048189553e+02
6.137399575341713671e+02
3.269279258023297530e+02
2.689655942961234700e+02
-4.540341031551927244e+02
-5.583556322590268337e+02
-1.404924217975867862e+02
-2.246392084410204916e+03
-3.020427764571565604e+03
-1.085277606944270019e+03
-1.671049237594350188e+03
-1.538838412489481470e+03
2.802855360465198373e+02
1.394206675592113243e+02
3.575627431249425854e+02
4.759039742776012645e+02
8.346572008950118970e+01
3.672640382184521286e+02
7.412856595925193233e+02
8.826174457851337820e+02
9.504024914074232129e+02
8.573094948580502432e+02
6.854405035408241247e+02
5.988801997028169808e+02
6.647046753634266452e+02
9.429317948377184848e+02
7.035754753432249800e+02
6.416595614851902383e+02
6.282192223102410935e+02
7.333420476008617470e+02
1.025043895035166543e+03
9.803659533036213816e+02
4.382908437913739021e+02
3.768138843764720036e+02
7.329409596379236973e+02
9.166609321707418303e+02
8.619927693135783784e+02
1.168915760289964965e+03
9.973979507670361500e+02
6.494221850770444462e+02
6.860267628452660347e+02
4.502930847983797662e+02
4.573070670656336461e+02
8.140511657010723638e+02
7.225335358946001634e+02
4.167775334795340427e+02
7.582800023188426053e+01
6.075213272011119603e-01
2.050197318372927100e+02
-1.018859810997267772e+02
-5.810953568423348088e+02
-6.545802004119233288e+02
-2.303328196352709369e+02
2.175851393840425771e+02
7.022439629006584028e+02
8.266704994423425887e+02
6.268462721679752576e+02
5.727459000368812667e+02
6.672908119113208159e+02
6.304571277413352846e+02
7.242143036259661812e+02
6.605546133387059626e+02
3.283669141211847773e+02
-8.451376539744875060e+01
-1.355002265528090220e+03
-3.525997076007111446e+03
-4.440476798580190007e+03
-4.053345476599020458e+03
-1.034619492589307583e+03
-1.293986902017681757e+02
3.712767028485279184e+02
4.963567179010693735e+02
7.869050458498684293e+02
7.449681873349468333e+02
7.404759681338142627e+02
4.573548153947899664e+02
3.776035424814263024e+02
1.762694487145244864e+02
6.926800815023126745e+01
6.953441612864875765e+01
8.804762448891111148e+01
7.073614083926486273e+01
8.155139713885172625e+01
4.744594753592988923e+02
8.926697060731189595e+02
5.902286200548302304e+02
3.901274649883618508e+02
3.803605482427153675e+02
4.558881013642003381e+02
4.246625855454342400e+02
-1.484143491926145373e+02
-4.963650746186955871e+02
-4.481150279086908199e+02
-4.116835207735804829e+02
-4.383311261421243330e+02
3.697747320776024367e+02
1.457708419012728882e+03
1.081560887493222481e+03
4.684808853123846575e+02
1.345322603541275441e+02
9.463162852705357864e+01
1.017795275497953043e+02
9.900909695284505929e+00
-1.660931746573551493e+02
3.801821663892488878e+00
-8.845430172997097884e+01
2.998679034946152910e+01
4.030592618799643674e+02
9.038064733877909021e+02
1.058294003671749351e+03
8.565148610310043296e+02
4.994362325241386884e+02
2.690931218319856271e+02
1.494860994819013342e+02
1.285924732650969133e+02
1.383553992730308835e+02
-5.123266183365102933e+01
1.884915243188900291e+01
5.554324596482543086e+01
-8.104627258627252218e+01
3.850222337625103251e+02
7.997952460485543043e+02
5.932391159319821554e+02
3.793734055357552393e+02
4.142119969831799722e+02
2.966316697679409913e+02
3.255873341408482702e+01
2.049783068763763367e+02
2.629947319537280919e+02
-4.225746754850821674e+01
-1.687824720632361277e+03
-8.245838006645445830e+02
3.804633284557899060e+02
4.861130016048198286e+02
-1.146314391437957028e+02
-3.635739116196580198e+03
-4.796395318650132140e+03
-4.331799602108850195e+03
-4.526910086457187390e+03
-4.384453477120016032e+03
-4.698357626867978070e+03
-4.396749087166986101e+03
-2.981570720869050547e+03
-2.134824091742475503e+03
5.195439667306955016e+02
5.054426542734960321e+02
-1.143067985767148912e+03
5.629991362988438368e+02
7.706295339580553900e+02
5.978524055241944097e+02
-4.693278124955889439e+02
-7.828847065860413750e+02
5.342101479056702829e+02
5.949529451222656462e+02
-1.836597338330350340e+02
-3.146641188692008654e+03
-3.448943541743819424e+03
-2.919565214981770623e+03
1.784944116467302138e+02
1.098256965951617303e+03
-1.601264535562291258e+03
-1.494042832762540002e+03
6.289782287375109036e+02
8.147874837471766796e+02
1.268424766798210158e+03
1.236899313499492791e+03
9.932062166231154379e+02
1.088354183630513489e+03
1.362367688734433841e+03
1.303262302947962326e+03
1.443032796575798784e+03
1.219690166137858341e+03
8.722639283356674014e+02
1.087745731396064230e+03
1.144102776721619421e+03
1.336364026451184372e+03
9.265301770382851601e+02
9.976306146580964196e+02
1.153736204941922324e+03
9.598471878437042051e+02
-1.069059039669387630e+03
-4.389395228368878747e+02
-3.137730018596866444e+02
-1.514550456586566725e+03
6.973388914676361594e+01
1.444134368417355972e+03
1.271680394180142002e+03
8.953575697022178019e+02
7.901520450576621215e+02
7.862567376314425474e+02
1.129737996984699066e+03
1.221358993723881213e+03
8.810528931308080018e+02
8.670687467476523125e+02
8.821133189944622472e+02
7.864771710163817033e+02
5.961687663409463767e+02
7.780457466426983046e+02
6.863117686475501387e+02
9.671289059752448338e+02
1.345168948068093187e+03
1.455568355739455455e+03
8.762605304403015225e+02
8.464167716919490658e+02
9.590479420445107053e+02
7.861414614312578806e+02
6.435268755934288265e+02
8.960872320461877507e+02
7.382090597291079348e+02
4.005400443825722618e+02
4.110662714443386108e+02
5.449724232517730798e+02
7.452201223696594070e+02
9.197011143548409109e+02
1.184488308827321362e+03
8.395683449719659848e+02
8.561127262195648200e+02
8.828722229497795979e+02
4.921045189152140438e+02
5.177163020614204925e+02
8.126025326734129521e+02
6.230046491081826616e+02
3.605943041851896282e+02
6.286035114756804099e+00
2.943849861400953500e+02
3.298240509172053407e+02
2.275597009226864600e+02
1.775641167629360098e+02
1.337462404113330194e+02
2.470903631404233067e+02
2.706459021315803284e+02
2.704058402870172699e+02
2.783272449297240883e+02
2.853769621767226567e+02
2.825422523584482519e+02
-9.809237040878197433e+01
1.254513231132413722e+02
4.311085162446300387e+02
5.329385511575359260e+02
4.519480290990865115e+02
1.001297942021382141e+02
-4.251640470605882882e+01
7.998693985638128368e+01
7.858390630310985614e+01
2.902442673900150680e+02
-7.798331135377780754e+01
-1.631081925962519392e+02
-5.323082369473540609e+01
-2.793872729092696545e+02
-5.994775741462894985e+02
-4.348457478254593411e+01
-3.214680416581144300e+02
-1.499428335043942070e+03
-3.089362049748038771e+03
-3.477255469105566135e+03
-5.078153141314533968e+03
-4.901116010837367867e+03
-3.980150963661731112e+03
-8.741688175038216286e+02
2.080879905327017099e+01
3.217870574858788473e+02
-1.154204585582876916e+03
-6.192024512340932461e+02
-5.226576255728446796e+01
-2.103203218935528639e+03
-7.201059661187936172e+02
1.858052155167157764e+02
1.701917928021795978e+00
-2.007462144423840755e+03
-2.828840896188944498e+03
-4.412324984082081755e+03
-4.339964522785258850e+03
-2.011775657355858812e+03
-1.726806486584281970e+02
2.662374241339123273e+02
1.509622828205017981e+02
8.151669383169914340e+01
4.748679532262165708e+02
6.430403456462211125e+02
4.550309601907202364e+02
7.048076448362564861e+02
9.764070493058412694e+02
5.877980005658378104e+02
5.880083702664693419e+02
3.820219532747107110e+02
3.728458775427802152e+02
3.014636229715366085e+02
3.098540663463152782e+02
6.500451802788858231e+02
6.470954978137584703e+02
4.049545224888955772e+02
4.265746575791195028e+02
4.289632083063454502e+02
4.661760237695833666e+02
4.611603357518974917e+02
2.999603411420516181e+02
2.325989757306413708e+02
4.800677995777311935e+02
8.563918163251444184e+02
7.885437137606510305e+02
7.264963602701346872e+02
7.052796250523622348e+02
5.289502708585243909e+02
6.785111095098568512e+02
6.689601076406690936e+02
6.502755118627003412e+02
6.275074874067901192e+02
4.496502300328829165e+02
5.837023044595929377e+02
5.176058451999076624e+02
2.083647619440123435e+02
-2.040208638989878693e+02
9.846631611840587084e+01
5.828288009670986867e+02
3.840245693118853865e+02
3.080730138432459171e+02
3.861521095701762647e+02
3.012804006929164871e+02
3.014904622959209632e+02
3.698318108321344653e+02
3.103223660186396842e+02
-2.079625505078850267e+02
-3.648645596735711365e+02
-1.133549387308099625e+02
3.764404956727749436e+02
3.191291388605658312e+02
6.578179940860542274e+02
5.235288001624455774e+02
3.112966036953890239e+02
4.361081891932722669e+02
5.029901092054917058e+02
4.039520674716987401e+02
1.760395769296467847e+02
2.523800732412555803e+01
-2.034314231903388475e+02
-1.399666579685084855e+02
-1.103958383336148188e+02
-3.672044175836742852e+01
-1.149214507544631516e+02
-2.529953765628854114e+02
-1.319443075380540904e+02
-2.027606250881055701e+02
-4.439490488622934805e+01
-7.487567751246473335e+01
-2.131899673056294091e+02
-1.533324838192388313e+02
-9.526185925356692508e+01
-1.279541590600716034e+02
-1.314426492650015064e+02
2.112368066076888908e+02
5.311657897684739993e+01
-2.477795521435064643e+02
-2.265598165430505162e+02
-1.692568881370880547e+02
1.832782734059892675e+02
2.800546691274268483e+02
-8.393052999222139476e+01
-2.747111534252258025e+02
-2.223414037925275579e+02
-1.267556666644072010e+02
-4.079260662660170169e+02
-4.318834639849087580e+02
-4.526424635710782809e+02
-1.062074460351182950e+02
-3.660517614552325938e+01
-8.083600831106890894e+01
1.561068886279613253e+02
2.452248215436276837e+02
5.055435550473557100e+02
4.180730166192973343e+02
2.317813261771268856e+02
1.357060292596153204e+02
4.183764411188160182e+01
-3.588366763826991246e+02
-1.433317872030788294e+03
-6.386553167451694435e+02
-2.547968854792336799e+02
-1.238175393822320700e+02
-2.817425516469080549e+02
-1.150252816448787740e+01
1.888740477824572395e+01
1.963938135825085567e+02
2.190528049896107348e+02
-8.312329094236589810e+01
1.077396088807298113e+01
-1.232630445566929467e+02
-1.377216743039112998e+03
-1.052965775471830284e+03
2.104137305808508529e+02
1.027946702300491637e+02
-2.480903632857466690e+01
1.454413480389767983e+02
8.200735554550307427e+01
-6.508251399995403119e+01
-9.745447180421846767e-01
1.433886249492508682e+02
3.509324363627478647e+02
2.167143486221834792e+02
2.986676375229801579e+02
3.406712744220524769e+02
3.287163673877638530e+02
5.556423772378302317e+01
3.254034911464640913e+02
2.283762885683305228e+02
-3.673550875671020322e+01
3.222778833584343943e+02
3.163307021847252827e+02
2.632788605103593795e+02
4.230113114753821151e+02
2.943773245609101537e+02
2.176255545768930801e+02
3.758911178245793394e+02
5.583917452952149461e+02
6.098795581640555383e+02
4.672807819346450628e+02
4.943446759517109399e+02
4.441856783821723980e+02
4.070837003004342023e+02
5.338201528946536882e+02
5.122199319458131868e+02
3.724289822176717735e+02
1.994345239118216568e+02
1.773990766411401410e+02
3.011487719584718548e+02
3.785434014922640245e+02
5.656008371330367481e+02
6.543139647208914766e+02
5.446520439337326707e+02
6.566517248114050744e+02
7.442780353548513403e+02
5.634499687054403694e+02
3.651511639595217389e+02
1.964360970240189772e+02
2.223300176505150318e+02
3.997784557687435836e+02
4.567924969905659509e+02
2.394071808911265009e+02
2.817451999882057976e+02
2.306135764810237276e+02
7.001319163691690051e+01
-1.539404748684898721e+02
5.456256751537926419e+01
4.115038526650262725e+02
4.879634561768331196e+02
4.529462428425093208e+02
5.794310728236864634e+02
4.764549179835810264e+02
1.379914443436749707e+02
6.022105878466980755e+00
-6.164397936762221661e+02
-2.410379022863193768e+03
-1.918812054875592139e+03
-1.338727540393809932e+03
-3.047100017629928971e+03
-2.794941672703433142e+03
3.473015489645750620e+01
-9.871000410008782637e+02
-2.013898834975855152e+02
-9.521510631119725758e+02
2.826776948433949883e+02
9.740961650757388952e+02
1.044080925317774017e+03
2.565417824307365180e+01
-6.061769564147421079e+02
4.105801529738110958e+02
-8.220337909746332343e+02
-1.058997138156311166e+03
-4.853231305432840372e+02
1.029929540787065889e+02
-1.306036250793702493e+03
-1.806383248094795817e+03
-2.187083316399759497e+03
-1.860847822706489865e+02
-1.603352454072005230e+03
-1.829897352181512815e+03
-2.396804529911058239e+02
-1.567694419507235125e+03
-1.069795592145356551e+02
-9.294845453158017108e+02
-1.827137807581098059e+03
6.810123120251704165e+01
6.001717487927933234e+02
6.400864887516590898e+02
8.059208832141054017e+02
1.109645988545849377e+03
8.922925571122190149e+02
9.958951505685461143e+02
8.724869847239094725e+02
9.120845351535065220e+02
6.886735939189642295e+02
4.072903341521099492e+02
5.689417598607194577e+02
4.236637794177889873e+02
-3.852932504430165039e+01
-4.762279794587985293e+01
8.042156192332309672e+01
7.662111791687947004e+01
4.702858097137852411e+01
2.536607039645437851e+02
5.795158011057159229e+02
2.826058257321980136e+02
6.592558645992721722e+01
-2.741718697824100914e+01
2.195479949248268099e+02
3.577614612307509674e+02
1.162586880411545280e+02
2.711163443475812755e+02
4.234154748587944255e+02
4.432502483242022890e+02
4.967486132821711635e+02
5.070047778650166492e+02
3.229136400808421854e+02
-1.633393122225317313e+02
-8.578898420768612141e+02
-5.468505969480136173e+02
-6.623499002858217182e+02
-4.012734065344616852e+02
-3.845832748178664247e+02
-1.860731929410005989e+02
-2.766564691016877831e+01
-2.453546387471814683e+01
-1.386495709394198741e+02
-1.233063479303645948e+02
-1.333885860246050754e+02
4.928869806687415434e+01
3.668994850646045052e+02
5.064163737798298257e+02
4.728955044869070434e+02
2.213000491572464625e+02
5.035646996878165851e+02
4.895899478050216089e+02
5.142919279954660396e+02
7.666912794326881340e+02
6.248222295353886011e+02
6.706967500430811242e+02
6.112810750842052130e+02
1.656247083029444980e+02
3.417030700736855806e+02
4.425329013429008000e+02
4.261715231108344142e+02
3.475866403566554936e+02
4.138124000847894877e+02
4.188223783164174847e+02
3.936284696353886829e+02
4.232186624125862977e+02
6.595550642168515196e+02
6.726165209117615404e+02
4.964233765532515577e+02
2.349728981636114895e+02
4.342471050522381688e+02
3.292281216371092114e+02
2.709058174947340945e+02
2.012922310079786996e+02
3.263839379590928615e+02
4.571136655062644536e+02
4.054807264735958938e+02
3.264938785789127564e+02
1.141504340652636103e+02
2.894262826639803166e+02
3.372998509162835035e+02
5.277411031955514318e+02
7.087702087502852919e+02
9.933592851221587807e+02
8.694970501240708245e+02
9.782200886653539555e+02
7.944779027968668288e+02
6.702678934025834678e+02
5.825992150484335070e+02
2.834735108062647555e+02
-5.821878928030803309e+02
-2.342464931749071638e+03
-4.327299924955059396e+03
-4.590699701455543618e+03
-4.674672246611104129e+03
-4.654253927724383175e+03
-4.438459383819848881e+03
-4.268272706557862875e+03
-4.338712166998346220e+03
-3.796744552275739352e+03
-1.814435573041084353e+03
2.231855382677326531e+02
5.220752427369209272e+02
5.551758724971482479e+02
5.544240387868327389e+02
6.178765023553700075e+02
6.404733564836798223e+02
5.991562128821150282e+02
6.068700282704261326e+02
8.106357276803440755e+02
9.274691171438231549e+02
1.104296941348052087e+03
1.325139483601327356e+03
1.205964839699702679e+03
9.567605720624779906e+02
7.774876514713276947e+02
5.331433127651470159e+02
5.927422871886216171e+02
8.441994746246974728e+02
1.002473081522762527e+03
7.435676483398235632e+02
7.055059373087785843e+02
7.662569823073957878e+02
1.270766537493506576e+03
1.504046945118265512e+03
1.381077054910544803e+03
1.052834996445390061e+03
1.059310007694595015e+03
1.309513236163197234e+03
1.078447257132919276e+03
8.670913521953759755e+02
1.181387383621182835e+03
1.268261023718187971e+03
1.494682835482909695e+03
1.557639238013196973e+03
8.781399054965382902e+02
8.311738327741392141e+02
1.044748373013480659e+03
1.270897641411254426e+03
1.072598469318634898e+03
1.013804148529832332e+03
9.304894222823310201e+02
1.120675455404981903e+03
1.197306763503393540e+03
9.293545819617847883e+02
7.328048984364297667e+02
7.215689473907943920e+02
3.566553552844704882e+02
5.821200702037974679e+02
8.289568678562804962e+02
7.701393757367241051e+02
1.033669832021487764e+03
7.025938765053637098e+02
9.108820745792469324e+02
9.045618581607502620e+02
6.865913300905671122e+02
8.369933463672552989e+02
8.327411251101584639e+02
6.928773881955571596e+02
9.634082122144230880e+02
1.385301492496618039e+03
1.188518830179790712e+03
8.450403110331222933e+02
3.238685557177781789e+02
-2.727343356617379868e+02
7.281704632748617314e+02
9.993590076629235455e+02
6.299187061768116109e+02
-3.000125764116839036e+03
-4.769799575582567741e+03
-4.518023002319868283e+03
-4.443760608981653604e+03
-4.063018256244068652e+03
-4.130871743522924589e+03
-3.755382833316089545e+03
-3.374517825855021783e+03
-2.950235705823463377e+03
-2.665478838463316606e+03
-3.048247200522392177e+03
-3.274559356761385516e+03
-3.451464686409947717e+03
-2.884927154882594550e+03
-3.149004269546263117e+02
1.505602409297586519e+03
7.115405547232928711e+02
-1.125057604026734680e+03
-3.550151518291328102e+03
-4.117711420969731080e+03
-3.790703724273259468e+03
-3.072073354629574169e+03
-3.064742775709891703e+03
-2.973649146577875399e+03
-2.882815349068054729e+03
-2.810225050321967046e+03
-2.859815861333356224e+03
-3.164561514676471234e+03
-3.337598629385838649e+03
-3.139044467286531471e+03
-2.526970580084145695e+03
3.246907097754391316e+02
1.336029230989228836e+03
1.106099541583067548e+03
1.489874136175446210e+03
1.686347703295249403e+03
1.877531754187531305e+03
2.384466519342026913e+03
2.442159215200277231e+03
2.086574780318360354e+03
1.369832535663130557e+03
1.557083955071777154e+03
1.562320931264276396e+03
1.373482432078117881e+03
1.525566952194422129e+03
1.929636780629698706e+03
1.916817717653852924e+03
1.990190962530872184e+03
1.723696351607614133e+03
1.478250046349510285e+03
1.687855941639982802e+03
1.959478288889730266e+03
1.948083453620700311e+03
1.724690648300252633e+03
1.389260992154409223e+03
1.620591750503967205e+03
1.997581408567070412e+03
1.996332557092714069e+03
1.652963813977839891e+03
1.740548843335637912e+03
1.624449813101714426e+03
1.471590809937715449e+03
1.458156731424588770e+03
1.641317487898470290e+03
1.265946347094903558e+03
9.368066356729525523e+02
1.267929176041914161e+03
1.202137857823296372e+03
1.058574165186925256e+03
1.302200067338840427e+03
1.336983911199387876e+03
1.251936906797156553e+03
1.104367208893514089e+03
1.137130934128342915e+03
1.176971217320484811e+03
1.113115427436049686e+03
1.024418877067071435e+03
9.737803468052577500e+02
1.044213813213292042e+03
1.384792098141720089e+03
1.283459535886577669e+03
9.991168179686627582e+02
1.305765072786681912e+03
1.345568000270345237e+03
1.217472359003111706e+03
1.356198946123174892e+03
1.066180117853651836e+03
6.629557537789753496e+02
7.948467472904020497e+02
1.115866494904267483e+03
1.108803449782255711e+03
7.857355130101877876e+02
1.045654594415964766e+03
7.215275201783266539e+02
4.704825538920334793e+02
5.647354299546688026e+02
8.110397407707068851e+02
1.064156333924117916e+03
9.042697918836940971e+02
9.395534666768929810e+02
7.819109825801290299e+02
3.142089664146815835e+02
2.845729344632873108e+02
3.330863045905802551e+02
4.795844911804865660e+02
4.089531145631784739e+02
4.080842223247233846e+02
5.110347462545641406e+02
6.147788431124293993e+02
4.952538849586654806e+02
2.314513633172083189e+02
4.823705038426703027e+02
3.240313166898291115e+02
-8.436011810106741677e+02
-2.558529684752040794e+03
-4.172734530864265253e+03
-4.360206124026623911e+03
-4.456929827919026138e+03
-4.267884985013756705e+03
-3.827093347214612550e+03
-4.011566133469795204e+03
-3.475310686854847063e+03
-3.207259019132116464e+03
-3.744325135141208193e+03
-3.461548881050371165e+03
-3.593780453312425834e+03
-3.969090188452256371e+03
-3.884662851873436466e+03
-6.885482178659927968e+02
8.852986256250005681e+02
-5.089070543984947292e+00
-1.913687121500781132e+03
-3.058496129770584957e+03
-3.154525246114318634e+03
-3.326810905055762760e+03
-3.186372984226202334e+03
-3.561174626455680482e+03
-3.043241660472336662e+03
-4.785574958197967135e+02
1.368883100005924916e+03
1.184109598257891093e+03
5.790890594067332131e+02
2.467975603715852913e+02
5.062912914019076425e+02
1.115595210382167863e+02
-1.353896676112803448e+02
-3.515243576587579923e+02
-3.168932402040477427e+02
-2.274864823015008426e+02
-2.142745390917466182e+02
3.881418697454689237e+01
1.838256901905602945e+02
4.908065784321783553e+02
8.347589492926400681e+02
1.209701135339250413e+03
1.104612942746897943e+03
1.029463342670089332e+03
1.246282268681492724e+03
1.341094655276071535e+03
1.353910151484607240e+03
1.294804920780683460e+03
1.318741782717742126e+03
1.511736526322466261e+03
1.306811040256177421e+03
1.429986444847543908e+03
1.420301991149210153e+03
1.528730689914046707e+03
1.531241128524544365e+03
1.198800063010816530e+03
8.914556573121325300e+02
8.332143950773571532e+02
5.420931536183211392e+02
2.031394148751479918e+02
3.193801709789324264e+02
3.098030885554268821e+02
2.804924813142047242e+02
2.904960206988998834e+02
3.588423570897252262e+02
3.585140133998736474e+02
-2.234774643845194078e+02
-5.979788821647292707e+02
-8.109563433021517085e+02
-7.472656185913060654e+02
-1.104895103651091176e+03
-1.412840068206812703e+03
-1.196186206172236552e+03
-1.030902457365933287e+03
-6.329874244883958454e+02
-4.573179329755530489e+02
1.476822622396770726e+02
1.010160716515090144e+03
1.053282370716792002e+03
1.008969907635125878e+03
1.619264450767385142e+03
1.731113474092990828e+03
1.736543104335041107e+03
1.239572591497845679e+03
1.051168672157663423e+03
1.186300034906124438e+03
6.540087790362413216e+02
4.563498264506042688e+02
3.792815501718691849e+02
4.098289028287452993e+02
2.760219688622245258e+02
2.198660406326717691e+02
5.963765337791136290e+02
4.555273375264715128e+02
-2.326977774670236272e+02
