4.848698484907703460e+03
3.866266582013165134e+03
1.867190691590511733e+03
-2.638618341254653501e+02
-1.837241907201330832e+03
-2.668262221106523612e+03
-4.033255734354429023e+03
-5.576550504669589827e+03
-5.869479166614858514e+03
-5.337320318937874617e+03
-4.262177639838503637e+03
-3.098681750131102945e+03
-2.517982850822495038e+03
-1.748182113923996440e+03
-2.495716151428894136e+02
9.877852847973455255e+02
2.079442393595480553e+03
3.290675590001349519e+03
3.896533609052775773e+03
3.338989581565707795e+03
1.576311228999482410e+03
-3.738877247068730298e+02
-2.259868694505856638e+03
-3.704822085519519533e+03
-4.880166677555455863e+03
-6.490295992101279808e+03
-7.662517666379656475e+03
-8.512024871030762370e+03
-9.151081095153627757e+03
-8.715912812096541529e+03
-7.921698267623803986e+03
-6.888650748116798241e+03
-5.155804571016838963e+03
-3.006333592526511893e+03
-8.614808429388948525e+02
1.049662449247694212e+03
2.710971295861233102e+03
3.483184479129273313e+03
3.599099289658737689e+03
3.114501808540674574e+03
2.347160162798483725e+03
1.168820509986517891e+03
-1.338065668479659678e+02
-1.702946976417159249e+03
-3.170868016330922273e+03
-4.612806994170177859e+03
-5.739912333418135859e+03
-6.735355790943227476e+03
-6.967276645743564586e+03
-6.529849339602106738e+03
-5.716214364316024330e+03
-4.561393539256181612e+03
-2.429424990939155123e+03
-4.503717847411301136e+02
1.047730081362761439e+03
2.434866372195027907e+03
3.545070299261532909e+03
4.599276056267859531e+03
4.324444567005552926e+03
2.446432504316906488e+03
-9.528976037515932376e+02
-3.467736464534234074e+03
-5.426190613048309388e+03
-6.587284695923647632e+03
-6.879169762415111109e+03
-6.822930809258705267e+03
-4.183578532624587751e+03
-2.842049273017816176e+03
-5.317331485956157849e+03
-4.672448498584622030e+03
-3.428276858292259931e+03
-2.891649764852840690e+03
-1.473367493853486394e+03
1.075825039409879196e+02
2.622308410211088813e+03
5.166984445277164923e+03
7.492758870975261743e+03
9.837731680963481267e+03
1.117698821566500919e+04
1.077665790996177020e+04
9.846650529354299579e+03
8.670914808279230783e+03
7.323522236516378143e+03
6.110517990165649280e+03
5.096950097810762600e+03
4.145969645798631973e+03
3.345670337240915615e+03
2.451215899223886026e+03
2.396808011862288367e+03
3.181560590523240990e+03
4.495621590256268973e+03
5.894304830276767461e+03
7.803771589269739707e+03
9.453271788579051645e+03
1.102302710039242447e+04
1.262119220600893823e+04
1.395205225019133650e+04
1.472987459883943120e+04
1.500688871138514878e+04
1.423928562206451898e+04
1.299114532223198148e+04
1.110655210164215896e+04
8.641682132890047797e+03
6.719747707654658370e+03
4.749834131185493789e+03
2.689067374502887105e+03
8.996622625734686380e+02
-2.117369298490823226e+01
-1.057229705724774931e+03
-1.582296869049677980e+03
-1.373985270992117421e+03
-1.321141471410565373e+03
-1.210499599664556399e+03
-5.667375422826397653e+02
2.764624012816083791e+02
9.533909559528441378e+02
1.675322514349620860e+03
1.946679940676040587e+03
3.141776085886717738e+03
3.911688747034849712e+03
3.511596217963433446e+03
2.767721747922782470e+03
1.498254333729005566e+03
-1.133654232178543680e+03
-3.460881238567503260e+03
-5.095282190893361076e+03
-6.686617318120506752e+03
-8.172808058631516360e+03
-8.984556458898458004e+03
-9.128609470777126262e+03
-9.113729882416038890e+03
-8.335615191410299303e+03
-6.649023208091832203e+03
-4.697613358417313066e+03
-3.936174773403237850e+03
-4.647515359593638095e+03
-9.911450342688135606e+01
-2.977582646994761717e+02
1.467029651726446673e+03
2.861175014068396649e+02
-2.038368081843663049e+03
-1.613286871116183875e+03
-4.884545162925537625e+03
-6.758053569659618006e+03
-8.912721402498686075e+03
-9.363285459680246277e+03
-1.002752527082295819e+04
-1.192432190315354273e+04
-1.282154205283892225e+04
-1.061204344294428120e+04
-1.000057878922878263e+04
-1.031997457728858717e+04
-7.130995430281431254e+03
-3.524417319959584347e+03
-3.248961525088997405e+03
1.215833894136685842e+02
3.193346587133838966e+03
2.048522750042846383e+03
7.583320698841280318e+02
1.352849215569149692e+03
2.228173077737852509e+03
-3.446137707879698837e+02
-2.108482247178454145e+03
-3.732368959080789409e+03
-4.554231813624744063e+03
-6.599046230001510594e+03
-7.128713224100939442e+03
-8.097166734495077435e+03
-6.214281849293889536e+03
-6.992010700886552513e+03
-5.088392431167691029e+03
-4.984349897933861030e+03
-2.786803639966501123e+03
7.835244441441194851e+01
2.101263670884749445e+03
5.806012498018807491e+03
8.968791513953277899e+03
1.083563770991826095e+04
1.224956492452912789e+04
1.208558930920075727e+04
1.118667175070398480e+04
9.873778815561228839e+03
6.725761330212380926e+03
4.011545226225709939e+03
2.372147646914900179e+03
-1.003922018412968526e+02
-1.779216438538266175e+03
-2.789435418543240303e+03
-2.943029204006872078e+03
-2.475882934217822822e+03
-2.106087365524046618e+03
-1.475831112082516256e+03
3.408307786664333321e+02
2.284900349815193294e+03
4.693557797934015980e+03
6.599806230870220134e+03
7.529612597323317459e+03
7.723840977763741648e+03
8.131481451385175205e+03
8.346197709320702415e+03
7.754836594353510918e+03
6.324271702643084609e+03
3.978188019609964613e+03
1.608349214156857443e+03
-7.445531040822430668e+02
-3.806437383831631905e+03
-5.749280385722573556e+03
-7.199429377201913667e+03
-8.145483639148028487e+03
-7.819413515641331287e+03
-6.476346123923733103e+03
-4.591446072238783017e+03
-2.690795712354887655e+03
-3.196421395161546570e+02
2.507017126657741755e+03
5.050076015705345526e+03
6.964218070938537494e+03
8.450211476944041351e+03
9.031982815042405491e+03
8.980329729058408702e+03
7.778115928888613780e+03
5.699139128351411273e+03
2.871967446359094083e+03
3.400822271570963835e+02
-2.096602279451733466e+03
-4.262397509759804052e+03
-5.734490922205074639e+03
-6.796185105926391770e+03
-7.158925579588632900e+03
-6.988925432285067473e+03
-6.566417456766414034e+03
-4.986501075027355910e+03
-2.954335084005635053e+03
-2.729516674152845326e+02
2.577507615623466791e+03
4.781615630080314986e+03
6.678194070096248652e+03
7.558934816315265380e+03
7.458706271128291519e+03
6.842495395242843188e+03
5.313059485491855412e+03
3.034046863922971170e+03
6.091366651787291175e+02
-1.372038698373012039e+03
-2.993797251182608306e+03
-4.542326320252712321e+03
-5.895880506872756087e+03
-5.972611781521563898e+03
-5.458743380876254378e+03
-4.797539673377345025e+03
-5.083159450235267286e+03
-5.640760270850320921e+03
-6.691471026162059388e+03
-6.455359784385847888e+03
-3.260377383755453138e+03
-2.055601624335236579e+02
2.017968987308700889e+03
3.130079549484290055e+03
3.447521294962838965e+03
3.164252591210568880e+03
2.280191040806902038e+03
2.812383271026973262e+02
-2.243621527285862612e+03
-4.387381829395068053e+03
-6.892061436236469490e+03
-8.924836841076301425e+03
-7.556690616719288300e+03
-8.517650892315265082e+03
-1.107869086771903676e+04
-1.135868922478518834e+04
-1.066375788453291170e+04
-6.429082370590159371e+03
-2.484623231624033451e+03
-1.133214321380675074e+03
1.660458874248475013e+03
4.858643259918228068e+03
6.044466417703654770e+03
6.156091323136188294e+03
6.195404175839566051e+03
6.576446396399353944e+03
5.538439586539763695e+03
3.069697219503185806e+03
3.574115215849719789e+02
-1.614295334635141671e+03
-4.018491951624443118e+03
-6.587456206866187131e+03
-8.546365189009879032e+03
-9.962313899741675414e+03
-1.010959562109645776e+04
-9.699342276648671032e+03
-8.763498453775886446e+03
-7.039615090313892324e+03
-5.181838084418644939e+03
-3.649332024584292867e+03
-1.468748532087457534e+03
9.539903810514779252e+02
3.031979183313109843e+03
4.330428575899251882e+03
4.615129204513345030e+03
4.387272710384280799e+03
3.274847955147580251e+03
1.672398913629248000e+03
-7.632080521111542737e+01
-2.308073810638913983e+03
-3.710713855656341366e+03
-5.030366795764698509e+03
-6.647116739240870629e+03
-7.596972601390757518e+03
-7.687009534441594042e+03
-7.034458033745633657e+03
-5.736588741110298542e+03
-3.488500947425156937e+03
-8.523237018012598583e+02
1.883784525290083138e+03
5.185652337658052602e+03
7.986207394946914064e+03
1.001940373777007517e+04
1.058743860261972804e+04
1.061435435182475703e+04
1.074692033754475597e+04
9.812916878564543367e+03
7.509154473969434548e+03
4.729434700692987462e+03
2.539597369713030275e+03
2.152714289705462036e+01
-3.044988362615818460e+03
-5.729221885961676890e+03
-7.006097640004216373e+03
-6.923681073670720252e+03
-6.758076441763674666e+03
-5.837313990870088674e+03
-4.117610872387459494e+03
-2.150031065805539583e+03
1.621955107523557515e+01
2.832821552521949343e+03
6.568879246080254234e+03
8.965602595850143189e+03
1.009780854498478584e+04
1.074429340174111167e+04
1.059579713067826196e+04
9.146127869193342121e+03
7.373110816629266083e+03
4.968648121819028347e+03
2.386683982207533518e+03
5.515230102279898006e+01
-2.133034623104625098e+03
-3.645946363975854638e+03
-4.089612973226299346e+03
-4.475011171854682289e+03
-3.955118674547262344e+03
-2.890839164735434224e+03
-1.735018632734656421e+03
3.924948910567306939e+02
3.118905112581298908e+03
5.978498475712312029e+03
8.742544301613275820e+03
1.106543590966364172e+04
1.200349803461008014e+04
1.225808141796042037e+04
1.208251701833009975e+04
1.051407524210303200e+04
8.027018093366175890e+03
5.573636970592764555e+03
2.938305511836608275e+03
2.691988813742229922e+02
-2.262427762492200145e+03
-2.877287219772117624e+03
-3.980099283082383863e+03
-5.283496278366305887e+03
-5.955080266463234693e+03
-5.308543109850321343e+03
-4.329540006271120546e+03
-3.246696820351112365e+03
-1.096652629255406509e+03
1.890013730523632148e+03
3.861766065647302639e+03
5.147997604564174253e+03
6.269164698782930827e+03
7.075754557866342111e+03
7.008249431572025969e+03
5.613252640821710884e+03
3.841137617884631254e+03
2.351231398954050292e+03
-4.990222826067842448e+02
-3.227206472935637521e+03
-5.652875106892006443e+03
-7.928613606581493514e+03
-9.086898922511398268e+03
-9.804307909388895496e+03
-1.014448782696103990e+04
-1.080903066911723727e+04
-1.228347170393459055e+04
-1.042080891205459193e+04
-8.828156969777213817e+03
-3.659213635398324186e+03
-8.758450209449435988e+02
1.177617891667355707e+03
2.479788856645671331e+03
2.383120465167259226e+03
1.158395210190338730e+03
-5.440908899681577395e+02
-2.533794768238903998e+03
-4.861581756354609752e+03
-7.212082433274798859e+03
-9.580518178972215537e+03
-1.211773903293250260e+04
-1.365630189343379971e+04
-1.520698558297701129e+04
-1.623627122765094464e+04
-1.690284156585271194e+04
-1.633858411907604568e+04
-1.479478600029788504e+04
-1.384141703365867579e+04
-1.262896435641109565e+04
-1.082465594600795521e+04
-9.058459132492913341e+03
-7.078198401786317845e+03
-5.576482767747570506e+03
-4.991574994857820457e+03
-5.041527901797596314e+03
-5.940125440656012870e+03
-7.334077139400804299e+03
-8.858401196081713351e+03
-1.048679286232688173e+04
-1.223632915521003270e+04
-1.417998566927834872e+04
-1.591052264520147764e+04
-1.716621354547056035e+04
-1.878689957161356506e+04
-1.994580838189030692e+04
-1.959186830672622091e+04
-1.902392465208299473e+04
-1.728720885339153028e+04
-1.488977625628118767e+04
-1.221681288898864659e+04
-8.895366969793167300e+03
-6.246335439590559872e+03
-5.007813640880855928e+03
-4.823979096547938752e+03
-5.888784108692595510e+03
-6.727503518413622260e+03
-6.815517451430207075e+03
-8.155044803780742768e+03
-9.764570090492603413e+03
-1.085958251238348748e+04
-1.118260993034770581e+04
-1.275406142143929719e+04
-1.515044693386955805e+04
-1.683931595024848502e+04
-1.863037778171923492e+04
-1.768719267642715931e+04
-1.534024013933242713e+04
-1.178297199708159860e+04
-8.429935456141281975e+03
-4.307722725515044658e+03
-1.693877709695596650e+03
7.790126621437950689e+02
3.437259061322595699e+03
4.944167658300218136e+03
4.911098838980371511e+03
4.907272618581301685e+03
5.436848083521378612e+03
7.614087237365068177e+03
9.341036504645255263e+03
6.113846904258580253e+03
5.260720518868373802e+03
5.109829336187901390e+03
5.130273467814501601e+03
6.433104664068589045e+03
6.980395558182089189e+03
9.309212667750251057e+03
1.296969449515605447e+04
1.510295973410794795e+04
1.639002698935331500e+04
1.922885173275224224e+04
2.390943814274454417e+04
2.972785074468831954e+04
3.608915024270594586e+04
3.714241474797208502e+04
3.623877974569756043e+04
3.807222846200719505e+04
3.807280350139297661e+04
3.883654651380793075e+04
3.948640255133369647e+04
3.811537452559687517e+04
3.637140847687216592e+04
3.415246764554403489e+04
3.374558361627102568e+04
3.416971481459691131e+04
3.714298199067254609e+04
4.147547446186392335e+04
4.374927437425430981e+04
4.574059115886633663e+04
4.619963262365346600e+04
4.754873731447051978e+04
5.122628494117309310e+04
5.439261391013613320e+04
5.660310888523193717e+04
5.790921949909484101e+04
5.850844992854585871e+04
5.756412341579864733e+04
5.593761691739299567e+04
5.427431564178831468e+04
5.280765913615078898e+04
5.076004978282516822e+04
4.767890762539872230e+04
4.472370263660620549e+04
4.190803026386229612e+04
3.892048563809195184e+04
3.635108309454184200e+04
3.587756532463916665e+04
3.676742238349284162e+04
3.683547363172478072e+04
3.604558698469955561e+04
3.378269808495386678e+04
3.065984293732925289e+04
2.658604030283661632e+04
2.182035936733732888e+04
1.770095130898469506e+04
1.323798630209819385e+04
8.166616641772669936e+03
1.687101851811397410e+03
-4.031331685250077498e+03
-9.655163739570694815e+03
-1.487489017698709540e+04
-1.911696804250995774e+04
-2.480522344589545173e+04
-3.281333923871227307e+04
-4.170619521346037072e+04
-4.993028449515775719e+04
-5.489473288859037712e+04
-5.760728875462192082e+04
-6.012760513198869739e+04
-6.232869167258438392e+04
-6.729373160274740076e+04
-7.334304588735906873e+04
-7.767981312385194178e+04
-7.855009358119734679e+04
-7.754594270832845359e+04
-7.412050277979878592e+04
-7.035683393759846513e+04
-6.927888090519307298e+04
-6.901566501330895699e+04
-6.921526766728730581e+04
-7.302771841252649028e+04
-7.853607426428532926e+04
-8.370128064341745630e+04
-8.306433394467280596e+04
-8.400114279797277413e+04
-8.738751888715036330e+04
-8.731023389698371466e+04
-8.669716790570973535e+04
-8.526011198828837951e+04
-8.076981946524992236e+04
-7.873292900914420898e+04
-7.366400240814902645e+04
-6.781062590796024597e+04
-6.706937834832027147e+04
-6.993180988032437745e+04
-6.993754070933253388e+04
-6.769316672168510559e+04
-6.565043481009831885e+04
-6.311401205133993790e+04
-5.897048276413061103e+04
-5.360952093644185516e+04
-4.799185989773025358e+04
-4.378123540452914312e+04
-3.932136687608865032e+04
-3.462096309735900286e+04
-3.027269237919407533e+04
-2.635420458130765110e+04
-2.319321668674012108e+04
-2.137837581671170847e+04
-1.807825967659499292e+04
-1.242340088346312405e+04
-7.856398409422957229e+03
-4.029895241154017640e+03
-3.685191585851712830e+02
2.534155591740979617e+03
8.028516419196134848e+03
1.328072527379939856e+04
1.308308198889738742e+04
1.273879383938955107e+04
1.498093207588817313e+04
1.693575198492113850e+04
1.975308400344235633e+04
2.407685888587111549e+04
2.860696085683845376e+04
3.473228979376565258e+04
4.047278259926475585e+04
4.421730569961555011e+04
5.023970417905799695e+04
5.948673962073471921e+04
6.814230338954667968e+04
7.590729698851965077e+04
8.166254475117761467e+04
8.609977825469021627e+04
8.912481511528309784e+04
9.124134021498641232e+04
9.282800784283933172e+04
9.318438968694988580e+04
9.267897842323905206e+04
9.142919366914946295e+04
8.948534331287055102e+04
8.683366100038963486e+04
8.364132712256249215e+04
7.979637983223779884e+04
7.591082608887943206e+04
7.185676259140104230e+04
6.776823812652578636e+04
6.420424718051177479e+04
6.077476423072741454e+04
5.830869679660943075e+04
5.632695406060147070e+04
5.484946568140340969e+04
5.346212120167998364e+04
5.243575854899437400e+04
5.100326508493629808e+04
4.925738124474649521e+04
4.861870047509310098e+04
4.720089308068286482e+04
4.478147273959738231e+04
4.215378723516313039e+04
3.943410055660775106e+04
3.678981759582558880e+04
3.476226718013468053e+04
3.269071629219769238e+04
3.067730953843902171e+04
2.860518594098597168e+04
2.633647721406881465e+04
2.392515852641002493e+04
2.347721471172153906e+04
2.293984767554880818e+04
2.200216417214628746e+04
2.161411805937694226e+04
2.143366491800703079e+04
2.198684686839916321e+04
2.178766884360172116e+04
2.045709340954973231e+04
1.867598748563548361e+04
1.593728816549275871e+04
1.308779832072326462e+04
9.756195970153681628e+03
6.876280559342146262e+03
3.881662793205226535e+03
5.691787535813384125e+01
-4.658360740969385915e+03
-1.157746774205133624e+04
-1.419457718003834634e+04
-1.944024708216454019e+04
-1.860394760243091878e+04
-1.982439109918167014e+04
-2.158083150723154904e+04
-2.336065857426420553e+04
-2.276717237007018048e+04
-2.168257148892617624e+04
-2.154115633980053462e+04
-2.062228590915585301e+04
-2.212026201268700606e+04
-2.517139985109223926e+04
-2.547195981880023828e+04
-2.883321570334056742e+04
-2.866354882046704370e+04
-3.223950648426568296e+04
-3.577838648843648843e+04
-3.660853255516295758e+04
-3.976029792023162008e+04
-4.166418828931097960e+04
-4.452159576848796132e+04
-4.478768345225170196e+04
-4.283971315017460438e+04
-4.469598637140930077e+04
-4.655967408622301446e+04
-4.652695409991093038e+04
-4.341186745214676921e+04
-4.318343576021922490e+04
-4.306764768986067065e+04
-4.079045037843202590e+04
-4.235575719436646614e+04
-4.064045592991338344e+04
-4.207350570654206967e+04
-4.164178636378130614e+04
-4.159708335586059547e+04
-4.318335210070227185e+04
-4.521153059744329948e+04
-4.870235300854967500e+04
-5.058756297328046639e+04
-5.060499116178094118e+04
-5.054433385897988046e+04
-4.983327792383990163e+04
-5.102546523722952406e+04
-5.161645410920996073e+04
-5.043680512510953849e+04
-4.889390504937010701e+04
-4.751203537137865351e+04
-4.458442251818346995e+04
-4.160126819540927681e+04
-3.871781007498865802e+04
-3.532234484483115375e+04
-3.291003484096923785e+04
-3.136599283773463685e+04
-3.068921739658725346e+04
-2.905469433597567331e+04
-2.804229427798919278e+04
-2.762700770300786098e+04
-2.872285869890144386e+04
-3.027372020235368473e+04
-3.042669342794073600e+04
-2.914775945356912052e+04
-2.786087028874490352e+04
-2.688677854973353533e+04
-2.426529652818555041e+04
-2.026798495516298863e+04
-1.652043859531966882e+04
-1.312612257605984087e+04
-9.420594688695613513e+03
-6.184422251896065063e+03
-4.109831626743141896e+03
-2.678219877781252308e+03
-2.839186116484420836e+03
-3.759029883999980939e+03
-4.524757410930445076e+03
-4.174849278251306714e+03
-3.189674287917419861e+03
-2.229531347767207535e+03
-1.359843973213772870e+03
3.713815288854323171e+01
3.436973673028282974e+03
8.450375651273869153e+03
1.366551162750789445e+04
1.838405635543045719e+04
2.251370382853722185e+04
2.692148737126591368e+04
3.083022176662891070e+04
3.440280291296102223e+04
3.832621684372759773e+04
4.161037996578117600e+04
4.477330837975441682e+04
4.800516253825547028e+04
5.048980026302503393e+04
5.263111665184346930e+04
5.388833145609584608e+04
5.411652997897747991e+04
5.365373149847748573e+04
5.227483642026039161e+04
5.131975384326635685e+04
5.060416797031873284e+04
4.940188040565463598e+04
4.815301844138933666e+04
4.676257887507660780e+04
4.579164032111869165e+04
4.539111742416544439e+04
4.510179564742554066e+04
4.462965070932167146e+04
4.446972723933808447e+04
4.573102891373426974e+04
4.652957449223719595e+04
4.716642586819626740e+04
4.705058381341929635e+04
4.651797195180660492e+04
4.591940932751707442e+04
4.452380873614629672e+04
4.193805521548258548e+04
3.776088237446179119e+04
3.155904814218786851e+04
2.800531360651386785e+04
2.550534779092697499e+04
2.265063404575227105e+04
2.048570705448341687e+04
1.840127184106452114e+04
1.621100965809848458e+04
1.485068884943036210e+04
1.373901921363468682e+04
1.292865208412365064e+04
1.228826382475057289e+04
1.200024710196187880e+04
1.235431975084139413e+04
1.370898728777189717e+04
1.628682493102149238e+04
1.338221186633665093e+04
1.084343501840449244e+04
8.979710584275628207e+03
6.497180530661037665e+03
3.703163125052416490e+03
5.939877618391365104e+02
-1.767071336360583018e+03
-1.443868330678375742e+03
-2.984558617349427095e+03
-7.083353292390408569e+03
-8.647313481743471129e+03
-9.468452194378765853e+03
-1.096059659748702143e+04
-1.126968169951481286e+04
-1.102894447481481984e+04
-1.097782127042284446e+04
-1.185867210835869082e+04
-1.202902456942113531e+04
-1.135332412613865563e+04
-1.095781398288801574e+04
-1.131083937765166775e+04
-1.222179242592672381e+04
-1.359880614118822814e+04
-1.491113871413193010e+04
-1.719829214223123563e+04
-1.938032135985140849e+04
-2.101471709982480024e+04
-2.229278442774190262e+04
-2.391443158560539814e+04
-2.535535715100034213e+04
-2.703327728798331373e+04
-2.831213713000212010e+04
-2.876140242701395618e+04
-2.839905987332581935e+04
-2.772894109224204294e+04
-2.617240629079658538e+04
-2.435182897132649305e+04
-2.243700295729527352e+04
-2.117482515366188818e+04
-2.038908575178973842e+04
-1.953763152724614338e+04
-1.880735135161930521e+04
-1.868721402149053029e+04
-1.930521172800487693e+04
-2.054814349355422019e+04
-2.184487897118435285e+04
-2.303037070471844709e+04
-2.400852776692861880e+04
-2.500314321112937250e+04
-2.611303199652050534e+04
-2.672687761244165085e+04
-2.701854883112730386e+04
-2.692605468826364813e+04
-2.608413273301712616e+04
-2.528448419740268218e+04
-2.418273393280347227e+04
-2.218549010866908066e+04
-2.076344111359160524e+04
-1.869430430108908331e+04
-1.714165595711247806e+04
-1.681222133062249850e+04
-1.346235195696366281e+04
-1.164488114025130562e+04
-1.112961216209714985e+04
-1.163542267104379971e+04
-1.248301417757755371e+04
-1.322316070364138432e+04
-1.436161063502052457e+04
-1.517787610534117630e+04
-1.574171076507518046e+04
-1.618592207500375116e+04
-1.607501703204188925e+04
-1.516447014338015106e+04
-1.452356552991181707e+04
-1.322757306083800540e+04
-1.150470073340060117e+04
-9.498218252843960727e+03
-7.247352028430186692e+03
-4.631258627158861600e+03
-1.961116100111070182e+03
5.919538625229329227e+02
3.343901333921100104e+03
5.303634623211507460e+03
5.971066021250196172e+03
5.009158687587183522e+03
3.527832983476734171e+03
2.532051680451278116e+03
1.869861504647429911e+03
1.615234103714818048e+03
1.337149871328373592e+03
1.268586160089517080e+03
1.110552931673026478e+03
1.441186396610530210e+03
2.480571994260034444e+03
4.511742358830887497e+03
6.586934106143869030e+03
8.239441955906027943e+03
1.093847157252216493e+04
1.354831441551000898e+04
1.451517226207888052e+04
1.515625972853914573e+04
1.557888534729365165e+04
1.547336070900939012e+04
1.543089471703281379e+04
1.537061650809282764e+04
1.492272738228869093e+04
1.424550800248057385e+04
1.279823069884849792e+04
1.104617618278344889e+04
1.046251838472217787e+04
1.061865456387302402e+04
1.044201896125127132e+04
1.009194673983689790e+04
1.043686526147695076e+04
1.073514359639107897e+04
1.162731561721721118e+04
1.305692455458438235e+04
1.458947878573724302e+04
1.619248207991209529e+04
1.669339373027901092e+04
1.780378294169825313e+04
1.855009587600137093e+04
1.804975020660140945e+04
1.650421900825623015e+04
1.467801153144974705e+04
1.374390338437770333e+04
1.363008763737271147e+04
1.234740194102068926e+04
1.099159771131973139e+04
9.710189514201929342e+03
7.992922736931834152e+03
6.813980074817212881e+03
6.782761889304625583e+03
6.674724130195029829e+03
6.096337410390824516e+03
5.825960204087677994e+03
5.557091323360940805e+03
6.343761362175987415e+03
8.223895848695750828e+03
9.635345602434472312e+03
9.318129784129001564e+03
9.263024374623630138e+03
9.368556773875718136e+03
9.276003628893759014e+03
7.659694583456498549e+03
5.495740504041175882e+03
3.939776134192042718e+03
2.301948951196919552e+03
1.181653372965038642e+02
-1.873932919409156966e+03
-3.809933739380419411e+03
-4.912559634658307914e+03
-5.796974622184225154e+03
-6.265519806064180557e+03
-6.502844456303133484e+03
-6.197929378217170779e+03
-4.948914173606346594e+03
-4.008008865665706708e+03
-2.837536628160120472e+03
-6.014191445855153688e+02
4.697468378085766290e+02
1.563872863235181114e+02
-4.473760283290977782e+02
-1.170331276170864612e+03
-2.410136359806017936e+03
-4.172761554355112821e+03
-5.790140890161944299e+03
-7.497210953666302885e+03
-9.035720700116979060e+03
-1.047857966393426796e+04
-1.141479877244400268e+04
-1.196226130280203142e+04
-1.180581271623318935e+04
-1.158152666857249824e+04
-1.089128282350510017e+04
-1.034597672246404363e+04
-1.101852450809925904e+04
-1.228275596465346280e+04
-1.231945251496893979e+04
-1.069947730863898505e+04
-8.225914162634975582e+03
-6.840686957068058291e+03
-6.218721140419890617e+03
-5.788860796316364940e+03
-5.920104069264954887e+03
-6.516576038128746404e+03
-7.735398300702190681e+03
-8.913652212451866944e+03
-1.033529931553070128e+04
-1.169642486386359997e+04
-1.275328306991751015e+04
-1.168393504339442552e+04
-1.145245136890439062e+04
-1.384869161853730475e+04
-1.356461799568175775e+04
-1.214022068287151524e+04
-1.108047589162759323e+04
-8.758200126015173737e+03
-6.893223780027305111e+03
-5.001568367665632650e+03
-3.264324712624765198e+03
-1.550599145504790840e+03
-5.795070404424897106e+02
-6.300833175855406125e+02
-2.126463536390885565e+03
-3.617902797346452644e+03
-2.030676348329121311e+03
-3.606996448562575097e+03
-6.444911213277529896e+03
-5.333521977398452691e+03
-2.922955763146277604e+03
1.723745447616823867e+03
2.954505182676024106e+03
1.281239265474499234e+03
2.674928489613433158e+03
4.957575643142832632e+03
6.654186993665939553e+03
7.153802099825206824e+03
8.324442859721648347e+03
9.892147823918716313e+03
1.076201169547321842e+04
1.182712918383713077e+04
1.258653075121391885e+04
1.215315240342681136e+04
1.116687855927900637e+04
1.028668288296944411e+04
9.375537089088033099e+03
8.020390857715432503e+03
6.474183023569679790e+03
5.048877363861548474e+03
3.748521711737088935e+03
3.060200935618534459e+03
2.531905243858958329e+03
2.638543296237337927e+03
3.156198517132310826e+03
4.239885831882264029e+03
5.862690392317730584e+03
7.262739564343512029e+03
9.153041023407882676e+03
1.087168453433370814e+04
1.170682916303595630e+04
1.220163771595552862e+04
1.234036854450537976e+04
1.178090403177356711e+04
1.029013708280313040e+04
8.433994438844827528e+03
6.593430679284456346e+03
4.539472284435253641e+03
2.867304318640954534e+03
1.631977710008913846e+03
1.945335222049374408e+02
-5.959720159643585475e+02
-2.707530334897398461e+03
-2.311262872306491317e+03
-1.713148684076858672e+03
-5.042009762755467364e+02
1.557461286505626731e+03
3.294251217504217493e+03
4.556229656098073065e+03
5.528370743924770068e+03
6.423738062188586809e+03
6.363573862860925146e+03
5.974744695670693545e+03
5.585035790772686596e+03
4.877522022158038453e+03
3.144078522369518396e+03
8.004835367303936664e+02
-9.093389259338487136e+02
-2.471427761375526643e+03
-3.584905291556165594e+03
-4.760859088887072176e+03
-5.673256837179906142e+03
-5.672147798394446909e+03
-5.241438869951208289e+03
-4.601137139022807787e+03
-4.132287540231835010e+03
-3.373969478164315206e+03
-2.320150041438920653e+03
-8.907381140774618871e+02
9.882701346338635631e+02
2.402823171877956611e+03
2.638009846612945239e+03
2.182763996137811318e+03
2.281935080713632487e+03
1.456424569534622151e+03
5.417399635805713132e+01
-1.564914979468466754e+03
-3.471797860958618003e+03
-4.706636565302281269e+03
-6.188585885649195006e+03
-7.546851957724376916e+03
-9.073439445968435393e+03
-1.045347456889466957e+04
-1.037695374338908368e+04
-9.704839995440752318e+03
-9.071099833849699280e+03
-8.383685284436071015e+03
-6.570623335647615022e+03
-4.438001348653823698e+03
-3.088911737472784353e+03
-1.986414199732070074e+03
-5.275014059987669270e+02
2.087367047035048131e+02
-1.008073033127044340e+02
-3.322637617620667925e+02
-1.427815802956030211e+03
-2.797578368157685873e+03
-4.094672840640397681e+03
-5.921296683229386872e+03
-8.353618339194508735e+03
-1.109583316228328113e+04
-1.277302421813465116e+04
-1.382932944255020084e+04
-1.131694503020849152e+04
-7.680936798221468962e+03
-7.554413709664139787e+03
-9.155424469476824015e+03
-4.158940073242924882e+03
-8.583316705758926446e+02
1.870354450220635954e+03
3.612071263741088842e+03
5.170769786150366599e+03
7.004307427452873526e+03
7.172506791096117013e+03
6.126158841082578874e+03
4.550061293160431887e+03
3.055089958059996661e+03
1.735025930175955864e+03
1.595158134219239230e+02
-1.051669984953066432e+03
-1.666656307893583516e+03
-1.478611560516106010e+03
-1.284652594045815476e+03
-5.708901693472832903e+02
4.414888146116457506e+02
1.301233912739201742e+03
2.365240879759394829e+03
4.284453057738736788e+03
6.168735247724062901e+03
7.774013818041526974e+03
9.168237304346115707e+03
9.966367309645394926e+03
1.014930655349266272e+04
1.061081606271603596e+04
1.075868132169125965e+04
9.992671828170907247e+03
8.821539543743028844e+03
6.977027655004625558e+03
5.998957379250966369e+03
4.717109828756187198e+03
2.343261500715120292e+03
3.811408461698748056e+02
-4.703531027908883857e+02
2.967048159896182824e+02
2.068051096551686442e+03
3.054622150570177382e+03
3.709436826623984416e+03
5.191400363972034029e+03
7.781476849253759610e+03
1.083160211716910089e+04
1.243760751808566783e+04
1.315831148974330790e+04
1.357460751153730962e+04
1.308537141631932718e+04
1.136444865543639025e+04
8.970692165834570915e+03
6.733828825835189491e+03
4.628616600654555441e+03
2.166845708782389920e+03
1.554059788657440890e+02
-1.546786150504976149e+03
-2.272833011031542355e+03
-2.444839960563430850e+03
-1.978925109005996774e+03
-1.641184336628053188e+03
-1.394698897033332514e+03
-2.214418547530644616e+02
1.360485163573963519e+03
2.414057002757674127e+03
2.599236733574356549e+03
1.832098807892073182e+03
1.774597717738666688e+03
1.834510682246795795e+03
3.875613089607537404e+03
2.986824511650058412e+03
8.070102293693404363e+02
1.711027996855727906e+03
-1.182227468559972067e+03
-2.679921162365795681e+03
-3.264269060177979100e+03
-4.151365800414948353e+03
-5.118212153641122313e+03
-8.016840230756936762e+03
-5.121274745255768721e+03
-5.820596161196413959e+03
-4.168896990516637743e+03
-4.017203721781475451e+03
-2.939408166373465065e+03
-4.335289516354832813e+02
3.845368176797980141e+03
5.615282102186437442e+03
4.945289112540124734e+03
6.479372421221834884e+03
8.129450219523369924e+03
6.769404174931246416e+03
5.294149852201618160e+03
4.165602872001799369e+03
4.093702225454297150e+03
1.089320338682733791e+03
-3.115796140729482886e+02
-1.347073289591833827e+03
-3.779157559701879109e+03
-2.638831294677630012e+03
-4.449143668754051760e+03
-4.237009252185702280e+03
-4.541384386246170834e+03
-2.940318942355095714e+03
-1.097243944233448332e+02
1.036596689371071989e+03
1.570909014105310320e+01
1.814625549972485715e+03
