2.162798757111133455e+03
2.399819314323381150e+03
2.408751280833000237e+03
2.162507157016378187e+03
1.691106788472890912e+03
1.176634088335860952e+03
5.261261008126953129e+02
5.757204171885187804e+01
-3.260629909318780051e+02
-1.837922284645531192e+02
-4.365533123737977803e+02
-9.603061964839763505e+02
-1.654077888324003879e+03
-1.360805507893482172e+03
1.105600622882709416e+02
8.800735295183403650e+02
2.366234515780795675e+02
-7.617964294539788170e+02
-6.581619682916424381e+02
2.444421318801220480e+02
1.056017181925178420e+03
7.925528147339684892e+02
4.143668850215204884e+02
1.093605148194051935e+03
1.607396600024965437e+03
1.543161383037124324e+03
1.197151389502661004e+03
1.275769654855315139e+03
8.305356628088210300e+02
1.319667983973058654e+03
2.289283714567670359e+03
2.252774977053978091e+03
1.883796322502053499e+03
2.184476717015035319e+03
1.757847353016967418e+03
1.605830403470478586e+03
2.465344460719020390e+03
2.552397779031218761e+03
2.290925914325761369e+03
2.037799857636885918e+03
1.367982244754053681e+03
1.002538832028328670e+03
7.654257131138932664e+02
5.747434322047748765e+02
5.314119804868201982e+02
4.643876518326275118e+02
2.836297255377618285e+02
4.611993498667059157e+02
5.381199771439144115e+02
5.994420992112360409e+02
1.902334923057956644e+02
-8.774943656200067608e+02
-1.750853097581595875e+03
-1.806891694643344181e+03
-1.169573729102598236e+03
-8.658935846856516036e+02
-1.065850415054394716e+03
-4.163618294075927224e+02
5.216116701990895308e+02
1.160964264978961637e+03
1.007689942448775241e+03
5.438628140758224845e+02
6.144868855784726520e+02
7.525135370095601957e+02
8.138986481298883291e+02
5.356428507082283659e+02
-4.212273180419847449e+02
-6.406541591314157813e+02
-1.006674194126154021e+03
-1.161352697755458394e+03
-1.385669957578504409e+03
-1.383627746796481006e+03
-1.159182863221562457e+03
-5.593554149411373828e+02
-2.001795215463642705e+02
-1.396272545693289260e+02
-2.816475067021724499e+02
-6.472005909198878726e+02
-7.603009480905466262e+02
-9.790050683119291079e+02
-1.804292800506089861e+03
-2.308177118645173323e+03
-2.561690741499710839e+03
-2.885774011307016281e+03
-2.728490584578483322e+03
-2.712861742387980485e+03
-5.086864590601089731e+03
-7.178555949125217012e+03
-4.557922592299280950e+03
-6.599235893419609056e+02
8.324166119831069182e+02
5.120038090780343509e+02
3.618029493519570678e+02
9.989283532259298681e+01
-6.579044250764773096e+02
-1.052412917872458820e+03
-2.165532951625794794e+03
-1.910299147746480230e+03
-4.517583240701092109e+02
3.371299569181067568e+02
1.540206695144375090e+03
1.468907486859176061e+03
1.267045545010705609e+03
1.581618133203074194e+03
1.820240324088815214e+03
1.875070744995099858e+03
1.932711293672550255e+03
1.842668115618083448e+03
1.057266669050507289e+03
6.641870055122594749e+02
2.040557310547937675e+02
3.131952192378935820e+02
8.053503077394387901e+02
1.052856521311325650e+03
8.352619054980038982e+02
-2.173616094169610164e+02
-9.647607042552383518e+02
-5.181296475134729462e+02
-2.084501199358999486e+02
-7.139421252692394546e+02
-5.769462550505121357e+01
1.659993024374642800e+03
2.727684769830331334e+03
2.427907481090320744e+03
2.165558062245400379e+03
1.864396880259283762e+03
1.531225829809447532e+03
1.233513934837005991e+03
1.095609976202795679e+03
4.299789894703205846e+02
-1.099615667393695730e+03
-1.692189738656413510e+03
-1.056873237764855958e+03
-4.709738708680792456e+02
-5.830229154173475763e+02
-3.830663428938274819e+02
2.794380608184614516e+02
1.789054411835108567e+03
3.205217801406562103e+03
2.280672152580263173e+03
-1.450946217439070836e+02
-1.565049370932039210e+03
-1.542106383439368983e+03
5.565788913590885159e+02
1.946997814837124679e+03
2.431221284308186569e+03
2.309265717296293133e+03
2.109206295386304646e+03
1.770086923134118933e+03
9.707689474838141450e+02
9.362439706705170011e+02
1.232548094050202508e+03
8.476337777206219926e+02
4.854599035837521228e+02
4.400569522295173215e+02
5.614739362365698980e+02
6.177712120555735282e+02
-1.080627549818069042e+02
-3.600938531182648035e+02
-1.412393794901217007e+03
-5.312664986094123378e+03
-4.394871210353031529e+03
-2.752357844028012551e+03
-2.842928698771224845e+03
-1.163564820378966260e+03
9.595736989899139644e+02
2.494030538379119264e+02
-9.901966076644552572e+01
-2.625648651930100641e+03
-2.411569905326652588e+03
-2.922814733476704077e+03
-1.030336132658608676e+03
-2.103049099044475952e+03
-2.421864191259129257e+03
-2.930813674881253064e+03
-2.042933321452581140e+03
-2.246284108538679448e+03
-1.858758476670927621e+03
1.466698028362942523e+03
1.825044009582009949e+03
1.440329383330381916e+03
5.735550137456108359e+02
-3.442154404456363750e+02
-2.705936817534398870e+03
8.727834673675893384e+01
-2.621572340275325587e+03
-2.965524927772313731e+03
-9.166922406179504890e+01
9.249046475888956138e+02
-2.042769794493487325e+03
3.254123266167967472e+02
-7.764664364388438571e+02
-3.042417776909434906e+03
-6.193618484696414725e+02
1.466738827593285123e+03
1.181862552429228799e+03
1.052929663659223706e+03
1.005879911978824452e+03
7.637089994236808934e+02
2.913755125636429852e+02
1.225893381038549023e+03
1.699222464742185593e+03
1.042404575748815205e+03
6.044471696370109157e+02
1.150382222101109164e+03
1.478229120619390187e+03
1.496016766246121961e+03
1.046699466451409762e+03
1.500291039858822387e+03
1.717785806718594586e+03
1.469147836833559268e+03
1.020342688189130399e+03
-8.614100418253196167e+00
-7.977861119545530073e+02
-4.351902873883570919e+02
-5.642720055449461825e+01
-4.616834767057574140e+01
1.021980520016871765e+03
1.642739919172739519e+03
1.364613317881080548e+03
8.792998691147124646e+02
2.749287539251265002e+02
-6.551262994085043090e+01
-6.097833576220766645e+02
-5.415793479271347906e+02
7.372928622370212679e+02
9.297639855473194075e+02
3.144372810946847494e+02
4.942648011339046548e+02
1.314473566747069981e+03
1.952116473094352159e+03
2.485282598984768356e+03
1.986728606204986590e+03
1.306994720182963192e+03
6.744786798107796812e+02
4.595622536315152047e+02
4.640716307705739609e+02
5.579931885028524903e+02
1.008389350568579289e+03
1.772260030982098669e+03
1.716521950839958890e+03
1.098132955525101806e+03
9.508908838855526255e+02
7.176341247169084454e+02
5.956456346046632007e+02
4.687013027361909963e+02
-2.342198064714698376e+02
-1.145088158897907761e+03
-6.738806746719089915e+02
-4.607038054366411188e+02
-1.105663243395103308e+02
-9.540886994760826667e+01
1.637989006898689865e+02
3.421138275104452759e+02
7.104935573006329150e+02
1.130877447529868050e+03
7.493244448057465661e+02
9.018541530967722792e+02
1.130411365532127320e+03
3.530575207285261286e+02
-4.112203863843722047e+02
-1.134760229441462940e+02
6.772084995701491152e+02
1.200829770392136879e+03
1.281499237750333350e+03
8.432202308621776865e+02
3.899710260171102618e+02
8.682632556058845807e+01
-1.324271803808650816e+01
2.977145280605986954e+02
6.256918323489916247e+02
1.339616738244590579e+03
1.287472942539534188e+03
1.063445155485950409e+03
1.365509796272739777e+03
2.445747493378239881e+02
-2.372348587010675601e+03
-6.347275307418884950e+03
-7.205218127500413175e+03
-6.182083387669738840e+03
-2.667884270407116219e+03
-6.232594526111378400e+03
-6.973214460809052980e+03
-4.609749408360764392e+03
-7.497218909239526511e+03
-7.698622545071410059e+03
-6.690012870711373580e+03
-1.639460650259804197e+03
-3.722064749652895898e+03
-6.401657338130098651e+03
-6.589160371443392251e+03
-7.055642451714822528e+03
-6.438017877862891510e+03
-1.699382950468863555e+03
1.522273014969443238e+03
1.780977281281102705e+03
1.373762833207894801e+03
1.602671201055605934e+03
1.633678407961891935e+03
2.917819795786860141e+03
3.326126951237304183e+03
3.235564405691085085e+03
2.501134116726738284e+03
1.962825958020081998e+03
1.297614080683225893e+03
1.034490441900523138e+03
1.670511587635136038e+03
2.908745227539951884e+03
3.129232615035841263e+03
2.200964140813121048e+03
1.690887882609800727e+03
1.618974290524043226e+03
1.181322371096123334e+03
1.558955491258512438e+03
2.582727910439305106e+03
2.220586308476339582e+03
1.510572206512496450e+03
2.236817465023225395e+03
2.796501512384777470e+03
2.724601577109911432e+03
2.549017573797938439e+03
2.166713487081578023e+03
1.966672449586277708e+03
2.171954429134002112e+03
2.401473447559968918e+03
1.996263124408864314e+03
1.930381143133391106e+03
1.351810995963923460e+03
1.360500666114115575e+03
1.276435366382218263e+03
5.606049169256339155e+02
-4.299813528918692782e+02
-5.053512332154802493e+02
-3.945894352085362300e+01
1.777590089384491137e+02
6.330705665584891229e+00
2.072694047467809639e+02
6.226810525571466997e+02
9.955459205738078481e+02
1.490857536855455692e+03
1.914592822331011803e+03
1.990628117873766087e+03
2.011879857329796323e+03
1.977823121341181604e+03
1.897689285251044794e+03
1.937390438654654417e+03
1.761987533967080026e+03
1.062358658806893118e+03
1.534435674360599080e+02
2.401962366088367844e+02
-1.916538896123430959e+03
-2.855868211230488669e+03
-2.250990901730215683e+03
-6.459994898971441444e+02
-1.376483778853924989e+01
-1.681421279374967753e+03
-3.373901235336629725e+03
-1.462263152458318928e+03
-3.004201998013058983e+02
2.376537266673814770e+02
2.009667809997971233e+02
-4.845113807379975697e+02
-4.232936001676483102e+03
-6.931337914714650651e+03
-9.565572678134167290e+02
-1.778421081058434993e+03
-1.189475563328022361e+02
-1.312214966878948417e+02
-2.036346436432359269e+03
1.657606881233294871e+02
-2.401785073673960142e+03
-1.358949554054076771e+03
8.872092057216534613e+02
9.207076295056600657e+02
9.655593281027751118e+02
8.458193042437218310e+02
-2.062355217993187580e+03
3.679197909942297429e+02
-1.376338259989028927e+02
-4.519173274901841069e+03
-2.036702129501496074e+03
-1.342309953424702599e+03
7.928851254369830031e+02
-2.578098032558162231e+03
-3.461259542054829126e+03
-2.436039144527128713e+02
-1.767068681500495131e+03
-1.186568975264623759e+03
-2.031698847297365091e+02
-3.656971021001714689e+03
-2.501986324764479377e+03
-5.510105055902690765e+03
-1.945300777976941617e+03
-7.376562900412234285e+02
-2.042238470926009313e+03
2.678429248459818837e+02
-2.319257833596048840e+03
-1.430254467472511124e+03
4.147762296965632913e+02
6.676753542132971688e+02
-5.765791175689911796e+01
-2.542098449781277338e+02
-5.728460203817804768e+02
1.984216944588675631e+02
1.805538198977399588e+03
2.046329884447525274e+03
2.011717593413855184e+03
2.374649730682467180e+03
2.169116686370807201e+03
1.069161210765172655e+03
3.907358692528336519e+02
4.838437868172719618e+02
1.244520364865461715e+03
2.193773093797154161e+03
2.430565022184965073e+03
1.671773683589776283e+03
1.920498942481028735e+03
1.454347322136774892e+03
1.343856676199110780e+03
2.092886259745449024e+03
2.340448718835576983e+03
2.421768338989316362e+03
2.038407656986820029e+03
1.443680820803374445e+03
1.284520590510925103e+03
1.181834252787193236e+03
7.387245302214610092e+02
2.832916936623577726e+02
3.568151705602607393e+01
8.282325787505511983e+01
7.053252810541486895e+01
-1.881972473582362966e+02
-1.121516997555283524e+03
-1.663843470245682056e+03
-1.994909226519035428e+03
-2.815038423522782978e+03
-3.308427826622412795e+03
-3.046655463929218058e+03
-1.417982131820317136e+03
8.519969909375053021e+02
2.243110806440156011e+03
3.243358417900459244e+03
4.098575745714458208e+03
4.373717106484216856e+03
3.537520192680291075e+03
2.079295433053027864e+03
1.059388948222095678e+03
6.214857138702637940e+02
-6.240868759125816290e+00
2.084401063301950785e+02
1.413229469160297867e+03
2.819040206834189121e+03
3.182961584376042538e+03
2.976929889494140298e+03
3.153015675391145578e+03
3.515485123260897126e+03
4.096277877779890332e+03
4.592063061833599932e+03
4.479640533105207396e+03
3.962854768636248536e+03
3.412663687186299740e+03
3.097114594274541105e+03
3.319194901453470266e+03
3.144901150463836530e+03
3.193326664170445383e+03
3.174352127488542465e+03
2.905984291507352282e+03
2.526400005607367802e+03
1.522737535406334246e+03
-1.005920445028689755e+03
-5.041536663724633399e+03
-6.442192030521146080e+03
-6.203866142658021090e+03
-2.054300882231963897e+03
2.354542209703246954e+03
1.648718875245437630e+03
-4.134875859620903611e+03
-6.189399885088880183e+03
-5.134892096624636906e+03
-4.324322910947948913e+03
-5.145389149215023281e+03
-5.809920313933178477e+03
-3.999132161096228174e+03
-4.768168832231897795e+03
-6.160186523356030193e+03
-6.322332655763461844e+03
-5.435679590525032836e+03
-3.199249024922689387e+03
-3.353988808636509930e+03
-6.423630266127369396e+03
-7.089002540968393077e+03
-6.894004548826404971e+03
-6.958621030582401545e+03
-7.059021962181675008e+03
-6.178239590050115112e+03
-5.140238263317987730e+03
-4.589962786388889072e+03
-4.665221894976581098e+03
-3.937808328886656000e+03
-1.931549452439631523e+03
1.251673494457320658e+03
1.873685785946746137e+03
1.408567662792726651e+03
1.336605877224808864e+03
2.054802313748529741e+03
1.797794914672916093e+03
1.255412668882056096e+03
6.767011417786336551e+02
7.037575816782040192e+02
1.589596451737794268e+03
1.700189769804077287e+03
1.120517266197968638e+03
1.225817510926377054e+03
1.975317255785331554e+03
2.374146722981325183e+03
3.611291572474655823e+03
4.741712630175843515e+03
5.100445825510418217e+03
4.203403325047057479e+03
2.695552553671498117e+03
2.459974091788635178e+03
2.209583158494496274e+03
2.169598109247361663e+03
2.791373886536724058e+03
2.786860966373430529e+03
1.711788201383561955e+03
1.333325472298380873e+03
1.424889225884270672e+03
8.554501713240830441e+02
1.250859753003117248e+03
7.700512140355045858e+02
-7.627044761115905658e+01
6.784292248879191334e+01
1.858506015558845945e+02
-1.015172153446628727e+03
-1.444275838597998927e+03
-9.594822532332947276e+02
2.609076041198000340e+01
6.850258093968234334e+02
1.056191788177937951e+03
1.679330295153674797e+03
1.821855908621636445e+03
2.295662737311083674e+03
2.620745514619757614e+03
5.307205071352873347e+02
-2.008706577959905815e+02
7.081546117764446535e+02
-3.523579180585499415e+01
4.353478725077034710e+02
8.366835108786514184e+02
7.082586031543683021e+02
4.475939055572590064e+02
4.562129058075881289e+02
3.897489751103693152e+02
6.919021279877122765e+01
1.581621895787823178e+02
6.582181319612865309e+02
8.492884558905437871e+02
1.014439562965533355e+03
8.417620644730568529e+02
5.742825223691589827e+02
-4.790968837880900821e+01
-1.017871982089222911e+02
1.505930124078424228e+02
2.518047201780062494e+01
-4.289539164108422256e+02
-1.064724547818470455e+03
-1.523157143141753977e+03
-9.802518878078772104e+02
-5.749656112172741587e+02
-1.242360796455909622e+03
-2.422506081233610985e+03
-3.560295331607196658e+03
-4.052685455243123215e+03
-2.611797718543284645e+03
-6.236527459128861892e+02
5.017531032844960350e+02
1.293414706070643433e+03
1.573423646032018723e+03
1.784998461433094690e+03
1.392295062183630307e+03
1.056392928129657321e+03
1.575430683815204702e+03
1.813428789983804563e+03
1.527501996001053612e+03
1.172620843579523353e+03
1.059618751457546978e+03
8.573878558678178479e+02
-1.653574360850622327e+02
-1.140933660798371875e+03
-1.886498729839343696e+03
-2.305001916311473906e+03
-2.906341074195157489e+03
-3.056565741513468765e+03
-3.447721658748555456e+03
-3.945865812459867357e+03
-5.170002581408190963e+03
-8.138131348553530188e+03
-1.347424318206125281e+04
-1.662435896171018248e+04
-1.777757378233049531e+04
-1.517595929297934708e+04
-8.497466125035549339e+03
-3.596207336764724005e+03
-2.324092650031177953e+01
4.101335369316200740e+03
7.045366968944051223e+03
8.674950599399491693e+03
8.204892302160969848e+03
5.279401451324516529e+03
4.932321153500700348e+03
4.241495666337636976e+03
4.007875180151852874e+03
3.706837515118270403e+03
3.387092974664132271e+03
3.247415273383191561e+03
3.885823299755845255e+03
4.360320809159448800e+03
2.608904805156413204e+03
-2.418900309533286475e+01
-1.192039731504516567e+03
-1.017393718295444614e+03
-7.058475667690462387e+02
-1.671651898381285946e+03
-3.770736130989142112e+03
-4.659951069752813964e+03
-4.202683937457687534e+03
-3.540630426330798400e+03
-4.590091969505581801e+03
-5.527233471360546901e+03
-5.098919494853850665e+03
-3.638173860589598462e+03
-2.210429141762366783e+02
4.067694171337213447e+03
7.346559082883441079e+03
9.211709279992644952e+03
1.038843904900812595e+04
1.082013878064669552e+04
9.775961638179858710e+03
8.831701865963086675e+03
7.812751622041977498e+03
6.799906427890857231e+03
5.934757318024007873e+03
4.996638073683759103e+03
3.832399829937683990e+03
2.524909393289665786e+03
9.974410304007209334e+02
1.565910203978572497e+02
6.363522113191402241e+01
-3.829778430063090013e+02
-4.171653700445957611e+02
-1.527823077644421346e+03
-3.106271529265453410e+03
-2.956142800902106046e+03
-3.099709410853809004e+03
-3.953128002037293300e+03
-3.607300671961519129e+03
-3.007235888299213912e+03
-7.620553819057635110e+02
1.591275423014386433e+03
3.970558505161113771e+03
4.543699117509917414e+03
3.707857439777784748e+03
2.900012480522113947e+03
2.411988218223386411e+03
1.891765723223250461e+03
7.004346950897663646e+02
-2.331465579531380570e+02
-4.580247108967483882e+02
-4.271685779707409552e+02
-1.678643301317870055e+03
-4.477424240794469370e+03
-7.535402487858768836e+03
-6.344666965270585933e+03
-6.289470971960889074e+03
-6.822878424303500651e+03
-8.851702425370611309e+03
-5.663032691102624085e+03
-6.664008330017942171e+03
-6.145663721814978089e+03
-5.989967772406466793e+03
-9.886955051043634739e+03
-1.042859113572322894e+04
-1.031986109686132113e+04
-4.817858291140384608e+03
-1.733697420851160359e+03
4.905718834290441350e+02
3.248983957610986181e+03
6.599579816446441328e+03
3.972475982161960928e+03
5.534664600124757271e+03
7.031104836959296335e+03
3.498799402686613121e+03
4.542703880469233809e+03
1.542797237016132385e+03
3.533925667868440087e+03
1.673947130551887767e+03
5.482954507714154715e+03
1.932932494254331232e+03
-8.920929997938059159e+02
-4.180031291906073420e+03
-5.272807845429669214e+03
-6.339346610484472876e+03
-6.227643169624757320e+03
-7.219697455283287127e+03
-6.854483034496172877e+03
-5.286019453049991171e+03
-4.141334998839670334e+03
-3.707447138288836413e+03
-3.900272367267030404e+03
-2.976723187707732450e+03
1.970186082764398179e+03
7.250482559004726681e+03
1.105419668072863897e+04
1.287330721167471711e+04
1.174689282236079634e+04
9.856032888126879698e+03
9.331815891476970137e+03
8.409318686191441884e+03
6.889567456161407790e+03
5.698660475067383231e+03
3.404623748434546542e+03
2.924560679105369445e+02
-1.777776274255569660e+03
-2.885010307115413980e+03
-4.136104904321838148e+03
-5.369839017556459112e+03
-7.087105601791588924e+03
-9.091955098079895834e+03
-8.472333796771079506e+03
-5.944215048622961149e+03
-2.308464891976052058e+03
-3.240385273237936303e+02
-6.445351670931671606e+02
-2.167291289344217603e+03
-3.798972212257451247e+03
-2.064527624125668353e+03
3.105216111169389933e+03
8.024375385661958717e+03
1.106790075028412502e+04
1.152630334880117516e+04
1.057946143556996503e+04
8.927009306193252996e+03
6.190389000852868776e+03
3.136510629327110109e+03
1.595631334723987948e+03
1.351081012047161948e+03
1.995989583648672578e+03
3.023337969550603248e+03
1.666852564344299935e+03
-8.829057459665644956e+02
-3.641596088135324408e+03
-6.367944653524241403e+03
-8.454735585794664075e+03
-9.409801336738644750e+03
-8.234114209646017116e+03
-5.655729431549116271e+03
-5.354397703124534019e+03
-4.361074452763690715e+03
-1.427660896482515227e+02
4.396342261058303848e+03
6.003372469763752633e+03
4.902695126795048964e+03
3.900197185082011401e+03
3.199904286756518104e+03
2.305862713652881666e+03
1.630695919128388311e+02
-3.191346382926074057e+03
-4.443259817705336900e+03
-4.242627733628833994e+03
-2.077460888681448523e+03
8.629457884136516554e+01
5.046022664391991270e+02
7.905782931825305013e+02
4.472782994338818412e+02
-3.221283983382587621e+02
-8.233971802021496842e+02
-3.749518689072375309e+03
-5.600429731025044020e+03
-3.531126976882463623e+03
-2.113656160237905624e+03
-4.703932391201608880e+03
-5.662838732005253405e+03
-1.227384587505684067e+03
4.159403897924240482e+03
7.675596110917308579e+03
1.053919121994580200e+04
1.005036639671171906e+04
6.407248967338086004e+03
5.685771662509604539e+03
2.821909028159780064e+03
7.377631770253811965e+02
-5.666652019152627417e+02
-9.194457076263771569e+02
-1.387626250842304444e+03
-1.799244841777082684e+03
-2.785321787523934745e+03
-4.506856151150563164e+03
-6.134846778365139471e+03
-7.252297446829044929e+03
-9.259192723863508945e+03
-1.208936451907264745e+04
-1.496107976270821928e+04
-1.720820816682392251e+04
-1.523243997435391248e+04
-1.509198466294384707e+04
-1.734695583889838963e+04
-1.353138151431140068e+04
-4.077254514330477377e+03
1.714479378044149144e+03
9.556747419288098172e+03
1.387961387798799842e+04
1.441801437043883743e+04
1.322484303613973862e+04
1.201311538700162419e+04
1.079781655971506552e+04
9.535975609869947220e+03
8.791574051965302715e+03
8.467600552373398386e+03
8.225932170716332621e+03
8.082501602899257705e+03
7.941340955514270718e+03
7.551450460711882442e+03
6.898824532892557727e+03
6.450440742834357479e+03
6.009182629218919828e+03
5.455013341551300073e+03
4.698946072793930398e+03
3.819995238984900425e+03
2.789129394336378482e+03
1.357262713136372440e+03
-7.588028349232596383e+02
-4.070173211318505764e+03
-8.583888341467247301e+03
-1.341399891941391252e+04
-1.634350579291025133e+04
-1.737444522022833189e+04
-1.742078683150413053e+04
-1.613353575626554266e+04
-1.374183293060478900e+04
-9.470728791318066214e+03
-3.541202018083084567e+03
1.883666788523089281e+03
6.858760541779383857e+03
8.951033600705655772e+03
8.336542910097397908e+03
6.349264126479934021e+03
4.799150641866694968e+03
4.328151981246301148e+03
3.905287052446960843e+03
3.522424824363955850e+03
2.766508892799020487e+03
2.515528646243228650e+03
2.793541160896887050e+03
3.519659912284838356e+03
4.687129483684298066e+03
5.336831704213155717e+03
5.674583756220475152e+03
7.622031724302553812e+03
8.888651821655965250e+03
9.640564558958529233e+03
9.406711608097482895e+03
8.568844537025077443e+03
6.752950500658575947e+03
3.193071287616054178e+03
4.132410092303415695e+03
5.284117286301171589e+03
4.466951193625984160e+03
6.209407640878234815e+02
1.428029827137603661e+03
3.161225332951379187e+03
2.469491473491525085e+03
2.179768787817818975e+03
2.064007265805221323e+03
1.809201897350899117e+03
1.577530420437364000e+03
1.173100628713657443e+03
9.358116440119604249e+02
3.905988716306421793e+02
-2.226050168699410108e+02
-8.357024853352232867e+02
-1.082591457312988950e+03
-1.543312835305383032e+03
-2.371971850205971350e+03
-3.173651729534848982e+03
-3.967189098166443273e+03
-4.408551923191794231e+03
-4.530852933937731905e+03
-4.799187237979593192e+03
-4.769759082470324756e+03
-4.948681369202985479e+03
-5.155947448736486876e+03
-5.491516245162370979e+03
-6.543368821431201468e+03
-6.437467537628783248e+03
-6.486641325567816239e+03
-6.512799572040703424e+03
-6.586940754853013459e+03
-6.891127674241038221e+03
-6.794324418567228349e+03
-5.842446723513120560e+03
-5.122444164815775366e+03
-4.860222496422285076e+03
-4.781668495772401002e+03
-4.914814701356644036e+03
-4.845686402744676343e+03
-4.785197651207821764e+03
-5.358326932955958910e+03
-5.838046398362327636e+03
-6.017360917515539768e+03
-5.867402542004225324e+03
-5.813149303443241479e+03
-5.166512304446484450e+03
-5.019397071027531638e+03
-5.542852706372572356e+03
-5.326057453923766843e+03
-6.060067818972273017e+03
-6.527982828903489462e+03
-5.515701359342850992e+03
-4.262062623702186102e+03
-4.205016980771253657e+03
-4.536559324016552637e+03
-4.379666927070159545e+03
-5.581247677722194567e+03
-6.581290171863784053e+03
-6.088829675488952489e+03
-5.518877088692645884e+03
-4.654337919513890483e+03
-2.754203775479437809e+03
-1.242003617392608703e+02
-9.224310386279656768e+02
-2.227977002959625679e+03
2.633841920033597148e+02
2.084637642001291169e+03
2.573543455450656893e+03
2.419214151955819034e+03
2.564744934578124685e+03
2.889864083021906026e+03
4.092916149660946758e+03
5.638675544221214295e+03
6.340875815852519736e+03
5.893265140688779866e+03
5.061167299104534322e+03
4.568639174498100147e+03
4.326251418358576302e+03
4.872144636479004475e+03
5.773522797147035817e+03
6.520353808587147796e+03
6.845334028812153520e+03
6.819625684518368871e+03
7.319254452910301552e+03
7.538528920107984959e+03
6.995943541511713192e+03
7.105953339929112190e+03
6.790259783336927285e+03
6.692087203057410989e+03
7.189659414156804814e+03
7.326745664701551505e+03
7.293177572039365259e+03
7.149968001138278851e+03
7.098998010810521919e+03
6.704280550543509889e+03
6.441098857784782922e+03
6.636918834865628924e+03
6.827916564084119273e+03
6.911342142222265466e+03
7.180063228453510419e+03
7.222696026130347491e+03
7.415833541164122835e+03
7.923342472392102536e+03
7.716197961527870575e+03
7.316511291975646600e+03
6.726417202484490190e+03
6.355928570637916891e+03
6.413956931263323895e+03
6.723595508103734574e+03
7.351940269414068098e+03
7.991982301645249208e+03
7.912753417416354750e+03
7.613287055807593788e+03
7.056530444088712102e+03
6.595351643070226601e+03
6.060519484794603159e+03
3.291046570697015341e+03
2.050807396390474935e+02
-2.275320000757382786e+03
-9.403807101474664023e+02
3.354730168916663843e+03
3.236814707838236700e+03
1.117943382321873969e+03
-4.594738577355396046e+03
-4.750191902462714097e+03
-5.321535538037784136e+03
-6.512924052802822189e+03
-7.539799465315930320e+03
-7.749502339189502891e+03
-4.436920974193638358e+03
-4.124860314845391258e+03
-9.112255491723250088e+03
-8.932106829155069136e+03
-9.197503047797759791e+03
-9.386487625243949878e+03
-9.810076811605433249e+03
-7.431221028567334542e+03
-4.859005183304499042e+03
-6.988556614030329001e+03
-2.668811966137728177e+03
-6.681666183606203049e+03
-8.535012892218363049e+03
-9.241783682241519273e+03
-9.501025234705397452e+03
-9.571836908238859905e+03
-9.758429259691467450e+03
-5.326966594660800183e+03
-2.405285136802555371e+03
-1.039509654630796604e+03
-2.731987240519911666e+03
-3.223819407021093411e+03
-5.168582588452769642e+02
-1.719203919803361202e+02
-5.920162029930944527e+02
-8.611408138909395120e+02
-1.134217631867457385e+03
-1.323126066776728067e+03
-1.561699691483591550e+03
-1.483066906733172345e+03
-1.613312304797729439e+03
-2.146623355046032430e+03
-3.088059580220335192e+03
-3.272461615850143517e+03
-4.255841122757396988e+03
-5.450118370856020192e+03
-5.321197568118066556e+03
-4.646050503004442362e+03
-3.715491884998773912e+03
-3.013505755121676430e+03
-2.651332724912837421e+03
-2.246940531054729945e+03
-2.049994138802985617e+03
-1.979527026964505694e+03
-2.372960679888932646e+03
-3.260444111815135329e+03
-3.885872997351001231e+03
-3.612241521488439957e+03
-2.466358088500266604e+03
-1.361929019229546611e+03
-6.751102928390448596e+02
-2.972492408498748659e+02
5.446637183197383365e+02
1.413641382383655355e+03
2.415717814394225115e+03
2.843013483324011759e+03
2.763557770473870278e+03
2.982421875886565886e+03
2.741712460116295915e+03
2.768566421433690266e+03
2.931082435666856327e+03
2.562348176472958585e+03
-7.244786728388008896e+02
-1.132084624701391022e+03
1.104659510577560241e+03
2.376955209082190777e+03
2.546015400519719151e+03
1.951352924864921079e+03
1.262819186393986683e+03
1.656397079929638721e+03
1.242703446196253935e+03
1.576367057817213890e+03
1.797411697685286072e+03
1.411012343991915031e+03
1.237439374482068843e+03
1.187809254792566890e+03
1.559138321143611620e+03
2.016598219015137374e+03
2.353286179297286253e+03
2.002274049264106907e+03
1.429594392576965447e+03
1.257265001913797732e+03
1.102363394675392556e+03
9.970456973272389405e+02
1.142401014313996484e+03
1.371402929749648365e+03
1.724065440749696563e+03
1.733488387096090719e+03
1.736802471908531288e+03
1.643093615681493702e+03
1.437409841990420546e+03
1.312943015172043715e+03
1.439809960439034285e+03
1.195172166843633022e+03
7.292461544445658319e+02
3.762724281341222081e+02
6.736395768333761680e+01
8.434134572821520237e+01
6.851015542226375601e+02
1.101605011804721471e+03
1.399807851654415799e+03
2.206535557851916110e+03
2.606560237978177611e+03
2.323753441332064085e+03
1.847944705932088937e+03
1.656297681363456604e+03
1.515079597629370028e+03
1.365498513576377491e+03
1.344615858312980663e+03
1.953394748660928826e+03
1.933848307703467526e+03
1.430039344971871742e+03
1.066047390293055969e+03
1.040858311395717919e+03
7.454867725685179494e+02
7.098432135446564644e+02
8.858371917014663950e+02
8.184823383105085668e+02
7.978296411302301294e+02
-1.502305180174096506e+02
7.804011858550990155e+02
1.502668121322102024e+03
1.137682163866768860e+03
7.004413812667435195e+02
3.952307063250415240e+02
1.194204239734421890e+03
1.532843437716536073e+03
1.278289987403047235e+03
1.218699155400759992e+03
1.074331822900907127e+03
1.188791797660358270e+03
1.031003100662427414e+03
4.002401654168918981e+02
1.014363883312511945e+02
-1.184221034841536948e+02
-2.923443929966853148e+02
-3.782928727053815692e+02
-6.523189925095150556e+02
-3.585479371617589663e+02
-5.480023378939615668e+02
-7.496881904618330736e+02
-1.115657361225907380e+03
-1.111072532176215645e+03
-1.040989973452585900e+03
-1.660373984871821904e+03
-1.987260138503690769e+03
-2.035683482229806032e+03
-2.209730728961360910e+03
-2.326412681004275782e+03
-2.497759273850173486e+03
-2.251830935683831740e+03
-1.928670269986037965e+03
-1.873359659578716673e+03
-2.015886332955078160e+03
-2.452228501911808053e+03
-2.498569906556058413e+03
-1.631901015347043767e+03
-1.094236829989921262e+03
-1.859725006241039637e+03
-2.685414553339326176e+03
-3.127400943177125555e+03
-3.799814633602952654e+03
-4.088689641980752640e+03
-3.739072225228384013e+03
-3.593998483509782091e+03
-3.316504512387602063e+03
-2.425672506489018815e+03
-7.915475459877026196e+02
9.989100224577109088e+01
1.654097498132495758e+01
-4.927017026470326755e+02
-1.389915834592937699e+03
-2.439138619102340726e+03
-1.329480553398134134e+03
-3.920133208148270683e+02
3.023078266008614605e+02
9.714511274440102397e+02
8.903690657621900755e+02
3.990344170308304683e+02
2.182983248601532011e+02
2.481033307544238369e+02
2.933365747901426630e+02
2.689629622348762723e+02
3.510088442153094661e+02
4.005088612597824635e+02
3.993881853737362349e+02
3.304918415366924478e+02
-1.822788338967054642e+02
-3.272048970012772315e+03
-4.558843023229301252e+03
-3.262800692429794708e+03
-3.979884838023938300e+03
-2.440046935179876982e+03
-2.806572736506051115e+03
-6.634366213682110356e+02
-6.905926027068444455e+02
2.390919393095286068e+03
2.130018718154170983e+03
1.740673005167232532e+03
1.200728690878339421e+03
-2.629850090510390601e+03
-4.163018150071572563e+03
-2.742748271746014780e+03
-1.290381493504552850e+02
