-8.252916971699345368e+02
-1.894544987915548120e+02
-1.134221477665021496e+02
-2.525845225010966644e+01
2.201188852465860180e+01
3.433973977202140304e+01
-3.912631056885178964e+02
-6.968949537147115052e+02
-1.095544370033807581e+03
-1.617235488106376806e+03
-1.971091354486276941e+03
-2.650153362269610170e+03
-3.242452797586043744e+03
-3.433047430633805106e+03
-3.687966727235891540e+03
-3.379197686306900778e+03
-2.604675738917621402e+03
-1.814363712212541031e+03
-8.353882123380326448e+02
-1.117980361800947691e+02
4.465698438008507196e+02
9.057204284211463801e+02
1.418656954142628138e+03
1.762330235992240887e+03
1.649695386629302675e+03
1.423793580678486705e+03
1.649665253166923094e+03
1.717306733168264600e+03
1.142730571095466303e+03
-1.690954272813597470e+02
-4.151864513867478195e+02
-8.045175539255733383e+02
-1.702110913134279144e+03
-2.189056726570138380e+03
-2.102418415735437065e+03
-1.951098258817275791e+03
-1.710993905916372114e+03
-2.185040137831296761e+03
-1.149270115706079650e+03
8.139333826297495023e+01
7.349669773833446698e+02
1.514503914624526487e+03
2.628227158078230332e+03
3.029125921311560887e+03
2.934165152093606139e+03
3.022228756997532855e+03
1.715290633020413452e+03
4.966479648298621896e+01
2.040349028440123675e+03
1.650252166621418610e+03
7.693881622037289389e+02
1.608245561141324060e+02
-1.239066899508521146e+03
-2.288382579738012282e+03
-2.016226397934908164e+03
-1.806748273589343626e+03
-1.552068963079622563e+03
-6.328013645171678263e+02
5.582619465868089037e+01
1.016471683804373015e+03
2.065563287389237757e+03
2.564521976382702178e+03
3.517466662251374146e+03
4.114370678466342724e+03
3.838860670008730267e+03
3.736114453489249172e+03
4.198288490191086566e+03
3.802489481759747832e+03
2.787709257635991435e+03
1.922964755388779622e+03
1.370290511038458817e+03
2.437197587006823767e+02
-8.905284679967920738e+02
-1.467468544872025859e+03
-1.393288398755923708e+03
-1.155828125813309271e+03
-9.649446835938657614e+02
-1.283278703850509430e+02
9.417513409302267746e+02
1.685255483934289714e+03
2.547203122914321284e+03
3.183115295094656631e+03
3.808519870828137755e+03
4.419670484831309295e+03
4.732670257346913786e+03
4.836500434109260823e+03
4.604241184596610765e+03
4.112080280015587050e+03
3.301193714098507826e+03
2.601051522299008866e+03
1.710914860044734496e+03
3.578516859759365047e+02
-7.561027548846850550e+02
-1.435917739373883705e+03
-1.948547502267149412e+03
-1.613986797854475753e+03
-3.248224195172450663e+02
3.594876984619247651e+02
6.121537949303015012e+02
2.198502681964340354e+03
2.703266868686742782e+03
3.415728264665077859e+03
3.959918475651214067e+03
4.134773546063812319e+03
3.930339846398790996e+03
3.985673420443241866e+03
3.516793864688987924e+03
3.134828744385513346e+03
2.404773380001911846e+03
3.366544845527465100e+02
-1.833548913935110932e+03
-2.734719149014319100e+03
-2.282845100159599042e+03
-2.466008066101109762e+03
-4.868049225153946281e+03
-1.125222104607057372e+04
-1.270328247955188090e+04
-1.092505172227276853e+04
-5.337617992716251138e+03
1.777068462627030385e+03
1.843077473061598539e+03
-4.338489014095998755e+03
-7.860663979570292213e+03
-7.588427438835507928e+03
-7.141689378710373603e+03
-7.063370264570700783e+03
-7.284482513541952358e+03
-3.217952015668389777e+03
2.144259664696246091e+03
1.939109630722416568e+03
9.115525279463605557e+02
4.261553224207175106e+01
-3.796333356709933469e+02
-5.902715410346215776e+02
-3.582351311989070837e+03
-1.137482740347144681e+04
-1.012856063017682754e+04
-1.609470619668879863e+03
-2.972527913807024561e+03
-7.576751283513294766e+03
-1.796073546981060872e+03
2.715558688113115977e+02
3.796154566941245776e+03
4.569760434132538649e+03
4.665361004049994335e+03
4.443991185598712946e+03
3.690620496320761049e+03
3.307288132059786221e+03
2.564031300256655413e+03
1.782841488156921287e+03
1.050689142341582738e+03
-2.134997615326578000e+02
-1.262707913135222952e+03
-1.222933414797662408e+03
-1.448194536318197606e+03
-1.221487226761695865e+03
-6.658176871283972105e+02
1.668208749271951490e+02
1.066562876267977117e+03
2.131431438921087647e+03
2.558466954246480327e+03
2.779658334530053708e+03
3.516894464548935048e+03
3.682143331769373617e+03
3.626491245282875298e+03
3.579323479856631820e+03
3.154635038447129773e+03
2.352457663771965144e+03
1.707808992239743930e+03
6.326274328632190418e+02
-6.088671963599724677e+02
-1.478589403510079137e+03
-1.912197178279666787e+03
-1.990623722030413091e+03
-2.504471411211852683e+03
-5.272855713853449743e+03
-8.541868211437245918e+03
-4.410572250326299582e+03
-6.179459920975883733e+02
1.235985884414234988e+03
1.879835026675646532e+03
2.219706610593228561e+03
3.616066013109851156e+03
3.645995409745987672e+03
3.585970887842543561e+03
3.512807088578774255e+03
3.409334079309908702e+03
2.742200765709924326e+03
2.121842031162069361e+03
1.219659066254624349e+03
2.543665921136325778e+02
-6.755587213197798064e+02
-1.138232025850212949e+03
-1.439729665676254626e+03
-1.574365984443445541e+03
-1.149117009762698899e+03
-6.993959138180103992e+02
1.428751547445324093e+02
1.022725386711436840e+03
1.655251373739372866e+03
2.024561409670480543e+03
2.653647507108729314e+03
3.355516217217879330e+03
3.324183645145614719e+03
3.337332641355767009e+03
2.935477332605947595e+03
2.859494051664149993e+03
2.474120866691484025e+03
1.887334325725484632e+03
1.434133307568123882e+03
2.594775455213926989e+02
-4.957181433352311046e+02
-1.291509163259515390e+03
-1.802980437769790569e+03
-1.676182027915471963e+03
-1.573128103914572648e+03
-1.081807500042697029e+03
-2.622695006290761626e+02
5.635974743109329665e+02
1.284903382943983843e+03
1.608546608353596866e+03
2.221495939528954295e+03
2.572780209850472147e+03
2.943340573264967134e+03
2.905164403695659985e+03
2.941252634909143126e+03
2.227623757125332304e+03
1.395266927370904568e+03
1.115136065271489997e+03
7.781695580019444378e+02
-8.569188155943226093e+01
-1.015477664713346257e+03
-1.534186373792514814e+03
-2.211864436863612809e+03
-3.687522800049372108e+03
-6.775182399431399972e+03
-1.075683927324838805e+04
-1.153450978289127124e+04
-1.078727921056966807e+04
-7.543867123837497275e+03
2.566543785578109578e+02
-4.351629889840676697e+03
-7.502893683121136746e+03
1.948635858539214496e+02
1.766686077536382754e+03
2.780404714489261551e+03
2.687938204499926997e+03
2.317314149846915825e+03
1.892588298287180351e+03
1.138749400979676693e+03
3.407570544256977314e+02
-3.504216112353204835e+02
-9.868140845066174052e+02
-1.408467098903960277e+03
-1.924427282111475506e+03
-2.166745903673679550e+03
-1.372544301798711558e+03
-3.778071912045546696e+02
4.726079087851765621e+02
1.092813373596057772e+03
1.767719507955732752e+03
2.258357356337615784e+03
2.904691423875714918e+03
2.856624048436302019e+03
3.227129713246932170e+03
3.494293996593373777e+03
3.099091636574813492e+03
2.307497353399627173e+03
1.918603350364615380e+03
1.119404538723864562e+03
-4.519893754330244207e+01
-1.195280559170620108e+03
-1.947883479714874284e+03
-2.371067563339397111e+03
-2.426822285200986698e+03
-2.280016087093910755e+03
-1.669575067207651500e+03
-7.605870294474466391e+02
4.519638424350732748e+02
1.201088787410837085e+03
1.684850305332516200e+03
2.332386937211753775e+03
2.838725935053886133e+03
3.289865621979862226e+03
3.059764031951116522e+03
2.874407871812770281e+03
2.521776932501470583e+03
1.751760261926780231e+03
1.267385552793692341e+03
5.936893012090071124e+02
-2.503020175555553521e+02
-1.305613985644865579e+03
-1.873199130991399898e+03
-2.203013583518413725e+03
-2.252928895147097137e+03
-2.004102078716866572e+03
-1.955722672265442498e+03
-1.987669604642982449e+03
-3.728244760433340161e+02
6.838488925561811129e+02
1.272397156574561450e+03
6.656572023123191002e+02
-5.773222976310290733e+02
1.088671151769585322e+03
1.964736085084013666e+03
1.803723077210886231e+03
1.936735756882024589e+03
1.421849487797184793e+03
1.369154499488027113e+03
8.618482324492985072e+02
-2.469572866281936570e+02
-1.159463027437558139e+03
-1.903780243565714727e+03
-2.898933877518437384e+03
-2.667177446417916599e+03
-2.051738210197018361e+03
-1.742707990609889293e+03
-9.831260501693977858e+02
4.316484755285987518e+01
8.513521964858158526e+02
1.062666523614005655e+03
1.675129134004581829e+03
2.080795665886411825e+03
2.607696352326307078e+03
2.834734117891850474e+03
2.685589873453419386e+03
2.138274556109910009e+03
1.421050705089461417e+03
9.519716054631360294e+02
4.520430750238984956e+02
-4.235090596118238295e+02
-1.184759510044857734e+03
-1.640917394726664270e+03
-1.886896618653764790e+03
-2.080526465071135135e+03
-2.023891985852415928e+03
-1.758195840208328946e+03
-1.587553816526453602e+03
-6.110001143926953091e+02
4.923446351509733745e+02
1.273342697511128335e+03
1.647030008689416945e+03
2.383747133659194787e+03
2.653669388165287273e+03
2.580217012501170757e+03
2.594031018969780234e+03
2.359217868970392374e+03
1.944972100247674916e+03
1.361446115876871318e+03
8.735780929254530065e+02
3.772107097826703921e+02
-7.164534734094374926e+02
-1.720215398788840048e+03
-2.382963123146915223e+03
-2.527719907873682132e+03
-2.734816692096215775e+03
-2.748517995264689034e+03
-1.393720236317610670e+03
-4.204974302680132041e+02
5.500786448353851483e+02
1.285619254279916277e+03
2.036026138629358002e+03
2.227934990548556470e+03
2.800321969280380472e+03
2.910042470614354897e+03
2.951822307406554955e+03
1.964561921752315584e+03
1.868933693189580936e+03
2.129531783679367891e+03
1.345210752932465994e+03
5.453820447320555331e+02
-6.847811602813313812e+02
-1.530058238590508608e+03
-1.756582964033809731e+03
-1.574294369651537863e+03
-1.455603429601904736e+03
-1.374762957191183887e+03
-5.795563349729131915e+02
4.642007891637771877e+02
1.228209588479631293e+03
1.894338278730160255e+03
2.839662745799518689e+03
2.976762893502377665e+03
3.133064069300567098e+03
3.316191491954034518e+03
3.229390360663557658e+03
3.281155134540606923e+03
2.632513482678645232e+03
2.192813660750225154e+03
1.715562000351488450e+03
1.122285279892154676e+03
2.794764379071420990e+02
-6.570519511054210398e+02
-1.198213950117488139e+03
-1.272765502772076161e+03
-1.410784989087980648e+03
-1.295784823216567020e+03
-4.505608213213447470e+02
3.240539623855036666e+02
1.342713714964738301e+03
2.245797227814401595e+03
2.903325845201025004e+03
3.051989533036262856e+03
3.557982923987646700e+03
3.935900380030458109e+03
4.130796368188485758e+03
3.881311151814280038e+03
3.177380508589596047e+03
2.527961321281421078e+03
1.902080308093445637e+03
1.120648070525166759e+03
2.107630526019777903e+02
-8.215693076185108339e+02
-1.939410128606916032e+03
-2.034238910153556617e+03
-1.942855197185141833e+03
-1.952836110903665258e+03
-2.160084882467938314e+03
-4.136392329935762973e+03
-7.647797066197637832e+03
-1.093412946932301929e+04
-9.981624829881531696e+03
-9.090804762659387052e+03
-8.156654857769300179e+03
-8.194905952856786826e+03
-7.271331026188231590e+03
-4.281699729228278557e+03
2.841032912180206949e+03
3.022804169124962300e+03
1.688442776804834011e+03
4.121483851859720176e+02
-6.400641208051238209e+02
-9.421027925648459131e+02
-8.008104232887075113e+02
-9.188241813442252806e+02
-5.492697631082587577e+02
-5.181946252144180107e+03
-9.821706490761078385e+03
-9.259232686156539785e+03
-7.514496452885747203e+03
-6.748605451119765348e+03
-6.452509733237313412e+03
-5.193225683400774869e+03
-9.107635031612670673e+02
-3.229858468309643627e+02
3.032202946571539997e+03
2.822928383818985822e+03
-4.736573136147371770e+03
-7.073542995383120342e+02
3.902324515348379464e+03
2.971441256862759928e+03
1.371909636150849565e+03
-3.862290792952260858e+02
-1.554588054154404517e+03
-3.667335100700967359e+03
-4.654549538324574314e+03
-3.975205124383524435e+03
-3.420387160259655047e+03
-2.169208110664558717e+03
-9.116562595474051705e+02
-3.340498987905692047e+03
7.994191883398015079e+02
3.810126211863170738e+03
4.622511896777245965e+03
5.343562114515664689e+03
5.847431444152104632e+03
6.001057999256381663e+03
5.560604979580668441e+03
4.891119220358043094e+03
3.913613515342697610e+03
2.982037308359705548e+03
2.094196853440514587e+03
1.123987175560264632e+03
-2.385690727486695550e+02
-9.454432139579216710e+02
-2.706107333698882940e+02
6.048925952364318164e+02
1.627043976052776543e+03
3.153696640572743490e+03
3.824938529843405831e+03
4.092900402124193533e+03
4.494578504506202080e+03
5.072000041719964429e+03
5.526204794549793405e+03
5.713253404419790058e+03
4.968987334416007798e+03
3.643271201806497174e+03
2.683200491928913834e+03
1.408874694811613153e+03
3.571486826447016938e+02
1.999955444334884760e+02
-2.224136106802733366e+02
-9.048719371162628704e+02
-1.534447446502744924e+03
-5.025399867188805729e+03
-6.547855024350889835e+03
-2.912061144641915234e+03
-3.725013793508288700e+02
3.597734051331991623e+02
2.135702505668768026e+03
4.262100679757495527e+03
4.772394291807197078e+03
3.978964850763286449e+03
3.149743481444448662e+03
2.809613769394033625e+03
2.782601441924915889e+03
2.729735453188051451e+03
2.885914138876802554e+03
2.758011395343120057e+03
2.439958201367695892e+03
2.323622576588058109e+03
2.006936095846508351e+03
5.447955206938405581e+02
-1.244930743050809724e+03
-1.156297414052792874e+03
2.067005761835302167e+02
8.110844421016853403e+02
2.146857885347423689e+03
3.445975727918552366e+03
3.238341229204742376e+03
2.720818336782214828e+03
3.194301301443954344e+03
3.245844912394145922e+03
3.083486728671123274e+03
3.785191639245583247e+03
4.610940324608275660e+03
4.631643334263605539e+03
3.499335676863116078e+03
2.095013714296551825e+03
1.075749457919041987e+02
-2.074096572807044595e+03
-2.516082654781525889e+03
-2.085412136361247121e+03
-2.887151197583966223e+03
-3.743345947361357503e+03
-4.588101427774668991e+03
-4.950463325092520790e+03
-3.993465701546962464e+03
-2.655192619233300775e+03
-5.386849275991440891e+02
1.347089160198853961e+03
2.686134547469649988e+03
2.898424488233872580e+03
2.428051225669985797e+03
1.863964279275939589e+03
7.810764983030949224e+02
-8.962330964150029899e+01
-1.125151285182014362e+03
-1.793483247746373991e+03
-1.994677504440543771e+03
-1.357760853915837970e+03
-1.171763929738812521e+03
-3.321817475104884124e+03
-4.888870405421149371e+03
-5.012899312285115229e+03
-4.172055523547923258e+03
-3.183367674130920477e+03
-5.044831195887287322e+03
-6.762307194435077690e+03
-7.877767957834875233e+03
-8.968478786524108727e+03
-8.567043892257634070e+03
-9.234533101583445386e+03
-9.974367902418836820e+03
-9.734309809440439494e+03
-7.914893652932540135e+03
-4.018337879237686138e+03
-6.324592240511473165e+02
2.048269370877462279e+03
5.239274563860408307e+03
6.555323244386720944e+03
4.856612123757121481e+03
1.801991934863064216e+03
-2.427356480568174447e+03
-6.119250733269851480e+03
-7.547030226112221499e+03
-6.311781078850258382e+03
-5.474481797721605290e+03
-3.531102068753578351e+03
6.947919387201802977e+01
2.293309684818558253e+03
-4.955592117644307564e+02
-4.121092715482108360e+03
-4.861189547791260338e+03
-5.993731398580624045e+03
-7.768980089618977217e+03
-6.375636311924915390e+03
-4.985316443542629713e+03
-6.008942070767774567e+03
-6.025078959472421957e+03
-2.570190271612043489e+03
1.311290374714935069e+03
3.378812728170064929e+03
4.869312467610304338e+03
6.416734948800830352e+03
6.983093658174841039e+03
6.012454255093763095e+03
5.230790218470157924e+03
9.239094677448603761e+03
1.685545017259059387e+04
1.803999764569443505e+04
1.396579420339811986e+04
1.037375950305350307e+04
8.337462957370076765e+03
7.285105416614726892e+03
5.117480464028630195e+03
3.986428878451744708e+02
-2.554420199621769370e+03
-2.331609730755745659e+03
1.146235260891988673e+03
5.145142564053037859e+03
5.329077887173789350e+03
3.692067811150068792e+03
2.370178091573836355e+03
1.603722830651516347e+02
-3.627263309421114627e+03
3.143202328380341442e+02
3.719193538663160780e+03
3.222423992086758972e+03
1.736172091404069761e+03
-2.207508661882330216e+03
-1.185559994273800294e+04
-1.298776093769053477e+04
-5.174989698840146957e+03
1.537077414633131127e+02
6.655466382780537060e+03
5.978287561714803815e+03
4.968223392234074709e+03
1.257440153797737139e+03
-7.980731106259611352e+02
1.472686154821652735e+03
4.129729006145186759e+03
7.793129560936175949e+03
8.972966368362809590e+03
5.325248393830584064e+03
-2.065034497228733471e+03
-9.607841000536593128e+03
-3.062116801607373873e+03
-9.418018848407123187e+02
-6.903748120023225056e+03
2.351153738015223382e+02
1.410811499610376359e+03
4.737526004878988715e+03
8.454303832656489249e+03
3.651197711969487500e+03
5.294211003649917984e+03
6.443991977365586763e+02
-1.771169731489130754e+03
-1.746653131916193047e+01
-1.782431066689842055e+03
-5.375039687984773082e+03
-6.738279160584186684e+03
-5.994139159935311909e+03
-4.718615979357180549e+03
-3.739754397935253564e+03
-5.166470315457303514e+03
-4.080761657083511636e+03
-3.166647651362007764e+03
-7.138093120339192865e+03
-1.041794215762532622e+04
-5.880218936012004633e+03
3.812582384295603788e+01
1.965140404729969077e+03
3.180905975770720033e+03
3.041491399290863683e+03
2.978896308699884230e+03
2.495079010249901330e+03
2.798083989656616723e+03
3.594949619129794883e+03
4.018726096560333190e+03
-2.235575178515146945e+03
-7.375044187001896717e+03
-7.670690469577985823e+03
-7.502552282319638834e+03
-4.701641824339505547e+03
-1.248780343870888146e+03
4.898231052891454965e+03
8.876495121654745162e+03
6.028618576259928886e+03
1.691622730301701267e+03
-9.654489650898564150e+02
-1.495652878152450512e+03
7.467412030770893239e+01
1.865463772455099843e+03
3.017760622844770296e+03
1.936974770899365694e+03
3.465133191565442303e+03
4.742196909141232936e+03
4.340181320242142647e+03
4.334059604052652503e+03
3.239736617670188934e+03
4.295733609635040011e+02
-2.021849175175367463e+03
-4.480651280584605956e+03
-3.628803656997548842e+03
-1.063223708312081499e+03
-1.109011175914780551e+03
-9.735127675703377008e+02
-1.508735579596424486e+03
-2.855771940801939309e+03
-3.783932321017314280e+03
-4.155099451075258003e+03
-3.762670728396371487e+03
-5.078454033077711074e+02
2.346237354585281082e+03
2.208115939750668986e+03
1.456839588889042261e+03
-9.853432150722538836e+02
-3.186532426094536731e+03
-4.819228894890490551e+02
9.123953520191705593e+02
1.583421696190792090e+03
2.527066255191215078e+03
2.089077599556029327e+03
5.239717103518711383e+01
-2.402115347856944936e+03
-3.165529981609342030e+03
-2.065582181061543906e+03
-9.888144917628136454e+02
-1.123264096436301088e+03
-2.125819770360846178e+03
-1.698531555695729139e+03
-2.215466202592623631e+03
-1.680651508910970051e+03
-1.970961479495323658e+02
1.586134958615099549e+03
3.274061097475881070e+03
3.299591954940008691e+03
1.822651859001925459e+03
8.161722787896433147e+02
5.611310290253873063e+02
9.164172260244885138e+02
1.046865776370412959e+03
6.774032310054572008e+02
-1.395065941821882689e+03
-2.839658290361927811e+03
-2.536409660701144276e+03
-2.480338590994947026e+03
-1.759506547258105911e+03
-1.009923596661410897e+03
7.153676144184254326e+02
1.343336652042026572e+03
2.849662662809750486e+02
-1.636582629253282164e+02
7.084140407405677706e+02
3.121277652225353449e+02
-5.815976181057010308e+02
-4.892831057238830539e+01
1.608108296351702620e+03
1.159393426518425485e+03
2.438791844609800705e+02
-4.858745990481095305e+02
-1.049147434131616365e+03
-1.443531011485906447e+03
-1.163117612125908408e+03
-6.218184089471035350e+02
-3.679817734752214164e+03
-6.434247354771478058e+03
-4.081994430418236789e+03
-2.608940882892933587e+03
-2.219110349119272541e+03
-9.065582927447494512e+02
1.309682042902716148e+03
3.074667325539011472e+03
4.103285283495263684e+03
5.006477841700776480e+03
5.058219365276787357e+03
4.615428716494588116e+03
3.469075828869902125e+03
2.061257746402133762e+03
6.649917324237134153e+02
-2.338899566373066250e+02
-4.115414660088569008e+02
3.900307585128200571e+02
1.451715865303476676e+03
2.480495949352660318e+03
1.823458117128679760e+03
6.495651150989945108e+02
6.147527125505095000e+02
1.044087973901608393e+03
1.148574459932792934e+03
1.988135441164761232e+03
1.812788831653688476e+03
2.092629872114554473e+03
2.782716435001609625e+03
3.053094496516502204e+03
2.608822621241581146e+03
1.878939629331577180e+03
1.443269253173502193e+03
1.223705385653768190e+03
1.491369548450900083e+03
1.599255495869197375e+03
1.447361822438241688e+03
1.222665957505968436e+03
6.170807143447161707e+02
-2.204699975290199347e+02
-2.430986431857066350e+02
-4.578343209019011510e+02
-6.726355439222813857e+02
5.956163947726946617e+02
1.297021446818531786e+03
1.495684964713314685e+03
1.616548696537314299e+03
1.513597856594331006e+03
1.594931766766295368e+03
1.527246232817423788e+03
1.535380359127332895e+03
1.690344642205762057e+03
6.388973928525432484e+02
1.156679527367223557e+02
-6.499767068217636279e+01
-1.901244670716693577e+02
-8.388741360129888562e+02
-1.773321425532617013e+03
-2.219076241282543833e+03
-3.339123953629100015e+03
-5.282506493306982520e+03
-2.486202072273085832e+03
-9.902635635967606049e+02
-5.005553614812170963e+03
-7.621950868235940106e+03
-3.842355150982320993e+03
-2.912984017681409114e+03
-8.801757740771745375e+01
-3.666436082804547823e+03
-2.277190818041590319e+03
-4.702428068826167873e+03
-3.913033663457801595e+03
-4.810751677038419984e+03
-3.833379589860619035e+03
4.882724752458581179e+02
1.330282672295754082e+03
8.085616535446190483e+02
-4.971090386671102124e+02
-1.615676865177523041e+03
-1.856188098331260335e+03
-1.707763931378415464e+03
-1.539339604595765650e+03
-1.808481993751084019e+03
-1.831972854490462623e+03
-1.126887271024978190e+03
-4.632138507920166376e+03
-5.641613112205931429e+03
-2.628441941292176580e+03
1.641371646562697833e+03
-1.704971516139822143e+03
1.297470175146584552e+03
-1.953575990929892896e+03
-2.615846028548354241e+01
1.049799917677010853e+03
8.133353537419603754e+02
1.000464559864079774e+03
1.850316801022022673e+03
1.630016408368867815e+03
6.959758552554512789e+01
-1.065252566776916638e+03
-1.781857706192239220e+03
-3.199762960457620920e+03
-7.139462678769643389e+03
-5.182815942953642661e+03
-9.778265605640444846e+02
1.045224981202213854e+02
1.287389233836591984e+03
1.496161099952201312e+03
1.321805342217220641e+03
2.281126761909155903e+03
3.108876004520515835e+03
3.185951649314312363e+03
2.585639863228640024e+03
1.991112406103731701e+03
1.472417216682084245e+03
9.907018470137217037e+02
3.671664725326362486e+02
-4.387897287561589224e+02
-1.289154542614390493e+03
-1.570627438297631898e+03
-1.644066513010747940e+03
-2.954177636146002897e+03
-7.243338998828044168e+02
-1.570178053323666916e+02
3.319403348841013326e+02
2.397403724833441174e+03
2.839687656076919211e+03
2.961557344416107298e+03
3.830140223673992296e+03
4.002140185158374152e+03
3.907948440112533262e+03
3.518835920575930231e+03
3.197153411406550276e+03
3.052567915616803475e+03
3.088122758530083956e+03
2.693203768446588128e+03
1.888975027117402988e+03
8.979734653238374449e+02
2.090368540641264872e+02
-1.082723836131568333e+02
-2.396616784421395323e+02
-8.113564185385941983e+02
9.460343528204717245e+01
1.316817496137773560e+03
2.044142863007477217e+03
2.399069320174575296e+03
2.810344286154662313e+03
3.396624307822823994e+03
3.457649924401504450e+03
3.447592797380559659e+03
3.444249424779126002e+03
3.537905734554944047e+03
3.189529736740994849e+03
2.580675539074503831e+03
1.631056255481289099e+03
1.337170431958684503e+03
1.086809702535310180e+03
1.958823511318106512e+02
-9.183619881752057381e+02
-9.398897637227651103e+02
-1.208666963798697225e+03
-1.216359315822646522e+03
-9.861864998970288525e+02
-3.268742207477785655e+02
5.956070932000468474e+02
1.400326357144095937e+03
1.453240459195113544e+03
1.610549426980753651e+03
1.836002465184844596e+03
2.331527074802669631e+03
2.655128837919102807e+03
2.711283709852300035e+03
2.861008427092555394e+03
2.414945778548949875e+03
1.444990470020452676e+03
5.338424267127967369e+02
-1.996202245465095189e+02
-2.477862818141501009e+02
-1.399623544364838835e+03
-2.144634987195826852e+03
-1.896626947766055082e+03
-3.124678821339497517e+03
-8.198000396544897740e+03
-1.259177796564732489e+04
-1.113003788184908626e+04
-9.812822855187951063e+03
-9.372894475508104733e+03
-9.424302764276912058e+03
-9.039131377054713084e+03
-7.917342362550025427e+03
-6.982046948790813076e+03
-2.682534725409640828e+02
3.388067666728380118e+03
5.208757120274933641e+02
-3.610836477434863355e+03
-1.777352698160246291e+03
1.511135363784657784e+03
6.087141132252905891e+02
-3.506764786928458761e+02
-9.130251714686369269e+02
-1.208278003889407728e+03
-2.672502835146189227e+03
-5.995802928423540834e+03
-1.421244574064439803e+03
-6.463056893176498306e+03
-6.328295024620142613e+03
-2.700769154016727953e+03
6.375445557786897552e+02
3.143773641537704407e+03
3.663859238389605252e+03
4.105374259509755575e+03
3.974314300564577479e+03
4.211642765225394214e+03
3.602273254785619883e+03
2.920260435366845741e+03
1.961646156693517241e+03
9.864575912101030326e+02
1.255365219080487833e+02
-2.863259332820681493e+02
-6.861661146195851870e+02
-6.319451460342895643e+02
-3.026381160699752968e+02
-5.537283764431873578e+01
4.228695376972939357e+02
1.064990160757918147e+03
1.390913530050706640e+03
2.389598297876329980e+03
3.023993983897853923e+03
3.424184705509859214e+03
3.483290494738187135e+03
3.362259885617524105e+03
2.945955240207336828e+03
2.487280815165097465e+03
2.201210454828504680e+03
1.789710798825168240e+03
1.397909232112809150e+03
5.867458582060098706e+02
-2.049427078499321908e+02
-1.046220110046122045e+03
-1.111174858444199344e+03
-9.957431542787708167e+02
-7.000646833326876504e+02
-9.291481779630723850e+02
-1.528391386670222118e+02
1.009890970813300555e+03
1.814950107104873268e+03
2.393328761290291368e+03
2.352968411482294414e+03
2.314826310386805289e+03
8.411810764147710415e+02
-1.142787154472394377e+03
1.417881050975280232e+03
2.923167303674063987e+03
3.196192558389271198e+03
2.643893430406486004e+03
2.398635799443432916e+03
1.644640212074289593e+03
3.849144309159355544e+02
-4.086141767858699723e+02
-6.305530949363040918e+02
-9.651769323795157334e+02
-1.257499609248821116e+03
-1.261554979561987011e+03
8.153915863365337202e+01
9.688693284563329371e+02
1.474491700354279828e+03
1.986386850997449756e+03
2.124894720162883459e+03
2.054003480928357021e+03
2.284687853165810338e+03
2.438029490244114186e+03
2.521105388587826837e+03
2.479864988890557470e+03
2.172307722757010652e+03
1.652323765717915421e+03
1.418875995176025981e+03
1.153956427846884935e+03
8.275675973313074962e+01
-8.636547188268230002e+02
-1.273342601942248166e+03
-1.807261467409256966e+03
-2.377319206120222589e+03
-2.323520478909049416e+03
-1.509776440938462883e+03
-9.730005792076730131e+02
-1.831581339467718124e+02
6.328551804412128376e+02
1.523152229371392650e+03
1.788857593712522885e+03
1.666028855547916237e+03
1.908711142279737942e+03
1.881875545665019217e+03
1.631565832563136155e+03
1.378843789893610619e+03
1.384759430887971348e+03
1.043404062712705127e+03
3.088777809511312853e+02
-8.258693371158686887e+02
-1.964762615012907190e+03
-2.928708576539350361e+03
-3.737767326114322259e+03
-3.726844290256938166e+03
-5.671844610308246047e+03
-8.754639188541001204e+03
-1.209207411618035985e+04
-6.299082632532707976e+03
-1.022531581784426521e+03
-8.062292436106072273e+03
-6.742330433333842848e+03
9.715342534939152301e+02
1.147317430712310397e+03
2.120084906917568333e+03
1.913884752278994711e+03
6.628074412136952560e+02
1.044904718298515263e+03
1.027446215412064021e+03
2.904428253279040746e+02
-1.020016815054292692e+03
-2.280286805927196383e+03
-3.565244553900563915e+03
-4.161328103984725203e+03
-2.831486304633909185e+03
-2.625154560435960775e+03
-2.222072414098038280e+03
-1.381345791983238541e+03
1.765984995751862385e+01
5.966856002280691200e+02
9.781500075012498883e+02
1.122895025327938583e+03
1.413141460376117266e+03
1.543800101506471265e+03
1.709641714304855441e+03
1.876855674553906283e+03
1.346577154582697403e+03
7.229151215259438459e+02
3.319364566527286229e+02
1.616190071993926551e+02
-4.550263057724281452e+02
-1.384931171510073455e+03
-1.984047860135862948e+03
-1.882317436312406471e+03
-1.858754151325422981e+03
-1.979940279477960758e+03
-1.126950581934499951e+03
-2.900479043161783466e+02
4.016905838684532455e+02
7.989402662128392194e+02
1.154298306400968841e+03
1.842254183032561741e+03
2.003467827155127679e+03
1.911011429043796625e+03
1.832985772009366201e+03
2.090371276241462056e+03
1.682088348088663906e+03
8.542138560199568929e+02
3.888703455263149067e+02
1.180283953106823560e+02
-4.143241785186130528e+02
-9.821018274280056630e+02
-1.091073599142382818e+03
-1.169640239507644083e+03
-1.150041106834322136e+03
-1.334062702764058713e+03
-5.686847168908494723e+02
1.101470037679054030e+02
6.852599550127930570e+02
1.407945469752525469e+03
1.931377217186582129e+03
2.427389845454005354e+03
2.639988243891725233e+03
2.903129725211232198e+03
3.261772541304965216e+03
3.388894449339022685e+03
3.037448505305123945e+03
2.708419803794968630e+03
2.113750586951981859e+03
1.440333412659887927e+03
7.270398678191467070e+02
-4.289823827964224989e+01
-4.408937909681158658e+02
-2.329902347102263320e+03
-8.120999285340682036e+03
-8.355330489569365454e+03
-5.239828512726921872e+03
-4.235569452974556270e+02
-2.798647743659977550e+03
5.340301444608269321e+02
-1.254624865884742348e+03
2.464366959551794480e+03
4.177974505358974056e+03
4.613095293928298815e+03
4.656594666694106309e+03
8.893840008541211546e+02
1.277427962218761195e+03
4.996425238868926044e+02
3.895936139307628309e+03
2.643151031023266569e+03
-1.965807525255758947e+03
5.219717098486624991e+02
8.822697849048885246e+02
6.409691151856524129e+02
-2.518990511126211914e+03
-3.539716953801234922e+03
-2.934327434871370770e+03
-4.526910092536140837e+03
6.495223442654591963e+02
3.829342451887965240e+02
1.445233745107754885e+03
4.323320213759055150e+03
4.008104110650898292e+03
4.844905986724259037e+02
3.494428589724293033e+03
1.734698093119754731e+03
1.184186297213541593e+03
4.549861781819718999e+03
3.655632814732556199e+03
3.042224394586541621e+03
1.964554103021361243e+03
8.584591425686487582e+02
4.157885227356213136e+02
2.663987029515101312e+02
3.112300605361597405e+01
-5.081158697088209806e+02
1.550593623199523108e+03
1.794159578845431497e+03
2.187504077243544998e+03
2.965511242945226513e+03
2.901119203455531078e+03
3.121287679142296383e+03
3.430903984022886561e+03
3.378881183771295582e+03
2.949149753787647569e+03
2.875621242582059040e+03
2.151165315399035080e+03
1.252597143648746396e+03
2.528744754823462699e+02
-4.753076184194876532e+02
-1.180178467287557396e+03
-2.666679309472795921e+03
-4.206050810333188565e+03
-5.268978956548709903e+03
-7.022530557245698219e+03
-7.796966453309856661e+03
-5.924319617107720660e+03
