9.965835786132663543e+02
1.069212753395028585e+03
5.012570973665093561e+02
5.282360320522597021e+02
8.101657376767556116e+02
1.602285072663548135e+03
1.889582875529850753e+03
2.172495121720685802e+03
1.798753585738505535e+03
1.143469825172566971e+03
1.717509969589352522e+03
2.624584414758154708e+03
4.917805437172847860e+02
-3.638889275115361215e+03
-1.592651612495972358e+03
2.067299329095426401e+03
2.717928035938609355e+03
2.754960110695031744e+03
2.787305184061183809e+03
1.937871783721960583e+03
5.677067186228075570e+02
-7.022065987798953302e+02
-1.300082265693258023e+03
-1.732153084380686323e+03
-2.128656497820475579e+03
-2.285569054591823260e+03
-1.676974609904006911e+03
-1.342090911303967914e+03
-8.640363451154340737e+02
6.910769912784589906e+02
1.835278336728283648e+03
3.645860331924263846e+03
6.268651373821988273e+03
7.882165966222923089e+03
7.053065397924923673e+03
5.685311783078381268e+03
5.312891156478935955e+03
4.865548130784559362e+03
4.501995602928445805e+03
4.082136899039388936e+03
3.425938974864981901e+03
1.541373668799218194e+03
-1.255496625072496499e+03
-2.571664346120203845e+03
-3.716305593118824618e+03
-4.601526618567522746e+03
-4.365399212058081503e+03
-3.369064317499086883e+03
-9.496151761331120724e+02
2.138805720573519466e+03
2.755276591146879582e+03
8.409120927186792187e+02
4.624989895683776240e+02
1.442795859970322226e+03
3.290706898806668505e+03
4.983304981075956675e+03
4.228619428688760308e+03
3.079548842823257019e+03
1.559060390194377078e+03
-1.297488850774419120e+02
3.311472627202990111e+02
6.567628355135733500e+02
-9.897541843078336115e+02
-2.198361042003250532e+03
-6.381455702337798357e+02
-2.481758839717365674e+02
-1.254579026885742906e+03
-2.692408180751353939e+03
-2.322666155679045005e+03
2.086059726601097566e+02
2.308600739953077664e+03
3.750431329225991703e+03
3.295104502110704288e+03
1.625626746242138552e+03
1.228035022704612402e+03
-1.801660587385767258e+03
-7.308395586383720001e+03
-5.541993395239059282e+03
-3.101372028932941703e+03
-1.198503249320717941e+03
2.984761450435447387e+03
4.774579066655910538e+03
3.354027649728850065e+03
1.297236086050665790e+03
-1.628693036560398468e+03
-6.820754581315452015e+03
-5.445950246690239510e+03
-3.505852053197260830e+03
-3.329490323924994300e+03
-1.672857053329925066e+03
-1.691652672432457848e+03
-2.862668293771726894e+03
-2.206839434662067106e+03
-2.267905709139125065e+03
-2.154643459914909272e+03
-8.248510857379358185e+02
-2.501428377385481781e+03
-3.432577875888067410e+03
-6.981183175134608064e+03
-6.454934681269841349e+03
-4.840530208347272492e+03
-1.113829419227066637e+03
-1.440674922409389183e+03
-4.387953449910705785e+03
-6.836577558425467032e+03
-9.435411104817158048e+03
-1.236022647623534976e+04
-1.897686683159529639e+04
-1.937506123434967594e+04
-1.861161357873899033e+04
-2.161838608820301670e+04
-1.656037419807049446e+04
-1.502846533095126142e+04
-4.496315214730152547e+03
3.409426804827512569e+03
7.991844580005409625e+03
1.034908139699963431e+04
4.208310890413621564e+03
3.836033351740725834e+02
1.269052100839449395e+03
-4.200198089823700798e+02
-2.660296812251199754e+03
-1.572598661582455179e+03
4.168264154954684273e+03
1.086144600382763929e+04
1.228103820073725728e+04
1.095727718576358166e+04
7.839324421570769118e+03
3.699275400991919923e+03
9.102580739308566535e+02
4.193848329728209592e+02
4.346572950025755517e+02
2.017188015043628184e+03
2.102100845411114278e+03
7.164934567806634504e+02
1.216380487385719789e+03
3.107015871514590799e+03
4.459602742864150059e+03
4.943062332682485248e+03
3.960731520270034707e+03
3.839905703308779266e+03
2.499679005233460884e+03
6.599956957486640476e+02
-2.895864051208587171e+03
-5.145532222552537860e+03
-4.707216962697106283e+03
-4.681699940855019122e+03
-1.715961703471431292e+03
4.400989862619959240e+03
9.752104212530512086e+03
1.284357734372952473e+04
9.310532803279907966e+03
4.949160581191616984e+03
4.800447459901168259e+03
5.384290662554866685e+03
4.787377290524225828e+03
6.007059697336741010e+03
8.347293506774705747e+03
7.749743200850813992e+03
6.276642730626160301e+03
5.144018337820217312e+03
4.643897027726094166e+03
4.597179285470028844e+03
5.120853229934204137e+03
5.325899233116027972e+03
3.695289500008128016e+03
-8.909064529416334608e+02
-6.460794909503310009e+03
-4.611562178149626561e+03
1.226541717983535136e+03
5.068576388295653487e+03
6.761495646841983216e+03
9.238013942954345112e+03
1.367494208800371598e+04
1.295321155263167930e+04
9.642783431326552090e+03
7.604598314037830278e+03
3.996619584753008894e+03
6.106868357709935253e+02
-1.389621016758850374e+03
-2.887218311123582680e+03
-1.355125967408314636e+03
6.028489676531529767e+03
1.440637374146927141e+04
1.430438579512438264e+04
1.063154553613225653e+04
6.785717704646792299e+03
3.924742984602291017e+03
5.356449588294325622e+03
1.000360411294744154e+04
1.256096008277625333e+04
1.099045530543235327e+04
8.336984846058368930e+03
7.481361574412389018e+03
7.196431513076383453e+03
5.784015443984728336e+03
3.868889535257816988e+03
1.816866054968312710e+03
-1.263216717787145853e+03
-3.120528517774812826e+03
-3.929220311382318414e+03
-4.677443188519335308e+03
-3.655265430057074809e+03
-3.349854847730752681e+03
-4.289415624814469993e+03
-5.709076720189324988e+03
-1.043191690726683009e+04
-1.332118745735310767e+04
-1.572119917152271773e+04
-1.568400838158909937e+04
-1.494465174492006008e+04
-1.172131996226428055e+04
-8.302406065897686858e+03
-8.585234760183860999e+03
-9.008516053679117249e+03
-1.079051428260909051e+04
-1.436345376629693601e+04
-1.749043593833278283e+04
-1.903851367663493875e+04
-1.333279595454150513e+04
-4.532383034178307753e+03
-5.944333400857542074e+03
-4.987850142164519639e+03
-7.062068285653547264e+02
1.523285866734440106e+03
7.084861185508985955e+02
-6.047048616123632883e+02
-1.687376711667540576e+03
-1.942597691187025248e+03
-4.396236436461629751e+02
1.982411658194392430e+03
2.028482851773893572e+03
1.330499874784089116e+03
1.548413150057730945e+03
7.613394840960538090e+01
-7.423878253458898371e+02
-2.059175306124863710e+03
-4.555444640187342884e+03
-6.069263449464770929e+03
-6.303634508600288427e+03
-6.758563402618732653e+03
-7.460111508114538083e+03
-6.650330031301604322e+03
-5.750161608013509976e+03
-4.081609968193041823e+03
-2.748104935340958832e+02
3.121064562597803160e+03
5.082047893751546326e+03
3.785108143536171610e+03
4.940359078783705513e+02
-2.608221505867802534e+03
-6.909608081398620016e+03
-9.529106147490807416e+03
-6.750635120169617039e+03
-5.275147042740917641e+03
-4.989649832121525833e+03
-3.693136274478102223e+03
4.852999651208744467e+02
2.151684373289180712e+03
-9.158996057409439118e+02
-2.432450900045431808e+03
5.110393406936238989e+02
5.068630096033524751e+03
5.048410231263165770e+03
3.244375404425942179e+03
3.303663545486253497e+03
3.577355790455067563e+03
1.799431138438028484e+03
2.004924729336827113e+03
3.619040463163102686e+03
3.558993327337541359e+03
2.202385761168679437e+03
1.961467602721209232e+03
8.308063269636641053e+02
-9.117882886665125852e+02
-2.182417041113479172e+03
-1.850009640466961400e+03
-7.213007743132687892e+02
-3.915315627534236143e+01
-6.016168438835367169e+02
-2.343596298197453962e+03
-2.605923489661467102e+03
-3.011469080035995376e+03
-3.776207923239693628e+03
-5.285055966835169784e+03
-7.451884733393970237e+03
-8.024694167681320323e+03
-2.537415717496772231e+03
3.480999415498417875e+03
5.648511014159786100e+03
4.715235484333559725e+03
5.097482673011287261e+03
7.249420673815434384e+03
7.941096736026494909e+03
6.389602810276191121e+03
4.390049339052849973e+03
2.196553352614680989e+03
3.342699285665224807e+02
5.424189649395819970e+02
1.868159076285561014e+03
2.674511291861148493e+03
2.950608040666171291e+03
3.719568999689172415e+03
4.019412328293147766e+03
3.779142525522615870e+03
2.353733131409152975e+03
2.216134699695325708e+03
4.729596344039551695e+03
5.962491093217005982e+03
4.940771599254078865e+03
3.004313091439963955e+03
2.311087252038601036e+03
2.361166437001362738e+03
1.487787333802008789e+03
-2.699156188402557888e+01
-1.161041162487508018e+03
-2.068228888271152755e+03
-3.236647234622820633e+03
-2.600246893119453944e+03
-7.428358347000906861e+02
9.656346440637479418e+02
2.237003722650872078e+03
2.236356352907934252e+03
2.465830540747351279e+03
2.996526802242775830e+03
2.145358823763381679e+03
2.412178395185575027e+03
3.243983136397376711e+03
4.090828697766299229e+03
4.614845566813576625e+03
4.545019463186402390e+03
4.000250849637829560e+03
2.851788023123649509e+03
2.772957133714994143e+03
2.012239762031344299e+03
6.747618000863876375e+01
-1.407364070952773545e+03
-1.890572092524323125e+03
-2.208076632423861611e+03
-2.429658215753960121e+03
-2.181230083989521972e+03
-1.897766510749969939e+03
-3.699157976759896883e+03
-6.909459500116497566e+02
2.128674015436019431e+02
-1.549316779227136749e+03
-1.269382535484971640e+03
-9.666878631696179127e+02
-1.571722083400288966e+03
-1.488566071883189352e+03
-1.347940057411388807e+03
-5.869490613549440923e+02
1.170264679464109804e+03
-2.231524677915177790e+02
-2.834300604199828285e+03
-3.610017636356245021e+03
-2.915696479377355445e+03
-2.004579438343001584e+03
-5.319590381001625019e+02
-2.855806088178830464e+02
-9.154839955742789925e+02
-2.343983047508374511e+03
-2.913870234469197385e+03
-2.346114696177351107e+03
-3.714435231356893610e+02
1.560599890823397118e+03
2.654798575118911685e+03
1.404316537882465127e+03
-1.086579707232880992e+03
-2.267826991471090423e+03
-1.205402315380345271e+03
-3.954498988552927585e+02
5.822525139191442349e+02
1.576726212849647027e+03
1.117917127394829549e+03
-4.431458297649360816e+02
-1.655602747576855563e+03
-2.078648739303655475e+03
-2.767369295291317940e+03
-2.640176868625039788e+03
-2.695632796122103628e+03
-3.388031045834548422e+03
-3.214180114294006671e+03
-1.492989039398536761e+03
-1.433791981398892972e+02
1.540741644510900869e+03
3.679215276090742464e+03
4.212847917113546828e+03
4.145458247021165334e+03
3.587832171005584314e+03
3.335899346076189431e+03
2.630663268422659257e+03
2.616900517960340494e+03
2.742404196206515735e+03
7.261270010964346966e+02
5.029719312988820548e+02
6.750034619810352297e+02
-1.997992452074135599e+03
-7.186917804450350559e+03
-8.647795442122072927e+03
-6.661512047687554514e+03
-7.333195103742239553e+03
-6.653062220687827903e+03
-5.873153514801619167e+03
-5.518807514827705745e+03
-5.319338984686653930e+03
-5.889892931747904186e+03
-5.993397765084527236e+03
-5.138424521577636369e+03
-4.856849804889703591e+03
-4.036955603837146555e+03
-3.533871551580044979e+03
-1.135152455990688907e+02
-1.147082631050330292e+03
-5.024670895814831056e+03
-5.473115702355466965e+03
-5.496293176028089874e+03
-5.429221636619420678e+03
-5.873904343657080062e+03
-6.313370144178188639e+03
-6.374646391638007117e+03
-6.305673809220887051e+03
-5.390300924217383908e+03
-4.728226368274243214e+03
-4.139248767379673154e+03
-1.403803849231170489e+03
4.092780856266409955e+03
4.925619098816353471e+03
4.630854248323365027e+03
5.227413103461063656e+03
5.568114159912833202e+03
5.246359240243555178e+03
4.966505512427938811e+03
4.655593502232921310e+03
4.088917385957621264e+03
3.515567106566140410e+03
2.895613295387838662e+03
2.975067223760405341e+03
2.750807921471290229e+03
1.514355593033831838e+03
5.766260188873992547e+02
1.284293436355238327e+03
1.989756351013925496e+03
2.682268246250817356e+03
3.370977419849267790e+03
3.881606770096305809e+03
3.498042050003874010e+03
3.342532392165098827e+03
3.388438504001600450e+03
3.398040056678519250e+03
3.269375997235527848e+03
3.537511348048481523e+03
3.320684472592763086e+03
2.779165021278592121e+03
2.097128212397552488e+03
1.402828355042672001e+03
5.823052047034698262e+02
-1.814329699838983458e+02
-4.599674660100280903e+02
-7.782187599607000266e+02
-9.399087610391229646e+02
-8.118161126985598912e+02
-2.867000636611597884e+02
5.709013480400994922e+02
1.710513949345795197e+02
-1.570868379629531830e+02
-2.385033719747855514e+02
-5.507059219796164484e+01
-6.439217786071890259e+02
-3.289973771190250773e+03
-1.360784284492437791e+03
-1.558453723342145825e-02
-1.627480136294753663e+02
-7.318505290726842532e+02
-1.375667876564186145e+03
-1.978926918674264698e+03
-2.176568696058598562e+03
-2.015018247569176310e+03
-2.408049551416727809e+03
-2.512788739256121517e+03
-2.568518385745586329e+03
-2.313065988289686629e+03
-2.047046406328995317e+03
-1.715271283521446776e+03
-1.265610794911729954e+03
-1.114952274335553966e+03
-8.283273180989363027e+02
-8.006893959044197118e+02
-7.397599820798035353e+02
-5.473072067405577172e+02
-6.092786186329415159e+02
-4.614762490923552036e+02
3.082335129175281168e+02
3.097442758259645856e+01
-6.469352932293197682e+02
-1.281389730781296294e+03
-1.477387532173914678e+03
-1.669824004694210771e+03
-1.807546794027010719e+03
-1.767612959584842656e+03
-1.508922321836538458e+03
-1.279520786883132587e+03
-1.643519959631503525e+03
-6.917884038109136782e+02
5.407729404181098971e+02
4.784299610124512014e+02
-2.894164892345529552e+02
-2.095627735071213351e+02
2.561558582102679793e+02
7.517146460521643121e+02
1.245754791151387963e+03
1.762377873153602422e+03
2.137798769868821182e+03
2.027916611653405653e+03
1.664514869632938144e+03
1.200804341341751297e+03
7.361682873126129607e+02
5.456808700311568572e+01
1.726678537116551979e+02
5.412417290769719784e+02
2.936340972330445993e+02
4.380386452246840463e+02
4.873384804193860873e+02
7.335564777035397128e+02
1.219829438196291676e+03
1.680452248582432446e+02
-2.334913700510291619e+03
-5.795870313781097138e+03
-5.057762394853134538e+03
2.682881040481138939e+02
2.544362754060511179e+03
2.754494612221777970e+03
1.625700336521642384e+03
1.808818857874417290e+03
2.436818702406341799e+03
1.628617935191613697e+03
6.232610993214323116e+02
2.888537254117496218e+02
5.121766950486645555e+02
6.611893938033671247e+02
4.449154743240466701e+02
8.533889263370793969e+02
1.421553584699290241e+03
1.583288912836529335e+03
2.185039241132304142e+03
2.417541342554352468e+03
2.339941184663394324e+03
2.534418139394304944e+03
2.728767790229105685e+03
2.983755774917804047e+03
2.900409288767147245e+03
2.846854182573737035e+03
2.787058227369661836e+03
3.048991137510028238e+03
3.350634988419820729e+03
2.869741759982438907e+03
2.212124766305355024e+03
1.751689841359902630e+03
1.560347443060765272e+03
1.453960836493962461e+03
1.156505631385806055e+03
1.270855143654932590e+03
1.048054212696584273e+03
9.299551922287553225e+02
1.988134456741249096e+03
2.943601712826653966e+03
2.907495124388023669e+03
2.817773228581098920e+03
3.110293623998898056e+03
3.335947826056250051e+03
2.817685779874494074e+03
2.340471297096110902e+03
2.180191221625104390e+03
2.132801851650445769e+03
2.061279859255892916e+03
1.689357666130282496e+03
1.408869630033964540e+03
1.379693526146935255e+03
1.075710350939657701e+03
6.019118634559519023e+02
2.482007430012294265e+02
1.394374679124932754e+02
5.036448034063806745e+02
9.686811432105387212e+02
2.046433526036664716e+03
3.274829155906118558e+03
2.938760840164593446e+03
2.242161255864616578e+03
1.590032104718893379e+03
1.633444727536776327e+03
2.129256721775447659e+03
2.199403753406017586e+03
2.299001779065662049e+03
2.127991615357793307e+03
1.600254885973278533e+03
1.048751232046915902e+03
9.414468270168314348e+02
8.426503852739864442e+01
-2.520887838724313951e+03
-6.151910455528175589e+03
-8.930134179354408843e+03
-7.457488637502044185e+03
-9.048501758895394005e+02
1.672635240111573466e+03
-2.642074782408133615e+03
-6.328926015530833865e+03
-6.591963829171889302e+03
-7.105197180679562734e+03
-7.040674234056063142e+03
-7.042521177904671276e+03
-6.749501543393377688e+03
-6.286456897080509407e+03
-5.826483513950137421e+03
-5.748676261410052575e+03
-5.220053405374981594e+03
-3.374615372406482038e+03
-3.496270374821916903e+03
-6.924958341981844569e+03
-7.602537843778824936e+03
-7.540091495882357776e+03
-7.356668282667224048e+03
-7.237325731555072707e+03
-7.027103061873720435e+03
-7.105936206366401166e+03
-6.539603649725083415e+03
-5.991896758608901109e+03
-5.627814403135268549e+03
-5.646480490332278350e+03
-2.497819501174150901e+03
2.210173296406014742e+03
-1.014460098961168001e+03
-1.819561976157767958e+03
1.878022778117309826e+03
2.582375769533080529e+03
2.872553580378258175e+03
2.673665288007102390e+03
2.346729119533091307e+03
2.341816995984099322e+03
2.049021740996456629e+03
1.541361069229620853e+03
9.517585628329892415e+02
9.112382628492300682e+02
6.618184242931241670e+02
1.252518040394458694e+03
1.465524534320027442e+03
2.206955647811377276e+03
2.206908051519934816e+03
1.874429078159749906e+03
1.640638524870245419e+03
1.662584242940572267e+03
2.234335301499964771e+03
2.137137491036835399e+03
2.465835664606952378e+03
1.767521456658512989e+03
1.851915973980323542e+03
1.691214170988787146e+03
1.451010405324846261e+03
9.268594853269115674e+02
8.577145406888174648e+02
7.293127504797585061e+02
2.854430046276456210e+02
8.669252390781161921e+02
1.047135592616093845e+03
1.626359107368962896e+03
1.555598082317835633e+03
1.605792379802787991e+03
2.094006879081528041e+03
2.097272659110079076e+03
2.268651762573025735e+03
2.016933818128530447e+03
2.243428037728434447e+03
1.933426852310255981e+03
2.048765740401041512e+03
1.871631966357817646e+03
1.958834961653648406e+03
1.905249000167714257e+03
1.911103758714998321e+03
2.219399591974583473e+03
2.144191474821272095e+03
1.714324038380573029e+03
9.760313922456625733e+02
1.020359183848092812e+03
1.397488783245681361e+03
2.051357041056505750e+03
2.602432535420655313e+03
2.898480861775967696e+03
2.942701651576939639e+03
2.516939867434248754e+03
2.529151834062747184e+03
2.624202045221461958e+03
3.225017995356523443e+03
3.287629375180244551e+03
3.917055794855726617e+03
3.639321235295497445e+03
3.619324091930997838e+03
3.148058115459690271e+03
3.282636840151190881e+03
3.276028162187662019e+03
2.754994495145311248e+03
2.727365385258089191e+03
3.222040414017168587e+03
2.681833671740747832e+03
3.048659004868664852e+03
3.967439145395883315e+03
3.905025832408908627e+03
4.042283542944641795e+03
4.279146071026435493e+03
3.950540455315675899e+03
3.377274573845360010e+03
3.393346186833642150e+03
3.085791591075715587e+03
2.310559508357336654e+03
3.574901882921729452e+02
-3.478476551740033301e+03
-4.695414763446997313e+03
-5.299520138715861322e+03
-4.890878995120128820e+03
-4.922508785440875727e+03
-4.625518429382335853e+03
-4.441145158311933301e+03
-4.588659195506827928e+03
-4.861145908212458380e+03
-4.858832944127407245e+03
-4.269912094535370670e+03
-4.244552241627576223e+03
-3.991977316267137212e+03
-3.158829060832243613e+03
4.154422957252257902e+02
-2.272944504512919650e+02
-4.194107744301620187e+03
-2.334077730710792821e+03
3.134673734840970155e+03
3.259027919842433676e+03
8.238677297069328915e+02
3.054108871808754429e+03
4.657582016380649293e+03
5.118947896683239378e+03
4.830097357941140217e+03
4.797896574121158665e+03
4.604208939810698212e+03
4.165826926736119276e+03
4.036616921157818524e+03
3.668474688859681919e+03
3.605237725574027991e+03
3.374864971766954568e+03
3.670237177921719194e+03
3.972180047824138455e+03
3.358606919043472772e+03
3.184488305938723443e+03
2.179760180438297994e+03
1.981444028500668537e+03
2.210471744890323862e+03
2.193766533003125005e+03
1.872040804463662425e+03
1.808166210242391571e+03
1.247111276387687212e+03
1.016799428500410386e+03
4.161934685390493271e+00
-9.528877542428245988e+02
-8.923720408895359242e+02
-1.422596995762349934e+03
-3.033741621347742239e+03
-3.345736933422964285e+03
-2.567520554811329475e+03
-2.607203773247202662e+03
-3.037835228966778686e+03
-3.494410940956204286e+03
-4.216978604188278950e+03
-3.813586095438965913e+03
-4.056219850540573589e+03
-4.060989848535703914e+03
-3.549068957193491315e+03
-3.420500576482294036e+03
-3.209211330566060496e+03
-2.957070254623796245e+03
-3.335146229569765183e+03
-3.644427436122921790e+03
-3.795788404999301747e+03
-4.063220119518444335e+03
-3.935715350538633629e+03
-4.437233308773576937e+03
-4.745734471713040875e+03
-4.974156359680871901e+03
-4.278508758870705606e+03
-4.035668138437632933e+03
-4.295641441375313661e+03
-4.413270278976588997e+03
-4.910676440269305203e+03
-4.853889284792885519e+03
-5.025689801670617271e+03
-4.087140162778938247e+03
-3.777276047143238884e+03
-3.540853888324014861e+03
-2.733574328116091237e+03
-2.819282686716999706e+03
-3.038780024906362996e+03
-2.757056226597944715e+03
-2.226151479035919238e+03
-2.762104747981774381e+03
-2.850788967909191797e+03
-2.453131054929684979e+03
-2.451167381176977869e+03
-2.464774731547670399e+03
-2.184794994021159255e+03
-2.359176336927886041e+03
-2.551699296419633811e+03
-2.553168825437192936e+03
-2.288394511470649377e+03
-2.324265630895942195e+03
-2.488637572887529586e+03
-1.971294310462183603e+03
-1.567144729079439912e+03
-9.910911221231276613e+02
-6.019805399051608674e+02
-5.496337983520389798e+02
-4.528770341209997810e+02
2.694190328264261325e+02
6.634819344418984599e+01
2.020957900152798743e+02
8.078775970406370561e+02
1.128385630122108125e+02
-1.969804408338894746e+02
2.266932805114399230e+02
1.209742486734789324e+01
1.428416936337304932e+01
5.303612899645492007e+02
6.324607487754003614e+02
4.858416115415977288e+02
1.179959064268364166e+01
5.039114658198479191e+01
4.875607945661562326e+02
4.353267466859838351e+02
1.023824015989725240e+03
1.648237280961070383e+03
1.915784142268119922e+03
2.106715684464802507e+03
2.424182680022767272e+03
2.417267826692658673e+03
2.258204059382544528e+03
2.278071715752062573e+03
2.542873271458701311e+03
3.140680762020339898e+03
3.189660336249946340e+03
2.622008525175155683e+03
2.206778246110323835e+03
2.674032754851501522e+03
3.094879710411674751e+03
2.619366546853523232e+03
2.748712981713106728e+03
2.842058392851128247e+03
2.806429778976040780e+03
2.946893165782458709e+03
3.334495210597943242e+03
3.888162086702755005e+03
3.939554983596800867e+03
3.427112076207402879e+03
4.083970325739424879e+03
4.606829814022422397e+03
4.319024669117997291e+03
4.265856257944600657e+03
3.992963939528322953e+03
3.608262968399854799e+03
3.358660267824496259e+03
3.161369678549100627e+03
3.151136815147657217e+03
2.852171662550548717e+03
2.384160900764611597e+03
2.058209458955938771e+03
1.722487508415667662e+03
1.435598148700036290e+03
1.109027250643318666e+03
1.455801948536531427e+03
1.832505045743061146e+03
1.816447221805421805e+03
2.290603122321201681e+03
1.971092329877815700e+03
1.700679130636634682e+03
2.017253071813546285e+03
1.854935850278510770e+03
1.491895345209170273e+03
9.287471352988343369e+02
6.075836524344392728e+02
4.546825862192007435e+02
2.596704736144822050e+02
3.533311978960783222e+02
2.061784459632818880e+02
1.120442375639455577e+02
-1.462814524171492963e+02
-6.690618444304078594e+02
-1.087721806300050730e+03
-1.076237332060241670e+03
-8.779582075099253871e+02
-4.648695227658159297e+02
-4.288126450867912354e+01
4.093698233623626237e+01
3.285245492808229528e+02
6.270406353460627997e+02
3.755442893734377776e+02
1.050616509555031826e+02
5.422066254177690325e+01
2.156530518282367552e+02
4.322436755079980912e+02
3.688141207947036264e+02
1.004318292278259861e+02
-2.560796338747958316e+02
-4.328752581608717378e+02
-5.649209260370998891e+02
-9.441739114294504134e+02
-3.090828859072237719e+03
-5.162051907521852627e+03
-1.902815066962514720e+03
1.337042548195308598e+02
-8.764980189215299333e+02
-5.652552908445150024e+03
-1.536634810488185167e+03
6.272029402602425989e+02
-1.701197227824434606e+02
-5.010709639846822938e+03
-6.661714718817463108e+03
-6.333291956332187510e+03
-6.194710860387286630e+03
-6.407236522427013369e+03
-6.898993292835243665e+03
-6.946029384146955636e+03
-6.869342196488317313e+03
-6.509925251591429515e+03
-6.781063533963159898e+03
-7.329954162038062350e+03
-7.627536258967633330e+03
-5.197900754446268365e+03
-5.052149573924606557e+03
-7.630460023730056491e+03
-7.934853858971962836e+03
-8.129958362602041234e+03
-7.524705351667853392e+03
-7.961580307915448429e+03
-5.108911789317403418e+03
-5.256389930134843098e+02
-3.545622713939947516e+03
-3.810095789736040388e+03
-1.426086546291825243e+03
-2.758651196021400210e+03
-1.611280992789691027e+02
1.150406413665298487e+03
1.891905382131994656e+03
1.308347456574235366e+03
-9.829972681232096932e+01
-1.318272885658402174e+03
-2.145501837419710682e+03
-2.394009056881155630e+03
-2.730733223042909685e+03
-2.808877361191650380e+03
-1.729422292887727281e+03
1.785781149414679589e+02
2.047168871680419215e+03
3.277333547168600035e+03
4.757166010543205630e+03
5.360526307208504477e+03
6.122507672472521335e+03
6.286336491734727133e+03
5.860058749223499944e+03
4.931674277273689768e+03
4.165093440201386329e+03
3.403355370718928953e+03
1.573466746480186430e+03
1.622239417993348525e+02
-3.868793799881150619e+01
2.248180293489130293e+02
-3.442075648942408179e+02
-6.357260340922900923e+02
-5.294087066235571228e+02
-1.091305559163497264e+03
-1.408191500989496944e+03
-1.079395708913841219e+02
2.208715635979393028e+03
4.220435153207196890e+03
5.416901797477938999e+03
6.342977415107713568e+03
6.184485686448017987e+03
5.410613818139743671e+03
4.280286895054108754e+03
5.950139975404189272e+02
2.880812430688048380e+02
4.477236135240215731e+02
6.258941530398471969e+02
3.337753316194230138e+02
2.477375865132025012e+02
1.227217852956355273e+02
1.216780490263397496e+02
7.967216427003033914e+02
2.904911254293995626e+03
4.543343095244965298e+03
3.980511647887928575e+03
3.716403679860275133e+03
3.813479069789114419e+03
4.020705221916946357e+03
3.370028179096274926e+03
2.750443009429580343e+03
2.061993302848305120e+03
8.577434260238220531e+02
2.636974691606213810e+02
-4.320691527551690569e+02
-1.982604803383060244e+03
-3.864704666283494134e+03
-4.858243337018066086e+03
-4.654000737206622944e+03
-3.653772666616363949e+03
-2.455630062439373887e+03
-7.025079993076656137e+02
-8.541085027665270673e+02
-1.613329235951790224e+03
-1.718178389830510014e+03
-1.515474464973718113e+03
-7.419918492210023260e+02
2.012655595406002362e+02
1.519059121751949306e+03
1.378468252700855146e+03
1.989326147614712568e+02
-7.126216690499812785e+02
-1.072444223604154786e+03
-1.541453410476276531e+03
-1.639322196843594384e+03
-8.918863744864607952e+02
9.294199798945508917e+01
1.349293374702596111e+03
3.599258782572817381e+03
4.763113660907950361e+03
3.667040000921740557e+03
1.583957341231841383e+03
-4.415295938818510990e+01
-5.904463571756390365e+02
-1.503024300436816475e+03
-2.250789542656564663e+03
-2.234620001471539581e+03
-1.893046568055509397e+03
-1.740512829185787950e+03
-1.057115987095063474e+03
3.470859908773963411e+02
7.201867785909084887e+02
-1.742095336184517009e+03
-5.797189795754306942e+03
-7.503106464821429654e+03
-1.986833151488010571e+03
1.627769283898169022e+02
-4.261796749955400969e+02
-6.596830937913795196e+02
-1.610600430277901069e+03
-3.910915830624907812e+03
-6.235574837969112195e+03
-6.659381907084427439e+03
-5.731279776246936308e+03
-2.371374724052657257e+03
6.752518585971405400e+02
2.132447093393785508e+03
2.673114073617466602e+03
4.013389342735250921e+03
4.860259700605273792e+03
4.374614463052643259e+03
3.538415505032402052e+03
2.670750314171207265e+03
7.975822088435801334e+02
-2.320743276820062704e+02
-4.940330133381825135e+02
-3.672379538546037452e+02
-5.727567258289232086e+02
-7.812975131438385006e+02
4.601279665501819522e+02
1.449164899152490761e+03
1.124454947235954251e+03
4.339612714559021356e+02
6.799301042293090802e+01
1.824940909013891144e+02
9.026718338448844747e+01
-1.146767142401536603e+03
-1.809528108943279904e+03
-2.138212762143997224e+03
-2.615052634522053268e+03
-3.405007880952162850e+03
-2.489046384442442559e+03
-1.056238192073013124e+03
-7.645129232788294757e+02
-5.749377708028982852e+02
-6.215972113897433928e+02
1.447645524498337366e+01
2.906279883001002872e+03
5.607777847898704749e+03
6.270950165837220084e+03
5.247729306415631982e+03
3.402140044288839817e+03
1.651006162409580384e+03
7.622564362125584694e+02
9.079771846535838904e+02
1.003135445055029550e+03
3.867949125973012769e+02
1.304934868021739931e+03
2.379201925341264996e+03
2.205253787654738517e+03
2.168941971740728604e+03
3.326232355106293653e+03
4.343331387841693868e+03
4.196350549292037613e+03
3.153211171739878409e+03
2.507731076738776665e+03
1.426868902701065508e+03
1.365626560658102335e+03
1.958715410225138612e+03
1.414040277150459360e+03
-1.783628943000483389e+02
-3.051519096168446140e+03
-8.741366577769567812e+03
-8.605991195013519246e+03
-5.636586114735372576e+03
-2.916899459461159950e+03
-4.748222742355151240e+03
1.663351092954386104e+03
5.993868616980988008e+03
2.403342347323314243e+03
2.403664146671751041e+03
-6.229824420693017117e+01
2.727315317545218022e+03
1.770468142515798490e+03
3.885255862240992883e+03
1.662731542809279745e+03
4.871160063913233671e+02
1.628136832239445312e+03
-2.725382911663016785e+03
-1.616434537172613545e+03
8.599747339065263532e+02
-1.231766517921124233e+02
1.339044747239029221e+03
-1.266366674108156758e+03
-6.051705158527345674e+01
-8.582734723310328491e+02
-2.937656289490181734e+03
-3.404787620770357535e+03
-8.416796096401830027e+02
-2.908391895473501791e+03
-2.765943572272700294e+03
2.395711298239077678e+03
4.318509988028297812e+03
4.101418183760540160e+03
1.648376025413609796e+03
-1.265477116478650572e+02
1.283662022255090505e+03
2.396046057976216616e+03
4.240561960275414094e+03
5.322245530042051541e+03
2.357158589471076084e+03
-6.886695972065033402e+02
-2.388276032474066596e+03
-4.124640170626817053e+03
-6.451738634561457729e+03
-6.259556553612347670e+03
-4.116134298215799390e+03
9.415378031244365502e+02
3.145551731778787143e+03
3.035940494612561906e+03
2.350662010266548350e+03
1.058637667026900999e+03
1.132814416447072517e+03
-3.007152450821216689e+02
-2.912813865160694604e+03
-4.023424501061012506e+03
-2.577653282076897995e+03
-2.719446689340708417e+03
-3.272594364433927240e+03
-3.243569455920603104e+03
-3.440420125916575671e+03
-2.456922720124384796e+03
-1.660159157825721877e+03
-2.029072433607069797e+03
-1.243202316548019780e+03
1.286511273565133706e+02
1.526588728297083208e+03
4.015155176148697592e+03
6.252313410727674636e+03
7.420992947922813983e+03
6.006314458230534001e+03
4.091388966756281206e+03
3.072290742696627603e+03
2.876048159102791033e+03
4.495781134350324464e+03
3.431098665047293707e+03
1.185013254553189881e+03
3.930848813252006302e+00
-9.801142836781079950e+02
-2.712218299113277226e+03
-5.940989009487240764e+03
-9.317157530388785744e+03
-6.867882257143286552e+03
-1.007259573144877777e+03
3.017955094508707248e+02
-2.100279429067077672e+03
-3.666164561819754908e+03
-1.688478469080687319e+03
-9.721156423400070707e+02
1.129036590678151015e+03
4.186842714607314520e+03
4.057368876322992946e+03
3.538283728951694229e+03
