4.449230757774512313e+03
3.820797240357227111e+03
2.625858535747822316e+03
1.190485877529961726e+03
2.561428282387775823e+01
-1.236659417564172827e+03
-1.848058894911385551e+03
-2.218300082903919247e+03
-2.729548015921112892e+03
-3.124023396132290600e+03
-2.250054942268649484e+03
-2.263775549834670983e+03
-2.189958993277225545e+03
-1.457434241602886232e+03
-1.582846169669168717e+02
1.422707296074050191e+03
3.451554907982201257e+03
4.325139262633024373e+03
5.041435899125054675e+03
4.926423628535674652e+03
4.249301116217986419e+03
3.168134993752196806e+03
3.344818105886688045e+03
2.591885404531220047e+03
-6.414870114181698835e-01
-9.420375347524300196e+02
-1.185503642688242508e+03
-2.102810181798555277e+03
-2.667908191327402164e+03
-2.936542550904916880e+03
-2.738725247836295694e+03
-1.890472766648577817e+03
-1.695753697382067458e+03
-1.062797569630197586e+03
8.123675782747690164e+02
1.722788619891958888e+03
2.258387676224364441e+03
2.484150063443922591e+03
2.046075907243693791e+03
2.961212771981678543e+03
4.147464811182279846e+03
3.868747115301458507e+03
2.655991500700250526e+03
1.056098062965069175e+03
-2.998862491645063955e+01
-8.273350223606520331e+02
-1.760892783086619602e+03
-2.144786486347818027e+03
-1.955081161089816078e+03
-2.265700058607129449e+03
-2.790609324358175400e+03
-2.252891881864859897e+03
-1.990599945341078865e+03
-1.514716541680361388e+03
-6.921865749270474453e+02
8.650001980392481755e+02
2.062841190304950942e+03
1.833393782089889555e+03
2.133734339176610320e+03
3.611755162463273791e+03
3.712621622786732587e+03
3.259503911316820904e+03
1.338280085550215517e+03
-1.522146162950021562e+03
-5.387777163918410224e+03
-8.415755082253916044e+03
-9.526198918285594118e+03
-9.566079246320616221e+03
-9.367349167194681286e+03
-9.668043317225208739e+03
-1.024421313088091665e+04
-1.030176367684182151e+04
-9.854631049069683286e+03
-8.826825474107670743e+03
-4.151298874947376135e+03
-5.939419928901900221e+02
-9.506896042619428044e+02
-4.197612510513531561e+03
-4.419623871572924145e+03
-3.867407524328826185e+03
-1.690917683591240575e+03
-4.313672007733294436e+02
-4.448856193673247617e+03
-6.658572177898200607e+03
-4.321468923984888534e+03
-8.705037501468641494e+02
1.864116008265983737e+02
-4.156139100184027484e+02
-1.504637587827470043e+03
-1.961588607954709460e+03
-2.257524119354677623e+03
-2.347336958209229124e+03
-1.803006704087054231e+03
-1.064521870027053637e+03
-1.148859746254049924e+03
6.699799787435846099e+01
1.809126955261783678e+03
2.963637014145150260e+03
4.246697216773899527e+03
4.663417401836568388e+03
3.909749829754609436e+03
2.887697137474159717e+03
2.023195412402122656e+03
1.254188046815451344e+03
4.458020357592170626e+02
3.080840194857801180e+02
-3.131496694419866333e-02
-9.886127857134304122e+02
-1.407645364349365764e+03
-1.450994843775416030e+03
-1.456590713272118819e+03
-1.590345024134888718e+03
-1.279323566249263649e+03
-1.088553958096637416e+03
-4.368528060527370940e+02
1.828323081939615236e+02
1.165637665879215092e+03
1.866620106322974380e+03
2.815831657276014994e+03
3.264328448250878864e+03
2.862154611943047712e+03
2.473462155548989813e+03
2.068279280093300713e+03
1.024574376089899488e+03
-6.274677207132739198e+01
-9.926446611216407518e+02
-1.526024809976056986e+03
-1.958007229839930915e+03
-2.747511700809256126e+03
-3.427256057475896796e+03
-3.388163738238447877e+03
-2.892287369749570644e+03
-1.999964906255054302e+03
-1.463904195068513218e+03
-1.340732672810386021e+03
-6.380871634891852864e+02
7.888895571345108237e+02
1.599316233663340654e+03
1.941055449070246823e+03
-1.049192036824882450e+02
1.543357634289591260e+03
2.182658627430281740e+03
1.184113839611913590e+03
9.178654535429700445e+02
8.148815572155717746e+02
-1.919669217847300899e+02
-1.662920385413707208e+03
-2.254075603304208926e+03
-3.223214745022070474e+03
-3.413272266961992955e+03
-3.521237539520151586e+03
-3.440153264646609387e+03
-3.117231321895237215e+03
-2.284635632944719418e+03
-1.684258480720536909e+03
-9.426859761056366551e+02
-1.496894133506613116e+02
5.337156949543510791e+02
1.572538172589738224e+03
1.611598293187968238e+03
1.128760945717207960e+03
9.900969587508550376e+02
6.227289157334834044e+02
4.457949276015861528e+01
-9.313687953043023526e+02
-1.962075395293526981e+03
-2.816565625520355297e+03
-3.357080614800232070e+03
-3.838590320524490835e+03
-3.529000027988663987e+03
-3.413402527678012120e+03
-3.300689589101812999e+03
-3.143942336898567646e+03
-2.765090243869935875e+03
-1.108718292217472253e+03
-1.042142822614834188e+02
-3.010347959401472622e+02
-1.384368894072152329e+02
6.547618074886599970e+02
1.866956490069401525e+03
2.402268122712700006e+03
2.942599826730166569e+03
2.791032203459473749e+03
1.991379071008163464e+03
1.298119208537612849e+03
-3.969815994436453934e+02
-1.903694722230844718e+03
-3.051919982944531512e+03
-3.990593564378047176e+03
-4.450881294297599197e+03
-4.366979659953255577e+03
-3.767967969012472622e+03
-2.909923239982388168e+03
-1.273729815509361742e+03
3.667123032634720516e+02
7.503549622583855125e+02
9.729268050140490232e+02
1.889465263432460461e+03
2.652322482988799038e+03
2.620416494673332636e+03
2.728438031964853053e+03
2.975239656276474761e+03
5.148626513704826948e+02
-1.815632021602847090e+03
-5.445106722202971241e+02
-1.001666368850443405e+03
-1.421507828754037973e+03
-1.762419229237582385e+03
-2.788314688069875046e+03
-3.461688132174032489e+03
-3.000511716584885107e+03
-1.990647571085457685e+03
-1.631825895509125985e+03
-1.372098628890981672e+03
-7.359449094816465049e+02
2.672869710329088662e+02
1.581757348617321213e+03
2.713191233789164016e+03
3.593635129413416053e+03
4.110222499434391466e+03
4.161485740367477774e+03
3.994810925704046440e+03
2.964008376582160963e+03
1.825379336337186260e+03
9.539205641518153698e+02
3.730375114000127041e+02
-6.409757270542173728e+02
-1.398220577088410892e+03
-1.717646754051353355e+03
-1.711401219743815545e+03
-1.823487677537498030e+03
-2.116490770988099484e+03
-2.882429502384491570e+03
-2.988549208423075925e+03
-1.779581976093799540e+03
-4.162738302639176595e+02
1.150685198425323051e+03
2.015427052656568321e+03
2.580956352753553347e+03
2.384929344848162145e+03
1.077229569951610074e+03
5.343068909520127363e+02
9.184419069306661640e+02
1.310030515148179347e+03
1.733797449866357510e+03
1.479543830849669575e+03
1.134434302435708332e+03
1.032609973551621579e+03
4.263169830729892738e+02
5.374036835907844534e+02
9.359209790898191841e+02
2.072947851008187172e+03
1.823922934197713175e+03
2.078384143471954815e+02
1.193124755994007842e+02
1.479855173654667340e+02
2.777860282908041540e+02
-3.510314041255798543e+02
-2.395594634441087692e+03
-5.779441761329334440e+03
-8.395296295387010105e+03
-1.069176789687284327e+04
-1.023945561888264456e+04
-5.353253448507867688e+03
-8.089113246646528523e+02
1.921197536876078402e+03
2.998465282624503629e+02
-4.101927137487213258e+03
-5.750433362901804685e+03
-6.535645016502998260e+03
-8.232541827102415482e+03
-7.238148108641416002e+03
-3.959356162942450737e+03
-1.075155438600885191e+03
-3.739528122483388870e+03
-5.406225178317498830e+03
-4.524261052311123422e+03
-2.969837955922752826e+03
-1.738047712302725131e+03
-9.236230483069880393e+02
-6.798251997357269261e+01
4.691220584930006225e+03
6.266603087386869447e+03
1.450803950271808390e+03
-2.984238514488210512e+03
-3.995571964186694913e+03
-5.307022763010525523e+03
-6.691618248818268512e+03
-6.880252975361599056e+03
-5.639818356197733920e+03
-3.141482408525970641e+03
-1.414181007033842207e+03
-2.624187097054551714e+02
1.109017878136605304e+03
2.503194596952037955e+03
4.032066865116162262e+03
5.395562513074314666e+03
6.636234801895259807e+03
7.216891540959097256e+03
7.309366261596174809e+03
7.290662589790425955e+03
6.538261142492594445e+03
5.830369256043637506e+03
4.705290317192079783e+03
2.953375306875150272e+03
2.173864622469882761e+03
2.153212139642006605e+03
1.046282592526232520e+03
1.863256195695490192e+02
-2.363241144328275425e+02
-7.835064911116697886e+02
-1.377440169766417284e+03
-2.095981531005236320e+03
-2.207391474683130127e+03
-1.913022469149726021e+03
-2.929535363613006211e+03
-2.212453807507627062e+03
6.624004035094085339e+02
2.796847903629648044e+03
3.905261732792689600e+03
5.542327504995051640e+03
5.622988211746271190e+03
4.236152958316912191e+03
2.781078745839622570e+03
1.319963655026107745e+03
-1.779212017121070062e+02
-1.713677000531649583e+03
-2.548502379809428476e+03
-2.628279647729132193e+03
-3.515704964772656240e+03
-4.131070849542970791e+03
-4.004722789377613935e+03
-3.470341075759296018e+03
-3.535274722834798013e+03
-3.687719182605922015e+03
-5.216505659593302653e+02
3.695444687756927578e+03
6.478756064189215067e+03
7.724847405986931335e+03
6.199982960347375410e+03
4.669111287676303618e+03
3.292022129702428174e+03
1.939326347675316129e+03
1.616470790327719897e+03
4.162129350421032541e+02
1.183096134813198148e+02
2.340874021877508682e+01
-4.097421330704893307e+02
-3.400121285569907741e+02
-3.180916250488420474e+02
-3.018010480156516451e+02
-8.811803653283170661e+02
-1.530216951011987703e+03
-1.688262224726262957e+03
-1.797822647298628738e+02
1.935116660803435934e+03
3.564249860216017623e+03
5.139429943822739006e+03
5.868260261223005728e+03
5.428783283689334894e+03
6.066369269815813823e+03
7.053373954622808014e+03
6.520501666372665568e+03
5.062148753469503390e+03
3.308881414236316687e+03
2.686466757637664159e+03
2.206442674202495255e+03
1.770138368948163361e+03
7.362616189521822889e+02
-7.080265606797156579e+02
-9.392043023765004364e+02
-1.323490071021482663e+03
-1.104095988994798063e+03
-8.352750921292441717e+02
-8.586686496046708044e+02
-9.228489004793549384e+02
-7.482537240882544438e+02
5.557262789066970754e+02
1.746410031004946859e+03
2.613959298523596772e+03
1.996756136002865333e+03
8.159409772421315665e+02
-5.639165186816456981e+02
-3.239044251027637074e+03
-5.996470858442300596e+03
-6.078664376765760608e+03
-5.852157800606576529e+03
-7.906453559520074123e+03
-1.262610146321950924e+04
-1.536528058074143337e+04
-1.526455660512559371e+04
-1.550186730558072486e+04
-1.431805448282944963e+04
-6.227647772057006478e+03
-2.033098450421763800e+03
2.914538715410918144e+02
2.868668347223802812e+03
1.948779790551560836e+03
2.443068925449291783e+03
5.444144203909633688e+03
8.319948199206237405e+03
1.011979129613615441e+04
8.897087079364324381e+03
5.549510975856458572e+03
4.931265376019706309e+03
5.269876882505031972e+03
5.989123697149747386e+03
6.617837204086036763e+03
4.768738791640106683e+03
-9.822225234198732835e+01
-4.817117217693174098e+03
-5.311485290834103580e+03
-2.981454645755092770e+03
-1.684078896001825854e+02
2.796792072960368841e+03
3.564088573020866079e+03
2.235374591604471789e+03
1.447133600008531630e+03
2.031354506751099279e+03
1.866545524781587346e+03
1.353819326313946021e+03
1.665158356907043071e+03
2.020140523391379020e+03
-2.466001835473770996e+02
-1.987582619896033748e+03
-2.323919439087719638e+03
-3.758305703492023440e+03
-4.007776783862149387e+03
-4.638795788882297529e+03
-3.438119373864578847e+03
3.893997903686895825e+03
7.762867143092839797e+03
6.244128997551531029e+03
1.345999264875498966e+03
-2.723436433620372554e+03
-2.354647984233812167e+03
1.491407095253074431e+02
2.901266849216750416e+03
8.250807454969188257e+03
1.258877495479763274e+04
1.171439099545195313e+04
7.048826559958114558e+03
4.645059079949312036e+03
4.180142277187881518e+03
4.845282946099257970e+03
5.222562657699415468e+03
4.334054825775787322e+03
2.783004407879182963e+03
-3.605280832591056992e+02
-1.226366496503813323e+03
-9.636513472184329032e+01
4.341982916461864193e+02
-1.755472960200335592e+03
-3.997951280296951609e+03
-1.919941637625058547e+03
-1.147743892344644223e+02
-2.166221545221853376e+03
-6.703917157513610618e+03
-1.191400321631754559e+04
-1.732929447074864947e+04
-1.212559184254043612e+04
-3.259648599070376804e+03
3.746591755512724262e+02
-2.114324293099808528e+03
1.479449818296716785e+03
3.291634357118076878e+03
2.616302720991295246e+03
1.957294978812117961e+03
-1.752998208021092523e+03
5.125334382722886403e+03
7.176189967421574693e+03
5.507252932910774689e+03
5.090298683310343222e+03
1.787226876476542884e+03
-2.734739751676633205e+03
-2.005578270152098639e+03
2.445661141028665497e+03
1.015696731770978658e+03
-2.335821007603254202e+03
-4.545296937203755988e+03
-2.246920362387660589e+03
2.269399825547659475e+03
2.842804334285486675e+03
-1.173695579697688629e+01
-4.653975296174619871e+03
-4.617773841343424465e+03
-7.290241133637475286e+03
-4.191465607034528148e+03
-8.703721808546156353e+02
-8.498773541007805079e+02
-6.164931525029202021e+03
-1.142042554948897850e+04
-1.378038038020783642e+04
-1.522397732487156463e+04
-1.962515005899771495e+04
-1.529059282980735406e+04
-8.928065068965113824e+03
-1.002751305891532320e+04
-9.138122754867725234e+03
-1.380826414582847747e+03
4.574543622910313388e+03
1.002587816808617208e+04
6.031241544880957917e+03
2.121667804102465652e+03
9.449086340001872486e+02
-1.389023085346959533e+03
-2.424821571325971490e+03
-3.791351537102049861e+03
6.490250264439694092e+02
7.729075260834949404e+03
1.200489995230103705e+04
1.237533048866679201e+04
1.105825419537790367e+04
1.235498623076528565e+04
1.159959876131965939e+04
1.609923243924102508e+03
-8.188114304632137646e+03
-1.554421726262958146e+04
-2.002321953185745224e+04
-2.422035858511404149e+04
-2.629113708385842619e+04
-5.600644265748233920e+03
1.775118657543987138e+04
2.053044782508260687e+04
1.856036807348606453e+04
1.635665283647755678e+04
1.447717050618555368e+04
1.239696476306967088e+04
1.176551845798213617e+04
1.184642197383477469e+04
1.097257574028030285e+04
1.320019160245858984e+04
1.463035218676758814e+04
1.232286838453310156e+04
6.776621179212924289e+03
4.323522873142538629e+03
8.062746133292712329e+03
1.495184372481203354e+04
1.917701470087466078e+04
1.954237503437311170e+04
1.772623442638866254e+04
1.438184450751641089e+04
1.232396280860560728e+04
9.246433655761085902e+03
7.151940690638503838e+03
4.848192280054666298e+03
-6.389411729650253164e+02
-5.711631438943945795e+03
-6.407387309758926676e+03
-5.118480822117800017e+03
-3.454983236499188934e+03
-3.488115654099391577e+03
-3.712896621096804211e+03
4.086357279187546283e+03
9.166402843486735946e+03
1.136913267554660160e+04
1.279767647669909638e+04
6.535053574552203827e+03
8.401088390933532537e+02
-3.193553020976583412e+03
-3.518965318894205666e+03
-4.380682769084965571e+02
9.063942134147051547e+03
1.851383664002972000e+04
2.045756611982137838e+04
1.245997761330656976e+04
4.227898817229383894e+03
5.083062182484324694e+03
8.955305917924131791e+03
9.586630413824163043e+03
3.128789690388715826e+03
-2.403361137502169242e+02
3.447308226610049587e+03
8.976513207957843406e+03
1.231391008926917493e+04
4.828409678770128266e+03
-1.193581663650933842e+04
-2.262088577972511484e+04
-2.380978860435293245e+04
-2.057464304097344939e+04
-1.289358214837000196e+04
-1.383360996282986525e+04
-1.758070094657480149e+04
-1.145490503738643383e+04
-1.551340112647263368e+03
1.455834915262324330e+03
1.754610103620748077e+03
1.931908721295239275e+03
6.703559063174246148e+03
3.588486864301496098e+03
-7.400306403358126772e+03
-1.861283702366220314e+04
-2.492841638897521261e+04
-2.834320313102853470e+04
-2.524918147221429535e+04
-9.183250250180357398e+03
-2.717226068802579448e+03
-6.907066863210657175e+03
-1.593576342718986598e+04
-3.802925583540502703e+04
-4.281158379424863233e+04
-2.398065865754028346e+04
-4.111398391707179144e+03
3.534194712899450224e+03
1.120100779545598698e+03
3.702226855751067433e+03
1.053964721648992236e+04
3.638518253891122640e+03
-3.084271831561819454e+03
-7.899327715709615632e+02
-4.534294389664241862e+03
-1.008136000590630829e+04
-5.594231610901575550e+03
-3.494790684677770059e+03
8.094012296337517000e+03
9.503256682455674309e+03
2.497111522975728349e+03
-1.046450189658291265e+03
-8.828403965412375328e+03
-1.280754502208858685e+04
-1.002865517029324837e+04
6.031403940464090738e+03
2.126067456072792993e+04
1.728123881039106345e+04
8.463162350132122810e+03
7.015913910988828093e+02
-9.843491803863578298e+02
-5.012630307623404406e+03
-1.253626295956736612e+04
-2.478228698292982153e+04
-3.494256995921472117e+04
-2.598379817098867716e+04
-5.738037727504836766e+03
-1.762291116914879865e+02
1.251892545250815238e+04
3.226971301070136542e+04
3.416227326670489856e+04
2.459870201426791027e+04
2.146210735220300194e+04
1.520547659884952191e+04
7.509811655857514779e+03
5.616511535013290086e+03
1.081261742699887873e+04
1.173811965760467501e+04
6.256248308294358139e+03
-2.091784068210128680e+03
-6.032979487453773800e+03
-9.982233657124404999e+03
-1.139927956772726793e+04
-4.546141531132518139e+03
1.276272758912078461e+04
1.878074934866366311e+04
1.928996352331346498e+04
1.351029361170741322e+04
9.941047481034767770e+03
1.292426275280212576e+04
1.716981668536616780e+04
1.316275651675072913e+04
1.334630724449488662e+04
8.313745542651124197e+03
5.839425805022887289e+03
1.008925620581251314e+04
1.340724342757265367e+04
1.561546482113481397e+04
1.488405557193909772e+04
1.377438540890240438e+04
1.223174154049723256e+04
2.299206438210830584e+03
-1.220344465214859702e+04
-2.185239689647619889e+04
-1.777568387323958450e+04
-1.294026995057211207e+04
-2.437395313485135921e+04
-3.325354932496240508e+04
-1.559098427848945721e+04
-6.351694785160440233e+02
4.959171264863955912e+03
1.094399183986669777e+04
1.177220320694482871e+04
6.954868281875000321e+03
7.496284948652308231e+03
5.943485035334615532e+03
8.773515796337589563e+03
1.120347051917773933e+04
6.924185285985643532e+03
4.349740293166302763e+03
-3.214007558718944438e+03
-7.561654014254672802e+03
-5.041051591095330878e+03
-8.058559275289409243e+02
5.402300374677461150e+03
6.412473025544450138e+03
4.163341616938934749e+03
4.613673441981690303e+03
5.366402180527450582e+03
4.607296573814831390e+03
4.781376366807271552e+03
6.178943262004171629e+03
4.867370575541518519e+03
2.366667721688662823e+03
8.227092461038643023e+02
-1.451712671337207894e+03
-4.426722506402882573e+03
-5.586220866596766427e+03
-7.021134153101787888e+03
-7.316383128162059620e+03
-5.851195672380836186e+03
-9.167851800847753111e+03
-1.329238027297524604e+04
-1.414861962810562727e+04
-1.166260163337982885e+04
-1.499073743402173204e+04
-1.854808308298465272e+04
-1.941543071090833837e+04
-2.428165466080254191e+04
-1.838285259046799183e+04
-1.012060652000552545e+04
-8.246875612346097114e+03
-7.540146714740139942e+03
-3.293081202017123815e+03
1.303486937041670672e+03
-4.451098325417497108e+02
-3.084068662670916638e+03
-9.224107325233175288e+03
-1.222017001134506245e+04
-4.798322884674899797e+03
1.770582005948831466e+03
4.732442129170976841e+03
4.481730144739985008e+03
1.931874675476984294e+03
6.183005643206270179e+02
-2.186988998062812243e+03
-8.252692583476346044e+03
-7.437346673993679360e+03
1.576904742543923930e+03
4.830684287519402460e+03
4.560072950294039401e+03
4.351702907583287015e+03
5.115824200648755323e+03
3.810747884799603526e+03
4.752763916494136538e+03
7.339771868335111321e+03
8.488428878315375187e+03
7.633764833629382338e+03
6.513297490202256995e+03
4.775481525673360920e+03
3.105459734368935642e+03
3.504788351677873379e+03
3.606021522335408463e+03
1.092091901463965314e+03
-2.260166601090635140e+03
-2.820823060809936123e+03
-1.353514721594648563e+03
-6.296088026379414941e+02
-2.245613300470390186e+03
-2.653785312323164362e+03
-8.660086894582947252e+02
-2.124168087911677389e+02
6.838015131459619624e+02
2.081222412706053547e+03
4.278412213839753235e+02
-2.182555845428324119e+03
-2.059458468841763477e+02
4.965454678017878905e+03
7.706491077683671392e+03
6.719569526142603536e+03
5.476239811326629024e+03
3.326457666065546618e+03
-5.046397066748028237e+02
-1.340392584132896445e+02
1.087954519646106064e+03
-1.161538303099147242e+03
-6.807762746152929139e+03
-8.999609393906011974e+03
-8.902188662031141575e+03
-8.452729898760047945e+03
-8.376129184957342659e+03
-7.507537222044288683e+03
-5.291032204231870310e+03
-4.745308109775997764e+03
-3.556092743704473378e+03
-2.811133457669619020e+03
-1.777400744191159447e+03
2.530606428737629017e+02
-2.297612702699834131e+02
-2.067021186370315263e+03
-3.862862139470214970e+03
-7.821274609348637568e+03
-9.633557247667262345e+03
-1.030273174761108021e+04
-1.007653386183207476e+04
-9.276683652190915382e+03
-4.047357915418451739e+03
-1.691060617525114822e+03
-3.233123640438389884e+03
-4.332442072079564241e+03
-7.127779703341881941e+03
-6.062947420257347403e+03
-3.128774745707207785e+03
-2.202987982810810763e+02
5.356349238961107631e+02
5.239694820418330892e+02
2.606777118586224333e+03
7.035396521794586988e+03
7.288862090713628277e+03
5.622865853998013336e+03
5.276201154191287969e+03
4.226790586022705611e+03
5.400734126408278826e+03
4.698031329776334132e+03
2.616954847641204651e+03
-2.039939748655618246e+01
1.231455660973219892e+02
2.591654494607842025e+03
4.668848487877084153e+03
3.470853433958001006e+03
2.759688905000180512e+03
3.648133280630202080e+03
4.724932411716290517e+03
5.562461948028833831e+03
6.566576080564666881e+03
7.646789110486176469e+03
8.850978214584905800e+03
8.184386715517930497e+03
6.671432656686418341e+03
6.299770076197434719e+03
4.642554530181006157e+03
3.049423258739299854e+03
1.963309517773033576e+03
1.137693725899202491e+03
-6.877380930338829330e+02
-2.879908256948864164e+03
-2.365928701645008914e+03
-9.374655927664630326e+02
9.393912467131792710e+02
1.114121059110753322e+03
1.763973907330671125e+02
-2.922439161529873104e+02
1.999368847455219509e+02
7.712370511249559968e+02
1.345885443884078313e+03
1.550462600683877099e+03
1.615532800314258111e+03
1.615140519125183573e+03
7.573151950683301266e+02
-5.632068346160926353e+01
-9.538528696241685338e+02
-1.811710143659234063e+03
-2.651969731966883955e+03
-3.250877733977889875e+03
-3.978406108337428122e+03
-4.279884756400396327e+03
-4.970433731916911711e+03
-5.564475068890985312e+03
-6.372102147155414968e+03
-6.889560417558197514e+03
-7.245431458312003997e+03
-7.731063814489883043e+03
-6.493424241008273384e+03
-4.948010786148734041e+03
-3.955084718619294563e+03
-3.823909451214223282e+03
-2.964778285136977502e+03
4.690951835526043112e+01
1.080277873575557578e+03
-1.466470361986815305e+03
-2.415984228724256354e+03
-2.237810688712460433e+03
-2.997703239228251277e+03
-3.034394535987847121e+03
-2.807803991257413145e+03
-2.915718384207319559e+03
-2.868361221082857810e+03
-3.002945483273452737e+03
-3.291573235281955476e+03
-3.499726009397712005e+03
-3.139480606231689762e+03
-2.715277991305645628e+03
-1.892275293606446212e+03
-9.326691814858778571e+02
-1.499749399429323375e+02
7.453553218859277649e+02
1.511504011351226836e+03
2.662179623041320156e+03
2.285659432521610142e+03
3.963879379611418017e+02
-1.497020416190335482e+03
-1.182487873079618339e+03
-3.411454117062557543e+03
-6.787074585907574146e+03
-6.935464307857131644e+03
-4.339217971064165795e+03
-6.611529227887824618e+02
2.174987757280443020e+03
4.862364361744899725e+03
5.886706680474007044e+03
3.476415819515034400e+03
3.660876508281999122e+03
5.514876240704224074e+03
6.533942978322200361e+03
6.743414873797505606e+03
4.459975331711591025e+03
1.014072046615043632e+03
-6.434361361523176583e+02
-8.363445393558465639e+02
-1.235720697129507698e+03
-6.722394539667316167e+02
2.085027537820607904e+03
3.498683612955396256e+03
3.641490593045362402e+03
3.011050055570391123e+03
2.723290051986646176e+03
2.372863781818803545e+03
1.786683986823241867e+03
2.247526591048312184e+03
1.985288364286564274e+03
2.217554875404632639e+03
2.218322883091350832e+03
1.934161133274691338e+03
1.895184939734403997e+03
2.564606684658431732e+03
4.533779013807064985e+03
5.583829369601001417e+03
5.696942906988530012e+03
5.478000264339201749e+03
4.922714463202087245e+03
4.004032150458880551e+03
3.365013069839650598e+03
2.554538565998816011e+03
7.530414260402336595e+02
-1.127423491269810484e+03
-1.611947792082889009e+03
2.044878761778759042e+02
6.065616289038398463e+02
1.033027233512142296e+01
-3.527184791560459303e+02
-3.390222136612950976e+02
-3.998019827070699534e+02
1.051352030582080715e+03
2.394130518383430172e+03
2.504626286756593800e+03
3.010511015538034826e+03
3.558846003302870940e+03
3.669360627454021596e+03
3.583922286352849824e+03
2.617142587554749298e+03
1.878932267603817309e+03
1.366065191638211900e+03
6.189762388011720304e+02
-7.330081285168922705e+02
-2.189973073051751271e+03
-3.067782920836563790e+03
-3.377136951266695633e+03
-4.535112175395325721e+03
-5.420704755867805034e+03
-4.519504858755582063e+03
-2.933321032097845546e+03
-2.064959272610017251e+03
-2.344098997792329556e+03
-2.112610104588237846e+03
-1.132561479043067948e+03
-4.315972302189445600e+02
-1.709165143542391796e+00
-3.079488772378637123e+02
-5.828863873552750192e+02
-9.005557767419393258e+02
-1.424880385823095821e+03
-2.093963803608602120e+03
-2.331330005991351300e+03
-2.818924101339387107e+03
-4.183096857707827439e+03
-8.323427868677468723e+03
-7.974335831429331847e+03
-8.044931926764179480e+03
-7.488639939513424906e+03
-4.380417156421635809e+03
-3.230617508195304254e+03
-2.879461788344038268e+03
-4.988271191841816290e+03
-4.657793874236068405e+03
-1.954636019572149053e+03
-1.905912283385622686e+03
-5.657790436728670613e+01
-1.637509410920933760e+03
8.078527754699589423e+02
-1.577279005439024786e+03
-4.948472809989353323e+02
2.069919347872585433e+02
-1.867585116433828716e+03
-5.558125403007522436e+03
-2.140928098582669918e+03
-4.326688677724308036e+03
-3.585181266425166541e+03
-9.040985655757748418e+02
-2.962339098742957958e+03
-2.869950643998963642e+03
-8.126973120452406647e+02
-8.447631665026679002e+02
7.348400428237213191e+02
1.753306202286237976e+03
4.711767114162356847e+03
3.782280775103376982e+03
3.420971510987610145e+03
6.264745800277843045e+03
3.892474950948178503e+03
4.067393208892518487e+03
4.415703330504494261e+03
1.659373661022347505e+03
7.802085143325405170e+02
2.140178331889290462e+02
9.688149635999660632e+02
2.385790074253832699e+03
2.324817959469689413e+03
2.165728138514486545e+03
2.122555125346152636e+03
1.685321969027100067e+03
1.670990639365120614e+03
2.591822249004608238e+03
3.992944465411705551e+03
5.318941794398489037e+03
5.724586607019447911e+03
6.303885488118299691e+03
6.814081736169629039e+03
6.867232304732122429e+03
6.649283078120543905e+03
5.892346669230519183e+03
4.781193937866551096e+03
4.155960014201350532e+03
3.548517857838270174e+03
2.906764273969474743e+03
1.993621108919716789e+03
2.942568235769005582e+02
-3.369404872892854730e+00
2.438004153452197897e+02
1.604469694657388459e+02
6.902840555537660521e+02
1.453431678815190025e+03
1.695786165976805933e+03
2.362359368759979589e+03
3.115140231115123242e+03
3.856934400109711532e+03
4.536819064150344275e+03
4.756986950069019258e+03
4.639326649206646835e+03
4.470592616295762127e+03
4.138701488676533700e+03
3.697685093682304796e+03
2.829278791496355097e+03
1.897295843757626244e+03
9.872739347794799869e+02
5.002480161529050520e+02
3.195989179414087857e+02
3.407372936286782306e+01
-1.227619506557731626e+02
-2.283276423008904885e+02
-1.514543880708748702e+02
3.717325399645088737e+02
6.373674996883358972e+02
1.214433733566074125e+03
2.198738982699026565e+03
2.945994550789303958e+03
3.621205582703712025e+03
3.903272785282064433e+03
4.057987321838867956e+03
4.049385236399260066e+03
3.755170234456738854e+03
2.935351506732801226e+03
1.974856528607880819e+03
9.166335750912620597e+02
-1.255746089285454161e+02
-7.191174100730909231e+02
-1.108181445579419460e+03
-1.185605574160969127e+03
-1.245496578141445752e+03
-1.046010134673336552e+03
-1.073195797858931883e+03
-8.852327211163546963e+02
-4.661974261428830459e+02
1.338794220007192450e+02
1.247868603074198973e+03
2.938808225751277405e+03
3.725718992107475060e+03
3.484463490921865741e+03
3.013027288164884339e+03
2.946246314133515170e+03
2.821052774771253098e+03
9.713469758856159615e+02
-2.095877040099429905e+03
-6.727670509952145039e+03
-8.061391775840100308e+03
-8.884204822350378890e+03
-9.039222719654730099e+03
-9.151449570841956302e+03
-9.901879516664832408e+03
-9.387583478488741093e+03
-8.823667451373956283e+03
-8.325210158932513878e+03
-7.684262250716140443e+03
-5.117863431458168634e+03
-4.403026943162768475e+03
-3.781729371276069742e+03
-3.207930796764403112e+03
1.546201607785276110e+03
4.333606082855575551e+03
2.621272588834328417e+03
-7.777885131641835414e+02
-3.395672125543004313e+03
-4.704548804525756168e+03
-5.647504597155721967e+03
-6.557452312228798291e+03
-6.922441660019821029e+03
-4.465614834546874590e+03
-5.900538506327712867e+02
-5.179435516731070521e+01
5.122200119948919337e+02
4.958499909918110689e+02
9.100107234531513996e+02
8.745824292965561426e+02
1.554705687724874451e+03
2.125317841812861843e+03
2.907201237251790189e+03
4.316438300828342108e+03
5.548258285850766697e+03
5.986552869322712468e+03
6.032242129922547065e+03
5.967401905875656666e+03
4.627918203064721638e+03
3.480701857665598709e+03
2.888707347439411024e+03
2.338880818240404096e+03
1.621193980055482371e+03
9.106676674485794365e+02
6.233000751290272774e+02
5.210543486450599175e+02
5.709002196513371246e+02
5.588852607057982596e+02
1.033025161332784364e+03
1.146264170330617389e+03
1.638623677967799722e+03
2.519080985837006210e+03
3.222660880366830952e+03
3.983593192937036292e+03
4.731032763194623840e+03
5.038923445657272168e+03
5.198079047213653212e+03
4.910789355384163173e+03
3.684194756697112098e+03
3.185007578766223560e+03
2.270949374923985488e+03
1.036843589386562371e+03
8.007142260996337200e+02
5.315117653919941176e+02
-3.146588585287411775e+02
-8.904369903005789411e+02
-9.249684114517417584e+02
-6.563664198417131956e+02
-6.895307122057395190e+02
-1.113876059734147219e+02
4.663585513846828690e+02
9.818126779962251476e+02
2.155907551137816426e+03
3.492510353842152199e+03
4.299979849098813247e+03
3.838296436673308563e+03
1.219495565742735835e+03
2.143567746134775007e+03
2.596354937003961822e+03
1.643875658843811152e+03
1.124105188214455211e+03
7.002834960281167298e+01
-9.653491655685219257e+02
-1.295080195376520123e+03
-1.498157495897087983e+03
-1.693541887888985002e+03
-2.006205340778363734e+03
-2.350057078812444615e+03
-1.854046267762392063e+03
-9.341944420649642780e+02
-3.565812033969825734e+02
4.468663667981088565e+02
1.360294044101373629e+03
2.438726332483425267e+03
3.391167167587604581e+03
4.165750907903164261e+03
4.139439455971836651e+03
4.059229250961815978e+03
3.154219975397019880e+03
1.471433889123817153e+03
-1.322347394439795210e+02
-1.511979330179383169e+03
-2.015745150059415664e+03
-2.162513272172304823e+03
-2.961277482507166951e+03
-3.571047635002136758e+03
-2.674797853258772193e+03
-2.653631252551107082e+03
-2.736527684351042353e+03
-2.742414699526191271e+03
-2.737286878318727304e+03
-9.941446244652914856e+02
