-9.655878377492279469e+03
-9.850261483386677355e+03
-8.686623396231821971e+03
-4.012945403983431333e+03
5.168209809168707807e+02
3.825578927338031463e+03
2.286308872243134374e+03
2.059338619436563022e+03
-3.571015939018824525e+01
-8.390481511470480882e+02
1.365400908778218991e+03
2.622816694383411686e+03
2.941901131554862786e+03
1.568301069441974050e+03
1.829893257216436666e+02
2.361112619336315220e+03
2.930654384521751581e+03
1.080455876993762331e+03
-2.745821460075117102e+02
-2.926671320313002070e+03
-5.861074453010351135e+03
-6.183265615545613400e+03
-6.274882457342140697e+03
-5.002965816187823293e+03
-3.171631525534459797e+03
-9.990910955019057837e+02
-1.308319338154805564e+03
-2.865121363041366749e+03
-1.620459597935608144e+03
-2.575186701039695549e+02
-5.884047657896508099e+02
-1.051197241414283326e+03
-7.090035838662150809e+02
-1.901574543956221078e+03
1.695155650679703740e+03
5.327477468337293431e+03
2.982105343292321322e+03
-1.767579761058367467e+03
-4.702675772651035004e+03
-6.327113706956860369e+03
-5.956951007240323634e+03
-4.411195479612807503e+03
-2.572958121876035420e+03
-1.833727745224882142e+02
1.245764890349850248e+03
2.814593821484749242e+03
2.798087508268748024e+03
3.376129841633714932e+03
4.434869213065266194e+03
6.741483328676744350e+03
8.457027216794474953e+03
8.087529389721544248e+03
6.260883540334539248e+03
4.965261792411951319e+03
4.667831423883550997e+03
3.910508050649359575e+03
3.564325355409600434e+03
1.201456535312160668e+03
-1.203110764979147234e+03
-1.244400761707900983e+03
-1.438344794185933779e+03
-1.261848503439885462e+03
-2.009062867638249145e+03
-2.863873356474523916e+03
-1.711012476964577672e+03
9.547477803982925479e+02
3.916591470458859476e+03
6.174695668222139830e+03
6.988049794100690633e+03
4.565563508822721815e+03
5.374861274999684611e+02
-9.508284823937360670e+02
-1.069438386385166723e+03
-2.424382977455216405e+03
-3.710568703191415807e+03
-4.616894427621949944e+03
-5.825160821183917506e+03
-6.368186531176108474e+03
-6.527803514953468039e+03
-6.446983955644596790e+03
-7.999600792072236800e+03
-9.896140070645060405e+03
-6.240822731430290332e+03
-3.178847541024321799e+03
-5.875062075295008981e+03
-8.268446769799458707e+03
-5.108632349034110121e+03
-1.345588734352203941e+00
4.399640066762120114e+03
6.333544619588180467e+03
5.961395958690420230e+03
5.138309596445617899e+03
4.965439302964520721e+03
4.484919058759714972e+03
4.151870760861354938e+03
3.701382864075271300e+03
3.363697834603288811e+03
1.916007062626314564e+03
-1.270779618534126257e+03
-2.918625704063028024e+03
-3.422306046179299301e+03
-3.764616257649433464e+03
-5.227420914311126580e+03
-5.321765131196318180e+03
-4.230629188934935883e+03
-2.855770298797458054e+03
-9.198452168000750362e+02
1.057342749975786774e+03
2.768796077906416485e+03
3.687816549318329635e+03
3.194344074494585584e+03
2.517393680762612348e+03
1.021036977120804181e+03
1.537498808657692280e+03
1.693891484369652744e+03
1.123622313064427942e+02
-8.218724642758659229e+02
-3.388627439998399041e+03
-4.630769524455235114e+03
-4.492293578832480307e+03
-4.193174447020007392e+03
-3.688353654966024806e+03
-4.716736770902512944e+03
-4.922286770029035324e+03
-3.204005646575310948e+03
-1.004684366118546450e+03
9.249546862943811902e+02
1.993945422338434582e+03
1.805291256799569965e+03
2.760123252376357868e+03
3.951488218663916541e+03
4.982367204333781046e+03
6.152943925436109566e+03
5.542354598909140805e+03
3.408812157667407519e+03
1.654321957358019517e+03
7.378392089070410975e+02
-6.815999151484447793e+02
-2.343766689462368959e+03
-3.147832771414504350e+03
-4.308654863589585148e+03
-5.635420717723243797e+03
-6.269339679927398720e+03
-6.186597788759829200e+03
-3.789051799122495595e+03
-2.229300695772050858e+03
-4.974870120625258778e+02
8.183634914004641132e+02
2.626421733130316170e+03
3.028629864369166626e+03
1.860974583752402623e+03
1.056289276155113384e+03
2.766546826104203319e+03
5.358713123447385442e+03
5.818875232654979300e+03
3.397031032553576551e+03
1.601157182862878699e+03
1.923806324181069556e+02
-1.403592553341506346e+03
-3.169061563316778575e+03
-4.625034881171436609e+03
-5.116351111391850282e+03
-5.270114287889195111e+03
-5.275498718460980854e+03
-5.175724987894001060e+03
-3.645833650092009520e+03
-1.398928471228113494e+03
-2.631525765271704813e+02
4.483129014313037146e+02
1.606847188405175757e+03
2.795909917373798180e+03
2.878269368670756648e+03
2.160245672792241749e+03
2.020452402272902418e+03
2.946169272656893099e+03
2.524491257633186251e+03
1.530202650433061081e+03
1.469633300467931747e+02
-1.558457872645519274e+03
-3.128210245897226741e+03
-4.283151811817348971e+03
-4.895160554687139665e+03
-5.225499151947843529e+03
-5.013517491934117970e+03
-4.060566120761440288e+03
-2.350553673781544148e+03
-9.270269642448457716e+02
4.627437702074964250e+02
1.246478289765341060e+03
2.392304415415669155e+03
2.260682344488388026e+03
2.683423623247656451e+03
2.989289977129517411e+03
2.671174310887473894e+03
2.166603424408963292e+03
1.715243173098171383e+03
8.058884872375382429e+02
-3.307212871109335879e+02
-2.553138406458734153e+03
-4.710420946091940095e+03
-5.629337094873693786e+03
-6.210063972702237152e+03
-6.817547231391885362e+03
-6.325673656544649020e+03
-4.393099384749573801e+03
-2.252006088771607210e+03
-4.253962999978108996e+02
3.827306572617409870e+02
7.033115326502113476e+02
2.239810451991112132e+03
3.300429102710161715e+03
3.042541818034631888e+03
1.587767037651300370e+03
2.018099488086573956e+03
3.311768999065538083e+03
3.235965674343763567e+03
1.868437517181096609e+03
-1.656512326870887364e+01
-1.986105572385651612e+03
-2.586341673930839079e+03
-2.665060329730293688e+03
-3.370286915217157912e+03
-3.263846667203350989e+03
-2.715452444689833101e+03
-1.904915890834945458e+03
3.274595579922475963e+01
1.791960141591397587e+03
3.172747676586600392e+03
3.911040294506548435e+03
4.806132976848051840e+03
4.887211520719058171e+03
5.237005867906288586e+03
5.586594748440122203e+03
4.988595011918668206e+03
4.935769089019184321e+03
4.617846949199481969e+03
3.868991123289142706e+03
2.569751798159425562e+03
7.105719725604691348e+02
-1.295969878770963760e+03
-2.244374377814251147e+03
-2.630633086974169146e+03
-2.225185824893266727e+03
-1.611726014894410582e+03
5.008619021262936144e+01
2.569111888199286568e+03
4.059571962627183439e+03
4.798710871496984510e+03
5.482395521721813566e+03
5.970661924282519976e+03
6.026798729737955910e+03
5.726820866700637453e+03
5.860730567879517366e+03
5.965364636756278742e+03
5.203669369322774401e+03
4.425230357705841925e+03
4.707855667710001399e+03
4.602276326608479394e+03
2.549559592365458229e+03
-7.808220057246963108e+01
-3.433061380769814150e+03
-7.752478652280000460e+03
-1.011026768090374571e+04
-8.718953678220290385e+03
-8.028546841068427057e+03
-7.068774477608772031e+03
-5.656590790203047618e+03
-3.631105925889233276e+03
-2.980162769181125441e+03
-3.493573549007207475e+03
-3.913117171796041021e+03
-2.530711039567960597e+03
-1.578657892596069587e+03
-1.992500122494685456e+03
-1.079041982110686831e+03
1.216953074552099906e+03
8.466058466372065823e+02
-3.305624749546957901e+03
-4.996966256086840076e+03
-5.734370076672068535e+03
-6.427829210084541955e+03
-8.004269932503983910e+03
-8.895637726528617350e+03
-8.821591516601904004e+03
-8.162857579869576512e+03
-6.778443873680696015e+03
-5.523196562576275937e+03
-4.037824125982719579e+03
-3.217061364491078166e+03
-5.888456447571511490e+02
4.201157223623267782e+03
3.625749901600277099e+03
1.070943724941657820e+03
1.049342792082466985e+03
8.983587083949171301e+02
3.039099422115998095e+03
3.413726827578090251e+03
2.374227516324510816e+03
1.003684629096246681e+03
-4.327399509888607554e+02
-1.813965328688311956e+03
-2.775795447440849784e+03
-3.399084590941908118e+03
-3.997545693585749632e+03
-3.103025715289336858e+03
-1.134301451713162351e+03
-5.529215425207959811e+01
1.597232736218565151e+03
2.892606203603328595e+03
3.841153963239820314e+03
3.575076332712000294e+03
3.392553310503841658e+03
3.774748272867867854e+03
3.782791711479734658e+03
3.526063887430668274e+03
3.316818446297428636e+03
2.988110323758077811e+03
2.176077995638931952e+03
4.868348910729565659e+02
-8.783316621816866245e+02
-1.801227020121267287e+03
-2.131878336806424159e+03
-2.063254563110549952e+03
-1.597250900609057226e+03
-1.194677288050720563e+03
1.297280012832958960e+02
1.545412416367820697e+03
2.744753764662593312e+03
3.375724707002475043e+03
3.636346849218670286e+03
3.656880357660769278e+03
3.474739648427100747e+03
3.497177227819492600e+03
4.754328712665388593e+03
5.458242005040377080e+03
4.597997239704964159e+03
1.842642469995331794e+03
3.667535049331715527e+03
3.150805510807599148e+03
1.679307849152479093e+03
7.710820748424748672e+02
4.820395873529378719e+02
1.064455990845383155e+02
1.922235836943607978e+02
8.012368376068326370e+02
2.010742115506070604e+03
3.102104226669792752e+03
4.439279785787651235e+03
5.811356236274791627e+03
5.694367647709643279e+03
5.342374209592007901e+03
4.870401240634609167e+03
4.860471410707621544e+03
5.268612615179587920e+03
5.211968555488904713e+03
5.017737443591359806e+03
4.492852020574870039e+03
3.473293420540991974e+03
2.151101554638720245e+03
1.547371105078208984e+03
5.319765652871504926e+02
9.681189668889570044e+01
-6.791734484389132831e+02
-1.077078827241894260e+03
-1.130908472490563781e+03
3.953713144112074929e+02
1.883803512578732580e+03
2.662489885721020983e+03
2.817448535950729365e+03
3.045724712129586351e+03
3.239158537439197971e+03
3.216860330536845140e+03
3.257897452576594333e+03
3.394068359976486136e+03
3.698450446709209700e+03
3.342920320800827994e+03
2.349334108565963561e+03
1.569617637494339533e+03
4.806236049143777223e+02
-7.786217797601399297e+02
-1.634154614244422874e+03
-2.238262106316748032e+03
-2.865108260271812014e+03
-3.312776841549827623e+03
-2.909376423142828116e+03
-1.892888145980831041e+03
-8.534505112218384966e+02
1.528500233506808001e+02
1.160880546065945055e+03
1.613583199349404595e+03
1.639021139106514511e+03
9.932368149929477568e+02
-6.179446742590597523e+02
-3.623699160197761103e+03
-6.165084559718823584e+03
-6.275156880656076282e+03
-1.800066657192754747e+03
1.841058956749293998e+02
-1.020740591467914669e+03
-3.006814662866340313e+03
-5.722349627147746105e+03
-4.936394408767289860e+03
-4.114138806427576128e+03
-4.027839930127666321e+03
-3.452631814524766469e+03
-2.511648447140522421e+03
-1.212902861607664818e+03
-1.413406362541912245e+02
5.269266025589471383e+02
5.285188937517837076e+02
1.018209639897195871e+03
1.571086998490691485e+03
1.807266498008619919e+03
2.192528286855651004e+03
1.988718754913143130e+03
1.479776874466370373e+03
6.616326126155365728e+02
3.719638753651861407e+01
-8.506702770045467332e+02
-1.954202445911666018e+03
-3.104580626552208287e+03
-3.559930655904088781e+03
-3.717477873215729232e+03
-3.635481357854611815e+03
-2.880978286254214254e+03
-2.050011924746080695e+03
-1.259726102297405305e+03
-3.472666031884370454e+02
4.053861339111790585e+02
7.762595993169683197e+02
8.782089406083797485e+02
1.337090502171886783e+03
2.587889401738050310e+03
2.468493560832545882e+03
1.459819718389287800e+03
1.160787268142576067e+03
9.054225078235915589e+02
9.976153240725149089e+02
1.952268932307662510e+02
-9.938410515892569492e+02
-2.074744741732713010e+03
-2.493623811417197430e+03
-2.512577290418766552e+03
-2.287702850911810856e+03
-1.960085625865197017e+03
-1.382779368856731935e+03
8.010832238518692350e+01
1.207660814960173639e+03
2.006837019676102500e+03
2.369545643892341104e+03
2.453782966536994081e+03
2.619618603227087533e+03
2.551968913989311204e+03
2.325774705486649054e+03
2.626019667006806685e+03
2.624791945093702907e+03
2.551109876599902691e+03
2.239858442129203468e+03
1.275001125463374592e+03
-1.235496634053867666e+02
-1.057884744122586199e+03
-1.467170707553830880e+03
-1.708501146719600683e+03
-2.416899639298438160e+03
-5.584249127931769181e+03
-4.347498142686702522e+03
-2.565756984204896526e+03
1.116007568049542442e+03
-4.271086743502859235e+02
1.284962094269948693e+03
-1.968562346933128424e+02
1.391352344806532983e+03
4.966355386789940951e+01
1.430190713627046534e+03
2.668976974653387060e+03
1.930347128138169808e+02
2.439318657363243346e+03
1.408227643570860721e+02
1.044569508304672354e+03
-1.825487304392435362e+03
-6.743501663318787678e+02
-2.965022802424192832e+03
-3.931604237511378415e+03
-3.819123306541028796e+03
-2.320550322984915965e+03
-1.028764513764326239e+03
-2.105745530898208472e+03
3.376224288987394857e+02
4.183600554738160895e+02
-3.247549120087857943e+01
2.957213475391145039e+03
2.833442768879568121e+03
9.383004563780564240e+02
3.809807830301571357e+03
3.810967859730783857e+03
1.050894426106231776e+03
1.957617409415253860e+03
1.790159227096759196e+03
1.318592013441970494e+03
2.261893106171090949e+03
1.368064811950529247e+03
5.769523548204816734e+02
-3.055048648519980929e+02
-8.862330528198422144e+02
-8.791115709007153782e+02
-3.111030546111144304e+02
6.308503200413816785e+02
1.631851217206639831e+03
2.925018479967056919e+03
3.126420139203002236e+03
3.101064256698326062e+03
3.489022801587782851e+03
3.598300832819804327e+03
2.940783882868326600e+03
1.062472490636402199e+03
2.810477591777497764e+03
3.176860848768452342e+03
2.559089226706528279e+03
1.569524291935983229e+03
9.400539607321172753e+02
7.624847047030567637e+01
-7.217743687766536596e+02
-1.307029185174285431e+03
-1.362579295963157392e+03
-1.091439276278446187e+03
-2.924667381966960420e+02
3.563775954409186397e+02
3.821027583285710989e+02
-1.515618492031502456e+03
-3.986505187194284190e+02
-8.405851033490311011e+02
3.051307248570199704e+02
-4.207009832617925440e+02
2.318245650557208592e+03
3.076272603007480939e+03
2.991211175599406488e+03
2.684970973487796073e+03
2.382540236832659502e+03
1.618021082826370957e+03
8.493455259404724984e+02
-1.225950817875890948e+02
-6.768818837760172755e+02
-9.896588849290581038e+02
-1.328021392928166051e+03
-6.078570098232981991e+02
-3.569255985451085849e+02
4.671715297863106571e+02
1.918967715288642694e+03
2.495785601967309503e+03
2.835034607171200605e+03
2.839739316522689023e+03
2.687868174965342860e+03
3.029368537210446448e+03
2.702113804908233305e+03
2.450992084242868259e+03
2.642936600965380421e+03
2.609869834509047905e+03
2.153761398029752854e+03
1.513580502986865895e+03
4.943314829016931640e+02
-6.629724139736929374e+02
-9.455180818048714855e+02
-1.066465725299035512e+03
-7.928430918125338849e+02
-6.249209169719031252e+02
-5.108188554049004324e+02
-1.544116369883100504e+02
1.012475960270335122e+03
1.416860155816027145e+03
1.358653886036914628e+03
1.379818000686910409e+03
1.627329271531062886e+03
2.391993844857493059e+03
2.540917096932029835e+03
2.180113797902470651e+03
2.183499901507148479e+03
2.106984355607233283e+03
1.401645846674810628e+03
7.253378405924656818e+02
6.280492636288067843e+01
-5.240466503332972934e+02
-1.115201295769833678e+03
-1.704817815624308878e+03
-2.126975028616057443e+03
-3.346614303820071200e+03
-5.580737676453531094e+03
-8.547390024647496830e+03
-8.813555356451111948e+03
-7.465159072552839461e+03
-6.440264568402105397e+03
-5.890001730102750116e+03
-5.574443393479324186e+03
-6.043413593844184106e+03
-5.257815483727360515e+03
-4.932010971419511407e+03
-1.633772655377137653e+03
2.043758844430279169e+03
-2.543394970974587523e+03
-6.461238250364336636e+03
-7.575793422895784715e+03
-8.901125024891229259e+03
-7.514354208254600053e+03
-3.452674407235413128e+03
-2.413036241318951397e+03
-1.576360617652708470e+03
-4.126773939639172113e+02
5.961393724383462995e+02
1.469073451885778240e+03
1.906066727908159919e+03
2.195128022278668141e+03
2.525270873913109881e+03
2.645578117021868366e+03
2.400100198710787936e+03
2.434822002891827651e+03
2.851635245074671275e+03
3.035645451087995752e+03
2.640884994479374654e+03
2.028423387019338634e+03
1.197351745869867727e+03
-1.432118301929015729e+02
-1.202330353600431181e+03
-1.676147718657404084e+03
-1.967848510403677892e+03
-2.143358622611239753e+03
-2.166737176057327815e+03
-2.403018501830243167e+03
-2.439008840301796226e+03
-6.254988858557577487e+02
1.133446200403181138e+03
1.502852057811864825e+03
1.492959011161192393e+03
1.450783962326459459e+03
1.609256381851895867e+03
1.951388090752732978e+03
1.612251040971061457e+03
8.000127090813394943e+02
1.107732590698300555e+03
8.943244848675694811e+02
5.666943451669810656e+02
4.738721021578031696e+02
-5.060462261743651879e+02
-1.507067145123947284e+03
-2.086189473416106011e+03
-2.149348762988235649e+03
-2.646474028104310491e+03
-2.229697245251168169e+03
-1.260020755174587066e+03
-3.599149839416364216e+01
3.714861000427534350e+02
4.622156269025056758e+02
4.324668813334134256e+02
4.986911950194200358e+02
6.899681297643971902e+02
7.958253862574348432e+02
6.494228246971318868e+02
-3.159543575516655665e+02
-2.459165920384513811e+03
-1.100292560612002944e+03
-6.647216745087823710e+02
-1.368391138594339282e+03
-2.458085506444778275e+03
-3.005857718985702832e+03
-3.392783254396552820e+03
-3.214918656618158820e+03
-2.707222666065462363e+03
-2.820736073332042452e+03
-2.849253478597486719e+03
-1.785611991854369990e+03
-5.208794992663022185e+02
-2.491519503779653348e+02
-4.023578481720563786e+02
-3.663251930095723878e+02
-2.479602104935890168e+02
2.647029395154712574e+02
1.518551668588929033e+03
1.781710861124404801e+03
1.404419136419656525e+03
9.695786638378750695e+02
7.191527834468732863e+02
-3.228633054407591771e+02
-1.323297298531618708e+03
-1.846125394141424749e+03
-2.268459079380597359e+03
-3.038318075374544151e+03
-3.328761700900352480e+03
-2.846625917949090763e+03
-2.379756477488813744e+03
-1.130047735340312101e+03
1.973327546012797882e+02
7.632256415018438247e+02
8.058893476836501577e+02
1.495824606243011488e+02
6.390695607594328749e+02
9.851397939365378988e+02
9.867737159565026559e+02
9.329918134067481787e+02
3.368692163546409120e+02
-3.415587375306503191e+02
-3.314476305270624152e+02
-5.877254425641796161e+02
-8.183699254975886106e+02
-1.362447480732465237e+03
-2.089946509953434543e+03
-2.311026459168708698e+03
-1.760615081298374662e+03
-1.696676527408440961e+03
-1.710210028490261493e+03
-3.951896245814147619e+02
6.082881283210455194e+02
8.872215633413065916e+02
9.866401947789399856e+02
1.180549839808544220e+03
1.611873581278649453e+03
1.907556990978474005e+03
2.366008884393614153e+03
1.875214947186190784e+03
1.520889841674211084e+03
9.549495305657836752e+02
-3.151621964002853815e+01
-1.211524643211135299e+03
-1.635335639504339269e+03
-1.709570759419648994e+03
-1.693428481492499714e+03
-1.315345790954406084e+03
-8.225154436603297654e+02
-8.664539793186893348e+02
-1.116351913213148066e+02
7.824051538744663503e+02
1.542750569055679080e+03
2.346696066500399411e+03
2.769655850946447117e+03
2.636712158914421252e+03
2.782898202260495054e+03
3.166728911877976770e+03
2.925395056154502527e+03
2.514996582885693442e+03
2.271150202410256952e+03
2.097341423723306889e+03
1.781718941177927036e+03
9.231161716973721241e+02
-1.329905325695324336e+02
-5.940459184892069970e+02
-9.487624829977270338e+02
-9.918903624437953113e+02
-8.921853830007511306e+02
-3.487747274592284725e+02
1.300878949550741481e+02
9.657923374555434748e+02
2.447544036926537501e+03
3.492941182634783672e+03
3.416158323459083476e+03
3.346652364622111691e+03
2.419556725047995315e+03
1.798437387799048111e+03
1.993872352279428696e+03
2.325558212012105287e+03
2.685662343746112583e+03
1.912305315575925306e+03
1.111845727137391577e+03
4.713525576857673371e+01
-6.358270440060572355e+02
-1.383203397009504442e+03
-2.115267502158137177e+03
-2.531968620964102684e+03
-2.322993211260619319e+03
-1.113227574420635847e+03
6.226199391651027071e+01
1.062346052267604819e+03
1.713024057990832034e+03
1.562297376891244312e+03
5.173380836860839054e+02
-2.200479416091853182e+03
-6.625010651169362063e+03
-7.629555954441650101e+03
-6.222174240312877373e+03
-5.097542987897004423e+03
-6.069354917346227921e+03
-6.306470379504005905e+03
-6.479047172364996186e+03
-6.951180935856864380e+03
-6.730612396254867235e+03
-5.671285391172729760e+03
-5.162697851122931752e+03
-4.499004975461950380e+03
-6.329068081099871961e+03
-6.905650021675842254e+03
-3.137741402511170236e+03
-3.232268112644994744e+03
-4.175324193672399815e+03
-3.313619674992816272e+03
-2.684630715843797134e+03
-2.283144459167294372e+03
-2.185869652345687427e+03
-2.180019727389239051e+03
-1.765709777718448095e+03
-1.520656496654057264e+03
-1.487525289138162634e+03
-1.498431270692350154e+03
-2.116564451381366325e+03
-3.689994212805379902e+03
-2.996587511769298089e+03
1.471457042041016166e+03
1.454005095618335645e+03
-1.406588020211620005e+03
-5.472059628977721331e+03
-7.050339774856959593e+03
-5.780210939515215614e+03
-4.296204460542095148e+03
3.076601024791473833e+02
3.327151122504820705e+03
4.455089410752291769e+03
4.798420024859225123e+03
4.231274544601836169e+03
3.333899225222689893e+03
2.508604553891267187e+03
2.334470076980785961e+03
2.851600686837427020e+03
3.244147120223809452e+03
3.784021006802428928e+03
4.242189606527965225e+03
2.625783482419119537e+03
-5.192119139622116109e+02
-2.153944981939980607e+03
-2.333305055482976059e+03
-1.645729091513381491e+03
-6.970121988588264230e+02
2.558846792669577042e+02
1.485634850080556816e+03
8.811723091122362348e+02
2.114751815074284423e+03
3.900497632378187518e+03
4.295402219981904636e+03
4.082456157720920146e+03
5.851785549827334762e+03
7.211578477222526999e+03
6.354795961672360136e+03
5.105314378958356428e+03
4.460095900720528334e+03
3.260349107908014048e+03
1.686548401119845266e+03
1.250603459092382991e+03
8.444612401459604598e+02
-9.869589863909418170e+01
-8.096998136825669690e+02
-3.969042565398414126e+02
-1.095476347694652048e+02
4.174381282657923293e+02
1.213647338423949549e+02
9.265071555394599727e+02
1.078127397278972694e+03
1.443251175930617592e+03
3.162939887923100287e+03
2.278845202878937926e+03
2.073371346626930972e+03
2.601148302054844407e+03
3.065366629808746438e+03
3.493008145882718054e+03
3.231545470960140847e+03
1.224538011793933265e+03
-2.646344042617890295e+02
-2.457410838974038825e+02
-1.135529887142205894e+02
4.625963608046521358e+02
6.681513779514673388e+02
-1.761628798957642914e+02
-7.043435260958700610e+02
-6.974135785638877678e+02
-1.799122601447605874e+01
1.323176519702080668e+03
2.247282402435333552e+03
9.146215231157448216e+02
-1.201531562578442163e+02
-6.355149802194936228e+02
-1.201921730689144624e+03
-3.653201740863075884e+02
1.665218895947025885e+03
3.400638172152209336e+03
3.616084127849975630e+03
2.940354254527017929e+03
3.269290755681201517e+03
2.010073601198366987e+03
-1.099287993658315827e+03
-2.568782047486683041e+03
-1.821386104839846894e+03
-2.517431945145650843e+03
-3.477317221871917809e+03
-1.561084624241279016e+03
9.143925937791206024e+02
1.793394943237567759e+03
1.630798856261528499e+03
1.908412828425841553e+03
3.554384729647055792e+03
5.478706456009928843e+03
6.313119344303145226e+03
5.533340905961656972e+03
4.191231786537360676e+03
3.334727958331984155e+03
2.507789550817843065e+03
1.762493149382276670e+03
1.455809019375813477e+03
1.732539661224007205e+03
-2.204634201605409771e+02
-3.918304773827088866e+03
-3.177113435817875143e+03
-2.395000562607148368e+03
-6.472895625533027669e+03
-1.085083143998288506e+04
-1.093482926375339594e+04
-8.197917077930600499e+03
-6.387080093737511561e+03
-4.255327860253021754e+03
-1.509653416245110066e+03
2.093992004932463260e+03
3.420783955213192257e+03
2.563422686510428775e+03
2.066717878750550881e+03
3.316564788792267791e+03
4.254960279070871366e+03
4.452952968327426788e+03
4.069488004229259332e+03
3.719452474156767948e+03
1.893747057646398844e+03
1.319322450046196991e+03
3.058243995584823551e+03
4.008380544162733713e+03
3.051677913212588010e+03
2.606358490492981673e+03
3.409535386100140386e+03
4.895203484787297384e+03
5.306359385803906662e+03
3.739068194480704278e+03
2.585326263303197720e+03
3.657219632121279119e+03
2.831771462614663051e+03
1.413933569778175524e+03
-5.983089000879901960e+02
-7.369122962270324706e+02
2.412183977527014633e+01
-5.991956608840991976e+02
-1.786852744491164685e+03
-4.092744533052917177e+03
-4.877790974017353619e+03
-4.151033670886217806e+03
-2.114534914295580165e+03
-1.648301795428557398e+03
-2.409259380267637880e+03
-1.144273455533969582e+03
3.012950258789220698e+03
5.495813622815398048e+03
5.551345889919696674e+03
5.714517805229312216e+03
5.118347371607581408e+03
4.755943766833036534e+03
4.665445734166029979e+03
2.882985989210669686e+03
2.141593677463785298e+03
1.955318509735250245e+03
1.087154884344436823e+03
7.222698666966339260e+02
-6.042002741743588103e+02
-1.072200770170624082e+03
-1.045597217570906878e+03
-1.121336309157108644e+03
-8.673905599426757362e+02
-1.595758642990410635e+03
-2.572250517922854215e+03
-3.371526870092517584e+03
-3.431418951156831099e+03
-4.658779122960203495e+03
-6.861377854718968592e+03
-3.698026640365012099e+03
-3.796338203302990451e+02
-7.410733529766285983e+02
-1.853241341366053575e+03
-1.129858798546214075e+03
1.201305926509142807e+02
-2.295268762208194403e+03
-2.762815608414639428e+03
-1.007416608158039708e+03
-3.566019333842712058e+03
-6.220695357588161642e+03
-7.726171416258371210e+03
-1.245623432837903238e+04
-1.493997594323620979e+04
-1.293927108057085024e+04
-8.826026276773121936e+03
-8.491052536074887030e+03
-6.080025396677603567e+03
-6.377821907653224116e+03
-8.002433270617349990e+03
-1.200960884439443726e+04
-1.176016265749385821e+04
-6.412977736892019493e+03
-2.107006510302306197e+03
2.198845616595079264e+03
7.050551584192154223e+03
7.446156976490225134e+03
3.924744234001469977e+03
4.455513146727332241e+03
6.818622468735215989e+03
3.630311838742821237e+03
-4.134415719276551499e+03
-3.314685500708344989e+03
-6.400483276793457662e+03
-1.004383501544647879e+04
-7.823749363700118010e+03
-1.106407424986452315e+04
-1.097258591896562939e+04
-1.207819320748013524e+04
-1.561873037283451413e+04
-1.243311413776342124e+04
1.986637688919296352e+03
1.063464035823375343e+04
7.288887733254331579e+03
8.595373479445826888e+03
8.225055108904180088e+03
8.321969629513225300e+03
7.084158742302204701e+03
2.560605202793889475e+03
-1.574758044888395034e+03
-1.664936210068915898e+03
8.489912569390991166e+02
2.359886295552821593e+03
2.406715846137480639e+03
3.197478078102830750e+03
4.188240991507333092e+03
7.232947899317515294e+03
1.513960299749627120e+04
1.714432383210109401e+04
1.422827040738611140e+04
8.509358144709571206e+03
5.217535965989170109e+03
5.659771106309350216e+03
7.802196377221827788e+03
8.064582321821009828e+03
6.986693773744167629e+03
9.872501640357086217e+03
1.480874406127563088e+04
1.456722101286651923e+04
1.188986356423158395e+04
9.671530738994524654e+03
7.576193958515692430e+03
8.086645684387031906e+03
7.873549292848595542e+03
7.823903320532251200e+03
9.617362571136220140e+03
8.829971843702331171e+03
8.790673638107706211e+03
1.173530986807049885e+04
1.163378231549074189e+04
9.214114034375839765e+03
9.028133290037052575e+03
1.295263117698440874e+04
1.531825592024790058e+04
1.528688367771270714e+04
1.379244198635073371e+04
1.308168066800602537e+04
9.849237264340225011e+03
2.549859081118282120e+03
-1.657578473846070210e+03
-3.020393803091485552e+03
-5.342721202587544212e+03
-6.203831313881241840e+03
-1.653878165774428453e+03
2.866893985651428466e+03
5.027991002259584093e+03
3.523475472956892645e+03
-1.758410291828115817e+02
-3.509181328797561946e+03
-5.437712659575209727e+03
-4.928580012490527224e+03
-4.478956543228789997e+03
-4.035039451913405173e+03
-2.708144671701804327e+03
-2.476535375887197915e+03
-3.506495328538092963e+03
-3.410273291457875530e+03
-4.526964502933064068e+03
-9.182611619552011689e+03
-1.427450381350803036e+04
-1.244093204156452703e+04
-8.671183950363432814e+03
-4.634496162401765105e+03
-5.063088612323025700e+03
-7.223260962490747261e+03
-6.437015776978514623e+03
-5.044598057917542974e+03
-4.837216642027758098e+03
-5.193913109234033982e+03
-4.724772155127982842e+03
-2.971039528845820769e+03
-2.198814857450081035e+03
-3.937173012932728852e+03
-7.576305132204194706e+03
-1.011743144301280154e+04
-7.258679303790782797e+03
-5.455180632568584770e+03
-5.632199258295652726e+03
-5.383817095338307809e+03
-4.676135439584457345e+03
-6.790290435745661853e+03
-1.144655968990644578e+04
-1.692008193477996247e+04
-2.015395116301858070e+04
-2.083025027692718868e+04
-1.911420104009277202e+04
-1.529681603476026066e+04
-9.990046817046913930e+03
-4.395090504549842990e+03
-4.511838091094674382e+03
-5.047364643055841952e+03
-3.437813306794037544e+03
9.527270776396545671e+02
-1.573790650821238614e+03
-8.057400281798370088e+03
-6.772028563315397150e+03
-4.159724026478776068e+03
2.972373060828942016e+03
8.377171132357849274e+03
7.775633413171402935e+03
3.499702722551729948e+03
-1.889573726250794834e+03
-8.887270142477542322e+03
-1.179841349847985293e+04
-1.159205296844907753e+04
-8.439271894472834902e+03
8.770072424801833222e+02
9.040051683718704226e+03
1.323491625040928011e+04
1.202161933920685624e+04
1.164927341487136255e+04
1.049385266238254189e+04
8.092256782011699215e+03
7.981509636937073083e+03
6.195748403890604095e+03
2.552081576054395555e+03
1.460437811584133897e+03
1.262050566891861990e+03
1.860100551283639788e+03
4.153570608646819892e+03
5.652377862704785912e+03
3.227722347939030442e+03
-8.312520342326287164e+02
-3.640709963250738383e+03
-2.212642244353983187e+03
-9.348848629149549652e+02
-8.052963078977113582e+02
1.794289736467648481e+03
5.395007561587031887e+03
8.556929681352670741e+03
9.015275694332543935e+03
8.443331915893233599e+03
8.057316715333496177e+03
6.869337967039326941e+03
7.211490869316595308e+03
8.544844031529764834e+03
8.936475182970329115e+03
7.732377588563942481e+03
6.701827505789731731e+03
5.311156147196497841e+03
3.453485186304188119e+03
2.314216493898277349e+03
9.447119949375110082e+02
-4.332399611842689069e+02
-1.715838227157057190e+03
-2.211816986629590247e+03
-2.313950890781498401e+03
-1.933948261438704776e+03
-1.149646499334887949e+03
1.305755499347137402e+03
4.639519793099559138e+03
6.015964018204937020e+03
5.511213110964446059e+03
4.653266111901048134e+03
5.154210383970540533e+03
5.525209925726083384e+03
5.401431892980418525e+03
4.648989110576691928e+03
2.618166735829916433e+03
1.286041522390112277e+03
-7.724805348661493554e+02
-3.544207517688889311e+03
-4.724795639933057828e+03
-5.077152663279817716e+03
-5.486319280591774259e+03
-6.083160940503624261e+03
-5.535483707321916881e+03
-3.994961888412976805e+03
-1.914407219204862486e+03
5.113714254265359216e+01
1.336029794626206240e+03
2.482517829705000167e+03
3.052790648532852174e+03
3.000852162946531735e+03
2.851690282884688713e+03
2.192455136029178902e+03
1.631277495909876961e+03
1.747349451484995143e+03
1.416674748062372373e+03
-6.607309877846357722e+02
