2.279823873520141206e+03
3.586949834710092091e+02
-2.743045835749857815e+03
-4.548341169061927758e+03
-4.658148488536443438e+03
-5.131371826394316486e+03
-6.483993465418127016e+03
-6.859996858692961723e+03
-3.629325042321434012e+03
-1.373878336464741096e+03
-1.168663678943549257e+03
-4.023727270676492935e+03
-5.226060986605742983e+03
-3.699517650262737334e+03
-3.712936368519148346e+03
-3.357227167943754466e+03
1.402652761766392587e+03
8.299741131202968973e+03
1.173808191692624496e+04
9.755689294043551854e+03
7.526546871495479536e+03
5.239719825491700249e+03
2.030346781891502587e+03
-2.233237385317605685e+02
-1.935155241247719687e+03
-2.091992742066154278e+03
-3.778277845652534666e+02
2.656362901379858158e+03
2.704542144199451741e+03
-2.362600282395001443e+02
-1.489983046011335091e+03
5.853965117813119150e+02
1.904879127316032509e+03
-3.156943149181332728e+02
-5.201230681539113903e+03
-1.054961526981716997e+04
-1.147181359560559576e+04
-8.089740945405116690e+03
-4.409759708276723359e+03
-7.309113496871539439e+01
3.449356385537701044e+03
1.742021087481820814e+03
-1.262868904362733701e+03
-3.537344650794058225e+02
-4.978447941584414593e+02
-4.422213868730796094e+03
-7.240775870108456729e+03
-8.444501661296284510e+03
-7.427405788724694503e+03
-3.450594433985715114e+03
2.168774800251536590e+02
1.107066533730673882e+03
4.229575775515582450e+02
-2.368420466757377653e+03
-1.275980423785707899e+03
2.547186497635978412e+03
4.904123806493905249e+03
7.286857809009216908e+03
1.029126816874954238e+04
9.219393447427333740e+03
5.604244677283356395e+03
3.719782473877660777e+03
2.433000883998088284e+03
4.058649837920336267e+02
6.083912609928155462e+02
8.865732543087302702e+02
2.233619871680078006e+01
-2.680350004404482206e+03
-4.468503981466170444e+03
-7.221926855721777656e+02
1.900572809116279814e+03
9.417505652980903506e+02
2.164365789611209493e+03
3.111378565184143099e+03
2.355723876629458573e+03
9.703135571194320619e+02
3.571856862307749338e+02
1.427900020321074415e+01
6.656521321327006717e+02
1.514256278635431727e+03
1.731987260270094566e+03
2.119885352976015838e+03
4.166930741884184499e+03
5.776010244524209156e+03
4.623129991650474039e+03
3.932307210758384372e+03
-2.085525273232021561e+02
-6.580607738993670864e+03
-1.182796414002098390e+04
-1.285052355202900617e+04
-1.208924716966070264e+04
-9.532233155307629204e+03
-1.754498497701587667e+03
7.348468097207123719e+02
1.880576211283303323e+01
1.651457091896845895e+03
1.621600918367389113e+03
-6.068428693130094871e+02
-1.238443396684790969e+03
-8.783904800768337964e+02
-2.868632767968261987e+02
-3.948786665926323849e+02
-1.922365791350237487e+03
-4.496458798777405718e+03
-5.712126203060208354e+03
-4.025304432892966815e+03
-1.930104584620734840e+03
-1.902704796170623922e+03
-1.176196933838647055e+03
-9.236004829635828628e+02
6.011338338337202458e+02
2.642928421383197474e+03
3.074718657984555193e+03
2.613428206009784844e+03
2.020091917958604654e+03
2.821896092456858696e+03
3.498826606207831446e+03
4.826838449361858693e+03
7.236836580124358079e+03
7.076780190604064956e+03
5.610653954417849491e+03
4.334389695800406116e+03
3.813922616105034194e+03
2.391311594208973474e+03
5.476112333612481962e+02
-4.522593614748062123e+02
-5.124476922844178262e+02
6.109325392412005158e+02
8.768174453247097517e+02
1.199185002835334672e+03
2.670081064594003237e+02
-6.027079767748660970e+02
-2.859305055175249777e+02
-1.826374323095558623e+02
-1.836871732021839080e+03
-8.725823638400638629e+02
-5.768484918062463294e+02
-1.384686527980210030e+03
2.889454956239052876e+02
3.296027563956902668e+03
3.372588266453703909e+03
2.979742840736912967e+03
2.175629407078312852e+03
1.967287840471811933e+03
2.278630122279463649e+03
1.135654147246263392e+03
-6.816048163252945642e+02
-2.643166176279305546e+03
-3.259037438436409957e+03
-4.440362084755842261e+03
-6.524300724300354887e+03
-5.007914395380400492e+03
-1.589135230167581540e+03
-4.397039361863095053e+01
4.314575186609042703e+02
-6.239130544820216073e+02
-2.047938805725594648e+03
-1.399561125063444024e+03
1.243231820681649879e+03
3.176409997035785636e+03
3.571064367925511760e+03
-1.401694001267820795e+03
-1.385940802225779180e+03
-1.767533712804533934e+03
-5.053704504551475907e+02
-1.555616810081203880e+02
-6.360248207860226103e+03
-5.969428603245754857e+03
-2.081170472208136744e+03
-1.284794810414439041e+02
1.137203408190250684e+02
2.421489551135796319e+03
2.988871084577235251e+03
-1.453083042050539689e+03
4.851397838500410842e+01
-2.025403069485205378e+03
8.632205791636994263e+02
-8.663602609919227859e+01
-3.330985876361526607e+03
-4.203753408588654565e+03
-4.801032809428962537e+03
-1.307932296838628645e+03
5.625640544690648994e+02
3.324626484855018134e+03
1.224356355328767904e+03
2.991690035882117627e+03
-8.924355628506186804e+02
-1.423008251836305590e+03
-5.395925792942117369e+03
-6.205010797039843965e+03
-5.473313698900117743e+03
-1.240960193701922890e+03
6.270868664044493244e+02
-2.382052647324245299e+03
-1.892257224414712766e+02
-1.761585961160239776e+03
-2.352174545912445410e+03
6.438867495797203446e+02
6.642008849263827130e+01
-1.162524307842363896e+03
-7.738573445220880558e+02
2.614589264816438003e+02
1.812636338121440758e+03
3.096915528840191655e+03
4.270218778461874535e+03
3.890338782400874152e+03
3.572002233374600110e+03
2.516256642536196523e+03
1.022207037356720321e+03
1.137745937055877619e+02
-3.520958089807210172e+02
-4.081183886359557960e+02
7.502174835981652734e+01
7.114178199101482960e+02
7.683308683015363840e+02
1.190784037616874002e+03
1.732839114700668461e+03
2.161989987065497189e+03
2.967740664950033533e+03
2.817158654870506325e+03
2.995755693289423107e+03
3.285846231336166966e+03
3.315760889086007410e+03
3.033872776567468463e+03
2.459838527322818209e+03
2.376521129924550223e+03
1.671012861824788388e+03
8.596985283786563059e+02
8.415387842572987438e+02
1.053328366801451921e+03
9.710160549754683643e+02
1.269834270689467303e+03
1.453627028076161650e+03
1.579843881366824007e+03
1.683132668317537764e+03
1.522373537466242169e+03
1.821488036151567940e+03
1.890738437482768404e+03
1.453963891054731221e+03
1.326161799039642801e+03
1.612153801325442146e+03
1.267894856610040279e+03
8.384721406430579691e+02
7.200580074223099700e+02
1.085731546079682630e+03
1.218289141031440522e+03
3.666688155538876686e+02
-5.882492370070659717e+02
-7.925529559236036903e+02
-1.141234431639507534e+02
1.475925275761609328e+03
2.172386144506996516e+03
1.296256604689672486e+03
9.456096835295775236e+02
1.291514279797790778e+03
1.276169973644604624e+03
1.141464005881369758e+03
1.387373979452128424e+03
1.985039578662817348e+03
2.645569515301010142e+03
2.791866632224614023e+03
2.765808962507680917e+03
2.625428701594313225e+03
2.636842238284377800e+03
2.173957444710118580e+03
1.807465280113378185e+03
1.153422023074013623e+03
1.629978808738225098e+02
-5.706643392814461322e+02
-1.037717619690267156e+03
-1.045294952514508623e+03
-7.123403734113004475e+02
-3.748315621024925122e+02
2.049024880644151665e+02
1.260557850437109209e+03
1.738245885711542314e+03
1.047389805594626068e+03
-1.949663052034854047e+02
-2.605792850658327552e+03
-4.916024210187521930e+03
-8.905656068614736796e+03
-9.011624273311625075e+03
-8.665006112636758189e+03
-8.197998729191313032e+03
-7.734719645142526133e+03
-7.933917811580399757e+03
-8.685413328798749717e+03
-8.837293980455144265e+03
-7.988852442560034433e+03
-7.284016841740774908e+03
-7.752480366365383816e+03
-8.366969720217161012e+03
-7.917333091869325472e+03
-4.942821974097739258e+03
-2.864785036493620282e+03
-7.343375071883411692e+03
-8.510692935802544525e+03
-4.316588039908244355e+03
1.710392277200406397e+03
3.399307271239313650e+03
3.492814507051109103e+03
3.275036834329857356e+03
3.426325173415380959e+03
3.535691355346682030e+03
3.754074895551702411e+03
3.653325727503416601e+03
3.038151624947807704e+03
2.405498616689426854e+03
1.895535215415408175e+03
1.140455890533643924e+03
1.262492654225221941e+03
1.132353028879360636e+03
1.616775189119121251e+03
2.461859507795626087e+03
2.061592870003836651e+03
2.095957675560089228e+03
2.403261445999286934e+03
2.384818568039779166e+03
2.440607685095249053e+03
2.593652203778541661e+03
2.136984539654949003e+03
2.164437839404663919e+03
2.292048425981682158e+03
1.997991849626938347e+03
1.826466313211277793e+03
1.752464632097832464e+03
1.819550152809454403e+03
1.659765811759078133e+03
1.906304212581204865e+03
1.782025406503061959e+03
1.480054077289998304e+03
1.080561874667897655e+03
1.113615560873580307e+03
7.092103311595863033e+02
1.033409931133974624e+03
1.981175612735340337e+03
1.926491355118414276e+03
1.958417633250415747e+03
2.029958604501943455e+03
1.551038956459085057e+03
1.422670529071770488e+03
1.876928179760543799e+03
2.061705406700945787e+03
1.469434318589697341e+03
7.397613948010809963e+02
7.647972249530879481e+02
1.219248315201253035e+03
5.910423540204125175e+02
-1.329015384396010404e+02
-6.208628036161367163e+02
-1.146871036265189787e+03
-1.845927139934205798e+03
-4.272221393670395628e+03
-7.015675450372278647e+03
-3.600142662178889168e+03
-2.417214847313115570e+03
-2.799172588406234809e+03
-2.353234095965293818e+03
-1.038399765618402171e+03
-8.954130348100820811e+02
-3.181575765563385971e+02
1.134330557595173104e+03
2.010802445101147896e+03
2.007261733968066210e+03
1.570972019203348282e+03
1.062780566173627903e+03
1.028580604142869333e+03
-7.819074273345464121e+00
-1.541481651190287494e+03
-2.704271784775842207e+03
-4.035137867814160927e+03
-3.555093049340910966e+03
-2.785325817734803422e+03
-1.291838456532634837e+03
-1.267207525999153432e+02
1.469331742838573973e+02
2.834365881477493758e+02
5.428908899818625287e+02
3.723226020215665812e+02
-6.353518293463677082e+02
-8.891316757995231228e+02
-5.570046870510526560e+02
-2.399786098904012590e+02
5.868591795143996706e+02
2.080345634953864192e+03
2.544522146585706196e+03
1.919335584762716735e+03
7.178547122660078230e+02
2.520730305858407689e+02
3.869495329159061612e+02
-3.459195232050711155e+01
-7.652926067961634260e+01
-1.951424403915113714e+02
-5.313500751032797780e+02
-1.219949322497678622e+03
-2.352179147343128989e+03
-3.561331101877755827e+03
-4.240204678835567393e+03
-3.608806632972089119e+03
-2.472077265000235002e+03
-1.893044237079364166e+03
-1.126881127924682005e+03
2.405481493501606849e+02
1.306365922142997761e+03
2.387501700118893041e+03
2.680775834609431513e+03
2.155235416237904701e+03
1.778854409129862461e+03
1.644224841906632037e+03
1.513231553958386030e+03
1.262904073777976464e+03
9.162239674299198668e+02
1.120291845076245863e+03
1.087117395388875366e+03
6.574626794361610109e+02
-4.968587079165275213e+02
-1.630878950719924433e+03
-2.109608602254249490e+03
-2.358737089817673677e+03
-1.399679296779995866e+03
-6.113912001474628255e+01
1.000928652708425943e+03
1.551512570653478178e+03
2.482087769537648001e+03
3.129354782948386401e+03
2.349243157895023614e+03
1.598226244400579617e+03
1.602037031664743836e+03
1.966646253134189237e+03
1.670446976297766696e+03
8.599843996388675578e+02
6.932929999043423095e+02
5.875425572547389947e+02
8.055922772868977972e+02
8.517275360509830762e+02
7.921973021677957831e+02
-3.291916156701372529e+02
-1.718340972228588498e+03
-2.300076612605137598e+03
-1.204248504152299574e+03
8.463514659417940038e+02
2.241980408566182632e+03
2.687222174644671213e+03
2.583517175260627027e+03
2.593695773484144411e+03
2.815055441514392896e+03
2.459257078336142058e+03
9.031405564577357836e+02
1.084124478577922872e+02
5.812537212878708033e+02
2.241023377387335586e+03
3.056334944192291459e+03
3.769700060114621920e+03
4.473618148141084021e+03
4.155681715108764365e+03
3.391134455435309519e+03
2.727057464545574476e+03
2.512323368207810290e+03
2.474811044041848163e+03
2.054436520408438355e+03
1.576193757465421641e+03
1.040062752501660725e+03
4.831584528816148350e+02
1.034531542503147421e+03
1.846254755714452813e+03
1.201368470268666670e+03
-1.276161547989572000e+03
-2.580349094081609110e+03
-3.128196509026285639e+03
-5.248781915968193061e+03
-7.514078236103069685e+03
-9.410039055758765244e+03
-8.388749986554790667e+03
-8.624204083096319664e+03
-8.562371388571911666e+03
-4.397199805611754527e+03
1.892383100015989157e+03
1.351372348706258663e+03
-4.293194038870569784e+03
-5.129341073417380358e+03
-1.542957127960685966e+03
-9.769745795804392401e+02
-4.411455899521146421e+03
-4.257335344255821838e+03
-2.860509379859976889e+03
-3.118583104708197425e+03
-3.356799657043125080e+03
-1.737239289297442156e+03
-1.512959451002176138e+03
-5.774889189595389325e+03
-7.195983430508705169e+03
-7.651170583110823827e+03
-8.508371427976439008e+03
-7.880636830632378405e+03
-7.648961924234259641e+03
-6.312210528727232486e+03
-5.913346766350420694e+03
-5.876311104428889848e+03
-4.957973694758745296e+03
-4.378375765756999499e+03
-3.936411278291625422e+03
-3.049014534364190240e+03
2.528767464575621489e+03
4.265084844672915096e+03
4.857048680259174034e+03
5.756634253445388822e+03
5.380850038152217166e+03
4.677672087860017200e+03
4.821267580441000973e+03
5.048780847997020828e+03
4.662165201667811743e+03
4.344314247828962834e+03
4.164270226199902027e+03
4.442188365733089086e+03
4.742142481086320913e+03
4.785124540482614066e+03
4.334126838906580815e+03
3.796287590774224100e+03
3.257677496333181807e+03
3.180355922022398317e+03
2.772364752548027809e+03
2.440747893908822334e+03
2.717587179678688244e+03
3.756957434490448577e+03
3.442008821414196973e+03
2.201727908422015389e+03
1.953131646296516919e+03
1.043273487413740895e+03
7.781662722557488223e+02
1.506825743778262449e+03
2.247253393748935650e+03
2.452406547079620395e+03
2.931335114091501509e+03
3.247201863426513682e+03
3.316244060067981536e+03
2.459630715731018427e+03
1.663391129457399757e+03
1.587740643946266346e+03
1.844432994922274247e+03
1.636364812683692435e+03
1.828533863142818063e+03
2.760867832481351343e+03
2.683773064065849667e+03
2.519443346929927884e+03
1.855939959195517304e+03
1.601097619491168643e+03
1.476906784094346904e+03
1.093485603254903936e+03
6.568916016413301122e+02
4.370398218343029839e+02
2.466596163806730999e+02
-9.521945285426970713e+02
-2.188000263187561814e+03
-1.517851813877527775e+03
7.493183471223467507e+01
5.842241427735855268e+02
1.419738714069786454e+02
5.319385596590336007e+01
-8.013274705730357539e+01
-5.901777753982127450e+01
1.075505018244110573e+02
4.215669490448481156e+02
4.460338259184405274e+02
2.229811099805855577e+02
-3.795843468551507272e+02
-3.925478605821838869e+02
-2.589475672969184075e+02
-5.269040984950972870e+02
-1.203358357026721251e+03
-1.728387121389838057e+03
-2.274098163224595737e+03
-2.161486716647477806e+03
-2.339458987820399670e+03
-2.039021372084558152e+03
-1.269239880057182518e+03
-1.560525406596152322e+02
-9.567038315178512775e+00
-4.177699455826215740e+02
-6.736816658761268855e+02
-2.384152170259231127e+02
1.870161481385209186e+02
6.086851953625250644e+02
9.785725663977869999e+02
1.369635800016185385e+03
4.388965707065416382e+02
-7.247811916097897438e+02
-8.254090910552976084e+02
-7.960001636755065419e+02
-1.264557444519327873e+03
-1.797109579577594786e+03
-1.810686287721087410e+03
-1.633432974594511734e+03
-1.605453678464220957e+03
-1.658688241136312399e+03
-1.797194384362368737e+03
-1.228999564571144674e+03
-6.811107295237969765e+02
-2.393487433592998968e+03
-6.380078697669680878e+03
-1.032401669412462616e+04
-1.047830727227267198e+04
-9.873000777518260293e+03
-9.817217172877955818e+03
-9.063978168847253983e+03
-6.948233697283441870e+03
-9.680478140414493282e+02
1.642548803586269514e+03
1.400505382437674825e+03
9.127715495607013736e+02
-4.304597681965659604e+02
-3.080195297798629781e+03
7.409794428660786707e+02
2.537228603255603502e+03
1.955617723003543688e+03
3.649794958216870100e+02
1.222345004320710302e+02
-3.605640012052205066e+02
-5.625492646551447251e+02
-1.099796112484897094e+03
-6.942916343716653955e+02
1.697998043649000010e+03
3.523068434821708706e+03
3.999898746728235437e+03
3.617434234285906768e+03
3.417701888050286925e+03
3.782674787685210049e+03
4.102306961920006870e+03
4.145596166026262836e+03
3.200371495199540277e+03
2.172564472829247279e+03
7.150748477736831319e+02
-6.131622356666476890e+02
-1.771423246232460542e+02
3.041684901369191039e+02
1.320817081418209455e+03
2.235806861525633394e+03
2.365123425054918243e+03
2.022706806976138296e+03
2.320584364730535526e+03
2.683773699850029061e+03
2.635104274450569392e+03
2.787465276612594153e+03
2.745876425284849120e+03
2.579350334772121187e+03
2.490953296350079199e+03
3.500659140691068387e+03
3.977477396007972402e+03
3.155448192975193251e+03
1.348471224903004668e+03
1.204882660633318210e+02
6.794828551596136776e+02
1.380484917939895013e+03
7.495447579131171096e+02
5.057242235095503702e+02
1.600530927740594933e+01
1.332711242522266559e+02
9.524829921657443492e+02
6.226823131710291364e+02
9.748935094412798890e+02
2.608018027504746442e+03
3.574083256409589012e+03
3.982029529978104620e+03
4.958910818158183247e+03
5.004935729501997230e+03
3.792157333284541892e+03
4.146532890487591430e+03
4.322962946690825447e+03
4.022390338232380145e+03
3.931878015763961685e+03
3.823361051643964402e+03
3.099889322634760902e+03
2.856564552133085726e+03
2.581440545996523724e+03
1.264620473918412699e+03
-2.131974785439308107e+03
-7.123360523991713308e+03
-9.195605258563433381e+03
-8.655715134199012027e+03
-8.390672537626553094e+03
-8.908436449928563889e+03
-6.737044545249280418e+03
3.255786970483730443e+02
9.985575129021377734e+02
-3.131084365477283882e+03
-5.640360831217863961e+03
-4.153217095807972328e+03
8.382052633745615822e+00
-1.933495908341642007e+03
-5.640732526098894596e+03
-6.234320505679573216e+03
-6.451407435273660667e+03
-5.879014354602513777e+03
-5.428106245967716859e+03
-2.821506162121089346e+03
-6.039121732904633973e+03
-8.651971908006391459e+03
-6.879175111914390982e+03
-5.915805836661451394e+03
-6.080774900553818043e+03
-6.279960960448908736e+03
-5.534290503016693037e+03
-4.472716805183700671e+03
-4.848194515933916591e+03
-5.606639171881648508e+03
-5.842912188412747128e+03
-4.997052462076903794e+03
-4.124184462478464411e+03
-2.599466582556835419e+03
2.967226918209249561e+03
3.872928240710037244e+03
3.768622340967981017e+03
3.713449339076387332e+03
4.014440032424548463e+03
4.439584415374562923e+03
4.323924798552901848e+03
4.047514962912412557e+03
3.814413321268003074e+03
3.515714505530733277e+03
3.181462164330448559e+03
3.456635657082949365e+03
3.811174080647394931e+03
3.942084350961454220e+03
3.866483552126979248e+03
3.800444628913189263e+03
3.988888448316170525e+03
3.656803565565205190e+03
3.837654613056697599e+03
4.037616601758141314e+03
3.336640891785596523e+03
2.590599329791208675e+03
1.826524693878425069e+03
1.939407683525457287e+03
1.844993245959257592e+03
1.694327019230147926e+03
1.899476890627782495e+03
1.160397735868661130e+03
1.043029706368577990e+03
9.942901748423442996e+02
2.141221672723866121e+01
-1.584108091611171403e+03
-2.997664789201735857e+03
1.282241592303239486e+03
3.050262818738552141e+03
3.339154543632151217e+03
2.812579343202472955e+03
2.572849038684882544e+03
2.344395261990384824e+03
2.532115772443661172e+03
3.039863426822143083e+03
2.889645382586522828e+03
1.929327574785158276e+03
1.407910265244399852e+03
8.662111969831972829e+02
8.652432189876963093e+02
1.364095998127359735e+03
4.917149311437030974e+02
4.932013943242472465e+02
1.349615321404327233e+03
8.563895768674253759e+02
4.633656004278043952e+02
4.689152925552266993e+02
6.496904775899152185e+01
1.424475910847275451e+01
2.407830470893636061e+02
1.573577495046421973e+03
2.854589747497449935e+03
3.506743056659779995e+03
2.842056620716044108e+03
1.486527210068241857e+03
1.100140165006991083e+03
1.384835626885823103e+03
1.410601668717200937e+03
8.303750932210332394e+02
8.831028132657062315e+02
1.051858257507512462e+03
1.232667469202884149e+03
1.489493531709139006e+03
1.112333715637421165e+03
1.078186989014315486e+03
9.260344151599200586e+02
1.598786007913503909e+03
1.614554327038258180e+03
1.331357339786584816e+03
1.545078430068882881e+03
1.802789690817081464e+03
1.837503999452296284e+03
1.691097444856230595e+03
1.038524208700750251e+03
-1.321956094960986263e+02
-1.252147627787461715e+03
-7.403747353154275288e+02
-5.491806881801502271e+01
1.262341528038136289e+02
1.570233696964784826e+02
-5.871571461475279108e+01
-1.748924704152871982e+03
-4.154565904795074857e+03
-8.662773421746403983e+03
-9.691552361474385179e+03
-9.375822456137369954e+03
-7.903571957344271141e+03
-7.539708973389180755e+03
-7.478333004651921328e+03
-7.285545714624738139e+03
-6.808247522143485185e+03
-6.505488449681413840e+03
-6.931306834797414012e+03
-7.180693125048454931e+03
-7.911557959847192251e+03
-7.486885802774354488e+03
-5.163783110718686657e+03
-4.663004534799845828e+02
9.645770365659496974e+02
1.357913345029693573e+03
1.168626299762538338e+03
1.106733107016654913e+03
1.156246847666113354e+03
1.305241978581380408e+03
1.188811880417625161e+03
8.059772524566225229e+02
2.467224814171830474e+02
1.257101177762777525e+03
1.639077432266014739e+03
1.396630017482020094e+03
1.818712458228748119e+03
2.171320291484685185e+03
1.848465857058191659e+03
3.382818026643394660e+02
4.227424732363239741e+02
1.042819822050769062e+03
8.004430027677341286e+02
1.771573306700219291e+03
1.887296487246960623e+03
1.808718939577822994e+03
2.236815825225973185e+03
1.618571495876842391e+03
4.749311954876230288e+02
5.129636784898584665e+02
7.486480967182639006e+02
1.005082352631715139e+03
1.820268194930165464e+03
1.803220763096664541e+03
1.669030154744722722e+03
1.512635003867987507e+03
1.540025991221115191e+03
2.105308333649704764e+03
2.369484701633863097e+03
1.928588295485579465e+03
1.270686993622239015e+03
8.308890932217760792e+02
4.734110851065700842e+01
-7.689707510188442257e+02
-2.081267434932366541e+03
-2.328533073662669722e+03
-6.126216966407580458e+02
3.064585067982848088e+01
4.134815835256826517e+02
4.058567645256720198e+02
-1.231844402564699337e+01
2.980248251952010605e+02
7.837840811838482296e+02
7.740578816010165610e+02
1.024823661503580752e+03
1.039413488440563469e+03
5.684195513766802605e+02
9.957304365990814858e+02
9.695195907119032199e+02
1.390234240241373982e+02
2.748239307350826834e+02
3.869298333254560589e+02
-3.415073130283065552e+02
-5.703001175533150899e+02
-5.945656667786155367e+02
-1.389277252957494511e+03
-1.632360331916112727e+03
-1.501738446872029954e+03
-1.159449064084520160e+03
-8.016402835520930239e+02
-3.292937638281036357e+02
4.777482417144192368e+02
1.149610079720810290e+03
1.201283577403472009e+03
1.143736403216697227e+03
1.000014099714927170e+03
7.702360329951303584e+02
4.973931436753948105e+02
3.294654659251351063e+02
-3.563424119663363285e+02
-1.554968554860183531e+03
-2.301668892680482713e+03
-1.991627190106164790e+03
-1.646827708830840720e+03
-2.195137887448652691e+03
-2.776571863489470616e+03
-2.113096722240233248e+03
-5.887530011059451454e+02
-5.961028658691299142e+01
3.974556525852073605e+02
6.604228555722996816e+02
1.512000938011412927e+02
-2.500982325537495967e+02
-3.584949012171344407e+02
4.778640190385659707e+02
1.662014674224835062e+03
2.262064797935649949e+03
2.231059640329302511e+03
1.770032366118284699e+03
1.172863640867092954e+03
4.555250911789755719e+02
8.109276851926038887e+01
-2.734849171954386406e+02
-9.051483053945736401e+02
-1.416912728075221594e+03
-1.848886513140757188e+03
-1.653102777438262365e+03
-1.888564412525535772e+03
-1.844216043657572754e+03
-2.431863015090445515e+03
-3.233724866002062299e+03
-2.327949248656445889e+03
-4.934513258020795661e+02
1.299906133160598984e+03
1.959897043213594770e+03
1.598323606666618844e+03
1.662143927039538539e+03
1.185362936504572644e+03
8.249856286057038233e+02
1.088069520893486242e+03
8.955806175209032745e+02
1.586314300786703370e+03
1.561290723721139329e+03
1.184862912703290931e+03
8.946441102223514008e+02
9.066822335126718144e+02
9.017649738425612895e+02
8.095678258844287711e+02
4.251573234578175402e+02
5.672551535941993279e+02
5.245768911005085329e+02
2.113547405221459030e+02
-6.263593968771915854e+01
4.393753417020778329e+02
4.333827499680670599e+02
2.271882361205526593e+02
1.871216829090786405e+03
3.725291666412118047e+03
3.927772159620541515e+03
3.299084133115999975e+03
2.439779735987228833e+03
2.094114774099207352e+03
1.879067469771351170e+03
1.513137340226605602e+03
8.561708581960350557e+02
2.382559681490955583e+01
-4.427165500397008486e+02
-5.554437467789034599e+02
-6.873235364991113556e+02
-5.434133588137850666e+02
1.039959223440949501e+02
1.030747192786432379e+03
2.149880433234719476e+03
3.106396261816301376e+03
3.492439843451722481e+03
2.914646950273565380e+03
2.992794490490482985e+03
3.248131089537720982e+03
3.124700189113565102e+03
3.484088434803790733e+03
3.301005265194134608e+03
2.393777350741859664e+03
1.809406435789885791e+03
1.603979968113518680e+03
1.292501653923334061e+03
1.697853186832749998e+03
2.282171948946634529e+03
2.196502330747735414e+03
2.120760675765567157e+03
2.301665041802411906e+03
2.296959156177507339e+03
4.767776419184385759e+02
-2.587896594440973331e+03
-6.459072207084813272e+03
-7.137791874018949784e+03
-6.534987267106683248e+03
-6.909607163169661362e+03
-6.269935581819720937e+03
-6.458979112901905864e+03
-6.689690144498477821e+03
-5.547232478044285926e+03
5.134453756761589602e+02
2.298644589268096752e+03
-2.970464032612277151e+03
-6.266988957685147398e+03
-6.366118425372199454e+03
-5.983926259231526274e+03
-3.254750473050068194e+03
-1.919258513052974195e+03
-5.922147413099350160e+03
-3.220800646580147713e+03
-3.346164619789982225e+03
-6.119103832756167321e+03
-6.409495551522915775e+03
-6.128464273019991197e+03
-4.774969062707792546e+03
-4.226101080688215006e+03
-3.901065823210633880e+03
-3.595998859780614566e+03
-3.309723118888914541e+03
-3.901005530008043479e+03
-5.070784173267125880e+03
-5.387093543706998389e+03
-5.205817902105599387e+03
-3.373668742290927185e+03
1.823979783995798698e+02
-2.560782598866239368e+03
-1.803381830251604924e+03
1.662488307544196232e+03
4.481966912844406579e+03
4.876320287137622472e+03
4.925464171357661144e+03
4.683270764711004631e+03
5.028775608120125980e+03
4.840930918801400367e+03
4.496751184263887808e+03
4.324676980397319312e+03
4.323896435846500026e+03
4.340589126322674019e+03
4.663129957065047165e+03
4.267889735602486326e+03
2.695452442288200928e+03
1.836831944831850933e+03
1.291180418968608592e+03
8.239137412497024116e+02
7.148504485957995769e+01
-5.997978835313581385e+02
-7.160927399982618908e+02
-7.792941308204032111e+02
-3.073885538091899434e+02
-3.896786660611111870e+02
-9.655139247087428203e+02
-1.243877544284813439e+03
-5.066351233213272280e+02
1.841528640587547727e+02
9.915843395048665343e+02
2.216066047695497218e+03
3.311985966350258423e+03
4.386370789669922488e+03
5.298390892682069534e+03
5.821094292989680071e+03
5.797906327740851339e+03
4.354631925419646905e+03
4.070384179825889987e+03
4.038383643578614283e+03
2.763758386855132358e+03
2.324591024827293040e+03
2.162166690814729918e+03
2.226769775837075485e+03
3.202167983282150090e+03
3.559229493833976449e+03
2.830964986961429076e+03
3.185580326501872605e+03
2.915312548986225465e+03
2.326202320762055024e+03
1.836475741419086717e+03
1.298195607741510230e+03
5.512943240978515860e+02
2.355189369982157359e+02
5.880818929617404365e+02
4.215055674830743442e+02
1.267276217820089386e+02
-1.106159277392493550e+03
-2.525229098900380905e+03
-4.028473447684691564e+03
-4.722814455472892405e+03
-4.055346576218829341e+03
-3.226051329957685539e+03
-2.765739884631796485e+03
-2.016224967590300594e+03
-1.072717871439208920e+03
-6.326226453675171513e+01
-2.080436526928817642e+01
-7.613155831607640494e+02
-1.683424403467141929e+03
-1.252824773874343464e+03
-5.325135798371755982e+02
-5.169190212545133818e+02
-1.153811777270486573e+03
-2.052834171161560334e+03
-1.496183485090077738e+03
-3.571703547792659492e+02
-1.691199542299947609e+02
-3.412389371681483112e+02
-8.267564237021241524e+02
-6.124075406447565229e+02
-8.238787647517160622e+02
8.978601612138174914e+01
1.116628194288356553e+03
7.366749187413499840e+02
6.440533542077565698e+02
2.966976147690360790e+02
-5.165660479282706774e+02
-1.034884884445752959e+03
-2.285221604318986010e+03
-3.310262328920005075e+03
-3.812175105035994420e+03
-3.429185656064181330e+03
-1.283177122166812069e+03
7.678431581928755350e+02
6.408608330554816348e+02
4.420487376283077765e+02
-8.607000947071362589e+02
-3.820624326821116028e+03
-6.118536707986818328e+03
-6.207576566904733227e+03
-7.115844075381969560e+03
-8.224477523286595897e+03
-1.068449359456526508e+04
-1.086580885795836366e+04
-6.203399375558657994e+03
1.775848529917977430e+03
2.795769867154763233e+03
1.675229480983859048e+03
1.114311648635816027e+03
1.377772930949839747e+03
2.785678449636846381e+03
2.891261193800458386e+03
2.327413518222688708e+03
2.486982582300578997e+03
1.859850508133406947e+03
6.819149845419352687e+02
1.033385218823346037e+02
-3.778247125915811466e+02
-8.477920970511107726e+02
-1.292652076364099912e+03
-1.975561357992651665e+03
-2.103594520751823893e+03
-1.770803932545305770e+03
-1.688259214343356234e+03
-1.721823019161201273e+03
-1.365326902901864514e+03
2.941713412858846368e+02
7.616645828252857200e+02
4.181853767194843954e+02
1.891752062426251996e+03
4.258375828037177598e+03
5.292941480277598203e+03
3.975378827996307791e+03
3.202571674551767046e+03
4.207538012157119738e+03
4.448121556132095066e+03
4.576172536621372274e+03
4.794442739225410151e+03
4.159743263536608538e+03
4.694253272057921095e+03
5.280998984573528105e+03
4.473850606706441795e+03
4.940798123351107279e+03
5.283905140682619276e+03
5.011111092643655866e+03
4.851397462278058811e+03
4.750844095028135598e+03
3.836395903771729081e+03
3.446096360677824578e+03
3.254981895208947662e+03
3.083910241243735527e+03
2.618811647746050767e+03
1.731663669032452617e+03
1.249519757328185051e+03
1.239422894766796844e+03
7.913749302989053831e+02
-1.306747358769322318e+03
-3.068242579771143028e+03
-2.534631149260378606e+03
9.188875904576971152e+02
2.012202603487802662e+03
2.414444197493442971e+03
3.591723328106893405e+03
5.869880414854530500e+03
7.539779413985012980e+03
7.060527934508045291e+03
5.652122734254999159e+03
4.479440508656659404e+03
3.384545028544775960e+03
2.389324820065229233e+03
1.416723317448528178e+03
-2.575008604111158547e+03
-8.518820176450619329e+03
-1.376871902372361365e+04
-1.425275960380353899e+04
-1.144697497042006762e+04
-7.660350588094915111e+03
-7.185943951281431509e+03
-5.960748742802123161e+03
-4.552750674465286465e+03
7.040218979039639180e+02
5.415623379542483235e+03
2.796061467549084227e+03
-2.528651311393069591e+03
-4.485481249738098086e+03
-5.427320150363942048e+03
