1.391141329428052586e+03
1.399041773462359970e+03
1.402673706292547877e+03
1.401049160995413558e+03
1.649002225385263500e+03
1.447582256227983635e+03
1.380767682530486354e+03
1.362480711114948917e+03
5.037328596759363677e+02
-8.333830183801487692e+02
-1.615822314538571845e+03
-1.967630072431634517e+03
-4.773887743550113555e+03
-4.944647345260271322e+03
-3.367853242293475432e+03
-4.037476604809668061e+03
-3.621579127728478397e+03
-3.194131209204884271e+03
-1.561985763002224701e+02
5.182646233936534372e+02
-1.195657102494357673e+02
9.363638872520408540e+02
2.692088901884374991e+03
1.163570413977456838e+03
2.191816256944336601e+03
8.898777013335935635e+02
8.337864921446157496e+02
-1.874325148551366169e+02
-1.090716188524854942e+03
1.223938308604190752e+03
6.555782929646080675e+02
-1.427865836350883683e+03
-9.955247965274830904e+02
-2.375392853812051271e+03
-2.722562965944137432e+03
-2.825923474499209078e+03
-1.633607473674163657e+02
9.592053041004526222e+02
-1.300190088869529063e+03
1.764431284858342224e+03
2.521080894328087197e+03
-3.016140528124737585e+01
9.648108820882462169e+02
1.642979984155135298e+03
1.400255657367380763e+03
1.258689520377351300e+03
1.503254494432796037e+03
1.876986802439517078e+03
1.457868401893050077e+03
6.298810581052031239e+02
1.811439627074819043e+02
-3.533381645570402725e+02
-1.145631350647138788e+03
-1.528832245829606336e+03
-7.951086140710418704e+02
2.125625250367817216e+02
7.102961245267485992e+02
1.283223615614280334e+03
1.613340781683951036e+03
1.440645231642390854e+03
1.725135897277715912e+03
1.298823241326564812e+03
1.031642374436346472e+03
1.064594061407664867e+03
1.180670125310979984e+03
2.235177775001702685e+03
3.245153392855763741e+03
3.310703879200928895e+03
2.947830961245581875e+03
1.504386350426597119e+03
1.233802403755660180e+02
-6.741560492890738487e+02
-1.085294899513743985e+03
-1.461080317343455590e+03
-1.242551330116955796e+03
-1.127714183705257483e+03
-8.376205353804940614e+02
-2.891461621464928271e+02
4.978340599912882567e+02
6.179999163841441714e+02
7.543218654046072515e+02
2.906644261020007889e+02
-2.257558620622911292e+02
-1.827674936293955454e+02
5.184142861257330424e+02
1.482249492338136633e+03
2.669353561456242460e+03
3.194420315383207708e+03
3.516780241077648043e+03
2.618470080508911451e+03
4.284460127583478766e+02
-7.394322209757348219e+02
-1.375445421316102738e+03
-1.929350669968743432e+03
-1.834363787257426111e+03
-1.234576127071454039e+03
-6.499747724565951330e+02
2.835348849579344801e+02
7.049177196514220896e+02
1.096119760945341795e+03
6.301320691225042765e+02
-3.660992243114730513e+02
-8.945688257098588565e+02
-7.262001703487959503e+02
-4.940144289900169383e+02
1.339051482420339880e+02
1.362603345744548506e+03
2.095059782404882753e+03
1.890221770339084514e+03
1.359100923239232543e+03
3.246603851265032290e+02
-3.761342935048104437e+02
-7.383092067935266414e+02
-6.769770842353742637e+02
-7.522493325188489735e+02
-6.070637851513046144e+02
-2.144312570513907303e+02
7.687208105132519904e+02
1.936396206318972645e+03
2.481606750165786707e+03
2.159414859618010723e+03
1.708831198642641994e+03
1.625860413515560822e+03
2.378469416781765176e+03
2.601594151396138841e+03
2.067204617496304309e+03
1.775353068963053602e+03
1.624071691483231461e+03
1.333336149053499867e+03
4.512271147140352241e+02
-9.432912898037707237e+02
-1.883320388772322985e+03
-2.331838734324397137e+03
-2.564934374062554980e+03
-4.446669918113302629e+03
-6.492074683084674689e+03
-6.568078361380256865e+03
-5.098528978671508412e+03
-4.824467963517641692e+03
-4.811865352474078463e+03
-5.520698248194605185e+03
-5.516984746421235286e+03
-6.324794704488293974e+03
-5.741001168706754470e+03
-1.717347389202330760e+03
4.019694874630907293e+02
1.475988739951648085e+03
1.245794307209720728e+03
6.653612001618286058e+02
-4.333747266342441549e+02
-8.404901176567061611e+02
-8.859813402787771111e+02
-1.736894204556625937e+03
-1.711275993543487402e+03
-1.089176589651350696e+03
-1.511574120995154317e+03
-2.367288388202193801e+03
-2.406240313160735241e+03
-2.086429598930901193e+03
-1.129848713345361602e+03
3.985399466685682910e+02
2.603848326143023769e+03
3.772110050485940064e+03
3.901305975700531690e+03
4.146397007283101630e+03
3.963395191272466491e+03
3.703309112378996360e+03
3.551157018129828430e+03
3.341005879495201043e+03
2.933915245876329664e+03
1.323874521240085869e+03
-3.891874459613000568e+02
-9.892657064581162558e+02
-6.482608150756560690e+02
-9.401672587811082167e+02
-1.014996736909255787e+03
-7.917638084132477161e+02
9.976955611192835249e+02
2.676513263495663068e+03
3.542742164451111421e+03
3.294409668355912345e+03
2.534559858336360321e+03
2.291268815036811702e+03
2.462472871416726321e+03
1.716097097017995111e+03
1.393121748562680978e+03
1.729586563016816172e+03
1.303608036498099864e+03
3.851481062051381059e+02
-1.322844215981350999e+03
-2.889390182600618118e+03
-3.891525733361826951e+03
-5.016279723989983722e+03
-5.533763429417860607e+03
-3.830976365412667747e+03
-1.641882842272196285e+03
1.726197452018922149e+02
1.003620372368417293e+03
1.428355386237198672e+03
1.829830830528838533e+03
2.277056094250036494e+03
2.321971580717740835e+03
1.782603240509913121e+03
1.896047277970919140e+03
1.865234319677228541e+03
1.776163769651479925e+03
2.384905709039330304e+03
2.872510159674952774e+03
2.233020346877619431e+03
1.212429461721283587e+03
-8.125370385775603665e+01
-5.229934244403631283e+02
-1.158833748646324239e+03
-1.649951872003726749e+03
-2.270430756505297722e+03
-1.989394521627197264e+03
-9.497502752597547442e+02
2.767101170132593779e+02
7.600637807584223538e+02
1.047268791576642798e+03
1.380320147095838593e+03
9.672587318146579491e+02
-1.259279858006886457e+02
-5.743521621334310794e+02
-1.037076905701223268e+03
-7.830001309844934667e+02
-1.380439281614824267e+02
-7.830398785552459628e+01
-1.318930412704326045e+02
1.761981314726180869e+02
-2.948805544226635789e+02
-1.261046944520765919e+03
-1.881373560009372568e+03
-1.688001470165472028e+03
-2.070038584385738432e+03
-2.129643681689492041e+03
-2.027816173492544294e+03
-1.569411410231909713e+03
-6.264531385831439820e+02
2.130041358960907871e+02
7.210711573377232071e+02
5.268211827265605507e+02
-1.047346465639682407e+02
3.894067646545589696e+02
8.121883490666264152e+02
1.054602574696247530e+03
7.916213264539775309e+02
8.422513910589124180e+02
1.219704702181410994e+03
1.004982657812864318e+03
2.578323863170176651e+02
-7.088053609186091535e+02
-2.192895284648582674e+03
-2.818545282474268788e+03
-2.784035459611742681e+03
-2.273354488502937329e+03
-1.803185713561075772e+03
-1.247342658480048158e+03
-1.518379403265001599e+02
9.331150307227084113e+02
1.275402486984129382e+03
1.433923035151074600e+03
1.098630665843113320e+03
7.233309877189776671e+02
9.339067680734096939e+02
1.727397951837007668e+03
2.260887034873277571e+03
2.364406898265930522e+03
2.576883900788016490e+03
2.393467176916412882e+03
1.348005816691385462e+03
2.524644475266723020e+02
-4.458046736890714783e+02
-5.016278849115983576e+02
-9.441532477273725590e+02
-1.174745929134741573e+03
-9.262911976950881581e+02
-4.809222972196042747e+02
7.392124972563846086e+02
1.702989049125806787e+03
2.100683070884106201e+03
1.762168169816354293e+03
8.355497151406262901e+02
3.686293947447172172e+02
1.219572346642256207e+03
2.112135260927161653e+03
3.164869626640352180e+03
3.712091695651270129e+03
3.346918775238360013e+03
2.804318385645648505e+03
1.127696880727531379e+03
-5.102913010859243172e+02
-1.620957608563878694e+03
-1.783254829739818661e+03
-1.589123988388340649e+03
-2.251307131925673730e+03
-3.157099147731645644e+03
-2.500390098866374046e+03
-6.448528947362633517e+02
1.452052367997611782e+03
2.267037413238765566e+03
2.436217751924801178e+03
1.937641645528166237e+03
1.531385565295439164e+03
9.154959323948143037e+02
1.809626756996623271e+02
6.211834922211335197e+02
1.957142979353772489e+03
3.227425219296011164e+03
3.835917072673131315e+03
2.616652145912365540e+03
1.014740575467457347e+03
1.340123128669036987e+02
-9.777672276678980268e+01
-2.927102810366871495e+02
9.516666447082936031e+01
4.177189396681789049e+02
6.357491777320078654e+02
1.692840425786990295e+02
-3.936156407149005645e+02
-2.105006597310341931e+03
-1.703788879071529891e+03
-2.295692810819082297e+03
-2.974432228661691624e+03
-3.036023332794654834e+03
-3.455737226207196727e+03
-3.988337000739169525e+03
-4.256466947655683725e+03
-3.746127706564692289e+03
-3.262598736815318262e+03
-3.212066066706692709e+03
-2.949575581256851365e+03
-3.761020595874786522e+03
-3.723258106858034807e+03
-1.591323897773009776e+03
-3.523295135291966290e+03
-4.291259079313395887e+03
-3.589447268921428076e+03
-2.700724789696397238e+03
-2.140975357053762764e+03
-2.049109206039505807e+03
1.281073256369637420e+03
7.333869213775993785e+02
-3.315612299501152847e+03
-3.808157237425473340e+03
-3.301530579404148284e+03
-2.981845006781765278e+03
-3.114869279970356274e+03
-2.270550145735303431e+03
1.116310746039539481e+03
2.033869579684165728e+03
1.599970107120644343e+03
1.015323221410386168e+03
1.138136271972088707e+03
1.315520687351287734e+03
8.764213630334393201e+02
6.041794110383920042e+02
6.621910475539189065e+02
1.298479701698891859e+03
2.738899090311070722e+03
3.754192494375840397e+03
4.034559980645522501e+03
4.088450956242817483e+03
4.132027485922206324e+03
4.253147568453890926e+03
4.480545872365112700e+03
4.463367240898681302e+03
4.675459774583460785e+03
5.178473408187750465e+03
4.814366777666468806e+03
3.664047526169356843e+03
2.823393787970432641e+03
1.471583072020463987e+03
6.758172219866220303e+02
-1.839018454253341304e+02
-1.011673183638564069e+03
-7.453297877955698141e+02
-9.073752150927920468e+01
1.071198036708018662e+03
2.128534617126231296e+03
2.495280882664673754e+03
2.180541683743982048e+03
1.560472994176335078e+03
1.165103713202803647e+03
9.114718247453001823e+02
1.450617833712078891e+03
2.072535884842352971e+03
1.756277190531973019e+03
1.778080471858419514e+03
1.369185071922335283e+03
7.876227553986078647e+02
-2.652751780947393740e+02
-1.113339343659967653e+03
-1.055962525940305795e+03
-1.520379113970777553e+03
-1.561292921490016624e+03
-1.511627938698499747e+03
-2.047265933956823346e+03
-3.340217007379219012e+03
-2.996439569621753890e+03
1.508726290838342621e+01
7.333895289538509132e+02
5.264612799199129540e+02
1.588324592544280677e+03
2.837080587007222221e+03
3.407702734680413869e+03
3.082246320368698889e+03
2.387679538833419429e+03
1.717074791619553025e+03
1.406644817914948362e+03
1.663431176773942468e+02
-1.711817502516551485e+03
-2.603671146212465374e+03
-3.033175462571899516e+03
-3.077508877832588951e+03
-3.315725749570634434e+03
-3.526855129450489130e+03
-2.706932128260141781e+03
-1.055003495631227452e+03
2.990192008389741432e+02
8.622941235937992133e+02
9.769078761668397419e+02
2.849392141203596793e+02
-5.615445665338062327e+02
-1.248529925388318588e+03
-1.331091678325448356e+03
-1.442189469651863647e+03
-2.754713166198062936e+03
-4.365584174676952898e+03
-4.810802044852681320e+03
-4.777390639820061551e+03
-5.654320086640480440e+03
-7.463614553999211239e+03
-8.345301588120124507e+03
-8.118568022340601601e+03
-7.671475931150515862e+03
-7.194965974816509515e+03
-5.555877145365666365e+03
-3.207107038450168147e+03
-1.083659078202580758e+03
-9.852482416127614329e+01
-8.657217219429421107e+01
-4.828240082890490044e+02
1.139705369275256544e+03
2.873099935720464600e+03
4.092348865959788327e+03
4.489481468307128125e+03
4.408544951675045013e+03
4.303505322092133611e+03
3.498362790023562866e+03
1.772093798494663815e+03
-6.375120282073590943e+02
-2.703504563354419588e+03
-4.882949691384220387e+03
-4.801811182642673884e+03
-4.228112507843029562e+03
-3.233832061880252695e+03
-2.737985132466281357e+03
-2.448579145903558128e+03
-1.412624160744149549e+03
-1.480277035469922339e+03
-1.447309309951428759e+03
-1.435794575610782886e+03
-1.620919621054515801e+03
-1.625878530427762144e+03
-1.006640013444984902e+03
-4.710271088878534442e+02
9.858698229754005524e+02
3.257646295565084984e+03
3.809461272504850058e+03
2.966450903368985564e+03
8.204238289497162668e+02
-9.366187423690990954e+02
-1.589842854766322034e+03
-9.544520411963014794e+02
3.547323617980988786e+01
9.357818103467329820e+02
2.287364493591150676e+03
4.193345394767538892e+03
4.810929190543824006e+03
4.784071324293820908e+03
5.489555449270275858e+03
6.514396282213503582e+03
6.001591573483937282e+03
4.130104784668199500e+03
2.304758852857105467e+03
2.355406982906126814e+03
4.172919879473892252e+03
6.210301328594362531e+03
7.158451960126353697e+03
7.048126239593268110e+03
5.413590273898007581e+03
4.085098193022990927e+03
3.536467860987209406e+03
1.769279523289911822e+03
-4.324769454346966313e+02
-1.075096213831531031e+03
-1.106646588173872487e+03
-8.441601877738071380e+02
-1.524157117933050358e+02
6.162640885411805129e+02
9.949800648698069381e+02
-2.662561273283285459e+02
-1.924562678191813120e+03
-1.174900576495950645e+03
1.248659727188458646e+03
1.753974221815008832e+03
1.466968369378144189e+03
1.507667349289085223e+03
8.581704923247820034e+02
-1.954605320407553563e+03
-5.749760189390173764e+03
-5.487373421173320821e+03
-2.007489436025510486e+03
2.059809141986052509e+03
4.563394531768305569e+03
6.529184708632165894e+03
8.329219661568329684e+03
9.915560717510319591e+03
9.663278915699460413e+03
8.085353095949716590e+03
5.952790143501470993e+03
3.934537162694842664e+03
2.527603038772289892e+03
3.420671236767075243e+02
-3.200192052558505566e+03
-7.075193651634327580e+03
-1.005088182728848551e+04
-1.081222060632982539e+04
-7.666246325491536481e+03
-5.237978673733001415e+03
-3.552400686231866075e+03
-1.417529316949216764e+03
-1.713391627013950483e+03
-1.879058303731056640e+03
-2.307647830920056094e+03
-2.150190867411960880e+03
-5.616157562161407668e+02
7.402532421707952608e+02
1.136496669377800799e+03
3.241097455483341037e+03
2.654958695892346896e+03
-4.079417895539785945e+02
-2.382642845115976343e+03
-5.000106524537030054e+03
-5.888299604896511482e+03
-2.900199845881440524e+03
-2.818756824423600847e+03
-6.738947381509574370e+03
-7.227714517987323234e+03
-7.869131461525913437e+03
-8.649233893655537031e+03
-7.475919569101034540e+03
-6.100144886726659024e+03
-3.246023153261391599e+03
-2.169691322217282959e+03
-4.828236051898822552e+03
-7.287588812611430512e+03
-9.456640611523354892e+03
-1.044723742708093414e+04
-1.057835928862551555e+04
-1.159893288074384691e+04
-7.477937693998769646e+03
-1.836384487080455983e+03
-6.003348527915376280e+02
-8.628264687806731672e+02
-1.138576992753615400e+02
4.142712198404065930e+03
8.080982803666899599e+03
9.579926576734207629e+03
1.087950303604259534e+04
1.209574774962338233e+04
1.144465592810836279e+04
8.514190671486783685e+03
4.507381623235333791e+03
4.772753143110255678e+02
-5.140147249794553318e+03
-1.075477855475990873e+04
-1.276370099606805343e+04
-1.085271142142815734e+04
-9.502603044435287302e+03
-1.228138343048265415e+04
-1.392004061615603314e+04
-1.115450023095540746e+04
-7.202787465774093107e+03
-5.887959411532879130e+03
-6.961978725090232729e+03
-8.347898816248949515e+03
-8.627794391052442734e+03
-6.603538052511703427e+03
-4.057133242500137840e+03
-1.382718929890519803e+03
2.071604664242103127e+02
-1.070803937270432698e+03
-1.474755139875569967e+03
-4.933402655783470436e+02
2.687200733461829259e+03
1.068363699870177516e+04
1.898876802018497256e+04
2.392920067427341201e+04
2.654015520226527588e+04
2.576441282534637503e+04
2.166990632083934543e+04
1.783473546654184975e+04
1.428794943466086625e+04
1.290445210398242307e+04
1.326904181515315577e+04
1.203297416205743866e+04
6.716109667697000987e+03
2.849392429577093026e+03
-1.321932944412338600e+02
-5.496695262934375023e+03
-7.681089009086033911e+03
-6.020335879124331768e+03
-4.703453780194186947e+03
-5.206534775479912241e+03
-9.294690033362203394e+03
-1.194287464976081174e+04
-8.592027866068252479e+03
-1.274109401852463179e+03
5.500891287595301947e+03
9.047995888676990944e+03
1.499924151374502981e+04
1.939267276875336393e+04
1.977928228270910768e+04
1.961800779030533522e+04
1.818287790419642261e+04
1.401487093680066027e+04
1.109600791325042519e+04
1.022942219296875737e+04
9.571119435543016152e+03
7.307071512104768772e+03
5.855300770616084264e+03
4.434748007779250656e+03
3.142373481391161022e+03
2.061088126082157032e+03
1.229818672358099775e+03
6.016370998693150796e+02
5.206834411929478392e+02
3.360378580597707696e+02
8.371942218529740387e+01
-5.512115809495876420e+02
-3.016822026142408959e+03
-7.122111618123031803e+03
-9.505880962762303170e+03
-9.461210201422189130e+03
-9.535134893210646624e+03
-7.683648198608396342e+03
-4.254663863835709890e+03
-4.329172778941318029e+03
-6.576212427763936830e+03
-6.918672400847582139e+03
-7.191565730996968341e+03
-7.425804357128019547e+03
-7.854364651595340547e+03
-9.539152133845402204e+03
-1.054423559033454694e+04
-7.493793093367999973e+03
-5.550681107716559382e+03
-4.091773292964845496e+03
-2.739167398287169817e+03
-2.552827016311180159e+03
-2.986666765819760258e+03
-4.087493055824690146e+03
-4.728204401230648728e+03
-4.092858355559831580e+03
-3.666505908483916755e+03
-2.715020635185319861e+03
-7.502913130227174179e+02
1.214777949817161016e+03
1.439172008575076916e+03
8.999341304092507698e+02
2.181415717117373561e+02
-6.301571573956982775e+02
-1.562955384968561475e+03
-2.642324233246400127e+03
-3.201303135184587063e+03
-2.942780151502648096e+03
-2.391604790762349239e+03
-1.277597711718108712e+03
2.035960606871950418e+01
9.337412854132638529e+01
9.847090250373828724e+01
-3.002670779224774265e+02
-5.956476863647970958e+02
-3.276084599715974264e+02
4.588033136418282538e+02
9.776405385846235276e+02
1.290031696579922937e+03
1.480152027726109054e+03
9.140494616559926726e+02
-4.963218479533601908e+02
-2.160886698446442551e+03
-3.289578402928898413e+03
-4.126469155845816204e+03
-4.944563937172461010e+03
-5.517872448872150017e+03
-5.529311260325430339e+03
-5.605674859503981679e+03
-5.173834408425957008e+03
-4.247869947850948847e+03
-3.926742660749996048e+03
-4.300334450102792289e+03
-4.302467040674921918e+03
-4.389067318791939215e+03
-4.767086286727904735e+03
-4.928396911758778515e+03
-5.257733048790362773e+03
-4.998924140814492603e+03
-5.174634212366147040e+03
-5.301926802038247843e+03
-5.781965973578907324e+03
-5.659779533749810071e+03
-5.193428819947411284e+03
-4.706810636463317678e+03
-4.564822941517748404e+03
-5.585469832704272449e+03
-3.230652716571282781e+03
-8.413133318064782316e+02
9.256436538842858681e+02
9.473163769336098312e+02
7.027841367065230997e+02
2.926081979105221762e+03
4.474274005180424865e+03
1.906411154422640493e+03
1.224383520195758365e+03
3.066257685752234465e+03
3.065150898780570060e+03
4.845198804288594147e+03
6.584374737741754871e+03
7.218675354576795144e+03
7.088024087335825243e+03
5.402449188151617818e+03
2.560036406061451999e+03
6.337259471925366370e+02
9.543562459819931973e+02
2.052021210873198925e+03
9.728342344762789935e+02
1.434799750329994822e+03
3.458882162164506099e+03
5.876148809078127670e+03
7.182714319977383639e+03
8.088650670018361780e+03
7.358874903596854892e+03
6.600321438862470131e+03
5.220937380869269873e+03
1.570665193555154019e+03
9.524742125535825608e+02
5.107423672459188310e+03
8.938518754578039079e+03
9.150731538364940207e+03
1.098715115991722450e+04
1.009985559711190581e+04
8.663695954537979560e+03
6.435549804028752988e+03
7.038361507123753654e+03
5.165996441080695149e+03
5.099412297958516319e+03
5.884607489609457843e+03
5.365669762617126253e+03
6.375624252752261782e+03
7.861227066437524627e+03
7.768265534123452198e+03
6.526819728882946038e+03
5.489884957012374798e+03
5.345400372509050612e+03
5.288290651881783560e+03
5.082608759130573162e+03
4.931376866869366495e+03
4.813225402436830336e+03
4.296798906401119893e+03
3.177887032275524234e+03
1.357415805132258811e+03
-5.736778938872265599e+02
-1.871526808565474312e+03
-2.694236929096138738e+03
-3.849837747815431158e+03
-4.247364287486665489e+03
-4.394758694051168277e+03
-4.251082007929605425e+03
-3.008587491433137075e+03
-2.753131555449859661e+03
-2.915431546180937858e+03
-3.261645280426334921e+03
-3.362839549293722484e+03
-3.663525278985863224e+03
-3.554889484392564100e+03
-3.535124806934023127e+03
-3.488463182460314329e+03
-3.162161577804079570e+03
-3.360099183131173959e+03
-4.163468656268100858e+03
-5.600310567387980882e+03
-6.868769557823351533e+03
-6.801049590259816796e+03
-6.449538966217300185e+03
-5.995192584868944323e+03
-5.341283585687719096e+03
-4.599882031291703242e+03
-3.841744662979230725e+03
-2.761819385385153964e+03
-2.030303390493112374e+03
-1.243482521856117273e+03
-1.274889739358134420e+03
-1.595245286232947819e+03
-1.143306633511007021e+03
-9.063495713355230237e+02
-8.857588860275950537e+02
-5.885046285649020774e+02
-2.657344623829824286e+02
4.316019994086603617e+01
-2.914301752436579918e+01
-7.624972197645219012e+02
-2.003759529474608826e+03
-2.895913332049578457e+03
-2.908159624650797923e+03
-2.977695946864423149e+03
-2.700734121090497410e+03
-2.699306861979605401e+03
-1.869927624267352712e+03
-7.218706880653569442e+02
2.100983712662122969e+02
6.379943678262197864e+02
7.426792071860556916e+02
1.149782503254719586e+03
1.403145274292072600e+03
1.397828091522590285e+03
1.583678834483061792e+03
2.146564422545898196e+03
2.058581329660338270e+03
2.034914416826127535e+03
1.555665511401827644e+03
6.884997697742545597e+01
-2.263371175588941242e+03
-4.613933067002054486e+03
-6.178120510566727717e+03
-5.785279951907989016e+03
-5.111448068482524832e+03
-4.851285245286323516e+03
-3.980790761340563222e+03
-3.314382369807370651e+03
-2.620254249829004038e+03
-1.291209652774920869e+03
-1.003069841572388100e+03
-1.669721920643801923e+03
-2.196281469924183966e+03
-2.289010520471348627e+03
-1.935042220921814078e+03
4.224807419726358262e+02
-3.233516893621356871e+02
-1.893242985696867891e+03
1.585708204083517330e+03
2.269384226164425854e+03
-8.333504929092550810e+02
-3.752890598978404341e+03
-2.793393448065987286e+03
-3.179720716637633814e+03
-3.654782676476988854e+03
-4.237282181822970415e+03
-3.722751514672697795e+03
-2.920008361498450085e+03
-2.151957195454759130e+03
-6.466549936685254352e+02
2.833912691110992455e+03
3.761932642788118756e+03
3.770804680190526597e+03
4.259554105259294374e+03
4.270254925022972202e+03
3.872199627828832945e+03
3.988283874747033224e+03
4.205337630630449894e+03
3.881379497624202941e+03
3.032664328459722128e+03
2.438682622294853445e+03
1.864482460479668362e+03
1.442684882781070201e+03
9.858465855515307794e+02
7.548474094555374450e+02
1.104959180526309410e+03
1.898044548666767014e+03
3.046296261732396943e+03
3.999067367487534284e+03
4.622537823752999429e+03
3.913924027078816380e+03
3.289632417339225867e+03
3.461835900210639011e+03
4.021476048534430902e+03
3.950621417074594774e+03
3.911495186638505857e+03
4.098117218706336644e+03
4.271681826079914572e+03
3.956291392321277272e+03
2.570019951876437062e+03
1.113040005555955531e+03
3.474626117212917507e+02
-1.376902331619110100e+02
-5.763567763394547683e+02
-3.954512374712404608e+02
-4.098702065219584938e+02
-3.853571093176271347e+02
1.318393946455027390e+03
2.445502272773908317e+03
2.574010070658526274e+03
2.221088587999784522e+03
1.959918234366916977e+03
1.400225454747205958e+03
7.209807286504056947e+02
4.703904230868715786e+02
4.665619402087012091e+00
4.308469207973561765e+02
1.940268326430537797e+02
-2.766822597557448375e+02
-5.950709155973584075e+02
-5.171487097384708704e+02
-8.551330833667311708e+02
-9.357797379231622017e+02
-1.446176258489961583e+03
-1.586388435305754228e+03
-1.622453632603633650e+03
-4.352685935916388758e+02
1.386333691432037767e+03
2.074466804247582331e+03
1.815173582420909042e+03
1.356542056647234858e+03
4.935600519867919047e+02
7.870829201092823268e+02
5.481048476975973927e+02
5.026862445465537235e+02
5.558699620243884283e+02
5.228011872538961597e+02
1.056614472399241095e+03
1.208295204903805597e+03
7.783575427031961169e+01
-1.254827442106169656e+03
-2.109762822747346490e+03
-2.543999494745103675e+03
-2.742597695702369947e+03
-2.453582482589133178e+03
-2.121859197522122486e+03
-1.527373568220552215e+03
-5.180334573223954067e+02
-7.383767028430298751e+01
-1.717315284380363209e+02
-3.979555842712026958e+01
-1.630532719379966409e+02
-2.354447413173265033e+02
1.796784543453281202e+01
-1.738010866839620121e+02
1.931194803107150904e+01
3.983292576787641792e+02
4.401360384041359453e+02
7.847211238238212445e+02
4.291156081625718457e+02
-7.437624470477408067e+02
-1.324949686272130975e+03
-1.838475012964448524e+03
-2.322445033911441897e+03
-2.895008675634437168e+03
-3.206162097089158578e+03
-2.851789699302188637e+03
-2.987909726039242742e+03
-3.670566812903285609e+03
-4.795701012846248886e+03
-4.929384198695795021e+03
-5.133607725448270685e+03
-1.810446163915297348e+03
-2.439385381306504712e+02
6.498599366834320108e+02
1.094866484265269719e+03
5.300081024819078266e+02
2.418548338358381500e+01
-1.806626704623115529e+02
-3.695333533976393596e+02
-1.187301326247828456e+03
-2.172273471322542264e+03
-2.936589579863608378e+03
-3.585373961259160751e+03
-3.905628942114637084e+03
-3.791330184736274532e+03
-3.384700962563648773e+03
-1.473753014196888216e+03
1.938450590631843511e+02
1.131912451860524243e+03
1.806199149715021576e+03
2.151911860518320736e+03
1.527840195174782366e+03
1.083875131686135319e+03
4.079860789667810081e+02
1.891322725664840618e+02
9.804582420392573567e+02
1.650078438797258514e+03
9.588619597779353398e+02
6.762384328484264984e+01
-3.176838321243906194e+02
-1.791679660600210156e+01
3.077397314474184782e+02
-9.188149165554094111e+01
-9.248893769407181935e+02
-1.481380592519198672e+03
-1.514371148112474202e+03
-1.267118519574987232e+02
1.869579853023082705e+03
2.998587860077027926e+03
3.152543357989379274e+03
2.487293882439487788e+03
1.930419227948733578e+03
1.791818375244824210e+03
1.620660820037352323e+03
1.956751324685239524e+03
2.130209766677297466e+03
1.781157635865404472e+03
1.562802249160460178e+03
6.548519167349920735e+02
-7.453492057359147793e+01
-5.154890052439582178e+02
-9.621257685411623015e+02
-1.167414177028175573e+03
-1.449507141291159996e+03
-1.551486861263616220e+03
-1.224233404113034112e+03
-6.656639416065567048e+02
6.342408915683722626e+02
1.513567395935730929e+03
1.671377340563903772e+03
1.379646144811542854e+03
1.037279885343135447e+03
1.017464153638756898e+03
1.132165296915935642e+03
8.222792835043171635e+02
9.928281703126402817e+02
1.096910749905101738e+03
1.415551086924615902e+03
9.827165923588328269e+02
-3.775738534985790125e+02
-9.383539059378300635e+02
-1.475593302324452679e+03
-4.112343186609942677e+03
-5.210737362571508129e+03
-3.193798916080342224e+03
-2.653423541478665811e+03
-1.120543745332296794e+03
-2.832144525676733338e+03
-1.071202743211245661e+03
3.022802764102953574e+02
3.423304481067837628e+02
-4.009996729080895079e+02
-1.947701138851892608e+02
-7.880056456209740645e+02
-6.366786810968972077e+02
-1.972951842251024601e+01
1.613905876011480359e+03
3.413778049112552537e+01
-2.280748899842471644e+02
-3.676997159116779130e+02
-2.577739965153074081e+03
-3.402249084161414885e+03
-1.347257328112232699e+03
-1.135827604293231161e+03
-1.732906017845212546e+03
-3.732471085485228741e+03
-3.225445308131671027e+03
-2.327779364661112595e+03
-1.095215396416965348e+02
-1.411563272705196368e+03
-1.206893326267499788e+03
1.002427440633803712e+03
5.053648348485692168e+02
-8.150570224315990799e+02
-1.078514383504029581e+02
5.502172601197852231e+01
1.619650922389851985e+03
1.964063345962643780e+03
2.001243609754191539e+03
1.341150906868661878e+03
3.668054349130378000e+02
-5.917855217178745306e+02
-1.220684513891822689e+03
-1.235976949785086163e+03
-1.316721629480152615e+03
-9.787955907791058507e+02
-2.708914544613550035e+01
8.623855062475134901e+02
1.985648823554912269e+03
2.378763611100016988e+03
2.128692460072740232e+03
2.023422572155288208e+03
2.259018302634350675e+03
2.551392219717631633e+03
2.660538829219332456e+03
2.623582899120730417e+03
2.552651665322139706e+03
1.943841873929876101e+03
1.187274610264996909e+03
1.068088860061181720e+02
-7.145967174952696723e+02
-6.489365459013537247e+02
-1.068212842019194568e+03
-1.739370816327690363e+03
-1.659459389571691872e+03
-1.414496463222483953e+03
5.516180731723466124e+00
1.291557492485038210e+03
2.087722465966575328e+03
2.468096390850696480e+03
1.733730805960517273e+03
1.366407876977869591e+03
1.812088197746067181e+03
1.420015722668068292e+03
5.298293038029547688e+02
1.378563424823942398e+02
5.521817002347638663e+02
1.007550096081915058e+03
1.079707427702052428e+03
1.550055499560418184e+02
-1.170483815284794446e+03
-1.492771801329475011e+03
-1.105944879351433656e+03
-9.790883238385480354e+02
-9.363311118175463434e+02
1.422451380646468238e+02
1.255672290793930415e+03
1.829166492047811971e+03
2.122634712882723761e+03
2.477013383140213136e+03
2.152310579811618027e+03
1.595545932718205677e+03
1.583706745486030059e+03
7.467658346158279983e+02
2.627377226966743820e+02
8.526272915941059409e+02
1.758366078750730139e+03
3.136988803511992955e+03
3.319468872798182929e+03
1.979833180108395027e+03
7.110558981529107996e+02
-2.348910632182743825e+02
-3.760976686214836491e+02
-8.176870682425128507e+02
-9.536971623327057159e+02
-1.280025914453514588e+03
-1.330531639502959479e+03
-9.916590139908589663e+01
8.291000205851399869e+02
1.476206258163209213e+03
1.755133238976364510e+03
1.221875861760140651e+03
1.455435471221495163e+03
1.478780719041352086e+03
9.708763001799874246e+02
1.358727054593736511e+03
2.038333766036393627e+03
2.309682699763164692e+03
1.970824058891581444e+03
1.219794736393666426e+03
-2.284444723356068039e+02
-2.309901928496659366e+03
-4.772583072900893058e+03
-6.579697245678272338e+03
-7.197286881108827401e+03
-6.908249071865771839e+03
-2.636536635330294757e+03
2.778613061988674531e+02
-1.083961663787110410e+03
-3.840923986178233008e+03
-3.664987299566968431e+03
-3.969134274722402097e+03
-4.116491877504025979e+03
-4.022000757977683861e+03
-3.577711579692398118e+03
-3.730629081816399776e+03
-3.090803331305527536e+03
-4.717026577555348155e+01
1.728314655788279879e+03
2.555727084672623732e+03
1.181993191114870569e+03
-5.989528545706906471e+02
-2.191249201425227511e+03
-3.029991454698279085e+03
-2.693159567732051073e+03
-1.663614752204004617e+03
-2.792575426655389492e+02
4.409723829448061565e+02
1.368975004363864855e+03
1.306824105923849174e+03
4.695778324884689141e+02
7.512528435974556942e+02
2.305873694723694825e+03
3.421353822266699808e+03
4.014705118114331526e+03
3.972995569942807833e+03
3.617251245905979886e+03
3.030483096992630180e+03
2.147707104587667800e+03
1.095919126520638429e+03
-1.679518521118611716e+02
-1.148854663990193330e+03
-1.631819070067026360e+03
-2.242916197024164376e+03
-1.564172534243740074e+03
-1.058525028693851709e+03
