-1.564563958246654011e+03
-1.569858718562295962e+03
-1.697278849954143197e+03
-1.475729891184320650e+03
-1.189248816130754903e+03
-8.849436766942249051e+02
-5.992665988749063644e+01
5.988999089071794515e+02
1.137583052165460231e+03
1.814086503319160329e+03
1.864427114949323595e+03
1.693833611630150699e+03
1.749260962161655470e+03
1.499494050531772245e+03
6.104863470484705203e+02
5.523940826051838116e+01
-9.113089369442698171e+02
-1.411194616271579889e+03
-2.165624819215150183e+03
-3.066748063634907339e+03
-3.095691335307275040e+03
-2.733460742407034104e+03
-2.379091475475998777e+03
-1.851644207118810527e+03
-1.012076760060548168e+03
-5.153016953395589326e+02
5.282188278373240564e+02
1.560362321422377590e+03
2.029904204551525027e+03
2.513667158263098372e+03
2.568853834548323903e+03
2.481403789108935143e+03
2.695293196967802942e+03
2.215614742595467305e+03
1.717893135765046509e+03
1.009329457701192268e+03
2.638048309509090572e+01
-5.015346062743022912e+02
-9.135947758009789368e+02
-1.346654582374018901e+03
-1.210077047666577073e+03
-1.219832591086438697e+03
-1.402156995190106500e+03
-1.170035284866271923e+03
-1.019181950502242785e+03
-5.529154982083707637e+02
6.769209049508798444e+02
2.129350067762570689e+03
2.676213389349535646e+03
3.062788368514752619e+03
3.391554282154986140e+03
3.332690302307650654e+03
3.053316425335477561e+03
2.653006383623873717e+03
2.267116113021473211e+03
1.710638936218597792e+03
9.724122318360051622e+02
2.398769629611051641e+02
-2.233839853124151489e+02
-6.938262983958192081e+02
-1.115964618489494342e+03
-9.302829143684956534e+02
-7.795160481535814370e+02
-7.179256863008049550e+01
7.690530819070876305e+02
1.682987248623142023e+03
2.315995474499240117e+03
3.176148966714144990e+03
3.241565994588213016e+03
3.153319573838526139e+03
3.448193496555225920e+03
3.017025156020265968e+03
2.554918951617033144e+03
2.969953369508913056e+03
2.804137000661530237e+03
2.766282782447304726e+03
1.604410868789416782e+03
-4.131254128798019565e+01
-2.300975283438507176e+03
-4.911770910469807859e+03
-5.869787791350983753e+03
-5.987100400258124864e+03
-5.641651421905443385e+03
-5.595449475993187662e+03
-4.724378414475560021e+03
-3.813363617124881785e+03
-2.866358437423522901e+03
-2.204306036961766040e+03
-1.255221046993872960e+03
-6.290371440949525095e+02
-6.017432644439913929e+02
-8.684644703780089685e+02
6.468407074956348879e+02
1.361177831138539204e+03
-1.442376958542455895e+03
-2.622880079494694655e+03
-3.186452920643766447e+03
-4.251971802768169255e+03
-4.928181726486655862e+03
-5.861247026217004532e+03
-6.507184160504247302e+03
-7.055930862883504233e+03
-7.377494322212179213e+03
-7.608713109372011786e+03
-6.841484354548794727e+03
-5.244963004822976472e+03
-3.406366193674086844e+03
-1.752183554272758670e+01
9.119554125477490061e+02
-4.317106738030551014e+02
-7.585725853799904144e+02
-9.326669774423019135e+02
1.490450259048468524e+03
3.698272075467754348e+03
3.904582514492708015e+03
3.174587550765987999e+03
2.433785383496493978e+03
2.245160589640513990e+03
1.752705015221593385e+03
8.284302441882947505e+02
1.646528894129525327e+02
1.355698080620782093e+02
4.221335739277075731e+02
5.534458725726489092e+02
7.164869127316211461e+02
1.472034760454581601e+03
2.993231803639180271e+03
3.879437103314173783e+03
4.423651317906871554e+03
4.831545658587706384e+03
4.534982553375240968e+03
4.174218507354628855e+03
4.226563462573088145e+03
4.350183712429978186e+03
4.026324063295885935e+03
2.925099966912640411e+03
2.157585961814784241e+03
1.754831949807526144e+03
8.178530534164752908e+02
-9.836583010031287699e+01
-5.573891866702966809e+02
-9.453310539793582166e+02
-9.410706894467684833e+02
-7.263539520952090243e+02
-2.183575502606573195e+02
7.011811626085502667e+02
1.279701831038830051e+03
2.306871990030259894e+03
3.182347252576073515e+03
3.604295798539984844e+03
3.698194476164697335e+03
3.062051743005615663e+03
2.450118730660409710e+03
1.857514054047421951e+03
2.006542087784717751e+03
1.018298017197068702e+03
-1.718182753823492249e+03
-2.115038888799223969e+03
-1.886270091153274052e+03
-7.051576632773983420e+02
-4.187816708155154402e+02
-5.718441168911971317e+02
-5.632812868211199202e+02
-4.002917383903463815e+02
8.295817003336676976e+01
5.115813406130315570e+02
9.903040302421730985e+02
1.654911518890929756e+03
2.010694235981715792e+03
2.095917596990623679e+03
2.069629712804184237e+03
2.025663890678505368e+03
2.231861298614888710e+03
1.959475233653563464e+03
1.526537276578280171e+03
7.751296570650587228e+02
4.174146937183072055e+02
2.474722499564867917e+02
-4.268323714586708206e+02
-1.104034236351481695e+03
-1.534340927451642301e+03
-1.714347652319952203e+03
-1.725185500912927864e+03
-1.369877334658066502e+03
-1.144402767801383334e+03
-1.030965107430638909e+03
-1.257203745496168722e+03
-1.116864905570384053e+03
-1.289253015305987731e+02
2.746681108502044708e+02
-2.143910568341894418e+02
1.076292796807381649e+02
9.179353379980774719e+01
3.931810130545255788e+02
1.336659094558209290e+03
1.813208934219451976e+03
8.670523006387443274e+02
-1.042689616144670481e+03
-1.725120988268282190e+03
-1.327557960385951901e+03
-1.450056790495591713e+03
-1.781295843252509030e+03
-2.040384362837373374e+03
-2.205674913662512154e+03
-2.423121640544726688e+03
-2.199420681991969559e+03
-1.901412612665470760e+03
-1.253221837954473813e+03
-3.419831199651366660e+02
-4.625881762514631532e+02
-1.745871127178178995e+03
-4.486811524680548246e+03
-4.073478350158390640e+03
-3.181891194926496610e+03
-3.339935798916918429e+03
-2.618524900119753511e+03
-8.964196179455278468e+01
-6.782258201195155607e+02
-7.871198829465628251e+02
-1.233770009030789879e+03
-1.531448304345941551e+03
-1.712158729734882172e+03
-1.461743457458573403e+03
-1.202970320032148265e+03
-1.045927915267680191e+03
-6.196857544252824255e+02
-1.311068302190816723e+02
3.599010836234194244e+02
1.172214952746638573e+03
1.721758151822767559e+03
2.230559019609531788e+03
2.183659773912834225e+03
1.933063263965574379e+03
1.993866722827547164e+03
1.828319567274762221e+03
1.364583899526707228e+03
7.675554680484995060e+02
1.950986519138315600e+02
-3.277289654592136117e+02
-1.230178626573407655e+03
-1.702445316872501962e+03
-1.796421478323770316e+03
-1.620910069117243665e+03
-1.215640318255829470e+03
-2.027006523166431577e+02
2.084316209916930234e+02
2.476563569371507185e+02
1.884163198627700240e+02
7.737747964770463796e+02
1.323722626884689589e+03
1.266426309205491862e+03
1.032016107954143536e+03
3.840954172830095814e+01
-2.614621831315589020e+02
-1.446072665118526288e+02
-7.850651313630272625e+02
-1.265828465320161285e+03
-1.286876139470449516e+03
-1.455317553178410435e+03
-1.637170633244705186e+03
-1.052467017725062988e+03
-7.721285541115223623e+02
-1.217195165836109936e+03
-9.926175416053619074e+02
-7.685855832588413250e+02
-5.321271528760912588e+02
1.122145422364993834e+02
1.329521811899384829e+03
2.401606693443966833e+03
2.664410382289287099e+03
2.824723712603336025e+03
2.764250733564412712e+03
3.079586541870668498e+03
3.129420789402980063e+03
2.571129762785571529e+03
1.599554968254685036e+03
4.887409047293119215e+02
-1.206493367661088882e+02
-1.665783014114520938e+03
-3.750097658492529717e+03
-5.676265491693154218e+03
-7.680601548673285834e+03
-8.218305286313214310e+03
-6.477367971454966209e+03
-4.067158589739065974e+03
-2.856108488961915555e+03
-6.449653521602457431e+02
2.246736433612464680e+03
8.160010050931940668e+02
8.088450108890873480e+02
-2.468384563550743849e+02
9.948075542215775613e+02
-3.674738703368657866e+02
5.447805803137673593e+02
-3.871946511046415367e+02
2.087670881575914336e+03
2.182548027812079908e+03
1.429912428577510127e+03
1.579405870533667212e+03
1.969963527702918554e+03
1.918494797930009327e+03
-7.370222923333914196e+02
6.413303402652738896e+02
2.413525807949999944e+03
1.092755567253989511e+03
2.673123271072109219e+03
1.643627683349407562e+03
2.645283361580229212e+03
3.463020945354352534e+03
2.165819296053629387e+03
3.206428944730780586e+03
2.809767140483275398e+03
1.854536172681798462e+03
2.797705182592444999e+03
4.510321929822355742e+03
2.357459628275267733e+03
2.728858672173059404e+03
-1.047733333113773369e+03
-2.207472138602746327e+03
-4.171819082111982425e+03
-3.685350246098890693e+03
-4.421306013701512711e+03
-5.125349320275773607e+03
-5.049027653470120640e+03
-2.472220124184512315e+03
9.859587282535525219e+02
2.217183370520011067e+03
1.995077445187006106e+03
2.419344145030383515e+03
3.671742904465921583e+03
4.922706274372024382e+03
4.941360833346480831e+03
5.319573088512458526e+03
6.151378342845132465e+03
6.286717269222010145e+03
5.312687010989599912e+03
4.614714089385085572e+03
3.763137322494936598e+03
3.172660594354012574e+03
2.043114619850294957e+03
7.524247618101619537e+02
6.389335599668088506e+00
7.551630158486835853e+01
5.426751042049016860e+02
1.250747194036350038e+03
2.952627793576644308e+03
4.471900627989024542e+03
4.325573447328372822e+03
4.186745149555611533e+03
4.037826869736328263e+03
4.415734227614662814e+03
3.595938541114580403e+03
5.498146567501136133e+02
-1.847568648115042379e+03
-1.194774669954902038e+03
-1.950161911523608296e+03
-3.878601363196971761e+03
-5.149919108975324889e+03
-6.172120537247284119e+03
-4.935309498686394363e+03
-3.146018080879400259e+03
-4.055251747483065174e+03
-8.841342172804741494e+03
-1.364746505496001009e+04
-1.480690325612969355e+04
-1.344601989029561264e+04
-1.345646600464502990e+04
-1.496275030738070927e+04
-1.093874599043882154e+04
1.616940910156605241e+03
1.399520221868075350e+04
1.767228226405175155e+04
1.589738061068049501e+04
1.322060270467237024e+04
9.525758528368733096e+03
5.355052228619621928e+03
3.685179511169698344e+03
3.212840458696437963e+03
2.407593457364015194e+03
3.028394823551573609e+03
3.037407319904730230e+03
2.712079664779866839e+00
-1.678888012662402616e+03
1.158097579599618484e+03
3.115572766526623582e+03
2.229146815409220608e+02
-5.743711283237995303e+03
-1.071148174509443379e+04
-1.354427947688685526e+04
-1.579214461979542284e+04
-1.579755633057731211e+04
-1.434338046212276822e+04
-1.181662392594114317e+04
-8.731257063581228067e+03
-3.722744742317885994e+03
3.026153517380369976e+03
3.652902721445625048e+03
5.381063016914297350e+02
-3.160045705069584073e+03
-5.242326060581031015e+03
-7.345730227712932901e+03
-4.958077045253317920e+03
2.435721050145585650e+03
6.741581470652149619e+03
9.068143741626876363e+03
1.129222796420231134e+04
5.757221695054117845e+03
8.068665950464215939e+02
-1.524774114829025848e+03
-4.494790259788245748e+03
-4.624412061640596221e+03
-3.799747908025447941e+03
-1.794368747352162472e+03
5.252650493295028582e+02
2.953841829566321849e+03
-2.547593381646524904e+02
-3.406604208067985837e+03
-2.859408158317174639e+03
-1.238051857208159390e+03
-7.035847991294172061e+02
1.575052704128063624e+03
4.754875691298097991e+03
3.611958721821629752e+03
-6.186138973590095702e+02
-2.487678566807125208e+03
-1.196946423330821744e+03
5.286423558221116537e+02
-2.700681843500231594e+02
-2.715062049076755102e+03
-2.975138149290668025e+03
-3.784027465174011468e+03
-3.568835014959163800e+03
-8.046586887624396240e+02
4.019503892997661296e+03
8.023661740528394148e+03
6.188706368931472753e+03
1.927603983574139420e+03
2.441405433431732035e+03
1.651938177225069467e+03
4.948942337139156962e+02
-6.275792217356860192e+02
-5.032570537232194511e+03
-6.087393184288361226e+03
-3.406579418286125474e+03
1.368602620372735430e+02
5.492822604215896718e+03
8.222661664523535364e+03
7.543611423567846941e+03
7.245477443404290170e+03
7.588267144620569525e+03
6.062144311884857416e+03
3.960877884657646518e+03
4.258371151524363086e+03
6.345748245131064323e+03
7.799132647777430975e+03
6.113823708159138732e+03
3.816570921310026279e+03
6.018122033312666645e+03
6.945479254380871680e+03
3.294763431592377401e+03
-6.907703426170423882e+02
-1.069149955179058452e+03
3.352257284911374882e+02
6.313156665575905890e+02
-1.166801815192712411e+03
-2.287060827352794604e+03
-1.504087375331336489e+03
-8.218512107324423823e+02
-1.251318397246189761e+03
-2.016785493034494039e+03
-1.763128266610825222e+03
-1.460995727143749491e+03
-2.255777880011090986e+02
1.463408868030694521e+03
4.795971194402110086e+03
5.120201700200199411e+03
2.940265357536323336e+03
3.212183059615017555e+02
-1.056030186540232990e+03
-1.087724844591463551e+02
-2.231002437090937747e+02
-1.328944941875503218e+03
-8.174536684504765844e+02
9.462464110371823836e+02
1.090118738990933480e+03
-2.956753790813451133e+02
-2.008988752579749644e+03
-3.343236772258866495e+03
-4.787998634398226386e+03
-5.868830028395071167e+03
-5.126580640906366170e+03
-2.332464065583327738e+03
-8.062995788770754757e+01
1.377657980753852144e+03
4.004630997569009196e+03
3.384140180291108209e+03
2.351547981329366053e+02
-2.147337207477948141e+03
-2.514422213759816259e+03
1.124783136323319013e+03
4.440294580510093510e+03
1.628045233373602059e+03
-3.459072632718794921e+03
-4.211135953318428619e+03
-4.072150485447400115e+03
-4.752178430411894624e+03
-3.525327200270131016e+03
-4.486157446325492515e+02
1.263969374011421905e+03
1.651537359970918487e+03
2.519099656851922646e+03
3.383512595046057868e+03
4.020728328253072959e+03
4.794672189110714498e+03
4.529272122802907688e+03
3.657411029514593793e+03
2.367056684625622893e+03
1.889164993786280547e+03
6.776784176618255060e+02
4.894585800733784140e+02
-2.652555255101142848e+03
-7.259436455895544896e+03
-6.318282297404370183e+03
-4.636109048161902138e+03
-5.636022402626746043e+03
-7.699031142954841016e+03
-1.401130706003422893e+04
-1.288081848571137743e+04
-2.544545925974567581e+03
5.605818975370533735e+03
7.363366050266385173e+03
6.915292587806769916e+03
6.679457648869864897e+03
2.362523264676769031e+03
-5.147736013283331886e+03
-6.447249480667316675e+03
-2.886970986932539745e+03
-2.248036228759758615e+03
-4.451309799917543387e+03
-6.224741228885544842e+03
-1.361253618787276719e+04
-1.518708583540332256e+04
-1.328500528549718183e+04
-4.220327010625615912e+03
7.681522445328949289e+03
9.284018604365357533e+03
9.272059383647327195e+03
7.304572266612939529e+03
8.386286455431567219e+02
-9.883836133583786250e+02
7.192850679591708740e+02
4.338818208275632060e+03
1.185067326947532820e+04
1.497086687027125117e+04
1.410267509543639790e+04
1.230894161325117966e+04
9.635505921637370193e+03
6.298587532612757059e+03
1.681423099353820817e+03
-3.139934036693050530e+03
-5.498598874445493493e+03
-7.369553367462420283e+03
-9.472467904453998926e+03
-1.156480737483764824e+04
-1.534372949979279474e+04
-2.052488486434762672e+04
-1.604423624757510879e+04
-1.112402808493637167e+04
-8.996936599977250808e+03
-6.584043624664014715e+03
-2.402241557283309248e+03
4.866778800710781070e+03
1.102300660744214292e+04
1.596703759050569533e+04
2.156036314694660177e+04
2.285989974161815917e+04
1.762392044782555604e+04
8.405397953766036153e+03
2.436173211648511824e+03
1.924099289248092418e+03
4.181217768679975052e+03
5.305694671936525083e+03
2.421531850980769377e+03
-5.821434139029830476e+03
-6.439117345238381859e+03
4.414717383144402447e+03
1.181631572942330422e+04
8.588721876681353024e+03
3.184761897246796252e+03
-4.202558960932545233e+03
-1.515030292088138776e+04
-1.397939120694224403e+04
-6.761623390797328284e+03
-5.206890339695587500e+03
-6.163214327387980120e+03
-8.763510658227525710e+03
-1.298866782486523334e+04
-1.988663277506781014e+04
-2.058345402466658197e+04
-2.267513184661744890e+04
-2.684763424239040614e+04
-1.807407268063857555e+04
2.326491033371630238e+03
1.421017376008411338e+04
1.663117609405984331e+04
1.395956278319741432e+04
9.245412707558165494e+03
6.255728114757732328e+03
9.699549670683985823e+03
1.619924245675230668e+04
1.607088918930442196e+04
1.132435426993287365e+04
7.002822394126514155e+03
4.481396894649592468e+03
1.448108833331016967e+03
-3.560060064171883369e+03
-2.831329237039674808e+03
-4.426931313122946108e+02
-6.548546790073179409e+02
-2.499509448711959976e+03
-6.341660895895633075e+03
-3.987521526103835640e+03
1.657775152419215374e+03
2.500285622208654786e+03
5.671173033118662715e+03
4.238021634824960529e+03
1.242001660083393745e+03
-1.034121110079222490e+03
-2.305774441462012419e+03
-2.774427022671709892e+03
-5.875974095709569156e+03
-7.565336691420088755e+03
-4.123501632906785517e+02
4.315946638330825408e+03
4.360452672241592154e+03
3.946177567366976746e+03
5.442931145375635424e+03
8.400758999707890325e+03
9.871008225790281358e+03
5.144616078583540002e+03
-3.213774623730061649e+03
-9.208239361578482203e+03
-3.345413171225409883e+02
7.288744408469021437e+03
3.457642804841683301e+03
-2.271993750763389016e+03
-2.549150189306021730e+03
-2.134033343077061090e+03
-3.494689561473330741e+03
-5.443028987154850256e+03
-5.451763206584249701e+02
7.876489127025061862e+03
1.000556597913379846e+04
6.556474641150269235e+03
4.122499048575336928e+03
3.968608917492645105e+03
3.346668754574032846e+03
4.882830466289544347e+03
8.080651484811411137e+03
1.006562197374377683e+04
7.263862343486725877e+03
1.983514933584548885e+02
-4.532891012650499761e+03
-9.911055890581704944e+02
2.671567646000153218e+03
5.006791851400501400e+03
3.540606712494561179e+03
-1.481865863194515214e+02
-1.027434791261806595e+03
2.251883731005691970e+03
3.171638962746955258e+03
2.326798989340820299e+03
6.038804365952306625e+02
7.887407937422470923e+02
1.328847673073088117e+03
4.831550483478467299e+02
-5.162998296002939469e+02
-2.122752018763162141e+03
-4.043472146128937766e+03
-6.123175525795760223e+03
-7.054654486835629541e+03
-5.222082999254178503e+03
-3.203831724614948598e+03
-3.994059316214823866e+03
-5.803594151682728807e+03
-5.853309840831196198e+03
-3.460347790223361244e+03
-3.123657449110980906e+03
-5.597313175387520459e+03
-9.415580555740558339e+03
-1.504872185782043380e+04
-1.082075955170812449e+04
-6.888315577031227804e+03
-1.695178044726141025e+03
1.979345082262728283e+03
1.689304768486578041e+03
3.311694207080539400e+03
3.434430633654762005e+03
-1.733282115766616698e+03
-2.560754137666836414e+03
-3.981259006125906126e+03
-6.796863766588589897e+03
-6.257844417706586682e+03
-3.670070497287348189e+03
-2.757262574406817748e+03
-2.249428210668464544e+03
8.392322785777765830e+02
2.012830276151737053e+03
1.463486892978967262e+03
5.761116774515958241e+02
-5.644033810026793390e+02
3.180930412032680579e+03
5.396327973774536076e+03
3.878923737870997684e+03
1.534348743487541697e+03
1.905370855719637575e+02
2.221803169826061094e+03
4.349249427227283377e+03
1.776658546486401974e+03
-1.954115035010551082e+03
-5.041983462253861944e+03
-7.478791759513639590e+03
-6.095565975806961433e+03
-5.266474578118592035e+03
-5.792481448599795840e+03
-7.363481486475558995e+03
-6.563435848039747725e+03
-1.116432867399294082e+03
4.646575028956987808e+03
4.557649249126480754e+03
1.702638065229624317e+03
2.604108138056082566e+02
8.361237539119847497e+02
3.000902724159544505e+03
5.113155081937772593e+03
4.655739963119933236e+03
3.422397245092631692e+03
3.425178668887816002e+03
2.317202907423665692e+03
-1.226144905498103412e+02
-3.017367943947601361e+03
-3.157973121756409910e+03
-5.632556210978880245e+02
-2.501170241969873587e+03
-1.347272233363894338e+04
-2.082588321845653263e+04
-1.240457936142467588e+04
-4.152861177821087040e+03
4.754159328533958615e+03
1.304349092999341156e+04
1.328317817364670191e+04
1.227317525218444280e+04
1.084572565287633006e+04
1.009513092082190815e+04
9.192485884852747404e+03
7.613645470623308938e+03
7.136284671821697884e+03
7.429321184690358677e+03
6.725164814405484321e+03
5.284055597741405109e+03
4.166813367973321874e+03
3.563444495762681072e+03
2.255980876742439250e+03
5.652524503040261834e+02
-7.878893801195973765e+02
-1.107297306188341508e+03
1.361430918469975495e+02
9.733771510729203555e+02
1.295512698444169246e+03
1.511620182378673007e+03
2.063733584102931218e+03
1.726944933977563551e+03
1.605286779534716970e+03
2.588840915079278147e+03
3.639609311394768156e+03
2.925716013486186512e+03
2.640078412655642296e+03
2.032983679853104832e+03
6.416299570094321325e+02
-8.641357149999505793e+01
-9.692172522377583164e+02
-1.417571013205961208e+03
-4.665315558195065933e+03
-7.924026134789432035e+03
-1.161722192940892637e+04
-1.093374947886355949e+04
-8.522550799069878849e+03
-2.791201024759545362e+03
2.351527003417016203e+03
4.058661743418586866e+03
3.742626571220510414e+03
3.433819784636516488e+03
2.982809967041460823e+03
3.771846967817795644e+02
-1.309813827581170472e+03
-1.089921457078906315e+03
-6.961433766112523926e+02
-4.271969170305927037e+03
-3.824799627967597189e+03
-1.852903437997060109e+03
-3.884965334543189329e+03
-4.148423892921128754e+03
-4.514613359654319538e+03
-7.400441170211206554e+03
-7.435739607116675870e+03
-4.787078668422401279e+03
-2.531723767334366130e+03
9.520808974688445687e+02
1.561181968537042167e+03
1.581933246781082403e+02
1.212359475307405773e+03
1.067002626660863825e+03
-1.324813726422761874e+03
-1.877924595386120018e+03
-2.765217371050027850e+03
1.048439180946192664e+03
4.974141551350739974e+03
6.580807588957638472e+03
1.818433192482688810e+03
2.480160431942400123e+02
-2.209495795527420341e+03
-6.219762783393886139e+02
-9.822337686169430526e+02
-2.916072436220410964e+03
-2.730667364832639123e+03
-5.106880278837674268e+03
-5.009748480726248999e+03
3.885124663879994387e+02
2.153560148161419420e+03
5.123193088117826619e+02
-2.522106003097422899e+02
-8.321584962908372063e+02
4.477649232591403461e+02
3.717065742269039220e+03
3.594151435899098487e+03
4.808854886090410901e+02
-2.782134299739215749e+03
-1.947191477034858508e+03
4.277148994003723601e+02
-1.445126882663791321e+03
-4.863194669475272349e+03
-5.821020195799525027e+03
-2.994630716950617625e+03
9.609969903815732550e+02
1.567637331705803717e+03
2.166482132763883783e+03
1.985783510501930778e+03
1.507943878595604474e+03
1.688285930823902390e+03
2.851386094511807642e+03
2.888546611237871275e+03
3.548945240223281871e+03
4.470717764095444181e+03
5.217025589077016775e+03
5.122119368269616643e+03
5.175544744234144673e+03
5.613464231473319160e+03
4.347930938058518223e+03
2.641788356772747647e+03
1.758803331058112917e+03
1.193289771973967163e+03
7.109151512273842854e+02
5.370094563443497009e+02
3.395080954988915778e+02
-1.399475800149668657e+03
-2.036393778489407396e+03
-2.315636245645541749e+03
-1.997555210038967516e+03
-1.015923431403973495e+03
-4.639754431008755091e+02
5.272604121618827548e+02
1.069095897568350210e+03
7.738363961776677797e+02
1.196034686150899233e+03
2.817524126388819695e+03
3.796419893156199578e+03
3.289736009061466120e+03
2.582739667511363223e+03
2.458051499573727142e+03
1.615344100701852312e+03
8.565421000350056602e+02
3.604090994364156586e+02
-3.446451120674893218e+02
-1.335255935684803944e+03
-2.002532137628596729e+03
-1.289701608737220113e+03
-7.928812503736324970e+02
-1.340740128546747428e+03
-1.536358734476767268e+03
-4.984752057346529455e+02
3.350394674696152038e+02
9.475312072801162913e+02
5.349779780066224930e+02
7.324263266377893444e+01
6.801592390338608993e+02
1.462756373638443847e+03
2.694500364800203897e+03
3.036807106454104087e+03
1.409605830761058996e+03
8.707050118425203209e+02
2.630065625662386424e+02
-1.145644617788322876e+03
-2.519020158212362730e+03
-4.766457600347134758e+03
-6.103964198882737037e+03
-4.290406890892593765e+03
-1.874729118732653660e+03
-4.864662898546848169e+02
-4.309742327888041586e+02
3.121605017793024786e+02
1.182396781572115970e+03
5.827902098228214527e+02
-7.637845641944460340e+02
-4.412748622006446340e+02
-8.458027661048264463e+02
-1.164558670501051665e+03
-1.106532893262231255e+03
-2.178307491090983603e+03
-2.295444855436051512e+03
-2.200015876137019575e+02
-4.460073473129989452e+01
-2.384299591214454267e+03
-5.861001146704598796e+03
-1.001038956825922469e+04
-1.143025524764409965e+04
-1.066381019088965149e+04
-1.006736642320744249e+04
-8.414658546058633874e+03
-4.707509358541482470e+03
-2.326784063200158926e+03
-2.641592951425725914e+03
-1.555946653571811794e+03
9.938050397755182530e+01
1.830438923097244924e+03
2.559340160218667279e+03
3.656206057543005045e+03
4.398114329198889209e+03
5.220012080856084140e+03
5.007661038752294189e+03
3.982071925527629901e+03
3.038494264425550227e+03
1.898006389822600113e+03
1.027480100684610534e+03
4.447030757030157702e+02
2.638185349956129357e+02
6.112431857558896553e+01
-1.512962082909858452e+01
4.503112092865485465e+02
7.217174702128630770e+02
9.500972039313510322e+02
2.089329878295459366e+03
3.261515493492152018e+03
4.445967494698809787e+03
4.936541944248331674e+03
4.455367189766835509e+03
2.751922813581385526e+03
1.499961661000535742e+03
1.244571930017100840e+03
6.429365012942774911e+02
3.128300268044313270e+02
6.790768560771228977e+02
1.589775979961832036e+03
7.959718247805919873e+02
-7.065078693062996535e+02
-1.890554415191458247e+03
-2.103998392665815572e+03
-1.396767427606216643e+03
-7.007307719717678083e+02
-1.512480220418453598e+02
1.351816591656004221e+03
3.124787814291387349e+03
3.562799414842612805e+03
3.176828616087637783e+03
2.716584852100565058e+03
2.467012629075450150e+03
2.260486301530290348e+03
2.313234797236672875e+03
2.054434878998716613e+03
1.675186563574417050e+03
8.182007545283042873e+02
3.074992565309252086e+02
-1.058168904357554965e+02
-7.196033348328741113e+02
-1.833030576833904433e+03
-2.566547971103847431e+03
-1.454351476347181688e+03
-1.453880457348455593e+03
-9.308117179770295024e+02
-1.078317978206694988e+03
-2.834581806374617827e+03
-5.937266863321990513e+02
8.132502097027860373e+02
1.163538899919944697e+03
1.034195141658444072e+03
1.025184465177851507e+03
1.256641095299844210e+03
1.655631387415535301e+03
1.535256745837973540e+03
1.681324216369927854e+03
1.359546048689214103e+03
5.002494920627582360e+02
-1.083743224905713532e+03
-2.373528577286072959e+03
-3.116374449043196819e+03
-3.224454556580878489e+03
-3.502977897706781732e+03
-3.995074994440792125e+03
-3.810181124791052753e+03
-3.882210031528432864e+03
-3.482107888814392936e+03
-1.979855949657045358e+03
-7.063336475962299801e+02
8.225443207557182177e+02
1.836685005383217458e+03
1.785039015429506208e+03
1.000688884572792176e+03
9.906719921806569573e+02
1.593876752217707235e+03
1.420183620562774422e+03
5.476219563526105958e+02
-4.277525322316324150e+02
-8.089887434290449164e+02
-1.285147447154251267e+03
-2.449349424581555922e+03
-2.598589513503390208e+03
-2.276835802717709612e+03
-1.475119783271118195e+03
-6.745273470645543057e+02
-4.969948898115263205e+02
-3.275833054188410642e+02
1.435467034180738324e+02
1.065355664354989358e+03
1.602981184987692814e+03
2.263386714782483523e+03
2.845565459326456221e+03
2.750576647424355087e+03
2.543363803079263107e+03
2.104883647554313029e+03
1.921074352757922270e+03
1.555175835904442465e+03
9.681848885763805583e+02
-1.938931850792428975e+02
-8.254172117334089762e+02
-1.541617650329091020e+03
-1.800874525456066976e+03
-1.918300288916853106e+03
-1.514734205041614132e+03
-8.370473485777392852e+02
-7.332567138788193688e+02
-9.363480898494528901e+02
-5.121256421527590419e+02
2.813790498144325056e+02
1.003007260390584293e+03
1.563696477907559256e+03
1.676761066133694158e+03
1.922886291876679024e+03
2.042880254170475382e+03
2.133001362758849154e+03
2.207038347745459760e+03
1.941952991503100520e+03
1.420877683120622805e+03
5.665271895184877167e+02
-4.313369203388031679e+02
-1.304779765248411195e+03
-1.713986517588409015e+03
-1.822802704276887198e+03
-1.855062177030784824e+03
-1.463965733859117108e+03
-1.557458942940924999e+03
-9.723648119611920038e+02
-2.248158216094602153e+02
5.222028979977891083e+01
2.693365261557982535e+02
1.234418004679315345e+03
2.553541809141055182e+03
3.616188242826000078e+03
3.896140896645923476e+03
3.621504419699262144e+03
3.498942587566172733e+03
2.867579365574064013e+03
1.795584712676899017e+03
6.778276698838939183e+02
4.658762100956326435e+01
-5.862171117354361058e+02
-8.741022264051064212e+02
-1.340981903624570805e+03
-1.450708210264307354e+03
-9.783361524418709223e+02
1.681696368895133560e+02
1.176567009509672062e+03
1.934627708790628503e+03
2.605606822118800210e+03
3.156768447605630627e+03
3.486190283444324450e+03
3.490546860390948495e+03
3.231693093141468125e+03
3.142958360260701738e+03
3.020498883283938994e+03
2.857096755071676398e+03
2.165453193258320880e+03
1.445444635651547969e+03
-1.477319272877073217e+02
-2.363101712689492160e+03
-5.774616097277095832e+03
-7.324226849452519673e+03
-6.917992168586699336e+03
-6.674941185992995997e+03
-6.112980269991910063e+03
-5.375139973637327785e+03
-4.471429225283423875e+03
-3.841815306333735862e+03
-3.198191692790601792e+03
-1.384534617578451162e+03
-9.508388538576072051e+02
-1.250920322118282002e+03
-1.491728729195289361e+03
-1.614278877047518563e+03
-2.795494175899856941e+02
7.434851592561565212e+02
-2.050181688406640660e+03
-2.887500038741233766e+03
-2.870296433277034339e+03
-3.313628831046898085e+03
-7.214921664745185126e+02
1.990454710842969064e+02
-2.707087504399954469e+03
-5.620878864597141728e+03
-5.976356786580146036e+03
-5.137469185093289525e+03
-4.404047459469504247e+03
-3.220097585771847662e+03
-2.337690511479388533e+03
-2.879715142458125683e+03
-2.495072659769803977e+03
-3.847024196611183697e+02
2.838396260919012548e+03
1.663292341217585317e+03
1.690340064337051444e+02
-5.403844512839633580e+02
1.662098397889474199e+03
3.173583206818680083e+03
2.625083931560606288e+03
1.071532503590033912e+03
5.919722702267016530e+02
-1.064636718500187840e+02
-7.268129149603602173e+02
-4.601663279582406858e+02
4.425409978915751594e+02
7.903136695096060294e+02
1.649251087630356778e+03
2.722402266253587641e+03
3.525740996623003412e+03
3.850257881671180257e+03
4.282943688145900524e+03
4.409925913981002850e+03
4.582396737500071140e+03
4.454280957713100179e+03
4.146651066061073834e+03
3.441640447224569925e+03
2.859254407028028709e+03
2.772635175490547226e+03
2.385772352914023941e+03
1.472413677417032432e+03
6.024054141468408261e+02
1.438074107752289308e+02
-1.883228044964522780e+02
-7.089763964907083391e+02
-5.511382255410417201e+02
-2.266593049708114336e+02
5.557265624017475858e+01
9.654563993869699061e+02
1.671004251061648802e+03
1.798197051596858500e+03
2.163212742559768230e+03
2.363237267792933380e+03
2.370248739353024575e+03
2.208187528574961107e+03
2.064241955022452203e+03
2.335328934786708032e+03
2.730322004352230124e+03
2.613517744020428381e+03
1.477834281417062584e+03
1.321108065418286799e+02
-2.056834296972580205e+02
-5.026516853663675874e+02
-7.638229112082722168e+02
-1.245281823602471832e+03
-1.992980736687365379e+03
-1.764261214209145692e+03
-1.676010249005112883e+03
-1.499097787597729621e+03
-8.472935946627907242e+02
-1.076181111228980853e+02
4.847358187695745642e+02
6.017308655146374576e+02
1.254509781302682768e+03
2.284113080690539391e+03
2.753445726339474732e+03
2.757540472203826994e+03
2.331422682671461189e+03
