1.829968546275699055e+03
2.156880074350509858e+03
2.270622873656516276e+03
1.960207104624130579e+03
1.691678534696686256e+03
1.721047088054575170e+03
1.715338045444372256e+03
1.516560648503772427e+03
1.695740639706879392e+03
1.796910181048168624e+03
1.583128409709435118e+03
1.565372717763993933e+03
1.409692586989425308e+03
1.379115389249014470e+03
1.279604940609216328e+03
1.359253033829447304e+03
1.485120188981885349e+03
1.254194900753035199e+03
9.864862262156019597e+02
9.460099599977111211e+02
1.078807575357542646e+03
1.051875099356577039e+03
8.482023549542250294e+02
3.519771208098332522e+02
4.402213392292981666e+02
6.760815738407549134e+02
6.586115201091766949e+02
7.119048789929460099e+02
7.019983851224092177e+02
6.899057506077620019e+02
4.526517414390650629e+02
4.522246411634129686e+02
4.586724329751908726e+02
5.929820286263668550e+02
1.930538897537830678e+02
-3.262134232359581461e+02
3.152315203106084027e+02
3.851939903119519499e+02
4.287926135007676862e+02
9.495797160332976716e+01
-5.192511126818003504e+02
-1.568843827969165829e+02
-1.029023549941080233e+02
1.656656965925782004e+02
4.485274932679153181e+01
-6.362905681992420348e+00
-1.339522695246752733e+02
-5.984824973037433438e+01
-6.606750595110371194e+01
-2.756078099023137042e+02
-2.044914688098882607e+02
-6.874079336839419341e+01
-1.202911168174991019e+02
6.681957777530521980e+01
5.358952007354523772e+01
-3.459651275135166202e+02
-3.468954439399852276e+02
-2.821464568944986695e+02
-5.617058285576677008e+02
-7.935920925333750802e+02
-7.898063351412299653e+02
-6.613107995004739905e+02
-4.431323263802565862e+02
-4.312941781562435608e+02
-5.698049345584481671e+02
-3.526707001268321164e+02
-2.299017561103515277e+02
-5.344920991939235364e+02
-4.514215085148410935e+02
-3.647046944974372309e+02
-2.553704659624830242e+02
-1.664173623305725300e+02
-4.298516765842269933e+02
-4.586836551881412447e+02
-4.039331140582101511e+02
1.203863111803540988e+02
-2.037428832044978435e+02
-2.873074006990072462e+02
-4.243455534045176591e+02
-7.178124010802652037e+02
-6.677487648062929111e+02
-6.042231222943518105e+02
-7.031810010231205297e+02
-3.616713764930601656e+02
-2.117146032952472012e+02
-3.303223177662915759e+02
-4.914827033310155002e+02
-7.362638732210955368e+02
-5.166806911456270655e+02
-3.126785562144143569e+02
-4.353214778566212431e+02
-4.046358303583258476e+02
-2.586070681922777226e+02
-5.822044964487507741e+02
-3.285014412622570603e+02
-2.885711465585740143e+02
-3.793960373780005852e+02
-4.500097891064423266e+02
-7.063261141393367097e+02
-1.234532896430473102e+03
-3.123033631813826219e+02
-5.789288873234859238e+02
-8.273559062444336405e+02
-5.161231087557008550e+02
-7.204734969435817220e+02
-6.737816635185722589e+02
-4.753719486233237603e+02
-4.816945336984544497e+02
-6.366982365459986113e+02
-4.116330155828824218e+02
-7.251290832799242025e+02
-6.576672091670602640e+02
-3.500711200668450829e+02
1.466926969961105840e+02
5.260169614224341217e+01
-2.419165675292056505e+02
-1.422977354406982897e+02
-1.935910286280835635e+02
-2.230158684987749211e+02
-1.957471511034163143e+02
-1.628969079084438079e+02
-1.423511636722650167e+02
2.825553319392644269e+01
1.071933317873949534e+02
2.290360835450186698e+02
5.288527192526210001e+02
4.641843514851681221e+02
4.294216921789413277e+02
4.254736286346956149e+02
3.147331805231689259e+02
6.395506751602625855e+02
6.360615294177689520e+02
3.125672899857598281e+02
3.417166282506909738e+02
6.287851156844639036e+02
6.180509886207348700e+02
4.792158659769623341e+02
5.501562072575878801e+02
5.644952459988446662e+02
4.410550767156976235e+02
3.513157954681147999e+02
5.601385362479211381e+02
8.134182068163274835e+02
6.261980903256030615e+02
6.654264703686189932e+02
6.210657373459788460e+02
4.651048380532548663e+02
1.415849620731499385e+02
8.450824876161918553e+01
3.808413950831306920e+02
4.735735469270305202e+02
4.697076114381606544e+02
6.762424086577090065e+02
8.141198418069067202e+02
9.783701772631660560e+02
1.067032712019397422e+03
9.361183639975251936e+02
7.365927042694167994e+02
7.584579392998211915e+02
7.077291099199858309e+02
4.864115248218832335e+02
-1.125583623271272273e+02
2.009557479524679025e+02
6.179599465438936932e+02
5.853347918101097775e+02
8.061138428048492415e+02
8.991188154721189676e+02
8.935655280450295095e+02
1.037698428887445289e+03
9.522665936973968428e+02
-2.719731506128387082e+03
-4.250251581682469805e+03
-2.169270478343770264e+03
-2.874806110795362201e+03
-3.483586692362423065e+01
-2.833369917344727128e+03
-5.804026897860450163e+02
8.900649351199614330e+02
1.192031817658304817e+03
9.675401437904639579e+02
8.045806081647846213e+02
-1.549852644293624280e+03
-1.805718249242055890e+03
-8.649375289551537662e+02
-5.157548537679931542e+03
-5.945569639644861127e+03
-5.241975243976727143e+03
-3.471768170948297666e+03
-6.089415110237023754e+01
-2.828284096389402748e+03
-3.169922747740441764e+02
-3.619970972689480959e+02
-3.031295263069064276e+03
-3.218605766681862974e+02
9.743563438292404726e+02
9.373616264826902125e+02
9.671443007331429271e+02
1.054733365298832723e+03
1.047192625726031110e+03
9.014990483711867455e+02
6.496960525395348895e+02
2.868201255412625983e+02
2.538883195656396481e+02
2.638771272898745224e+02
4.327938186970760057e+02
9.837013084958070976e+02
9.755662585415062722e+02
9.824771002368747759e+02
7.104288513473296689e+02
6.964281325979156918e+02
1.122494313571473185e+03
1.042652778271329225e+03
8.409221450512380898e+02
7.103155987627060313e+02
2.978258372571144719e+02
5.746101511070340848e+02
8.798572883927628254e+02
4.356717788113707570e+02
2.548141896134895319e+02
4.252059709925927677e+02
6.128285834612482859e+02
6.990097464061262826e+02
6.309533147838133118e+02
7.328068716952724344e+02
6.211622479320184311e+02
-3.810937753523840854e+01
-8.002405210196172902e+02
8.882234324089777999e+01
2.049816438367345484e+02
3.873927487894480919e+02
3.393667283087680175e+02
1.910563371571423659e+02
1.298024013109119323e+02
3.162955720223717435e+02
3.672428063123161905e+02
1.356728123001560391e+02
-9.093107990830918652e+01
-2.136399509678565209e+02
1.966661728022972966e+02
5.383387032618172725e+02
4.592311083707247690e+02
3.751965581953671176e+02
3.073874094340073384e+02
1.939322551760167812e+02
4.638129205709483927e+02
4.680779199418973917e+02
6.926541375958064464e+02
4.985396999539881335e+02
4.777813225080361690e+02
5.883540098122251720e+02
4.892616822955665725e+02
2.375605271427834282e+02
4.632487243238347219e+02
3.652823806245033893e+02
1.736868150027246429e+02
4.794088255382197303e+02
4.304577522328870600e+02
5.018521965846877606e+02
4.705246322001411841e+02
3.484746007267887080e+02
4.827378422587362934e+02
4.623844562989472138e+02
4.444288547941960132e+02
5.908373703797733469e+02
5.855794189688150482e+02
4.465711974430190025e+02
6.387963660241655361e+02
4.962193298962640142e+02
4.028561103730541504e+02
5.847547871219982198e+02
1.858969420839104032e+02
2.632067870199122126e+02
5.326803771587783558e+02
7.014285997477721821e+02
7.245208867272245925e+02
6.959109184439863611e+02
9.215751442333438490e+02
9.105323260594898329e+02
2.887903865950464137e+02
4.323189538754210730e+02
-1.872854509063287878e+03
-5.949926503091804989e+03
-7.963071550320470124e+03
-8.004157450450966280e+03
-7.873068743090690987e+03
-7.614789749142589244e+03
-7.363460959416971491e+03
-7.045881317604156720e+03
-6.887853910078257286e+03
-6.524264816678820353e+03
-6.592383308254659823e+03
-2.950335350426865716e+03
6.827926529519238557e+02
1.082897136527377143e+03
2.012101920998852847e+03
1.988369305682147115e+03
1.753487786006175611e+03
1.764446644602266588e+03
2.093389536308965489e+03
1.796356751213027337e+03
1.794201673508317072e+03
1.514093271473941968e+03
1.508146929520167987e+03
1.584436093371686411e+03
1.789761274637645329e+03
2.248776210729737613e+03
2.207307736686236240e+03
1.962185568723300321e+03
2.212434469711701240e+03
2.333173487154957002e+03
2.303420642150254480e+03
2.130171346975659162e+03
1.830350867006948647e+03
1.856928433920167436e+03
2.002074080849594111e+03
2.081889680718134059e+03
2.043419790507264679e+03
1.938656029277938842e+03
2.019494368321915772e+03
1.942725885915936715e+03
1.910118070776518834e+03
1.819730492847920459e+03
1.845689400703972524e+03
1.826154449851536810e+03
1.740355727240618080e+03
1.917409175262605686e+03
1.836198575663129986e+03
1.882509593862543625e+03
1.896186506295301797e+03
1.937202868940090411e+03
2.093326252561346791e+03
2.173405194932664017e+03
2.049671457096051654e+03
1.960404738592226522e+03
1.637532478755003012e+03
1.916984319038487229e+03
2.179776860331927310e+03
1.871841779046893180e+03
1.874170682394589676e+03
1.690787616069861997e+03
1.734550112894184394e+03
1.745319100493539054e+03
1.941229388978274301e+03
1.770317212598427886e+03
1.401649065580803835e+03
2.070697422708077283e+03
2.015233210921654518e+03
1.787340181373900123e+03
1.812043385592054619e+03
1.844195760575062195e+03
1.681643282351002654e+03
1.630290830579788690e+03
1.610113806006819232e+03
1.271122637422327671e+03
1.261353335896359795e+03
-4.542034988311503980e+02
-3.208480217459786218e+03
-7.060585572363795109e+03
-7.648361538677439057e+03
-3.509798042635017282e+03
1.505086453674124641e+03
-1.986724548289501627e+03
-7.098273119271442738e+03
-6.973521986330216350e+03
-7.268423824381259692e+03
-7.395936408927520461e+03
-6.960044194489819347e+03
-6.930776195973925496e+03
-6.646155200432973288e+03
-6.075127507824731765e+03
-6.473626661846216848e+03
-5.970556207077633189e+03
-2.431887287115203890e+03
2.359387692383455033e+03
2.818230338859857966e+03
7.724899871764127965e+02
-3.028881221958314654e+03
-5.956820280242592162e+03
-4.117273092472033568e+03
2.015815775499847632e+03
3.095454907228440788e+03
2.867649640740972700e+03
2.946479174812871861e+03
2.809972939003017927e+03
2.549095144392206294e+03
-1.549107326537176732e+03
-6.483639459085858107e+03
-6.773496304055322071e+03
-6.639535121042311403e+03
-6.448687130260244885e+03
-6.462902044809267863e+03
-4.349166948733452955e+03
1.802389945015621151e+03
2.725740636711509069e+03
1.703934048295626781e+03
-1.081978989349947142e+03
1.173129977082900268e+03
2.122304012740858525e+03
2.164528855312957148e+03
2.605864906778375371e+03
2.635336210107614534e+03
2.349913897453669506e+03
2.042715557761828222e+03
2.254866653957512426e+03
2.431509912208326114e+03
2.390720214224530537e+03
2.184486436370727915e+03
1.999880615439118628e+03
2.084877823567596806e+03
1.713540157626163364e+03
1.538878478870515210e+03
1.767908380629038675e+03
1.768699028746723116e+03
1.491250732224819785e+03
1.456653888081099012e+03
1.611906522112491984e+03
1.639888070070689309e+03
9.045428267008583134e+02
1.007831526692347893e+03
1.324206313620123638e+03
1.716537762378498428e+03
1.686662963004165931e+03
-9.355206132670775787e+02
-1.471662239410463599e+03
1.322234995926330612e+03
1.466161725025295482e+03
1.466700306569145368e+03
1.444751370310219045e+03
1.247383489289915360e+03
1.490072709634906460e+03
1.609890217826643720e+03
1.559570760742392622e+03
1.520594085241656330e+03
1.263571888869524400e+03
9.623654613440450021e+02
1.202356268760185458e+03
1.317603103552218499e+03
1.026914752855367169e+03
7.124658733687333552e+02
1.126930541508900205e+03
1.142534408858831057e+03
9.856204985498725364e+02
1.050280792782438084e+03
8.089874113214212912e+02
9.337017406889440281e+02
1.333544056757920316e+03
1.393691098979086291e+03
1.196656671066970148e+03
1.158060204464524304e+03
1.082867679355236760e+03
8.536076842359177590e+02
7.431305714365122412e+02
6.349252798429243967e+02
3.549721170948962481e+02
5.801125611469835803e+02
5.663339118252820299e+02
5.116173508716671563e+02
6.619532502427322243e+02
6.643420877302340841e+02
3.807608293100245191e+02
3.341842916810977044e+02
2.725964222779875854e+02
-1.101513895252774589e+01
4.223795078189444894e+02
5.187184225768771739e+02
8.900088349543344748e+02
7.742097476835301677e+02
8.692954531629598023e+02
1.103228669185811896e+03
1.101978859495231518e+03
8.804928203643817142e+02
7.077397753251040058e+02
1.026647130371049570e+03
1.104239430694012754e+03
-6.754618318021184677e+02
-3.317500318631648497e+03
-7.237952052943683157e+03
-7.363880057350666902e+03
-4.561285333809381882e+03
7.017896499105097519e+02
1.280270635584770162e+03
1.385167588802412638e+03
-2.378587188434787095e+03
-6.585884957925046365e+03
-7.224891350887379303e+03
-7.611577108600725296e+03
-6.791993538977821117e+03
-6.177212478860795272e+03
-6.162264476684310466e+03
-5.940162383686571957e+03
-6.318946126500542960e+03
-6.004682392682108912e+03
-5.830376578799183335e+03
-3.305069783808716693e+03
2.413200677149499825e+03
3.492388459243860780e+03
3.311456013110234380e+03
2.577383714256269286e+03
2.394110288144471269e+03
2.873635779813152112e+03
2.710923563240690328e+03
3.133906897874720926e+03
2.958600092188240069e+03
2.464962004713651822e+03
2.359971672040139765e+03
2.223570319475792530e+03
1.859696746024358390e+03
2.091394909894158900e+03
2.500636800480639522e+03
2.830382526108608545e+03
3.315625031281359043e+03
3.130341327764826929e+03
2.791424859338448186e+03
2.820889580215176920e+03
2.493696024286140073e+03
1.955823883910531777e+03
1.341227657741803114e+03
1.619895071431905308e+03
2.596825568352358005e+03
3.442969188445360942e+03
3.961309477607953795e+03
3.960843594552799004e+03
3.809560590507048346e+03
2.846419823395778167e+03
2.160454486530360100e+03
1.936657950746485085e+03
1.635936039332096470e+03
1.723722918699540969e+02
-1.445063827357358377e+03
-1.685422928537493590e+03
-1.251699284093156393e+03
-1.334908950785003526e+03
-1.413058708788101058e+03
-8.511331056928191856e+02
1.386604299004572916e+01
6.489951869045723925e+02
1.650229793394824355e+03
8.787797575878014413e+02
-2.274205541187155177e+03
-4.484774398278117587e+03
-5.381069378161579152e+03
-6.198131481444184828e+03
-9.170077830417883888e+03
-1.019496175766598390e+04
-8.204736045139730777e+03
-3.714037067356002808e+03
-1.443028003207492702e+03
-7.435871280689095784e+02
-1.115883986560936592e+03
-1.501753364668962149e+03
-4.412666874912389403e+02
6.584001396787543854e+02
-1.224745426759208158e+03
-4.019664645098529945e+03
-4.173330978677046005e+03
-3.793744270472067456e+03
-4.897851914661256160e+03
-3.985679816197592572e+03
-7.451703421299463344e+02
4.772659172665230471e+03
9.599837408260733355e+03
1.107939558657013004e+04
1.058329684537010871e+04
8.114621782150118634e+03
5.744417663321502005e+03
4.567659692502011239e+03
3.934397486814535569e+03
3.163676158955245683e+03
8.575137298609278105e+02
-1.914019108999881155e+03
-2.652961660333448435e+03
-2.276255217564165378e+03
-8.858945107070710492e+02
1.311155257329108281e+03
3.081966652826527024e+03
2.739551331712439151e+03
-1.082050547102673818e+03
-5.138829469653434899e+03
-7.937760564375079412e+03
-9.108798008304131145e+03
-7.588938216311597898e+03
-3.307116030830491582e+03
7.806437926149089890e+02
3.211415355413110774e+03
4.311241956571479932e+03
5.152116492434937754e+03
3.255092063523440629e+03
-1.165837255489172094e+03
-2.711625958967322276e+03
-1.397240655917005142e+03
-4.116475977100013779e+02
-1.337901803227031223e+02
3.532982919569180922e+02
4.536390251505707738e+02
6.023195005647745575e+02
1.059333979526350049e+03
1.777149552348759585e+02
-3.113540623101558140e+03
-5.684404540324320806e+03
-8.596887803295843696e+03
-1.160592361677940244e+04
-8.057450864506225116e+03
-6.828571699515031469e+03
-4.395197546162945400e+03
-7.222921747222503654e+02
2.031152841722689800e+03
2.763112663787711426e+03
2.950631355464562148e+03
2.604702885284257718e+03
2.109325588060029077e+03
1.939580900900704137e+03
1.244447918992490258e+03
8.219304596912210172e+02
2.902960531417454035e+02
5.497656139410937612e+02
8.499327610436454279e+02
1.483789299588750964e+03
1.340208091089027675e+03
6.343882732241085023e+02
3.019702125202412049e+02
1.692099133671659672e+02
2.190757576305129533e+02
7.468403358625073452e+02
1.442894286102860804e+02
-8.181126295377215456e+02
-1.202543006407310713e+03
-6.533312318700956212e+02
5.895383663998627526e+02
2.063842973986660581e+03
4.244695242411090476e+03
6.080495966780491472e+03
5.984934214823426373e+03
4.934905557651381059e+03
4.215342872201735190e+03
3.756919529071199577e+03
3.852008917513650431e+03
3.692813108758461567e+03
3.290867319523125389e+03
3.844266254206799204e+03
4.245823746034512624e+03
3.879805940466030734e+03
3.738271586867569567e+03
2.941067012041350608e+03
2.097621643255076378e+03
2.357631848132230516e+03
2.865703371411456828e+03
4.205249124392293197e+03
6.063822335153482527e+03
5.865494071555747723e+03
4.592608596478356958e+03
3.446794332949721593e+03
2.197016216035744947e+03
1.826425027846358034e+03
1.511725893533446879e+03
7.707961279307510267e+02
3.316423933058233047e+02
-8.798172826204859120e+02
-3.157572010570230304e+03
-5.007657954190937744e+03
-6.258121466191076252e+03
-6.583035074760441603e+03
-6.187380047193584687e+03
-5.924217234277651187e+03
-5.213537925546881524e+03
-5.269343396287024007e+03
-4.656704450694484876e+03
-4.221664581293427545e+03
-3.835229708216624203e+03
-2.832453084135637255e+03
-2.242353312729641402e+03
-7.089401440103515597e+02
1.065742991666709258e+03
1.102614984095823502e+03
-3.064102282388611798e+02
-3.681395456286495119e+03
-7.720081855825214916e+02
9.636267157058581461e+02
2.353916723599314587e+00
-2.798857932118666668e+03
-1.706821027979059636e+03
-7.646692457082449437e+02
2.033178618685986692e+02
-5.283737436097494538e+03
-4.111848142978352371e+03
-1.600477991500739279e+02
1.260670859968545983e+03
9.732551518775323984e+02
8.956735380743550650e+02
1.235927954029356670e+03
1.511000185485523161e+03
-6.680715616631478042e+02
9.126928148987932445e+02
3.119224358193621356e+03
3.074529353514337799e+03
2.616639082458533721e+03
-8.484666560403125004e+02
-5.988557366547913716e+02
-1.774505403716073715e+03
1.315591803641820434e+03
-7.335575842802464877e+02
-2.332958315444081109e+03
7.736098775644248349e+01
-1.136621730761142999e+03
-3.822906381305515424e+03
-6.614762360299233706e+02
-3.913222064335712957e+02
-7.004502827426996419e+02
-4.221837895682472663e+03
-2.808496968147122971e+03
-1.054389036025833775e+03
-8.765153790921254995e+02
-7.568972923195353815e+02
-8.725062516374933921e+02
-1.143306606332442243e+03
-1.490321168370322539e+03
-1.728526154486715996e+03
-2.116879013633284103e+03
-2.389402074260058725e+03
-2.105067876877645631e+03
-1.565831670868972878e+03
-1.459731662215995811e+03
-1.256731679404447959e+03
-1.009817532845111486e+03
-1.469381928247694020e+02
2.639115774471219993e+02
5.477558038649254968e+02
5.596220104269310696e+02
1.225546658289355975e+02
-3.294402206506064203e+02
-7.342895428206350772e+00
2.829135520554164032e+02
6.734986267626678682e+02
9.235669663595067505e+02
8.633056278446463239e+02
1.173494934416787373e+03
1.259911258983738207e+03
9.652961306500358205e+02
9.780004924441030880e+02
-2.558968768354576184e+02
-8.401371810348187807e+01
1.207627354629900793e+02
5.992548833861278581e+02
1.104518694408527608e+03
9.774537812696727315e+02
7.380869386724053811e+02
8.284915351129442342e+02
1.185580607994887259e+03
1.070407546685732086e+03
1.012995091924652911e+03
7.896952955352594472e+02
5.343851845165046370e+02
6.906647921916926407e+02
8.878821909538802402e+02
9.192101546609453635e+02
5.268368065377959510e+02
5.100556483525469389e+02
3.575176512517003289e+02
1.201023548647932415e+02
2.337793235062325721e+02
5.296315332068679709e+02
5.887251867670283900e+02
4.160929057073647641e+02
-1.072522220780012958e+02
5.274600989541212925e+01
3.909789696959261107e+01
3.898192308231382981e+02
7.939338710466257680e+02
1.225501030432137441e+03
1.188581879699305318e+03
1.353205731686751960e+03
1.488405936798651283e+03
1.602291411490013843e+03
1.285876485335937559e+03
1.310163671049987215e+03
1.479147850691566873e+03
1.247806947272782054e+03
1.186160144529136005e+03
1.168238745338771423e+03
1.048099044240692820e+03
9.037748341983289038e+02
1.036373243392164795e+03
1.323936366054859718e+03
8.104220170125721552e+02
8.328862739047305013e+02
1.050436868886629554e+03
9.831132923191669306e+02
1.035877057830758531e+03
8.137201089119654398e+02
4.286361056599091626e+02
5.236553336684537499e+02
4.067507270781017610e+02
2.989061038850178988e+02
5.971029580478741536e+02
9.273390482844794178e+02
5.427313602761438460e+02
7.724945249857776162e+02
9.186168065104886864e+02
7.020566692085045588e+02
-1.142203972881371556e+03
-4.332967197516941269e+03
-7.739341703791568762e+03
-7.050619170617555028e+03
-8.417033240269263842e+03
-9.032382064106193866e+03
-7.732666277355281636e+03
-2.717804316263096553e+03
-5.788052787542320630e+02
1.791957125101604902e+02
6.715190965580502791e+01
-5.368839427039097956e+01
1.517509769635370276e+02
5.482779947058847938e+02
8.248590543087601645e+02
7.826066291269245312e+02
8.933332323170335485e+02
7.178062574680742500e+02
6.717513048397635202e+02
9.070654973761149904e+02
6.919336788652766472e+02
7.104996089396161096e+02
7.659432435529034819e+02
6.442607995475348162e+02
7.203843628656338751e+02
9.132692742591916613e+02
8.149216427256849329e+02
1.091447455459103594e+03
7.769448022264933797e+02
9.662693017900304540e+02
8.123070073050627116e+02
5.539450292125011401e+02
7.470238572289889589e+02
9.345196432676016229e+02
1.146610841659980224e+03
1.153518428453144452e+03
1.001309460209874032e+03
1.161963162005235290e+03
9.303519043883217137e+02
1.059213511585156994e+03
7.372432512287917916e+02
6.933532707153890442e+02
9.845559836471358039e+02
8.018935745534649868e+02
9.663443089561827719e+02
8.381046365151662485e+02
8.813867693258628151e+02
7.849982444367989274e+02
7.677319756482330604e+02
8.625540987735257659e+02
8.014587335868899345e+02
7.283888999294690620e+02
9.023367231968560418e+02
1.005267871455609225e+03
1.042138823956968736e+03
9.609833773321433910e+02
9.309317344644787227e+02
6.718866010538386035e+02
6.140181660795362859e+02
8.578341733846613124e+02
6.416926017806794107e+02
6.796556951395741635e+02
7.863345093843532823e+02
1.089519887974080575e+03
9.301934644253932447e+02
9.424562757004213154e+02
7.923211094513430908e+02
4.397978361555166202e+02
6.228750589924834458e+02
7.555295085223153819e+02
-1.348216737571300655e+03
-2.092423263057042277e+03
-2.112013178009065086e+03
-5.086076267349099908e+03
-3.100644830952504435e+03
1.216427000548657666e+01
-2.537545012572196356e+03
4.902646032428590388e+02
-1.207463678003685573e+03
-4.278745407856692509e+03
-3.992600753696409811e+03
-5.958097778902128994e+03
-1.884142340731496461e+03
1.345311582856601035e+03
1.373221365708416215e+03
8.075107791189739146e+02
-1.910930188827481061e+03
5.908610604971918292e+02
-2.053228053785578595e+03
7.527901398969287357e+02
-7.924286392476201257e+00
-4.632293347424882995e+03
-4.043453064262909038e+02
1.507916431856503777e+03
-1.293533791584453866e+03
-1.411656165678417210e+03
-1.217469409267742094e+03
-3.062025625918518926e+03
-1.446302339517332484e+03
1.686776926749158974e+03
-1.197821683129662233e+03
-5.150175248038505060e+02
9.012097374578389690e+02
-2.136204859112494432e+03
6.287346317075622437e+02
-2.086087508242126205e+03
-1.297716305289758111e+03
-3.584994122172756761e+03
-1.751813242004353697e+03
-1.686139735571556457e+03
-1.511903881940097108e+03
5.628499943994073647e+02
9.311245500109703244e+02
1.111984970550035086e+03
1.163435697815360982e+03
1.485587108326286170e+03
1.466530699968143836e+03
1.139301446290804961e+03
7.198560260940249691e+02
9.621573226814522286e+02
6.371610058918539607e+02
6.009220239027888510e+02
9.853822373181488956e+02
1.218615657165956463e+03
7.915702399391529980e+02
7.682642006084229251e+02
8.956813153324563928e+02
1.025808256480213913e+03
1.150665891983242318e+03
1.360172322887681503e+03
1.120290300086992829e+03
-1.469290463487892282e+02
-3.298526304298656214e+03
-1.211856496954655313e+03
3.698156728990570628e+02
7.271935399704489100e+02
6.892780017965280877e+02
4.166441348428866718e+02
3.858551317225988555e+02
7.619908748024886336e+02
8.121106909317912823e+02
8.784690171493111848e+02
7.610326027664274307e+02
7.871353980527292151e+02
8.490400748289176818e+02
6.552602558320567141e+02
5.073655773646964349e+02
2.885004824767565879e+02
5.018560545840949771e+02
5.652720302752261432e+02
4.418783959415302434e+02
4.675456637770324164e+02
6.360086139921106678e+02
5.886500448581200544e+02
5.129548920763278375e+02
4.732107121909832017e+02
4.086765104634733348e+02
7.423773056257242615e+02
7.926845175120095064e+02
8.862238233412986119e+02
1.107756099914484821e+03
1.086815677193791544e+03
9.811798692009442675e+02
1.096626507756911906e+03
1.053254054849753402e+03
1.044364127217051873e+03
8.611335384961932959e+02
1.062116357650783812e+03
9.322568597169376972e+02
8.876360956359654892e+02
8.562467040381701509e+02
1.115128891170512588e+03
1.178280430993746677e+03
1.260738727077671001e+03
1.404507535246599446e+03
1.246609646506565923e+03
1.159019975268149210e+03
1.127685348996673156e+03
1.081587231716622000e+03
9.427318992213288311e+02
1.034123846127780780e+03
1.043794508863674537e+03
1.014644536609037800e+03
1.167681934541955798e+03
1.148923271290314688e+03
1.090381794725532245e+03
6.800927429215997790e+02
5.920557556238564985e+02
8.012490218131359825e+02
7.266222137585668861e+02
7.951863944205688313e+02
7.379207379061466554e+02
7.338494809997217772e+02
7.609588295166822718e+02
5.622463942812410096e+02
4.836892998643756414e+02
5.733202139679509628e+02
8.023027069585073150e+02
5.284934540542508330e+02
4.168783888474271748e+02
7.443939749876683436e+02
6.480504271497140962e+02
4.009020489551226092e+02
5.893325025169284004e+01
-1.922880008676725765e+03
-4.974565491206613842e+03
-8.396079100877394012e+03
-8.319415304919288246e+03
-7.518566050050141712e+03
-8.080532116393938850e+03
-8.618343577623674719e+03
-8.745015175514459770e+03
-7.566560781625635173e+03
-1.828916320385581912e+03
6.899020464926730938e+02
9.188895879232547941e+02
9.080470181022000133e+02
9.003402144777771809e+02
8.357619567239445360e+02
1.032326899510158228e+03
8.580368241560495335e+02
5.799357192146393345e+02
4.969763463494325038e+02
3.911835000415103991e+02
9.749933099866932196e+01
3.689233188157908785e+02
3.834526577334704029e+02
7.110433177107782399e+01
3.685105232025053823e+01
6.637241387904695102e+02
8.507340002490572033e+02
4.168987223888283324e+02
3.161917327092926939e+02
4.265767893092761938e+02
5.621081478020091708e+02
6.207548490448766643e+02
6.105285578887543352e+02
5.124461097718626661e+02
4.945278423215250996e+02
8.127411452581920912e+02
6.690971311202243896e+02
8.356610606965426769e+02
7.533865255388093374e+02
3.242506931013553526e+02
2.642853494440263944e+02
6.604556905378020701e+02
3.468051087267691059e+02
1.903992897861729716e+02
2.361967152457455370e+02
4.771990014145484338e+02
3.484146255235435774e+02
6.977052130298513930e+02
7.732989213996340823e+02
6.301462724733210052e+02
4.968910102037143588e+02
7.447245257307704378e+02
6.570577955162258377e+02
4.722754989281805820e+02
3.490658852696419672e+02
-3.934793183053131997e+02
-8.385559563213640786e+02
1.480419134295893855e+02
1.723705297817308804e+02
3.442218867306858101e+02
4.374642731572798766e+02
4.791624947473421798e+02
3.771333935616025315e+02
5.394441306155125631e+02
3.171743121910726586e+02
8.175638428921320866e+00
6.676525920197024178e+00
1.165901744633008690e+02
5.979900359399955079e+01
1.442599678879899727e+02
4.229891334062089072e+02
2.890116831807261519e+02
1.752991628565843882e+02
2.418876637811485750e+02
4.947610594425864292e+02
3.959445358419193326e+02
3.734070416721081074e+02
3.301407447253099008e+02
3.041641754726405793e+02
-6.850551935897667022e+01
-5.793606164492897648e+01
4.955821357316385622e+00
2.711400353071249469e+01
2.245502540676584431e+02
-4.714375589241712738e+00
-1.547014582330068606e+02
4.586057416469828922e+02
2.841903126025330266e+02
5.033632998409632187e+00
2.001144835517659999e+02
3.264440724892841672e+02
2.670505964185306880e+02
2.389360663066053121e+02
4.221004062817225986e+02
3.685090783835137245e+02
3.461473542174830982e+02
3.980516785743262176e+02
4.621988750311428475e+02
2.345957324898560898e+02
-6.976900040916515877e+01
1.761052526094788959e+02
4.111944501610344673e+02
4.434928774289536477e+02
4.279822648451477676e+02
3.566674712251842152e+02
2.635431687087510113e+02
3.525818095229031428e+02
-2.372204348246516474e+02
-2.091838975566680801e+03
-5.617296250677020907e+03
-8.531551554156294515e+03
-5.424647351819943651e+03
-2.819611172619843728e+03
-1.241430136042756693e+01
2.609191581224166612e+02
2.833564718205485065e+02
3.308776461144228733e+02
4.314667787160030912e+02
5.861367743416942631e+02
6.048781236207707934e+02
4.605905204571292302e+02
4.934003501150529587e+02
4.094789632299165874e+02
-1.642528380953037583e+02
2.200912473030928425e+02
5.184982319335910006e+02
8.092188368557270906e+02
2.168491038566163525e+02
3.782291215881153335e+02
5.677789715645583328e+02
4.410461903758822473e+02
3.913731460146554468e+02
4.008826415931816314e+02
2.043266165733169828e+02
1.748979692351427957e+02
3.010739642336117754e+02
4.258530321612608986e+02
6.834337809649230167e+02
5.698561141884817971e+02
6.342736953876660664e+02
4.802918521801204292e+02
3.402995298963890605e+02
5.698542626961104816e+02
7.381976428014143039e+02
6.326475060084873121e+02
5.395279298350673116e+02
5.849689178906145344e+02
8.863011556347961459e+02
5.813476599489940781e+02
4.680556462315504405e+02
5.415900539560768721e+02
7.956757181767563907e+02
7.021117476048714252e+02
7.643559278063312377e+02
7.261767781708922485e+02
7.744978770270631685e+02
1.049636426345246491e+03
7.881166407017099118e+02
6.993997139167709065e+02
6.142255326785485749e+02
4.398264828160162665e+02
2.938656081186723554e+02
4.544775292875085597e+02
5.786530210551836717e+02
5.442126172321424065e+02
6.152456728786511349e+02
7.437625857337027355e+02
1.209762256845594038e+03
1.226243468160095517e+03
1.457188557048275698e+03
1.175634976504133874e+03
9.316001708578511398e+02
6.430561373702525998e+02
8.690283784282867146e+02
8.025008026292815657e+02
8.594574473803911587e+02
8.449038701899627313e+02
8.729069289564297378e+02
5.544278812455344223e+02
6.724512834086586963e+02
7.040074062328858417e+02
7.350845345761496219e+02
7.855845244731135608e+02
-3.523546643176035218e+02
-4.563570348967081372e+03
-3.753912354561203301e+03
3.112217187308316966e+02
3.458177302676222666e+02
-2.824042853334613483e+03
-1.376305396017469093e+03
-1.961965585535161608e+03
-1.633020778961200676e+03
-2.344822990652992019e+02
-2.989313881286921060e+03
-2.625114196482987836e+02
-2.787046052871508437e+03
-4.515917863332283559e+03
-1.203152690106757291e+03
