8.821157762661862944e+04
8.885085798791112029e+04
8.817357611037579773e+04
8.631143326940588304e+04
8.497612599859623879e+04
8.331432453043223359e+04
8.220255682007486757e+04
7.984729534252679150e+04
7.664301246274117148e+04
7.451312158220224956e+04
7.183011556728936557e+04
6.901539686866165721e+04
6.677028343921629130e+04
6.326418656737475249e+04
6.065545429564509686e+04
5.794137266519814148e+04
5.443823372787541302e+04
5.228037887155200588e+04
5.074527053161186632e+04
4.881722987331201148e+04
4.673422850000150356e+04
4.449845326330874377e+04
4.203807554036032525e+04
3.990219606700524309e+04
3.761787622559587180e+04
3.588229765767724894e+04
3.358640833169189136e+04
3.104113481400596720e+04
2.911845651234118122e+04
2.655437501604488716e+04
2.349374581097649934e+04
2.112524900993081974e+04
1.851264437428410747e+04
1.552995176615163291e+04
1.248184380170930126e+04
8.706771177114003876e+03
4.435906835962255172e+03
9.269431839014371235e+02
-2.363664612217194644e+03
-7.338404427113472593e+03
-1.352160439084771679e+04
-2.030763294452690752e+04
-3.020391496428275786e+04
-3.685490557072529191e+04
-3.956214992957986397e+04
-3.919412819520955236e+04
-3.804530570387307671e+04
-3.877422787132931262e+04
-3.974142885825224221e+04
-3.805198965186758869e+04
-3.615163328751657536e+04
-3.604648400088607013e+04
-3.550355001710928627e+04
-3.556450576408801135e+04
-3.741697470682025596e+04
-3.818185512295851368e+04
-3.789998847534165543e+04
-3.702800778895870462e+04
-3.522676368269193335e+04
-3.235018620306141020e+04
-3.027605700075389541e+04
-2.878701692483741135e+04
-2.748186739175318144e+04
-2.590239506570090816e+04
-2.513536063668891802e+04
-2.393360973303541323e+04
-2.311992398493293877e+04
-2.280621957740512880e+04
-2.298929597043706599e+04
-2.241196231526168413e+04
-2.012813713482724052e+04
-1.835063908509173780e+04
-1.732132981662204838e+04
-1.767011791009659646e+04
-1.763695224140758000e+04
-1.741563558450091659e+04
-1.486906043794769539e+04
-1.315917771979569989e+04
-1.307483526072638961e+04
-1.385005667929845731e+04
-1.164564095455547795e+04
-9.407183846777077633e+03
-9.660635989053133017e+03
-9.619734879580055349e+03
-1.208824492402602664e+04
-1.036506038450699270e+04
-7.180071207613889783e+03
-8.411022718306719980e+03
-1.079349846880979385e+04
-1.058820418110091487e+04
-1.107192069614387947e+04
-1.112945880648334787e+04
-1.002753806046664067e+04
-8.791795927067711091e+03
-7.911961037402013062e+03
-6.933799622452738731e+03
-6.108926177860560529e+03
-6.838931610087504851e+03
-7.111545651547133275e+03
-4.866496591158508636e+03
-3.585263060474661415e+03
-3.869271916261378919e+03
-1.809138719015163360e+03
2.101754007666465895e+03
2.969074641712165430e+03
2.336422609546809326e+03
2.132356940073243095e+03
2.493527519836177362e+03
2.309459053101077188e+03
2.465793601398644114e+03
3.128225747444085755e+03
3.380433337698216747e+03
2.454161059818943158e+03
1.072138114389020302e+03
3.110818650466149506e+02
5.467544549656375921e+02
7.919922874834247750e+02
2.653316431722153084e+02
-2.394464118650421085e+02
1.606384327595215780e+02
9.006068013955294873e+02
2.682522460618900368e+03
3.620299240918553096e+03
2.989728611878011634e+03
3.284700516309373143e+03
4.415251219134603161e+03
5.068475052390092969e+03
5.379489731355569347e+03
6.016450587340424136e+03
6.962461019986747488e+03
8.212451138379654367e+03
8.097568265355293988e+03
7.213031515354768999e+03
6.274153333239572930e+03
5.644170322608635615e+03
5.686005598517575891e+03
5.842355158364527597e+03
6.444327822087446293e+03
5.992598699945951012e+03
6.309705275144914594e+03
7.146242639553984191e+03
8.021367483164529403e+03
8.396431133893567676e+03
9.192957501277025585e+03
9.862398409130713844e+03
1.034607737432938666e+04
1.042325911654419178e+04
1.034936265185067350e+04
1.042000050888890291e+04
1.080418251731385499e+04
9.855359406899508031e+03
9.306517261937278818e+03
9.260998233948344932e+03
8.566162926991941276e+03
7.376194223811406118e+03
6.463849836585793128e+03
5.733451318185318087e+03
5.693534240176547428e+03
6.644510164674533371e+03
7.385744746259095336e+03
7.179679619374992399e+03
6.592981981720880867e+03
6.816211490646409402e+03
7.183054948852764937e+03
6.964084833383803016e+03
6.425650919903816430e+03
6.195992536455349182e+03
5.981689311537017602e+03
5.927316146741767625e+03
6.840382098016152668e+03
8.487414295774982747e+03
7.765891208432400163e+03
6.118285151014969415e+03
5.993100138944813807e+03
5.877853110325194393e+03
5.197302128862904283e+03
4.439923180193994085e+03
3.306041555097026503e+03
2.739973279579329756e+03
2.914187812867918637e+03
3.676345645564674214e+03
4.533895154870523584e+03
4.072080962439998075e+03
3.000316273681843995e+03
3.194145946271296907e+03
2.885049299574712222e+03
2.738286591855676306e+03
2.688972580668788851e+03
2.550449246852502711e+03
1.971080216766800731e+03
2.017349687817121094e+03
2.655571677733199522e+03
1.555049514275395950e+03
1.227271061842871092e+01
-2.061442556233483629e+03
-4.712052967864822676e+03
-6.494370860746246763e+03
-5.521067526563072533e+03
-4.840718911722351550e+03
-4.934183130821322266e+03
-5.514474468800707655e+03
-5.548335905527955219e+03
-5.221530199617709513e+03
-4.492822971620489625e+03
-4.320870822357072939e+03
-4.042674378611332031e+03
-2.616035136390716616e+03
-2.521782114134083258e+03
-3.463658638075763520e+03
-1.594147595366496489e+03
1.121780065191967651e+03
2.122019833394239868e+03
1.995235638937438580e+03
3.680863822559857113e+02
-9.135271864559675805e+02
-1.511763614110667731e+03
-2.294247532088412754e+03
-3.061104697099654459e+03
-3.689910908409036892e+03
-3.586937190295016080e+03
-1.992721218166738936e+03
-8.787289835739219370e+02
-3.471725190650016657e+02
-1.853270256704964538e+02
-9.205238653406514686e+02
-6.521938625942245835e+02
-2.156016218730096057e+02
-6.026637978124781512e+02
-8.734479253904099778e+02
-6.711532729914466699e+02
-4.648647991812809437e+02
1.353653277068737566e+02
3.622234404559755490e+02
-3.636155927305254636e+02
-1.362584125936783039e+03
-1.778101836348158258e+03
-1.309306013642006519e+03
-1.145333498009584218e+03
-1.472590767583355273e+03
-2.116786025497555784e+03
-1.884904249356158516e+03
-1.571473751215782841e+03
-1.095576886725603799e+03
-6.128568303296823387e+02
-2.538970312147174582e+02
-1.918338723966591601e+02
-2.067987743222534789e+02
-4.102759344985527150e+02
-4.106254834356527681e+02
-1.518635114577237566e+01
2.016481438595969564e+02
1.396002144001565455e+02
-2.524127763810865872e+02
-6.695074668284861445e+02
-6.889211838385348301e+02
-1.242805463375985937e+03
-1.507210257559330557e+03
-1.631249107886178763e+03
-2.582144657585092773e+03
-2.699934229107209376e+03
-2.169583388593925520e+03
-1.887153635636817626e+03
-1.505639722318434906e+03
-5.001750105571607037e+02
-3.467406023162357656e+02
-6.202696008428920322e+02
-5.547693497866214329e+02
-3.602281830084488661e+02
3.833223621833920447e+01
4.168958759143618522e+02
6.495881734949534803e+02
-2.266438578147656528e+02
-1.699842880347882328e+03
-3.899991084528341617e+03
-5.285275009127827616e+03
-5.419747883229861145e+03
-6.103433162007195278e+03
-6.310303987380333638e+03
-6.797352951494253830e+03
-7.035515360558295470e+03
-7.245721146803403826e+03
-6.116875627433033515e+03
-5.356013796493915834e+03
-5.296043143266952939e+03
-5.415866098547830006e+03
-5.377472049308024907e+03
-5.023881876818362798e+03
-2.816982660376944750e+03
-1.278751650888016457e+03
-1.163163367281989849e+03
-3.358153665454366546e+03
-5.085661444518068492e+03
-4.801518743438229649e+03
-4.001535505398574060e+03
-3.948677351251077198e+03
-4.426932079799019448e+03
-5.203109446652582847e+03
-5.813979121817944360e+03
-5.673305526975575049e+03
-4.929706244222011264e+03
-4.626320898777582443e+03
-3.952356586964454436e+03
-2.623954786339306338e+03
-1.428181657240967979e+03
1.074152628017732923e+03
-3.098196108966893689e+02
-1.799257168865904532e+03
-1.167200346076900587e+03
-8.546419515809350287e+02
1.396396145302824380e+03
3.679975633359257245e+03
3.090321492562426101e+03
2.123474124719832162e+03
2.035375562550280392e+03
1.698912786140387880e+03
9.118660553544893901e+02
5.871017902135612303e+02
7.573618320534134796e+01
-6.041550876261021585e+02
-3.485208574331276736e+02
4.547296148945127925e+02
1.355707416565600397e+03
2.486407424551121949e+03
2.655817201283211489e+03
2.715963707969606730e+03
3.009905105260699656e+03
3.231728411703978963e+03
3.840460138759046458e+03
4.180138711963330024e+03
4.225883918108319449e+03
3.922846794381301152e+03
3.878087129920339521e+03
3.569634789435875973e+03
2.664438118314651547e+03
2.127515703998007211e+03
1.362949372180690034e+03
8.159162409476167568e+02
1.634219831672880673e+03
2.316876297109221923e+03
2.634282986994750900e+03
2.874499173491633428e+03
3.269604967120607853e+03
3.145225123781237016e+03
2.460264052192328563e+03
2.232388474357073846e+03
2.404937394395560204e+03
2.603827915186855535e+03
3.010203943794054339e+03
3.684083532428267517e+03
4.431540606906190988e+03
5.059538815138338578e+03
5.206003117603617284e+03
4.606904402763295366e+03
4.690263265263688481e+03
4.451362637487622123e+03
3.180332454604748364e+03
1.816075939696472915e+03
3.495050838185325688e+02
-8.533795690138421151e+02
-1.682559773827494382e+03
-2.667938379180443007e+03
-3.257225340043978576e+03
-3.187437718290138946e+03
-2.060588726794080230e+03
-1.156646885614595703e+03
-6.224577527035935418e+02
-6.029452798295020557e+02
-1.435128072318836075e+03
-2.157956170297889912e+03
-1.766181122805593304e+03
8.712930242407391006e+02
2.189437768013382083e+03
3.062241641253573107e+03
2.673736839241141752e+03
9.460140294664870453e+02
-2.408973909498298553e+02
4.249657188769568847e+02
2.332673438065905430e+03
3.677232341597440154e+03
3.481685611078012244e+03
3.179071406069873774e+03
2.895391968499367067e+03
2.881699256548668927e+03
2.987055121857615177e+03
2.851579761694707486e+03
2.449332712349815210e+03
2.156270657243113419e+03
2.346375014248542357e+03
4.217894076864933481e+02
-2.160417703953141881e+03
-2.145242940346589421e+03
-9.726474180278248696e+02
2.545340937266530091e+03
3.512742798540171862e+03
-9.784933819628531637e+02
-3.977292329283926847e+03
-4.911680366859934111e+03
-6.219712203955785299e+03
-6.733359784204395510e+03
-6.583587416745557675e+03
-5.801391501682570379e+03
-5.440732551282316308e+03
-4.790539303077476688e+03
-4.071776492180982586e+03
-1.998444083729573094e+03
-2.790463929925869706e+03
-4.766813292986340457e+03
-4.585363619753543389e+03
-4.945132150315616855e+03
-5.461136246262586610e+03
-4.954370421557751797e+03
-1.742826741005279700e+03
-8.975330806693116301e+02
-3.405103082350231603e+02
3.191950221925771984e+02
4.225747316981720019e+02
-9.239122597837526030e+01
-2.716677659064372392e+02
-7.211991712643176697e+02
-1.007044372015621548e+03
-6.719918488567869019e+01
7.884402428603038970e+02
1.578780683959188877e+02
1.017039408711047940e+03
2.669926017477539517e+03
2.771616915560748112e+03
1.825091637771856085e+03
1.320259683402156725e+03
7.982220131923261306e+02
-1.459689776572178346e+02
-1.603396421409543564e+03
-1.548091912112485716e+03
-6.891035982200243097e+02
-8.044905082322261478e+02
-1.593183545014527454e+03
-1.292219336988381656e+03
5.093725377347414565e+02
1.626482512936205467e+03
9.850742640910775663e+02
4.322399240223356855e+02
4.209954326280320061e+02
2.922178003763774541e+02
5.998900609446227463e+02
9.899715368208692325e+02
1.051466004208664799e+03
1.053433032731148387e+03
1.428908601699467681e+03
1.215758637597861480e+03
1.006817297786347353e+03
1.239209809295755122e+03
1.658992685974955975e+03
1.647253032592043155e+03
1.745955011376645416e+03
1.752987250674799725e+03
1.303077807277036754e+03
3.833007867774282431e+02
-6.132903506029713299e+02
-4.906669668711136296e+02
-5.894717334995586100e+01
3.738481687125121766e+02
1.036657521284279710e+03
5.884318321263700682e+02
-2.408456879837013958e+02
-3.501333565640469487e+02
-5.546899390237754091e+01
5.029921602392992668e+02
2.278278348848827761e+02
2.991450512619742881e+02
4.798437103877267873e+02
8.668370204058350055e+02
8.171764337176002755e+02
1.353853630987111273e+03
2.362724502388322890e+03
2.131730019626889316e+03
1.080842011468766714e+03
8.820005397097321520e+02
-7.590024373376543565e+01
-1.127110689634557730e+03
-1.926695391811239688e+03
-2.013654873277970864e+03
-2.001971077170944454e+03
-2.620694272926014492e+03
-1.460912940112770684e+03
1.244375695078524359e+03
3.329124299227179108e+03
4.260277122670592689e+03
4.568710834152769166e+03
4.647319909278008708e+03
4.097934667579077541e+03
3.129589577451801233e+03
2.315243684446015777e+03
1.837876583695920999e+03
1.348372095267683335e+03
9.055643297473939128e+02
5.593938265481266399e+02
7.418807228259546491e+02
3.730037228981068438e+02
2.646905837131286354e+00
-1.082656746969725106e+02
7.102095308292163054e+02
1.564975417070024605e+03
1.636873847740579549e+03
1.419913633665795942e+03
7.030548172401734064e+02
1.692855953778295941e+02
-1.244458558766040746e+01
2.076961841869421832e+01
-8.205190052433783521e+00
6.157242576234238385e+01
5.180601392641817711e+02
7.151314725873717180e+02
9.546325532402227054e+02
1.805509059947444939e+03
2.927707384620336143e+03
2.422268408057311262e+03
1.370192404655061409e+03
3.532416877208920027e+02
-2.456849696528601044e+02
-3.386373774863362200e+02
-8.547845409737891487e+02
-1.915318510121109739e+03
-2.911195909328466314e+03
-2.737406072261132977e+03
-2.614011635517289506e+03
-2.728103080762811715e+03
-2.251826075041958575e+03
-1.178137038152807690e+03
4.179191810276104206e+02
1.770355125557731981e+03
2.733163678867422277e+03
2.658386692196972035e+03
2.614912880949960709e+03
1.853597703304756124e+03
1.026383207301079892e+03
-2.849052605585897595e+02
-1.584292798059810593e+03
-2.202858731767727932e+03
-2.143612004333974255e+03
-2.309680262190671783e+03
-2.212099768079946898e+03
-1.506796888302555317e+03
-2.746978255385880061e+02
-3.199589098271135299e+02
-9.472036536209549240e+01
5.118160701736219380e+02
6.116486130409780344e+02
3.498756938687265574e+02
-1.773269195311455348e+02
-3.810403653579516572e+02
2.225395672512230760e+02
1.050383543333263106e+03
1.353501593342503611e+03
1.181914810545584942e+03
1.088613850853200574e+03
1.606539303777571149e+03
1.667556739008662134e+03
7.776059871160653074e+02
-4.372986525854887532e+02
-1.051269333259739597e+03
-1.858375680271851024e+03
-2.396637633040090350e+03
-1.899184305892427801e+03
-6.806858193903252641e+02
8.239161691459677286e+02
8.194836876740555454e+02
7.510929604244690836e+02
5.795810355898337320e+02
9.338521127438655185e+02
2.438124960898187055e+03
4.255518908129308329e+03
5.374999246100739583e+03
4.598597217095824817e+03
3.053364049483828239e+03
2.026301946509825257e+03
1.061444483726116914e+03
1.138341857500525975e+02
2.755009013401806897e+02
8.174059731230477155e+02
1.486604217114267158e+03
1.246088992880185060e+03
1.089930174866442485e+02
-1.915639631265283015e+03
-3.214751784434442470e+03
-3.030213366616864732e+03
-3.133013924489246165e+03
-2.904129393870302920e+03
-2.849396208595851476e+03
-2.508703792058121962e+03
-2.384056557797651294e+03
-9.153697895142771586e+02
-8.547979596903300603e+01
-4.523446960590296158e+02
-4.748486046894988704e+02
-8.449571421762021828e+02
-1.475692580918783733e+03
-1.039897286012890021e+02
1.749233333481968657e+03
9.830984916842749044e+02
-1.967346152562712632e+03
-5.941006059988635570e+03
-7.219691683854507573e+03
-6.929309055763917058e+03
-6.295822730685898932e+03
-5.324114770184903136e+03
-4.513041252305200032e+03
-1.978522772037867753e+03
2.054840602932384570e+02
7.770769906500613615e+02
4.173492838954639410e+02
-7.195292660750235427e+02
-8.585048003733455744e+02
2.035284403910219453e+02
2.321729408838908967e+03
2.185193604132110067e+03
-6.578730830821966720e+02
-2.153353390151509302e+03
-6.622738839024924573e+02
1.761439839686676123e+03
1.957942380620002723e+03
1.386367386032668037e+03
7.977420098907628017e+02
7.440758889673466001e+02
1.233524515007931996e+03
1.368252856681585172e+03
1.030424046330445208e+03
1.908089616306880089e+03
2.727279389787067430e+03
2.927855788872638186e+03
3.282964797031378566e+03
3.525769648500682251e+03
3.494425138034358497e+03
3.022170701922067110e+03
2.172041240965232646e+03
1.965812960077490061e+03
2.691460596141378119e+03
3.046108245482925668e+03
1.655870420731730974e+03
2.468621791415134226e+02
-2.756709718245509180e+02
-9.447358250053862321e+02
-8.974008654564478320e+02
-2.757588307754277324e+01
4.908395959577620715e+02
1.023865380873400568e+03
1.913468350573690032e+03
2.543040050334248917e+03
2.599922681775073215e+03
2.923043308759475167e+03
3.199250900742953945e+03
3.635352112858714918e+03
3.698735627070609553e+03
3.353784592014990267e+03
3.045106446308082013e+03
2.285675760943131081e+03
1.703765563778085834e+03
7.823704158045090935e+02
-5.251818225515596517e-01
-6.519677418766233359e+02
-7.679609674011413745e+02
-1.050413904493387008e+03
-1.848182613987334889e+03
-1.807564847123316440e+03
-1.211511267188961710e+03
-3.525285950488190565e+02
5.734090225939595484e+02
1.872380519516917047e+03
2.675350236825728189e+03
2.900221425674400962e+03
2.724910136045763466e+03
2.114698543487362258e+03
1.292260745713370852e+03
1.375534922199084349e+03
1.209554510375176051e+03
5.182254684516709631e+02
-9.048718852550994995e+01
-8.394675719568053864e+02
-1.449696088700211249e+03
-1.300235761202543699e+03
-1.451209091572722855e+03
-2.425615317563022472e+03
-3.616598049718760194e+03
-3.742252585098214240e+03
-2.835441560764832047e+03
-1.614140883390046383e+03
-9.544330497005640837e+02
-5.623725875681308253e+02
4.141686700308895865e+02
1.433202462136362556e+03
1.537530591288648793e+03
7.721394961699797932e+02
3.730493603311171569e+02
2.132736735939379003e+01
2.507195609144143589e+02
9.290886829189524576e+01
5.991163476271925248e+01
2.859267310306066179e+02
2.619415621377422667e+02
1.338325686670443986e+02
-4.673810537310316704e+02
-1.311638808026644938e+03
-1.840091468554133371e+03
-1.331799521688247751e+03
-2.867946256272371102e+02
2.199044334027375953e+02
-2.827482794896369001e+02
-6.397791885162092740e+02
-6.452916804710316683e+02
3.881456095537958362e+01
-3.852090848166427008e+02
-1.632441287441337181e+03
-3.589229856379766261e+03
-4.482957436357778533e+03
-5.009394248807259828e+03
-5.273528833239962296e+03
-6.154362457903928771e+03
-6.462965322846281197e+03
-6.453651975278845384e+03
-6.962468794773381887e+03
-6.962173356275878177e+03
-4.022210554701231558e+03
-1.284763926212801152e+03
-5.383710068461800802e+02
-1.621217591887587332e+03
1.046813304669648687e+03
2.462851241587114146e+03
2.700879778714837812e+03
2.634623367064109971e+03
3.258226417875118841e+03
3.338747185893140340e+03
3.066073188755411138e+03
3.011178639027392364e+03
2.951096261218045584e+03
3.035654090372311202e+03
2.389863713018326507e+03
1.421587657354300745e+03
6.959310503601544724e+02
6.617815423068777818e+02
-2.768146979249190167e+02
-7.475586138451985789e+02
-3.357096643898164956e+01
2.509534644460231050e+02
8.400341352948477152e+02
1.340893715310776315e+03
1.533567911909549366e+03
8.892071970871712665e+02
1.298209037506446748e+03
1.100349313494880107e+03
1.021991255743115858e+03
7.268836074377657042e+02
-1.071313184096543658e+01
-1.032722703980335609e+03
-1.585272029068637266e+03
-2.058640220022198719e+03
-2.364707396785482160e+03
-2.627480357256408752e+03
-2.414089306944349573e+03
-2.333463771944884229e+03
-3.499424226455045300e+03
-4.088085538285136863e+03
-4.453474699342650638e+03
-4.278527030091132474e+03
-3.514085360721859161e+03
-2.313148998307709462e+03
-1.738321920331089814e+03
-1.052655073758111712e+03
-1.285659020518123157e+02
1.638475806821869298e+02
-2.274199146020943090e+02
-1.135563991968611845e+03
-1.802633028772786020e+03
-8.664969463225585287e+02
3.440092721071949882e+02
3.069622725124011708e+02
6.734213881338951069e+02
1.348509012074544444e+03
1.028147519726919427e+03
-2.347927713739846922e+02
-1.000427720209154359e+03
-1.327779018263233411e+03
-1.314917082079819011e+03
-1.455762565420452120e+03
-2.496328029332912593e+03
-2.159680054141841538e+03
-1.524797833240237424e+03
-9.636095685927185741e+02
-4.660598813976517363e+02
3.218071725009377246e+02
1.012699813650674059e+03
1.899826589406176026e+03
2.350655708835950918e+03
1.660192958935986780e+03
8.308292477291582827e+02
-4.062454601299448882e+02
-1.375998963789684467e+03
-2.070532686215905869e+03
-2.909887733926268538e+03
-2.894225166294096198e+03
-1.321971040750360316e+03
-7.615133814498124138e+02
-1.054007427767046693e+03
-1.304685074293706521e+03
-1.310799892449963636e+03
-7.433238132127811468e+02
9.902403536509291371e+01
4.000700045626451811e+02
4.345385824954506120e+02
1.217479871068541115e+03
2.035887290934415887e+03
3.089633943544869908e+03
4.117584261845928268e+03
4.860899556105395277e+03
4.908273119951220906e+03
5.145472526027605454e+03
5.515741649565018633e+03
5.067716021087830995e+03
4.616978944612919804e+03
4.017046909187048186e+03
3.383207117110476247e+03
3.070826396355776978e+03
2.864658231324292956e+03
2.728316341964226467e+03
3.277620111753204583e+03
3.983460724158410358e+03
3.940670074562503032e+03
3.745625494478819292e+03
4.218676012151915529e+03
4.773290517591347452e+03
5.175970889638125300e+03
5.304489294671740936e+03
5.370563768190304472e+03
5.079848460800328212e+03
4.387048500035420147e+03
4.333842487636298756e+03
3.838883741254567667e+03
3.687875544053027170e+03
3.231614259638464318e+03
2.913028139558253315e+03
2.238872840012497363e+03
1.669930326323962163e+03
1.953152949583656437e+03
2.119451586054998643e+03
1.562698326620781017e+03
1.980820476337914670e+03
2.697690728945627598e+03
2.764145045564003794e+03
2.676135956817238366e+03
3.019430213118878328e+03
3.180981234462924931e+03
3.520858849202143574e+03
3.381899841471531090e+03
3.323991980681089899e+03
3.100171655748559260e+03
2.539309826319637978e+03
2.370411727387192514e+03
1.876536978807519745e+03
7.920224366000020382e+02
1.120481821005702727e+02
-3.154135854545024813e+02
-1.230659261239907437e+03
-1.943910725844070612e+03
-1.779997796353776039e+03
-1.296566444588158674e+03
-1.110100111903707557e+03
-7.440622520320501962e+02
-7.258715042917896199e+02
-5.221447223762811518e+02
-1.569901941424589609e+02
8.658763340344142989e+01
-6.034896770865383786e+01
-7.377742191589818503e+02
-5.005471361616531567e+02
8.045340933946206974e+01
-7.794855471976961780e+02
-2.592333700287952524e+03
-3.783799503461321365e+03
-4.005715974295268552e+03
-3.812926679285908449e+03
-4.682214548459937760e+03
-5.034397845645752568e+03
-4.866346083783303584e+03
-4.626849448329679944e+03
-4.930428194521459773e+03
-4.898803906034961983e+03
-5.082478641619356495e+03
-5.311197141994799495e+03
-4.598906614001696653e+03
-3.966198724717542973e+03
-2.638716861977070948e+03
-1.348050040338969666e+03
-2.024872424336509312e+03
-2.543989341969142060e+03
-2.615148200927640119e+03
-3.679996969183029705e+03
-4.616980864163349906e+03
-3.299676898695148793e+03
-2.412792136987318372e+03
-3.084982386825416143e+03
-3.850912512194322517e+03
-4.673363445330053764e+03
-6.334108068981218821e+03
-9.336828185976759414e+03
-1.102917126135415310e+04
-1.045466039019098571e+04
-8.976853357847416191e+03
-8.521481235342909713e+03
-8.099167492018612393e+03
-4.750578946900208393e+03
-2.188346580822041687e+03
-4.670104771770590560e+03
-7.048471656760269070e+03
-7.393967310533367709e+03
-7.768164627450933949e+03
-8.223608228364566457e+03
-9.056005559353094213e+03
-1.090920298624812131e+04
-1.187692728083235670e+04
-1.108392069235763847e+04
-1.281691425772850562e+04
-1.779069616886125004e+04
-1.908898094055813272e+04
-1.848846000317599464e+04
-1.744884717349288258e+04
-1.715491321600317679e+04
-1.721040103549352352e+04
-1.499694730669623641e+04
-1.015822928023254099e+04
-8.865982513152152023e+03
-7.827055007303690218e+03
-6.504372184657677280e+03
-6.918792528429343292e+03
-7.642104869614601739e+03
-7.198086015672921349e+03
-6.144570686159447177e+03
-4.051471587387078216e+03
-2.788730923056948086e+03
-2.612231504675457927e+03
-2.539810961887807935e+03
-2.328412698820569858e+03
-1.296074375472919201e+03
-6.668237510426013159e+02
-4.927111859784454850e+02
-9.417699330883773428e+02
-1.205750716204869555e+01
7.704004249781239650e+02
7.634805490524025799e+02
2.014128755433771630e+03
3.345367139731501538e+03
5.596322950849884364e+03
6.409910600709681603e+03
5.289708397480697386e+03
4.180586865359377953e+03
4.169244183796460675e+03
4.334441463573542023e+03
3.710068065991646108e+03
3.475919917589557372e+03
5.051751351231293484e+03
5.536361793287945147e+03
5.425585170634257338e+03
5.213026422395942973e+03
5.601137851096980739e+03
5.225647188394515069e+03
4.732365849432597315e+03
3.507952372866026963e+03
4.138982773961407474e+03
8.680086432036185215e+03
1.403389663646842382e+04
1.626008248797117631e+04
1.339139474405791043e+04
1.277550159001825887e+04
1.222100078746323379e+04
1.308852637771716581e+04
1.406864842798517930e+04
1.125377062801106695e+04
7.725332026480786226e+03
5.824858788461610857e+03
1.128080775518913651e+04
1.673754454467761025e+04
1.678273509916717012e+04
1.490973026132907398e+04
1.364098954994267478e+04
1.461075877544082687e+04
1.612562640084388840e+04
1.466306100513421006e+04
1.474143834977066399e+04
1.674115084420761195e+04
1.874271717371692648e+04
1.993671752841320631e+04
2.111167703567354329e+04
2.115903812625614955e+04
2.060320558772315417e+04
1.767360473900249781e+04
1.563871422121637806e+04
1.219900518444141380e+04
8.654940671986329107e+03
7.767065141335945555e+03
7.055827365043610371e+03
5.691693185264031854e+03
4.258130776422372946e+03
4.828542899978866444e+03
5.571394747744206143e+03
8.564260099530523803e+03
1.759066139664193179e+04
2.542298224667493196e+04
2.625984880797564256e+04
2.398091788112510039e+04
2.485681459535136310e+04
2.719507330447205459e+04
2.852436717145118018e+04
2.688034990049977932e+04
2.600965017879776860e+04
2.480988700629245068e+04
2.167956114887012518e+04
1.993531231076661788e+04
2.071580347183319827e+04
1.936478822497620786e+04
1.693197967573575079e+04
1.406914851330188503e+04
1.274399056348788508e+04
1.138018277002917603e+04
1.576147401072232242e+04
2.075779297961988777e+04
2.135990398092751275e+04
2.138756090911200954e+04
2.132261229899287355e+04
1.863498838784148757e+04
1.545163052040137336e+04
1.399143353734721131e+04
1.289543482749299437e+04
1.188747005648691629e+04
1.134767913252709513e+04
1.288806975990126193e+04
1.445458515876356068e+04
1.425842030270842042e+04
1.170272232882523167e+04
8.102487979687256484e+03
3.878840080200537159e+03
-1.830534116967286025e+02
-5.666057457798605355e+03
-1.281388289595660717e+04
-2.068146726498822318e+04
-2.868877105433846373e+04
-3.800654969439750857e+04
-5.082536919844360818e+04
-7.292790721512188611e+04
-9.877894653298247431e+04
-1.119523543144173891e+05
-1.148466877685668733e+05
-1.139595363200951688e+05
-1.105222394480836083e+05
-1.051002570938854769e+05
-9.873439523974100302e+04
-9.107684010873510852e+04
-8.279620125359910890e+04
-7.695633681432162120e+04
-7.353479135113267694e+04
-7.191080094782616652e+04
-7.204809890905297652e+04
-7.450309491557680303e+04
-7.679226522440221743e+04
-7.501780409924773267e+04
-7.457288962937080942e+04
-7.659898259022072307e+04
-7.622147738549440692e+04
-7.398424483526757103e+04
-7.192288729104040249e+04
-7.022053378367153346e+04
-6.390926942747217981e+04
-5.767950268490656163e+04
-5.153963722779458476e+04
-3.910969097614385828e+04
-2.679424973218202649e+04
-1.411841937965641955e+04
-2.649567023469281594e+03
4.537164863852287453e+03
8.507252058343117824e+03
1.398948449419642748e+04
1.909055840076387176e+04
2.454729411245512892e+04
3.302520640582061606e+04
4.458216773962334992e+04
5.430584707752701797e+04
6.226893264034022286e+04
6.901603957029519370e+04
7.346489446179491642e+04
7.715149006896317587e+04
7.993640911015772144e+04
8.203835927743487991e+04
8.354907890738490096e+04
8.382325081742285693e+04
8.349054546487360494e+04
8.242567960212474281e+04
8.148829556021734606e+04
8.127005338100047084e+04
7.908560453798773233e+04
7.436665182257432025e+04
7.058764663124886283e+04
6.851304598814164638e+04
6.610844266920216614e+04
6.468752432598751329e+04
6.305575896971675684e+04
6.102062831636951887e+04
5.948059830035438790e+04
5.766012154720981198e+04
5.590868764818135242e+04
5.489579144571265351e+04
5.288986883264993230e+04
4.938737841486918478e+04
4.597268296576505963e+04
4.291924351592893072e+04
4.076745657969259628e+04
3.651062527181954647e+04
3.320309513116800372e+04
2.949510950602614321e+04
2.656291759460267713e+04
1.983579876905598940e+04
7.920017272535731536e+03
-5.117293688659262443e+03
-1.771503567228484098e+04
-2.518605198910691252e+04
-2.808828192309525548e+04
-2.631160789716757790e+04
-2.111494053564319256e+04
-1.893725250270085235e+04
-1.720349002751819353e+04
-1.462558907364155493e+04
-1.144947057410233720e+04
-9.925168831021008373e+03
-1.226778607270151042e+04
-1.287536233895152327e+04
-1.261786829250287883e+04
-9.278361402304097282e+03
-7.741001402237541697e+03
-7.619155559702224309e+03
-7.833087884321927049e+03
-8.427835102695655223e+03
-1.024461197588025607e+04
-1.363473212450507708e+04
-1.548944977476062377e+04
-1.640306173599602698e+04
-1.425293163719337281e+04
-1.255536022635378322e+04
-1.372874807424420760e+04
-1.378955703913132675e+04
-1.351210270730386583e+04
-1.237781738358993789e+04
-1.151514077357217684e+04
-1.180233463629670950e+04
-1.223477108876637794e+04
-1.287674518319086928e+04
-1.276185842388093261e+04
-1.193978054542320933e+04
-1.098113221401989358e+04
-1.019245483260834044e+04
-8.703122771946204011e+03
-7.683766899347728213e+03
-8.463039673015800872e+03
-9.896373039212154254e+03
-1.125001436646095317e+04
-1.137252722463756618e+04
-1.089363343838516630e+04
-1.126705861428884054e+04
-1.147040658574706504e+04
-1.181728109909497289e+04
-1.243949967534700227e+04
-1.359666603652792401e+04
-1.471225247329749618e+04
-1.489183652845482175e+04
-1.388100067162633422e+04
-1.143030399051406312e+04
-8.887383227165968492e+03
-8.136818230922435760e+03
-7.276095316976760841e+03
-7.143849067074123923e+03
-8.189936307257012231e+03
-9.897793855142102984e+03
-1.137958842691364225e+04
-1.232320065718841943e+04
-1.294929635691161639e+04
-1.345458692468315530e+04
-1.427260499642090326e+04
-1.403585310567684428e+04
-1.280415718992775510e+04
-1.112435704447335775e+04
-1.017387477733520973e+04
-9.732324677810367575e+03
-1.000133193342547747e+04
-1.040720974016433865e+04
-9.978392141644813819e+03
-9.372480805526023687e+03
-9.151005490993540661e+03
-8.795536872553784633e+03
-8.315542001199262813e+03
-7.549361713029923521e+03
-7.198328435612340400e+03
-6.938977521074686592e+03
-6.134898055754991219e+03
-5.343378522001796227e+03
-5.128713920739981404e+03
-5.580282799478865854e+03
-5.165479472948840339e+03
