9.347331472898257232e+01
-1.756631540580177955e+02
-6.599233989779136209e+02
1.438206814703633540e+02
1.605643959908976967e+03
2.923591598791119395e+03
3.700737031241638306e+03
4.252212807616029750e+03
4.829103991956724713e+03
5.359397839024250970e+03
5.603209857472686053e+03
5.730676310375896719e+03
5.603830937701215589e+03
4.920769500725302350e+03
4.139484125395266346e+03
3.329953591015704205e+03
2.039197882286336380e+03
8.192342852511944784e+02
-7.869138908105778683e+02
-1.596266812640596754e+03
-2.276803964821440786e+03
-2.696506505792625831e+03
-2.495121663132908452e+03
-1.490418444267690347e+03
-7.483572025079417926e+02
1.498726753241624863e+02
1.170243137638445432e+03
2.013972385555650590e+03
3.158468080996640310e+03
3.461802712928395067e+03
3.334241156747854347e+03
3.526744550962867379e+03
3.640854612293935588e+03
3.169169167873506467e+03
2.661622232433161116e+03
2.196280225497134779e+03
9.842044620505024568e+02
-8.172958711340897935e+02
-2.398601363694126576e+03
-3.558164923905192154e+03
-4.063115422229810974e+03
-4.153567218387543107e+03
-4.137548392221362519e+03
-3.364011237584041737e+03
-2.300953278877102548e+03
-1.162310822607282489e+03
-2.840676475849936651e+02
5.187738743932220586e+02
1.482291922331774913e+03
2.225570657341371771e+03
2.735624897740425240e+03
2.612440377732471916e+03
2.761065226278938553e+03
2.263544448313238718e+03
1.634864168346155111e+03
8.559846152535687906e+02
-4.071132564003630705e+02
-1.395482590795998249e+03
-2.494200577999776215e+03
-3.461296596956088706e+03
-3.919796943229518547e+03
-4.179778789741546461e+03
-3.928281127690895573e+03
-3.303266624418264655e+03
-2.778723774934727317e+03
-1.926664401651033359e+03
-1.105115793458256576e+03
-1.530323101719225747e+02
7.265983342587362586e+02
1.521864465171696111e+03
2.063754876814404270e+03
2.446210295008459070e+03
2.680235843619382649e+03
2.259827609048773411e+03
1.308967481847389081e+03
4.735821437310967212e+02
-2.414236557421723433e+02
-1.593142647476699494e+03
-3.107614110149677344e+03
-3.857893277316843978e+03
-4.524111558435526604e+03
-4.682355217495046418e+03
-4.563673957813657580e+03
-4.294051131645801433e+03
-5.394494695433671041e+03
-7.074070375349700953e+03
-3.294804826263064570e+03
1.203158538843388925e+02
-4.562681794968750182e+03
-6.202796480375359351e+03
5.139625132823749709e+02
3.379492656136094411e+03
3.898782047012565272e+03
3.302794955052121622e+03
1.968382081977179951e+03
1.348544887030076097e+03
1.151508437817736649e+03
8.597560234072344088e+01
-1.148205142861308559e+03
-2.196181656032557839e+03
-3.068046519793928837e+03
-3.030876283589465856e+03
-2.962732736531941100e+03
-2.552653141104696260e+03
-1.362635061060570024e+03
-2.897435738660901734e+02
4.959969242865547017e+02
1.629674582484661642e+03
3.226247729597195303e+03
4.106670592931833198e+03
4.424924677020192576e+03
4.420937614279927402e+03
4.541674558594550035e+03
4.566117619571601608e+03
4.080250003861908226e+03
3.376989004376425328e+03
2.133238817031665349e+03
7.518975071430154458e+02
-4.571344711366760407e+02
-1.546899640364391189e+03
-2.177525739436365711e+03
-2.183091710399384283e+03
-1.805655992925571809e+03
-1.510260889530822396e+03
-4.788988773555342391e+02
7.383978418575250089e+02
1.986593688838079970e+03
2.613730532173450683e+03
3.402825639104453330e+03
4.169872598120864495e+03
4.655834944530303801e+03
4.733700192597572823e+03
5.035455327788779869e+03
4.779069846433580096e+03
4.173552327882131976e+03
3.936864140153817061e+03
3.258895731474717650e+03
1.876591035769133214e+03
2.778998919075120853e+02
-1.012268309025270355e+03
-1.524976199713834603e+03
-1.379284196414995222e+03
-1.169281662921520592e+03
-6.349013735597725372e+02
-4.815863451345961010e+01
6.349696060549076719e+02
1.531497301212097454e+03
2.549480162357902373e+03
3.296951240792443059e+03
4.229057984406837932e+03
5.100691859740309155e+03
5.339797758748687556e+03
5.645426883273957174e+03
5.513580879828269644e+03
4.801257849755981624e+03
3.898521698104551433e+03
2.929285095618186460e+03
1.690487557850607118e+03
-1.902641155658623262e+01
-1.532260087905773162e+03
-2.541850692039292881e+03
-1.598134241087957207e+03
-1.818238647962967661e+03
-4.082105968964788644e+03
-8.311607641358041292e+03
-8.975739704675082976e+03
-7.607482521493449894e+03
-6.440768165868408687e+03
-5.941519008284027223e+03
-5.275620022173529833e+03
-3.911067991184808761e+03
-3.283842718931395211e+03
-3.278891864083078417e+03
-3.463163976394820111e+03
-3.870669531230068060e+03
-4.270358058612117020e+03
-4.730296780105008111e+03
-5.597461485459144569e+03
-2.350803108178785806e+03
-6.139440792617890111e+03
-9.816436799056316886e+03
-9.937787409187074445e+03
-9.715422918590700647e+03
-1.008630332555671521e+04
-9.078335889995569232e+03
-7.388413465704566988e+03
-1.565475810461273113e+03
4.353444330154525233e+03
2.064405151964609104e+03
-1.534468743179246530e+03
-2.179091002522247436e+03
-2.155503146166343868e+03
-4.257078264007872548e+01
4.973762058543124112e+03
6.476589333639562938e+03
5.903928824034205718e+03
4.878670857452379096e+03
4.083805067940791105e+03
2.397353311466548348e+03
1.275345140933248558e+03
6.038470902147372499e+02
8.683539486297559051e+01
-2.737908458475611724e+02
1.900346382548418376e+02
7.344256904080151571e+02
1.703471684554663398e+03
2.777313835897151421e+03
3.542044857561585104e+03
4.176656875176744506e+03
4.898122977344202809e+03
5.168620337143006509e+03
5.675229013068359563e+03
5.870927012506936990e+03
5.589785398493291723e+03
5.127018657819759937e+03
4.374769359030083251e+03
3.222147430717326642e+03
1.775172185949106733e+03
3.996174059580954463e+02
-7.795188475823555336e+02
-1.734275901591321372e+03
-2.120703076391296236e+03
-2.934860067317233188e+03
-5.815913428253823440e+03
-2.270415759802745015e+03
3.058975189969905273e+02
1.111764900355234658e+03
1.684295033028444550e+03
2.894587229980895245e+03
3.687798113197324255e+03
3.996432668374588502e+03
4.445839970780992189e+03
5.022199155595093544e+03
4.646963086698837287e+03
3.771626002623445402e+03
3.217637124564892929e+03
1.967560254430851273e+03
7.775206439718652973e+02
-4.163283291454859523e+02
-1.615068642426094584e+03
-2.478592155655042916e+03
-2.841739327308918291e+03
-2.726065392300926760e+03
-2.163785177323175503e+03
-1.576260192590600582e+03
-7.193156186358534114e+02
1.965570806033459803e+02
1.181266114556260163e+03
2.559611483702897658e+03
3.347805299358438788e+03
4.076104011181277656e+03
4.308476230080310415e+03
4.312824155436506771e+03
4.030050305890742948e+03
3.421210658512206464e+03
2.652283552870207131e+03
1.791318235254397450e+03
4.962825130201267143e+02
-9.340111487859390991e+02
-1.613558725552171381e+03
-2.250469279442352672e+03
-2.773756691860333376e+03
-3.110426594451332221e+03
-2.513542955777056250e+03
-1.673077719716963657e+03
-8.168639826418500434e+02
2.581407335559528633e+02
1.557969676548180360e+03
2.095598902288622867e+03
2.971068209247606774e+03
3.259429334835150712e+03
3.627720164922867752e+03
4.011895381835204262e+03
3.918078235642279196e+03
3.288198496170665294e+03
2.509225707228460124e+03
1.759050455330473824e+03
6.216012708877077557e+02
-1.054133728486945984e+03
-2.258226695900150844e+03
-3.908784232396611060e+03
-6.899811435958333277e+03
-1.092534245441821986e+04
-1.372424586004584125e+04
-1.279252440273847969e+04
-1.086829631620144028e+04
-4.668534554460248728e+03
3.377554871068786611e+02
1.403643137229401873e+03
1.950091734778279942e+03
-1.293807384939065059e+03
1.470900687943636285e+03
2.995280582590597533e+03
5.456083883159319612e+02
-6.572204755373584703e+03
-3.732293962153245502e+03
3.426450301570270796e+01
6.241802042319154964e+01
-6.558349779716137391e+02
-1.591581631482065859e+03
-2.366788458997013095e+03
-2.769602152926480812e+03
-3.111334299997713970e+03
-2.927152604556081769e+03
-2.155928276643078334e+03
-1.252371759413338395e+03
-1.523927727752844987e+02
6.807389787722687515e+02
1.533173548048638395e+03
2.597329215845545150e+03
3.223382894938280970e+03
3.470031585827353410e+03
3.905893035248921024e+03
3.846854037837274518e+03
3.173953731785430136e+03
2.468281856770055583e+03
1.815029850355999088e+03
5.662776988608145530e+02
-7.170723814414225217e+02
-1.920292490755211702e+03
-2.633503755833570722e+03
-2.798730474535993380e+03
-3.146185295403266991e+03
-2.954967260210628865e+03
-2.446861543402409097e+03
-1.445811899736403575e+03
-1.637643992169512330e+02
3.984468350680817821e+02
1.116816385424108603e+03
1.943285255571589914e+03
2.905942884237446833e+03
3.548620410998940770e+03
3.792152162374482032e+03
3.439681811519570147e+03
2.880566775190074623e+03
2.509906663771713738e+03
1.780576239425090534e+03
7.534483008486668041e+02
-6.125867990397164249e+02
-1.615738644329788713e+03
-2.493995122252820693e+03
-3.070199285885726113e+03
-3.526491486435244951e+03
-3.306539686441326467e+03
-2.638783748662546714e+03
-1.600278508914883560e+03
-3.933338248557112706e+02
3.615605495577950137e+02
1.417589249600551057e+03
2.263418717224179090e+03
9.672508283586553262e+02
-5.637706206180789650e+02
3.053329230781801925e+03
3.621491301146594651e+03
3.249685250764468037e+03
2.474744021880203945e+03
1.876710462673554730e+03
9.408269307387877234e+02
-4.640257977653829471e+02
-1.679059534879471812e+03
-2.348399074852006834e+03
-3.191130317780569385e+03
-3.764307902412959720e+03
-3.053946186495216352e+03
-2.111963384762138048e+03
-1.205264016580448470e+03
-1.357993920852262022e+02
4.734378356848657177e+02
1.115576825972385677e+03
1.782656653395618605e+03
2.491665311410077720e+03
3.220655075370764735e+03
3.556665025363979566e+03
3.555729432382760933e+03
2.979858897621347751e+03
2.596272942653629798e+03
1.770927707850736624e+03
6.956281589990012435e+02
-6.447336203328726469e+02
-1.993117835925318104e+03
-2.625661138497336196e+03
-2.950596413874419341e+03
-3.624887032014534725e+03
-3.728470655865181925e+03
-3.143219977342246693e+03
-2.180090249295324156e+03
-9.249796140763896801e+02
2.930840524390881114e+02
1.184075030973564026e+03
1.637973452806140131e+03
2.196808629851436308e+03
3.085685390924828425e+03
3.202765615165460531e+03
3.247056209681204564e+03
2.836463207149299706e+03
2.446962101277514648e+03
1.774617869258986275e+03
7.802964967208264397e+02
-8.171821820372701950e+02
-1.964743771425972000e+03
-2.849404664093545762e+03
-3.543244312387645095e+03
-4.076283091530655838e+03
-3.805551946812302504e+03
-3.179870878258966968e+03
-2.021972722965905405e+03
-9.879783236320553215e+02
-4.568814135658198552e+02
3.254062589901574825e+02
1.172697908029050723e+03
1.648047981709888745e+03
2.632467006379155464e+03
3.315941869178665911e+03
3.324529090973309394e+03
1.120158056515279213e+03
-8.582843324980959778e+02
1.542635743207124506e+03
1.296914792661718366e+03
-1.467329817981981535e+02
-1.633257770892422513e+03
-2.331694409930385063e+03
-3.032962054134711252e+03
-3.683426146569053344e+03
-3.656483992573844262e+03
-3.249901575410477108e+03
-2.350221777159074009e+03
-1.328099843825148810e+03
-3.628222338262086168e+02
7.665632826147431160e+02
2.025399414639746055e+03
2.881175056417122960e+03
3.792446839693130642e+03
3.599850928207223660e+03
3.547631744778745997e+03
4.172405875678404300e+03
3.726801925689225300e+03
2.211741776223529087e+03
9.439810272198358234e+02
-3.367206122265890258e+02
-1.905427807341704693e+03
-2.594859651580207355e+03
-2.380479562556191013e+03
-1.878217419192710622e+03
-1.943091579848218544e+03
-1.808510904889370295e+03
-1.048086772523808349e+03
-2.078944603607442616e+02
2.762687257515474357e+02
1.084687469069161807e+03
1.899433213204716139e+03
3.104381239208164061e+03
4.007997817673446207e+03
3.923091948806370056e+03
3.651706437614981496e+03
3.144931269026405062e+03
2.754869560583788825e+03
2.429383849023384755e+03
1.918458241758961321e+03
-4.800900126721851535e+01
-2.277108502913825760e+03
-3.774024450953623727e+03
-4.290719681147662413e+03
-3.696114625616136891e+03
-1.954368205060235823e+03
-1.166445302348930909e+03
-1.709260065223495531e+03
-8.958572895250697457e+02
4.287442092588479454e+02
9.376591495110762935e+02
1.533821574384081259e+03
2.680187321621772753e+03
4.026041340740982832e+03
4.529461409191768325e+03
4.442330566713799271e+03
4.190488593944292006e+03
3.322875060373063206e+03
2.530397943219705667e+03
1.362932781286712043e+03
-7.015752239044139742e+02
-6.120818227140458475e+03
-7.211509315096779574e+03
-5.192335099912875194e+03
-6.234319741265203447e+03
-7.252385742180194029e+03
-6.620486897805389162e+03
-4.365552435631396293e+03
-5.272620034123379810e+03
-2.359779147286519219e+03
-4.868041980427996350e+03
-1.264306821697329497e+03
-2.073368080723761523e+03
3.215697775338157498e+03
2.922788007944497167e+03
5.499036712887582325e+03
3.962463253173760222e+03
-1.053983137277622063e+03
-1.779395158718594075e+03
6.132009021554862329e+02
4.578333823012229118e+02
-1.822511155024300706e+03
-3.102972517108738430e+03
-6.451625876072565006e+03
-3.744401604246128500e+03
-3.173337346009454450e+03
-4.518493700946680292e+03
-4.325800674934181188e+03
-1.518137942127511906e+03
1.429586672770138193e+03
3.452414999609702591e+03
4.235365862418042525e+03
4.788505894916766920e+03
4.721814108271077203e+03
6.105307283279210424e+03
7.690186407632522787e+03
7.056543830598358909e+03
6.009228829157864311e+03
4.645175525884632407e+03
3.843325782011816955e+03
3.042718872403070691e+03
8.073597280807056222e+02
-1.704838061057418372e+03
-2.274853512034359483e+03
-2.242667434004448751e+03
-1.883286201480749014e+03
-1.800708390417775490e+03
-1.339783469172245532e+03
-6.655307635874150947e+02
5.301346851727590774e+02
1.258224565271813844e+03
3.299774930428580774e+03
4.793922561190409397e+03
5.619708477290965675e+03
5.855163734059585295e+03
5.270317676078751902e+03
4.718060373965844519e+03
3.868413507194487465e+03
2.543375074454544574e+03
9.444731115471387284e+02
-9.909448567449676375e+02
-9.239385119295608320e+02
-5.916570840757899532e+02
-1.059285487322918925e+03
-1.823800113655415771e+03
-3.185532243182075490e+03
-3.376600703128119221e+03
-4.034808827317218402e+03
-4.091833971210817708e+03
-4.842999249729551593e+03
-4.782220373690088309e+03
-1.532836013781360407e+03
4.810373019364142806e+02
1.108051905595166318e+03
1.147646913009945820e+03
1.215653329482522167e+03
1.971175451923175160e+03
2.086225712975004171e+03
4.038819907546863760e+03
5.344775563817142938e+03
3.167964204542847710e+03
-1.865501198309376605e+03
-6.117613174406703365e+03
-6.723489296065255985e+03
-5.991035279874417029e+03
-8.941245759565455955e+03
-1.109210562484648835e+04
-7.248603940108559073e+03
-2.486762735422935577e+02
4.283826100878717625e+03
4.393995131378028418e+03
2.245851902796469403e+03
2.414386124932315454e+02
-1.256157577221693373e+03
-3.078288155962313226e+02
2.723395897401048387e+03
5.610546106883693028e+03
6.212685184138521436e+03
6.045841809983954590e+03
5.793946863096020024e+03
3.148958013006799774e+03
-1.338099497086504925e+03
-3.422341375055798380e+03
-4.981622306053548527e+03
-5.954970889843844816e+03
-4.769467025797534916e+03
-3.264034159501610247e+03
-2.167647989320351371e+03
-1.071852579370462735e+02
-6.467135982318042124e+02
-3.855246705844175722e+03
-5.940653806864775106e+03
-4.355873075732947655e+03
-1.362841485629926865e+03
1.324476450678792162e+03
2.953077863691190032e+03
4.053006568900644652e+03
2.837298481995333987e+03
1.791926858481824183e+03
1.161941332102966726e+03
-2.726665763155938748e+03
-1.101997235362975334e+04
-1.287404057722596735e+04
-1.086194346017486350e+04
-1.030768107338883601e+04
-6.444205149023323429e+03
-1.661518167100294022e+03
-2.570726440913525494e+03
-2.088765037471181131e+03
-4.972965707209820039e+02
1.725670863513338190e+03
4.124760126894281711e+03
5.641132718565572759e+03
4.640849613620032869e+03
3.880019737968232675e+03
6.434643340622250435e+03
8.984755875720078620e+03
9.302327300615106651e+03
8.409297246306328816e+03
7.172598194495421922e+03
4.992257729138354989e+03
1.887203180889535133e+03
-2.946570572547702795e+02
-8.443732966631516774e+02
-1.377997020882811739e+03
-2.537598503373001677e+03
-2.580177236710826946e+03
-2.019629493500158105e+03
-1.678955200008257862e+03
-1.240191870227719164e+03
-6.363420217449016718e+02
-3.663073886303393465e+02
-5.100496737326785706e+02
2.280443568433936889e+03
5.009109300963883470e+03
5.925957299529095508e+03
6.141057404346195653e+03
7.509341434497862792e+03
7.281784289049642211e+03
4.580274083615862764e+03
2.124734413108001263e+03
1.952464030644041202e+02
-9.512284402358820898e+02
-1.482836856798990539e+03
-5.646896871196448728e+02
-2.188882881670339131e+01
-1.864557512708219065e+02
-4.873182733074153816e+02
-1.191464180764245384e+03
-1.199901805612974158e+03
1.385360292253124499e+03
4.138402553197162888e+03
5.167196365166315445e+03
5.421719571042352072e+03
6.631945075169634038e+03
6.866896239319301458e+03
5.235596669590113379e+03
4.361106198194032004e+03
3.480343661003246325e+03
1.391206652984413722e+03
-1.343397208560533727e+03
-4.919488410497835503e+03
-6.550242109004394479e+03
-4.838711280693193657e+03
-3.997924952958222093e+03
-2.665008544988554604e+03
-2.280105739601803521e+02
3.110967802953596788e+02
1.323401146780319777e+03
1.995894176116546760e+03
2.222487051656131825e+03
3.019210424255772523e+03
2.408074367756099036e+03
-1.004668052534664866e+03
7.629382066676115528e+02
3.296480378705527983e+03
4.723064512254770307e+03
6.224763374619687966e+03
5.084554724614958104e+03
1.706353937197155574e+03
-4.583920338963164795e+03
-1.256277120549743358e+03
-7.960734860437905809e+03
-1.033245051961800709e+04
-7.846503417643213652e+03
-7.618950004750578046e+03
-8.457831575393473031e+03
-4.971156776328487467e+03
-8.098938885552608554e+03
-4.130173344898278629e+03
-4.282802209452475836e+03
-8.626616971841779105e+02
-2.529846424661282526e+03
-4.882492903453255167e+03
-2.270497251053056516e+03
-3.247826751409851113e+03
-4.289527125895329846e+03
-5.915629648000081033e+03
-4.301078996782734066e+03
-7.087920454708082616e+03
-8.214301209548064435e+03
-3.791337321483281812e+03
-1.936012341356942670e+03
-2.436336414454623537e+03
-6.382397906039887857e+03
-5.534296522043216100e+03
7.229511612742254556e+02
-1.853608737485823895e+03
-2.366926145634553905e+03
1.048978261012849543e+03
6.570749442256382054e+02
2.504456546658239802e+02
1.282134933603593709e+03
3.006139123743967502e+03
3.718438598032093523e+03
4.952032189873078096e+03
5.356927577187620955e+03
4.900253863094680128e+03
2.846001154310637503e+03
1.248057195896236863e+03
1.327391696067623116e+03
-2.431503188807559752e+02
-1.621712482886628095e+03
-1.879219314559464237e+03
-2.380602682795754845e+03
-3.504966074122446116e+03
-2.717386785083863288e+03
-2.759828233168194402e+03
-3.880205696287792762e+03
-1.294515579755830686e+03
2.878185533670717177e+03
6.035005125439849508e+03
7.270015422539682731e+03
7.881255260048817945e+03
7.403762080552000953e+03
5.118508070663830949e+03
2.006434595369379394e+03
2.041487854230200583e+03
3.605262489172986989e+03
3.199531050925831096e+03
2.323086540457220053e+03
9.619486225242906130e+02
-5.776333298550746775e+01
7.752784389845617170e+02
1.222701313617646974e+03
1.704066124984354360e+02
-1.046706236047587936e+03
-7.876857741560194199e+02
1.557337874813947110e+03
2.750971571643684001e+03
2.976409139519483233e+03
4.220014911558507265e+03
5.873730729241800873e+03
6.970697828044730159e+03
6.724585035358215464e+03
6.147828603940019093e+03
6.258016446147091301e+03
6.762386890419550582e+03
6.001227104073906958e+03
4.110431246925928463e+03
3.187204966067405621e+03
1.713432360977245025e+03
-8.220538384236999718e+02
-2.402209687677424881e+03
-3.190167570996771246e+03
-2.876170399795686990e+03
-2.474281675973288202e+03
-2.111413680458845647e+03
-1.245445542627356872e+03
-1.164337555715582994e+03
-1.435976728860276580e+03
5.985694104327515106e+02
3.569314686215828260e+03
4.436450685849367801e+03
4.940003261400132942e+03
4.387005725216977226e+03
3.995425125808826124e+03
3.424258347003229574e+03
2.281680678024290046e+03
1.345729864353629864e+03
4.032663940742229443e+02
-6.837698982067943234e+02
-1.798452510133839951e+03
-1.986765694060326723e+03
-2.300737148222939595e+03
-2.355358196726739607e+03
-2.480663372647996766e+03
-2.409614472138604015e+03
-1.239299468402439970e+03
-2.756175788438491736e+02
6.165233085455142827e+02
1.582187702111118142e+03
4.851427167414004060e+01
-3.120473762532513774e+03
-7.640714145950176317e+03
-7.144130991943470690e+03
-4.066726165891122491e+03
-3.625483667286369382e+03
-5.282544908866429978e+03
-6.556001329840874860e+03
-6.686755448114008686e+03
-6.022801801634378535e+03
-7.048977105946943084e+03
-9.601383809754619506e+03
-9.045999290855677827e+03
-3.604864430596283910e+03
-3.719913853944259245e+03
-1.017515736792662574e+04
-1.078083616226013146e+04
-9.283806988021835423e+03
-5.307928508974848228e+03
-1.014187283308100973e+03
1.951439247549950778e+03
4.609977802121831701e+03
7.409495837547859992e+03
7.908781583494092956e+03
6.543859680925022076e+03
6.030036078459201235e+03
5.686572629770898857e+03
3.946477519661277711e+03
3.093506462792268849e+03
2.189529172012388244e+03
8.048831658460787821e+02
-9.934667892240468063e+02
-2.301016484339967974e+03
-2.517123373381366036e+03
-2.210675930807857640e+03
-1.641349789741253517e+03
-1.243876035113582930e+03
-7.001605445865950514e+02
9.288470418753905733e+02
2.070030488109455746e+03
2.635191105143824643e+03
3.523315973151862636e+03
4.483563232643340598e+03
4.671993797973754226e+03
4.491633726734223274e+03
4.055693046313717332e+03
2.087377342842183225e+03
1.858571109541449232e+03
1.648225233085541277e+03
5.732948887482857572e+02
-5.393678227663516509e+02
-1.557810404834778637e+03
-1.004040490434759931e+03
-1.154163034860420566e+03
-1.974975059863884098e+03
-1.729178665224390670e+03
-1.482736883989201942e+03
-8.758381726563249003e+02
2.663707731307218864e+02
9.058563339380797288e+02
1.575730663162775045e+03
2.050021866026250791e+03
2.179841987929557490e+03
2.816440684066935773e+03
3.558720760226360198e+03
3.274827992072141114e+03
2.663956255950916329e+03
1.377971993201429086e+03
3.252976054961972068e+02
1.384841942468042930e+02
-4.294082117770817604e+02
-2.189141672201029905e+03
-3.547657240271336377e+03
-2.930313066151437397e+03
-2.997481842738069190e+03
-2.455278000404117392e+03
-2.262727554128551219e+03
-2.186717516254436305e+03
-1.120053675265842912e+03
2.892866521152340056e+02
2.080077997632281495e+03
3.158288589725167640e+03
3.607110280310545932e+03
3.677629542973497792e+03
3.912850235563517344e+03
3.421881598238713195e+03
3.120884249299070689e+03
2.702771119685547546e+03
1.836412786353144156e+03
3.497926415507195088e+02
-1.670090978279751425e+03
-2.362271168773259888e+03
-2.860816294782404839e+03
-3.633715214209559690e+03
-4.263009338429512354e+03
-3.742713584971395903e+03
-2.646737863936733902e+03
-1.577021901108319753e+03
-8.128165796250899575e+02
-1.161292929185497371e+02
1.522226678707109386e+03
2.277285436786503851e+03
2.799898718573862425e+03
2.698154761548926672e+03
2.007254931904244813e+03
2.127176338839297387e+03
2.638925591813847404e+03
2.396457756011244328e+03
1.506698481730356889e+03
-1.015371842306474406e+02
-1.812305664297691692e+03
-2.675601832342500984e+03
-3.575414609529670543e+03
-4.259719705005814831e+03
-4.345562928245371950e+03
-3.670186853015862198e+03
-2.933636376765543446e+03
-2.531786471503244684e+03
-2.146584369491624329e+03
-1.414048615584898243e+03
-3.460934676402002879e+02
1.253441471834614049e+03
2.674506375590526204e+03
3.465093028293411862e+03
3.584236405491355526e+03
3.922022561027644315e+03
3.146549377016486687e+03
2.382634637959224165e+03
2.317005534293252822e+03
1.027642485586509110e+03
-1.270592177409738497e+03
-2.946853535858067971e+03
-3.111044874257614083e+03
-3.286261519047949605e+03
-3.640510842615918591e+03
-3.369801288325465066e+03
-3.174254854722740674e+03
-1.683719802558613083e+03
-3.890004003897383313e+02
7.057303375410464241e+02
1.392577039226760007e+03
2.140617978492125985e+03
2.714813633615132403e+03
3.221253607238013501e+03
2.902430585633406736e+03
2.648600315684900124e+03
3.169416451200348092e+03
2.464235325281396399e+03
1.560257937718591620e+03
3.812343798532509140e+02
-1.152748912563187787e+03
-2.421684129247398232e+03
-3.435904704797229442e+03
-4.532932027247815313e+03
-4.494292975519870197e+03
-2.911563615427397053e+03
-1.854561693351115991e+03
-1.358850651531243329e+03
-1.090449028175297315e+02
7.484647740133216303e+02
1.334932733981266892e+03
1.526379613858408447e+03
2.129811026014748677e+03
3.223914609717824533e+03
3.755007031744403321e+03
3.479925069442681433e+03
3.076185775060519973e+03
2.927124177132460773e+03
2.555891140445732162e+03
1.186099726496617222e+03
-8.259218298611243654e+02
-1.996062977172350202e+03
-2.347331650729905505e+03
-2.195247726939307540e+03
-2.319315117842020300e+03
-2.157320417056071165e+03
-1.435194206984866696e+03
-8.180452927272032184e+02
-1.859574746332391726e+02
7.081286414995371388e+02
1.771168845109924405e+03
3.148229291123072471e+03
4.005385990211151693e+03
3.901739216000778470e+03
4.312266501205936947e+03
4.013808524283253064e+03
3.329459033761802857e+03
2.973141298256014124e+03
2.134763958699486466e+03
1.210305428497883668e+03
-1.491783956193833092e+02
-1.992849624292318140e+03
-2.851671083091910987e+03
-3.017536580037119620e+03
-3.480735922436365854e+03
-3.218412920445832242e+03
-2.469564314841650685e+03
-1.205051440360905417e+03
7.926434143256653897e+01
1.146488713835620501e+03
9.178201872918607478e+02
-1.724596456218930143e+03
-1.384939681539564617e+03
-3.064039339591352586e+02
1.787139772234627344e+03
1.461752954447890943e+03
2.553479773399965779e+03
-4.111720556058546208e+03
-1.207946994064626779e+03
-2.339210420771392819e+03
-6.223919942945892672e+02
-5.325539207933079524e+03
-6.242913524058731127e+03
-3.192156018267581658e+03
-3.534366115055556293e+03
-4.366540560038542026e+03
-2.791686792325715487e+03
-3.365816146845081221e+03
6.611740152429730415e+02
1.552459336266802438e+03
3.911154782787879753e+02
-2.728186220893762766e+02
2.036407891219915314e+02
-2.144547314555639161e+02
-8.709576325487884105e+02
3.382094793881291480e+03
4.447796205301945520e+03
4.124274716021242057e+03
3.298462381972076855e+03
2.039341952548058771e+03
4.068964168359681821e+02
-8.588792102956192593e+02
-1.879975424342576389e+03
-2.866391189718943679e+03
-3.316043095485150843e+03
-3.238828411320893338e+03
-2.468851679647516448e+03
-1.264204624476949448e+03
-2.617118862949660070e+02
6.016634569736078220e+02
1.366095429665216216e+03
1.893657832377148452e+03
2.894388573878693933e+03
3.569315156770024714e+03
4.024499627250172580e+03
4.220993864165271589e+03
3.705828502134460905e+03
2.888020316979657309e+03
1.790475639468278359e+03
7.522612771163866228e+02
-3.996177846946046088e+02
-1.774146357315698197e+03
-3.150319087500109163e+03
-3.786201854475383243e+03
-3.929778920825911428e+03
-3.952987509799304917e+03
-3.202771886503304813e+03
-2.283857073729891908e+03
-9.749831803871946931e+02
7.391186610508118520e+02
1.969154205673880142e+03
2.688925903323413877e+03
3.377590864193243760e+03
3.115276223817460050e+03
3.099869162732220957e+03
2.455219371804051207e+03
2.849456983398732064e+03
2.794947665064530611e+03
2.230862213742409949e+03
1.309397811823502479e+03
-1.735151638575785427e+01
-1.238942899072932278e+03
-2.418129256266988250e+03
-2.676274926937483087e+03
-2.356729732716108629e+03
-2.564525163577858166e+03
-2.703498651949836130e+03
-1.824735016622910280e+03
-5.362713109842289896e+02
1.898729223568520297e+02
9.979056955943267440e+02
2.182979971098411625e+03
2.986045328013810831e+03
3.450108285143317062e+03
3.742271393840102974e+03
3.610472878890361244e+03
3.716690792642739780e+03
3.352968052395602626e+03
2.580343204295675150e+03
1.413803486029935812e+03
2.462081641995178529e+02
-1.119481569775816524e+03
-2.107282708064941289e+03
-2.742211478305513083e+03
-3.037306625629029895e+03
-2.665670411719385811e+03
-2.379220614509893039e+03
-1.740921424984881924e+03
-9.627644595058343384e+02
-1.637692483067048954e+02
8.101426657201794796e+02
1.714016248643735935e+03
2.478819418689437953e+03
3.319661338481267194e+03
3.553396558126119544e+03
3.314980610316415550e+03
3.170467470612389661e+03
2.887829828480269953e+03
2.149045427681942783e+03
1.022946787251647265e+03
-4.214432498940563505e+02
-1.762102609482622711e+03
-2.687181141723069686e+03
-2.734725259162453312e+03
-2.858760681837076390e+03
-3.234347102015638029e+03
-2.873448698465665984e+03
-2.438031089551837340e+03
-3.156093571474584678e+03
-7.916289276117531699e+02
8.523148249593393757e+02
5.167249123342263601e+02
-4.144383717706037714e+03
-6.464055378018152624e+03
1.137732167874055904e+03
3.043941476083035923e+03
-3.977518161979298839e+03
-7.362682655284706016e+03
-2.225533310030889425e+03
5.669131296216379496e+02
1.654247191159423096e+02
-8.680225074533229872e+02
-1.837470614339757731e+03
-2.011957177829640614e+03
-2.354519732022452445e+03
-2.622255369639947276e+03
-2.377219954536772093e+03
-1.922458740322363610e+03
-7.959408851716211757e+02
3.083729483778220697e+02
9.424828153784983442e+02
1.661376114289169436e+03
3.022064294771045297e+03
3.719466190971280412e+03
4.162531652976184887e+03
4.354284085973710717e+03
3.621719740371255284e+03
3.312808474275511344e+03
2.710460975640402921e+03
2.014580383764810676e+03
7.651463411967232560e+02
-7.008657212353163004e+02
-1.499588129879492953e+03
-2.075158677834227092e+03
-2.727598204266126231e+03
-2.899894585993291912e+03
-1.882032891802867198e+03
-6.701042734447236171e+02
3.129526678781030569e+02
1.277147044151417276e+03
2.281541641534256087e+03
2.845174692051420607e+03
3.746971196644454267e+03
4.854850178594570025e+03
5.843773532878092738e+03
6.335832583062051526e+03
6.153026191129592007e+03
5.457321822525364041e+03
4.713632861612476518e+03
3.717944019603377910e+03
2.670213021101195409e+03
1.323370677016537684e+03
1.203247033489261781e+02
-8.169623726718336911e+02
-1.775462696253876402e+03
-1.801204696986940235e+03
-1.293178002878688631e+03
-4.313629769874664817e+02
6.541783765112373885e+02
1.908446097947633916e+03
2.478498839782244886e+03
3.309357979668524877e+03
4.241031275569738682e+03
4.573652260268321697e+03
5.221168624822215861e+03
5.557501917798384966e+03
5.249746986486769856e+03
4.782961848526583708e+03
4.244153673823350800e+03
3.270198146170328982e+03
2.103076241386552283e+03
4.127849388835559239e+02
-2.469724801000615116e+03
-5.281482378148019961e+03
-9.612525404126245121e+03
-1.183983744191355436e+04
-1.140836907258646352e+04
-1.012103095751546061e+04
-8.256840289464931629e+03
-7.239712314849455652e+03
-1.602605527008567606e+03
5.064579144168793391e+03
4.873853982193993033e+03
-1.735805808293432619e+03
-3.339321580946768790e+03
-3.083675439211765479e+03
-3.229812730694673974e+03
-4.201683470764995036e+03
-4.603289272988668927e+03
-5.197639714996751536e+03
