-8.647514601782295074e+01
1.403944597011996620e+03
2.693165964626452933e+03
3.315353466828174078e+03
2.623759741470630161e+03
3.018284289899407213e+03
3.384847435511740969e+03
2.029652741526954287e+03
6.535447660456676431e+02
-7.136978639700903670e+01
1.427948908802257847e+03
3.258942131973123196e+03
3.783342264721479751e+03
3.388151381545892946e+03
1.815346645081102679e+03
-5.189807396489873099e+02
-1.747775251786622221e+03
-1.666276054871620545e+03
-5.614347171543821560e+02
1.042126267936573413e+03
1.925332234349772307e+03
2.317065568680270189e+03
2.846486623631492876e+03
3.657693522625289916e+03
4.295782523977050005e+03
3.403771428104088955e+03
3.239648889444081306e+03
3.765475671093724031e+03
3.114269476698771086e+03
1.873870298583891781e+03
4.189064089814764635e+00
-1.168825204185049643e+03
-1.467104749893056578e+03
-8.494161514339270980e+02
3.452735668412266250e+02
4.589182353351239954e+02
-5.954682389744385773e+02
-2.217894419457213644e+03
-3.543462938036350806e+03
-3.919151239262935178e+03
-3.123888387942662121e+03
-1.076759140513645661e+03
5.123349904438252906e+02
-1.304502092886295088e+02
-4.231458711938082615e+02
-3.769099608891129094e+01
3.480050693361821459e+02
1.979829452229894002e+02
-1.646882655393477762e+03
-3.817830123308149268e+03
-7.169897413989640881e+03
-1.045487652854007865e+04
-9.347800986849470064e+03
-4.542702193404147692e+03
-3.268604237154463590e+03
-3.063580659039886996e+03
-1.754435256220182509e+03
-2.470343454058697716e+03
-5.649401678659243771e+03
-7.129494176308985516e+03
-5.537676213562569501e+03
-3.373926753281013589e+03
-5.821558357045541925e+02
1.729690331006632277e+03
-1.502431994879408649e+03
-2.142637141850361331e+03
-4.760201476673317984e+02
7.244825047649436556e+02
-5.891277993937486599e+02
4.380924956378279944e+02
5.698067456058688549e+03
7.084756287710544711e+03
6.695079347543232871e+03
5.899001427871219676e+03
5.062574240877604097e+03
3.893749858772927382e+03
2.185439241014690651e+03
5.144856249151301881e+02
1.889011172856762357e+02
7.787315425569719309e+02
8.159797469270091597e+02
-1.854087148103865559e+02
9.175589955390058776e+02
3.336866286250999110e+03
4.142564182199097559e+03
3.777631572351337127e+03
2.922057235068731643e+03
1.971831810636391538e+03
1.195899689286059584e+03
8.492114862979610734e+02
1.627005003136281402e+02
-9.957309421707308275e+02
-2.456111394026459493e+03
-3.216506911634588050e+03
-3.352947988471987173e+03
-2.839482487087115260e+03
-1.168180264548091372e+03
4.019829428748682290e+02
5.729862892609968412e+02
-1.332376629345786228e+02
-6.197334118167658517e+02
-2.644760941033011932e+02
3.934376337106047004e+02
1.249937233876288246e+03
1.106017543297773045e+03
6.947695970967974972e+02
1.051192721751284807e+03
1.183315892536864112e+03
7.111761039806660847e+02
1.558411338724442032e+02
3.192793524573430659e+02
2.972101336983358237e+02
-9.139018379286027027e+01
-5.964640927605196339e+02
-9.899101782683194415e+02
-1.091794216313771130e+03
-1.243210572805548736e+03
-2.544248852730024737e+03
-2.763020412633642081e+03
-1.468613046650677688e+03
-1.683380787513484393e+03
-1.439266240274881966e+03
-6.619640620083041540e+02
-5.925180681231643121e+02
4.899998511385580855e+02
1.221587140246723720e+03
9.182059097748821159e+02
1.856852529845829395e+03
2.321500111061081952e+03
1.863121148216078836e+03
1.037665523560993051e+03
1.690652282359795890e+02
-7.436822828169953254e+02
-2.465622765906725363e+03
-4.014855464950816895e+03
-4.055397965990706780e+03
-3.056250360418225227e+03
-2.208475969651112791e+03
-1.845093868826292464e+03
-6.780674744644643397e+02
2.976262231794835884e+02
1.036987090200636203e+03
1.144964002426929028e+03
1.833551558584196528e+03
2.103794967268481287e+03
2.062719679298679694e+03
1.724319636676025766e+03
1.424507068373765151e+03
1.516291796357143085e+03
1.468673007759360189e+03
6.506985261697001306e+02
-2.646867568673809501e+02
-8.057308189237630813e+01
2.650586718579845638e+02
2.761979859477452237e+02
1.686980507248775751e+01
-6.069442534325525003e+02
-1.229319537756694217e+03
-1.534259538216944975e+03
-1.270750940854771670e+03
-7.170697205021615162e+01
1.185756595085883802e+01
2.669433455390825429e+02
1.173562388146896865e+03
1.379675797596969687e+03
1.070331955173540109e+03
1.066530442090760289e+03
1.610311313869955256e+03
1.758732233109675008e+03
1.494769730961280402e+03
1.125413680039870769e+03
7.296826420360549719e+02
5.275232387205354598e+02
1.808698353368418736e+02
-3.942878267949444648e+02
-1.226889372499545743e+03
-1.454966184142409475e+03
-1.818540909165252970e+03
-2.062708511932030888e+03
-1.491457044904722352e+03
-3.537545048707316937e+02
-1.553065905666253599e+01
7.452834379358969272e+02
9.319254972837635478e+02
1.104332905330747735e+03
2.013410917297040669e+03
2.566976152947223454e+03
2.599266132716733864e+03
2.126261030057613880e+03
1.073938402531192651e+03
8.454498949110451349e+02
4.384632449748845602e+02
-4.976865257427411962e+02
-9.799603958433118578e+02
-1.648683157909822967e+03
-2.320989366324182811e+03
-2.475600988260267513e+03
-1.449795246675089174e+03
-8.703363090457733051e+02
-1.423320696596963217e+03
-2.252781833667776482e+03
-9.845870351928894024e+02
7.384413363913108697e+02
1.369261245728816903e+03
2.083814994777967058e+03
1.784934002711945141e+03
6.868981869317201472e+02
2.956331481349578212e+02
1.211168951427758600e+02
-8.774089882003108798e+00
1.343075296157065850e+03
2.731651877092112954e+03
2.946941434005052997e+03
1.570018213905703078e+03
3.636963764044929803e+02
-3.861588311837616629e+02
-3.754620661209052628e+02
-4.219190464425653317e+02
8.329943511407775247e+01
3.391460004660444838e+02
7.065623268659242058e+02
1.128392733860207500e+03
1.089106583586994702e+03
1.122551300681716384e+03
8.207673532922229924e+02
1.508807772205980655e+03
2.441625831142556308e+03
2.438242901856977824e+03
2.452782182046161779e+03
2.228267497430037565e+03
2.023550013029503816e+03
1.124510257498946658e+03
8.714738762473706402e+01
-1.746186336931798877e+01
2.585751624147042094e+02
-6.367816613280224374e+02
-9.604744423795254988e+02
-9.533874686363832325e+02
-1.395475284732086720e+03
-1.624738170741381055e+03
-1.021244314622823481e+03
-1.150465842510339058e+02
3.139242877607021569e+02
1.777294537934520520e+02
5.593847876812847062e+02
4.108393155802390879e+02
-2.077728212343082760e+03
-1.913327585094298456e+03
-2.008293447074350752e+03
-4.244899846643809269e+02
-1.099739829152302718e+03
-3.191052044221797601e+01
-8.473012030740947012e+02
-2.055806868100565680e+03
-1.298463814078923406e+03
-1.956237494270947536e+03
-2.930109533293219101e+03
-1.508167678232726075e+03
-3.009446652405490568e+03
-3.727904724170105965e+03
-1.969488728297867283e+03
-1.949100341271995376e+03
-1.826814258006935461e+03
3.383184933779487551e+02
-8.325648691710661069e+02
-1.014332799880327912e+03
-9.069913580359002481e+02
7.982835459616034086e+02
-8.494715750232433038e+02
8.084581265672279926e+01
-9.117968577917338280e+02
-1.615342081182203174e+03
-1.167542415162508291e+02
-4.300961558107561018e+02
-3.019273897879500055e+03
-2.055246521945628956e+03
-1.002209216361475569e+03
-1.127203151696068971e+03
-6.482382295628182192e+02
-4.563527971047491860e+02
-4.615514653959103839e+02
1.703073190506581511e+02
1.439405138077622269e+03
2.774641590527684002e+03
3.651897437185558829e+03
3.715304956240038337e+03
3.471944753376483277e+03
3.369949064829135750e+03
2.748388238082367479e+03
2.552286264164198201e+03
1.911618654175883648e+03
1.296265476063647611e+03
1.015116319926578285e+03
6.862899082142020006e+02
-1.596794469662543037e+01
-5.516836230017786420e+02
-2.812636552752262631e+01
-4.885094290867488667e+02
-1.143006247765976468e+03
-9.696001208882713627e+02
-8.530732235126378100e+02
-4.983674674383652814e+02
5.665808975659649604e+01
1.229036867652484261e+03
1.903702377363806590e+03
2.188944766758553669e+03
1.730931509458713890e+03
1.337695392175099641e+03
1.091285517910779163e+03
1.079296553751250940e+03
1.483109114454047983e+02
-1.314481727166312339e+03
2.919009554688462345e+02
1.883749372912605224e+02
-8.198936752483649570e+02
-1.180716928660996246e+03
-1.248465763583345051e+03
-1.401138671506214450e+03
-1.286640758411394472e+03
-9.080753840572468789e+02
-8.812766288693334218e+02
-8.006188075236159420e+02
-2.192659819291598069e+02
5.195608789551055224e+02
1.115976326355964602e+03
1.494589195743334585e+03
1.526787913585099204e+03
2.139521235413196337e+03
2.732031647193317440e+03
2.081157157795813418e+03
1.313904680376996339e+03
7.664010444685279708e+02
4.348296775954435702e+02
1.135948134161026530e+02
-9.040873466263748526e+01
-5.666423448765011699e+02
-6.902597358692473790e+02
-6.431531854652185984e+02
-7.302988833118481580e+02
-7.995793891047981106e+02
-3.909856999618104965e+02
-1.957425456291701664e+02
2.818858121947625364e+02
8.178650593610676651e+02
1.205768836242727957e+03
1.488978957383584429e+03
1.622617595219268196e+03
1.628239759285071841e+03
1.881426692149813334e+03
1.752303264236989889e+03
1.503497618479583025e+03
1.306999215906434074e+03
7.418295357568056261e+02
1.992577027805564001e+02
-2.075030944519396314e+02
-5.058569447914585453e+02
-5.971004767767751673e+02
-2.762962471012653509e+02
-3.014960499202236974e+02
-3.527171527390302117e+02
-4.521199514980162917e+02
-1.456330039575482260e+01
5.759222205506063119e+02
1.377924970378418720e+03
1.884858217398661736e+03
1.913077041886359666e+03
1.437760022497058117e+03
-1.129939653357708096e+02
-2.924086506044175621e+03
-4.769142939584316991e+03
-4.640611422141432740e+03
-4.525070408242328995e+03
-4.794228700231798939e+03
-4.817286349386550683e+03
-4.125362761963048797e+03
-9.005899066145813094e+02
-2.021382892868200543e+03
-2.783356141251841109e+03
-9.472009734826980321e+02
-4.757560919474459524e+02
-4.009079089158628335e+02
-1.570699311318804803e+02
-5.130769616039068559e+00
5.102801414504335185e+02
1.053047555783628241e+03
1.323173516007931539e+03
1.532271891206589544e+03
1.620656555383699697e+03
2.061920175818531334e+03
2.209902602716490946e+03
1.300808632304675712e+03
9.387128721524574075e+02
7.310379921482719965e+02
4.106656509775462816e+00
-4.837960746146829365e+02
-6.453288291549600899e+02
-4.802856935083984808e+02
-1.399541977190225417e+01
-4.319534142421298952e+02
-8.776842704621383291e+02
-7.234092415347176939e+02
-4.724621116717404448e+02
1.659453939106240909e+02
6.888276517450132133e+02
8.862048337829621687e+02
1.085006607292540139e+03
1.537301594832733144e+03
1.784336636037004382e+03
1.494244197516535678e+03
1.057756250755868905e+03
3.757467134406226137e+02
3.716341608073782368e+02
8.264973723622883028e+01
-1.005411255707851865e+03
-1.950572653592824281e+03
-2.602520666680851264e+03
-2.096251535978420179e+03
-1.850890128722530108e+03
-1.799409420759562181e+03
-1.468566380180922806e+03
-1.274317451218226552e+03
-1.156570533166897121e+03
-1.225219126077396822e+03
-9.011729692076601168e+02
-4.192996673920222861e+02
1.524532503471446034e+02
3.631592112831169743e+02
8.860140668308441718e+02
8.150124300446752841e+02
3.661559678091640535e+02
-3.653076747213064550e+02
-3.029565137972584807e+02
-6.746083976689567407e+02
-8.593159030999369179e+02
-1.626970132885024441e+03
-2.102799630014939794e+03
-2.619055146331753349e+03
-3.199680707284118398e+03
-3.201512647213969103e+03
-2.792470654720880702e+03
-2.381468023107286626e+03
-1.972419354746512226e+03
-1.444016832308050198e+03
-1.214150462574976473e+03
-1.075959579221039348e+03
-4.704958275650278097e+02
1.273986058294713928e+02
2.749726289857087522e+02
2.267320247933370325e+01
-1.814707190116617141e+02
-1.578021726322519385e+02
-4.954676699244660654e+02
-1.002460145347211210e+03
-1.327725911290735894e+03
-1.654315363660394269e+03
-2.362865027577253841e+03
-2.609475769201981166e+03
-2.548251981761575280e+03
-2.561426307562524926e+03
-2.208126341311422038e+03
-1.949162989932842038e+03
-1.739468011109952613e+03
-1.463830276764521614e+03
-1.251228472936916205e+03
-6.192759556705087789e+02
-4.793600914629157472e+01
1.272373704370958620e+02
6.987554331454005307e+01
1.802707619629817515e+01
3.874681090750749402e+00
1.578206285843814669e+02
2.038656843014421440e+02
-8.002525849851294879e+02
-8.495460147216754194e+02
-1.016940604605489852e+03
-1.512691783139307518e+03
-1.494167451381621959e+03
-1.386319116512333494e+03
-1.481019888575555797e+03
-2.031291940604696265e+03
-1.416161946214628642e+03
-7.795905655914998533e+02
-5.166872296965248097e+02
-5.996030103032412626e+02
2.846190723551836754e+02
1.600975207546257707e+03
1.733505400438531979e+03
1.306115730353443723e+03
9.496223387753401539e+02
7.559324457850301542e+02
3.690879165961060266e+02
-1.240636815537055071e+02
-2.426465115852026884e+02
2.702768973441798153e+02
8.065287016937421640e+02
1.274983474737337929e+03
1.731531532201995105e+03
1.948945614480920767e+03
1.620058965558274622e+03
1.448879790454509248e+03
1.258463723772525555e+03
1.436704696300708974e+03
2.511228628438821033e+03
2.829344451474877133e+03
3.232086238972443880e+03
4.426363398017972031e+03
5.187933822571778364e+03
5.173487452646228121e+03
4.876466343066434092e+03
5.112978375985658204e+03
5.697105775751530928e+03
5.852485270654687156e+03
4.897047775545413060e+03
3.833706796236927403e+03
3.407093259416210913e+03
3.510461199671717623e+03
3.795271787132182453e+03
3.936306979719327956e+03
4.060682627718720596e+03
3.390250843754892230e+03
2.248967102894017444e+03
2.106479136493821898e+03
2.108904570322276413e+03
2.040197404526371429e+03
3.228829078473587742e+03
4.999352962027920512e+03
5.642068366107656402e+03
5.543095790305479568e+03
4.349072261006516783e+03
2.481648968209273335e+03
2.666079043880446079e+03
4.773200602781771522e+03
5.524696686132370814e+03
5.350724858353193667e+03
4.506017055023040484e+03
3.027325683562372888e+03
1.438470663735189419e+03
1.351290592838803605e+03
1.992693524050212091e+03
1.897724217594495258e+03
7.404120025983767164e+02
-3.051810713038602785e+02
-1.561269051345546586e+03
-2.551161182598485539e+03
-2.558027180927217159e+03
-1.505783058099107166e+03
5.505024489728589288e+02
2.358728088238924101e+03
2.009998029978932664e+03
1.807502172945571601e+03
4.124004054263358739e+03
6.685312733475634559e+03
6.945437553140774980e+03
5.624369419389970062e+03
3.283266396686331063e+03
5.530082308829265685e+02
-2.184645527957303329e+03
-4.623688249819576413e+03
-4.917213568971945278e+03
-4.680257552409489108e+03
-5.924799298887374789e+03
-5.484752734192239586e+03
-3.367076803670856862e+03
-2.226797908200940583e+03
-8.019469600944817103e+02
-3.351121043130826394e+01
1.396407968380301270e+02
2.137150386688421122e+02
-7.853012305109084537e+02
-1.661537034023069054e+03
-2.421689394073008771e+03
-3.887425226703096996e+03
-9.865853636693722365e+03
-1.392320889964962771e+04
-1.644850429892553439e+04
-1.969662000817616354e+04
-2.118450190259933879e+04
-2.032602880750388431e+04
-1.915215709866801626e+04
-1.796283747175327153e+04
-1.467903220397843143e+04
-4.109559943856782411e+03
3.535764360803428644e+03
4.086069208884603995e+03
5.255398919513152578e+03
2.784967480460562001e+03
-6.979028775061908618e+02
-3.388108475758162513e+03
-4.608730045670698019e+03
-1.000638711811920757e+03
1.987415952681127010e+03
6.415764410306525178e+02
-1.949972135695931684e+03
-3.947159456480506833e+03
-7.230837872583417266e+03
-7.033795602877746205e+03
-4.292987556187275004e+03
-5.118313680554058010e+03
-1.111155670377802380e+04
-1.995245304404740455e+04
-2.318276527337877997e+04
-2.162826804534907205e+04
-1.726980194091075100e+04
-3.653233595374577817e+03
7.442457853554295070e+03
8.655457050773284209e+03
5.675047664577111391e+03
2.676470010042177364e+03
3.258739029969929675e+02
3.330496419279454130e+03
1.121156028206530391e+04
1.461623742871728791e+04
1.404462941722769938e+04
1.291088475965248836e+04
1.206410149940829433e+04
1.163444851893491068e+04
9.558140939286226057e+03
8.264379646080304155e+03
6.069314676454414439e+03
-1.719886289722633364e+03
-5.711103176948225155e+03
-6.222201199734661714e+03
-4.328984165953052070e+03
5.478911722960938278e+02
8.376831225719513895e+03
9.072162326013438360e+03
3.290042404513053498e+03
2.159490589354591066e+03
5.408672788831628168e+03
6.734740687200698630e+03
5.287776313691395444e+03
2.573926449945995500e+03
-5.146981013555448044e+03
-1.109835253611228654e+04
-1.384198473007686516e+04
-1.439426654881302966e+04
-1.428108679019237570e+04
-4.267284811872860701e+03
1.020221295743352857e+04
1.858450846503114371e+04
1.451271238795185855e+04
8.836934364068705690e+03
9.337274032148343395e+03
1.386980555564557835e+04
1.328771626214441676e+04
9.657068441306282693e+03
6.399942791434057654e+03
2.691552249297587423e+03
5.311866273129880938e+03
1.455292775791498934e+04
1.583885123389503133e+04
7.069716883168961431e+03
-5.655004328378540777e+02
-9.698854256636689115e+02
5.434589939835234873e+03
4.882995296662969849e+03
1.110342481369334337e+03
5.114634290943365158e+03
6.254879162241164522e+03
6.919079869330293150e+03
7.377212765574012337e+03
6.675252284544892973e+03
5.915187596908264823e+03
6.826982971389302293e+03
8.856668580181014477e+03
7.934285902819456169e+03
4.343788082613970801e+03
4.701201239993765739e+03
7.392418229711794083e+03
6.459403818764104471e+03
3.824224716577507024e+03
4.355797406774513547e+03
4.833033701814594679e+03
3.967721772701851933e+03
1.179800783091467792e+03
3.892137962836753786e+02
-9.817806778369400433e+01
-1.058481727821618961e+03
-2.414813777173573271e+03
-3.632174627098008386e+03
-3.650669512296342873e+03
-4.364482167420148471e+03
-5.828703363579772486e+03
-6.192393231072783237e+03
-8.035711066906160340e+03
-1.143671531933922233e+04
-1.362445868477126169e+04
-1.180308604688233390e+04
-8.386802296289486549e+03
-5.279702970526494937e+03
-9.209202547926562374e+02
4.064619694320389840e+02
-1.581791558595146171e+03
-3.428801444789773541e+03
-5.112662003200404797e+03
-6.469587351687700902e+03
-8.475782169049012737e+03
-1.079040941928682696e+04
-9.227689051911524075e+03
-6.709763059059801890e+03
-6.927733778221820103e+03
-9.527752243275625005e+03
-1.236701027818727380e+04
-1.249465156777421726e+04
-7.163743898974071271e+03
-1.340423448181349841e+03
8.191798994059964798e+02
4.758813667188123873e+02
-6.324467298170004597e+02
-1.332933963930506479e+03
-1.986768938005907785e+03
1.827880582482107229e+03
3.620907163757681246e+03
3.557106313872412102e+03
2.230350189547385980e+03
-6.675264091465436422e+02
-2.789759426672119844e+03
-4.468490674254029727e+03
-4.825813515059312522e+03
-6.256904230195645141e+03
-1.896941440208310269e+03
4.495921073649281425e+03
4.722584874588846105e+03
1.594953334088386782e+03
-1.139061274433881863e+03
-2.919586591349877381e+03
-1.065723420074170235e+03
1.468412243631576757e+03
1.494728921381510645e+03
2.564199646665456839e+03
5.496538617135600362e+03
6.826664221215984071e+03
3.578499437003446474e+03
9.528508226853155065e+02
2.905716171018415253e+02
-6.344052965155927950e+02
-1.367030324264045703e+03
-1.332457375923648215e+03
-8.218970614019604000e+02
-9.273964075862121490e+02
-1.656934584595891920e+03
-1.614668259868257792e+03
-1.937534784845128968e+02
1.367886516134193243e+03
9.162101047792896225e+02
-2.458511378249782240e+02
1.065698729770862428e+03
2.344932550874973003e+03
2.145790133850957318e+03
2.899104845693550033e+03
3.095807760085587233e+03
2.469884541336797156e+03
1.769261649352986296e+03
1.348313690651449974e+02
-2.239439917721378151e+03
-3.899555416949206119e+03
-4.166535349306026546e+03
-3.741309604578193102e+03
-7.567941528283422485e+03
-9.330518732401584202e+03
-6.638951026216201171e+03
-2.924288669141375976e+03
2.386320603603841391e+03
4.198971389251090841e+03
2.341787113552675692e+03
1.369855430397545433e+03
2.557180069316552817e+03
2.943760394417854968e+03
2.847651930481546060e+03
2.880023924128291583e+03
2.344952984617416860e+03
4.095416950025575261e+03
1.035407162655086495e+03
-1.111111274112025285e+03
-1.889090117776917850e+03
-2.934408116904251074e+03
-2.448863835323093952e+02
-3.649603558432142563e+03
-3.436635030830297637e+03
-1.550825774398785370e+03
-2.847022802632694948e+03
1.745803877078820278e+03
2.161658391593100987e+03
4.199579949570878853e+03
3.478670299782435904e+03
1.924106863373854367e+03
3.593148919017924072e+03
2.134779690977788505e+03
1.180778675608924914e+03
4.439255076801196992e+03
5.231463126816970544e+03
5.040557370649903532e+03
3.539629932283398375e+03
5.747595768731476937e+02
-2.315049515592892476e+03
-2.962752931585478109e+03
-1.531235311704508604e+03
2.383662343973298448e+03
4.806975822858851643e+03
4.244896423864833196e+03
2.284459236365028573e+03
1.366536927301555579e+03
5.512370798287357729e+02
-1.688368263979076573e+03
-2.339181051274615129e+03
7.010412901763048694e+02
1.794456353404214042e+03
5.249786625018047062e+02
-3.404177563702085649e+02
1.905956006743028581e+02
2.610115500105811861e+03
4.045106800595357527e+03
3.628655553633534510e+03
3.480061379294626931e+03
2.481496465232643914e+03
1.161862455600373778e+03
7.802589983170986443e+02
1.231962628347003601e+03
2.010938369021627523e+03
1.559076548443379352e+03
1.814483095584230057e+02
-1.717903514470131540e+03
-2.469998562418152233e+03
-2.136786892561961849e+03
-3.476021494166340290e+03
-4.262614005633367015e+03
-3.313609955511662065e+03
8.092063514821896888e+02
4.227708200195429527e+03
4.560358547266624555e+03
3.668344231655977183e+03
3.504719302229245386e+03
3.316680151135180495e+03
3.289129333906504144e+03
2.666851656706015092e+03
1.873897078498362134e+03
3.081094782589820511e+02
-5.678091279251008245e+02
-7.123079438408806254e+02
-1.046529789561870984e+03
-1.840179459912627181e+03
-1.396918729704455018e+03
6.025341485703950184e+02
2.443239104369783490e+03
1.706179827317060472e+03
7.192755956576747849e+02
9.471728091048456690e+02
1.253823821283995585e+03
1.778543884915495937e+03
1.577456732855997643e+03
1.400545343194635052e+03
1.816000829495068956e+03
6.505327491555495953e+02
-1.205035060043639305e+03
-3.032367839721094697e+03
-3.603057828303566566e+03
-3.166824536258155604e+03
-1.877008798734043694e+03
-4.589410208769362498e+02
6.349990457463982239e+02
-3.960120960509818815e+02
-1.344989033390434543e+03
-1.487286196405520741e+03
-1.005610981676963206e+03
-8.679422925371701467e+02
-4.212981537557033676e+02
6.179100895238601652e+02
1.843228581132433874e+03
2.288910408406582974e+03
2.587223507544266340e+03
2.285208756601389723e+03
1.391842055041950971e+03
7.300606776302189473e+02
1.330426371879876797e+02
-3.711901833654858365e+02
-8.165758990647256041e+02
-1.752648513837907331e+03
-3.696625169441308572e+03
-6.366732804567192034e+03
-7.971165069603695883e+03
-8.121194911809585392e+03
-8.080171937831976720e+03
-7.699654930358678030e+03
-7.260058306213461947e+03
-6.504655073616765549e+03
-5.981852560540482955e+03
-6.030516089548967102e+03
-5.121432095687700894e+03
-5.045461979983899255e+03
-2.864119768112645488e+03
1.175581182836026073e+03
1.982482444518763941e+03
1.667392681292854149e+03
1.525219668504349556e+03
9.949994953776555349e+02
1.501038591198924621e+02
-3.482029251338913127e+02
-6.729523137098090046e+02
-1.237941522903619216e+03
-2.236651188870325313e+03
-2.154422412957987945e+03
-1.858887892978088075e+03
-1.670741921088385425e+03
-6.679650530845067351e+02
-3.494814407129225060e+02
-9.473122756725668125e+01
3.916772175817861239e+02
1.595229412117825859e+03
2.456807469481903354e+03
2.178461633854248248e+03
2.229693563965402518e+03
1.950893321700026263e+03
1.316528971435444419e+03
9.768559493282468793e+02
7.092713137090684086e+02
9.398991858323539645e+02
9.697083588475181841e+02
4.776921325328412991e+02
-7.301437935980919747e+01
-6.653794650456153477e+02
-7.835683570511082507e+02
-5.337271149143144839e+02
-6.836496643370830952e+02
-3.639745473958003004e+02
-1.930459856233303810e+02
-1.200975529755433513e+02
6.601848043819891245e+02
1.210932856808109591e+03
1.718939276462957196e+03
1.637174724682827900e+03
1.594746850085150527e+03
1.736821790287139947e+03
1.530255051080153862e+03
9.469536112333639721e+02
-1.770601565396379442e+02
-3.967451776971096251e+02
-2.331237688949411506e+02
-8.633132820455027741e+02
-1.142312520735054022e+03
-1.021131322757762405e+03
-1.028902311393943819e+03
-7.482100135600501289e+02
1.472030676187056883e+02
5.429594133746203397e+02
7.676914963152045175e+02
1.075652749521043688e+03
1.671524008024451177e+03
2.456025969357671784e+03
2.252314886739619396e+03
2.151575294111064977e+03
2.565851100683171808e+03
2.730220421294900916e+03
2.692638109623926994e+03
2.621076401134954722e+03
1.670485155353066830e+03
8.924700259351510567e+02
4.228805444902282602e+02
-1.810900208594067067e+02
-8.603549912277392195e+02
-1.403910072883044677e+03
-1.228941647951550294e+03
-1.200854955024542051e+03
-8.058525570228680408e+02
-4.938099742354635850e+02
-1.435825817539743525e+02
3.678639080842362432e+02
6.194868292554730260e+02
6.513091040433116632e+02
7.829067315330727297e+02
5.802858762205465837e+02
1.001568713753058432e+03
1.260889409576476282e+03
7.913276512999572105e+02
2.457191182354867749e+02
3.160135462283491847e+02
6.413476469984338735e+01
-8.268440322673636729e+02
-1.616475736575946939e+03
-1.998060099158471985e+03
-2.320275974636637329e+03
-2.381822592329765484e+03
-2.495684887391996654e+03
-2.277994099204313898e+03
-1.713068274494362640e+03
-6.809772114152950735e+02
6.183781453637408276e+02
6.929283676070806450e+02
1.042394407591221807e+03
1.462814748785286611e+03
1.204549155182411823e+03
3.006049854482101296e+02
-6.801505470854746136e+02
-4.827910933980409709e+02
1.596057129055989208e+02
-6.520358043674534656e+02
-1.511758667417984043e+03
-1.571570864030327584e+03
-1.671390595664013063e+03
-2.284308629486130940e+03
-2.164488216597416795e+03
-2.452019808373073374e+03
-3.074722882027125252e+03
-3.099506578045622973e+03
-1.675687460605339311e+03
-3.253039171807102434e+02
-9.930008023606289669e+01
5.022776607743076056e+02
1.744410287475731820e+03
2.778136987180457709e+03
3.029488304957887522e+03
2.997540285002903147e+03
2.511398931176126098e+03
1.871032923536160979e+03
2.124254550439720788e+03
2.008971364023468595e+03
1.794616004488756289e+03
2.138109116224600257e+03
1.935219828680041246e+03
4.596905682583088151e+02
-5.136237023103431056e+02
-1.051774604262893718e+03
-1.201152643943479688e+03
-1.160004043636871529e+03
-1.066539917773821799e+03
-1.030379463769369750e+03
-4.507218829352153762e+02
4.004943924607109693e+02
1.051378087946190590e+03
1.661948209084099062e+03
1.500352371669192507e+03
1.151670746161422585e+03
1.720954688622570757e+03
3.288985233535981934e+03
2.500698484573788392e+03
4.285796163786337161e+02
-7.586420516243742895e+02
-1.100062498710742602e+03
-4.814424771452382288e+02
4.748349444363089447e+02
3.057758378883049772e+02
-2.765131468115538382e+02
-9.897508941848849418e+02
-4.597902159310961565e+02
9.472343057783010636e+02
9.258110201881977446e+02
2.067095735486234958e+02
8.484985664941469850e+02
1.830391645512642071e+03
2.176788523812943822e+03
1.990777624187520814e+03
2.076498427361337690e+03
2.558062646260716065e+03
2.912391520519990991e+03
3.097361000705596325e+03
2.448747026329885102e+03
2.636606638946315343e+03
2.169229859170895907e+03
-5.401304596216767777e+02
-2.308403596152754744e+03
-3.142623241324465653e+03
-3.716565268610225758e+03
-4.385221056281835445e+03
-4.084853507886790339e+03
-2.970275332598947898e+03
-2.107174609225666700e+03
4.385041329628610356e+02
2.009710772538266610e+03
6.383888818436296333e+02
-2.239275359542363731e+03
-3.517142622775646032e+03
-4.169160011722038689e+03
-5.481155001485568391e+03
-6.154026695745925281e+03
-5.814770075681105482e+03
-5.059387427828801265e+03
-4.335870679539498269e+03
-3.909028989569335408e+03
-2.920695292053723279e+03
-3.245727453564342341e+03
-4.356102760498024509e+03
-3.084866589681555979e+03
-2.323757373309004379e+03
-2.939706475056300405e+03
-1.416732760122899435e+03
-3.174078941307890545e+03
-5.617685795767751188e+03
-5.973213890296271529e+03
-5.430411374427281771e+03
-4.017244516017039587e+03
-2.734674582237175400e+03
-2.009653856096781283e+03
2.188956856016513441e+01
4.450311496643095097e+02
-5.930675554463101662e+02
1.625617352161933013e+03
1.497112955582148516e+03
-1.571474632918185762e+03
5.689440841387327197e+01
1.635222185041669491e+03
2.231415490119746664e+03
2.519474640449941035e+03
2.624680050837187537e+03
3.309245680930996059e+03
3.651163146188864175e+03
3.894403793599834898e+03
3.907989346155291059e+03
3.597042248150808973e+03
3.713603611683227882e+03
3.119709952039251220e+03
3.148519261351731075e+03
4.372173203498636212e+03
5.095770357878346658e+03
4.804252407710171610e+03
4.228569133920753302e+03
4.114636112346088339e+03
2.751416503949441449e+03
2.419955134138116136e+03
2.789440896528580197e+03
3.412883906050111818e+03
3.540225790370608593e+03
3.193466577729503115e+03
2.541696011160086982e+03
2.017917124804234845e+03
2.017077587847708173e+03
2.411153776881139038e+03
2.805199163417812542e+03
3.082276488209965464e+03
3.193448352695309950e+03
2.782824138823360045e+03
2.700374700103556734e+03
3.416059829466867541e+03
3.827917075882465724e+03
3.465968062471452868e+03
2.572213380894635065e+03
1.614688674254432726e+03
7.274585173100215343e+02
2.254642186024756825e+02
-8.547215382945566375e+01
-7.402258028668486531e+02
-1.033788168877402995e+03
-1.004188222218265196e+03
-1.470425397239667063e+03
-1.459589913647725098e+03
-1.362666445439388326e+03
-1.133710278158265055e+03
-8.187127727154082777e+02
-4.167055365665584077e+02
4.200933650398249597e+02
1.023392545970661672e+03
1.484268051246407822e+03
1.084094274991857219e+03
3.686689370692271837e+02
-4.211894569962350943e+01
1.486290034449461075e+02
1.488279220031724606e+02
-5.345713405639972962e+02
-9.655968418218312763e+02
-1.306367012247049161e+03
-1.309970526661877102e+03
-1.558471778009228501e+03
-2.227972399905330349e+03
-2.368503064394036301e+03
-2.026085609820435366e+03
-1.897795638271262305e+03
-1.343742638014982958e+03
-9.679471634568046738e+02
-5.934001662281397103e+02
-2.112019971607360276e+02
2.446323374751556230e+02
4.021301880379549516e+02
8.361967505533733629e+02
8.797108202001222708e+02
3.425466905550003389e+02
-3.903573327553986019e+02
-5.900199314000553841e+02
-5.375132129923088087e+02
-8.289443650235498353e+02
-1.504369862642152839e+03
-2.444893571670210804e+03
-1.951564227153014599e+03
-2.200466468008093216e+03
-2.676607829950629821e+03
-2.406081058229655810e+03
-2.448009781528694930e+03
-2.066439645234822365e+03
-1.721411341077162433e+03
-1.081941548987021179e+03
-3.360746205894147352e+02
5.060857440701092287e+02
6.595877198026530550e+02
7.214469890404081980e+02
9.155741214916125728e+02
9.418406399844764110e+02
7.851371024140947839e+02
5.241477922522891930e+01
-1.869392825508232363e+03
-4.971373286317009843e+03
-4.520558277127492147e+03
-2.298000807865528259e+03
-3.985894783038119385e+03
