6.769181794568794430e+03
6.691047800487075619e+03
5.576702753712165759e+03
3.631038483639243168e+03
1.502815924479151590e+03
-9.791871795878573437e+01
-1.100632049956049968e+03
-2.061797004375224788e+03
-2.992773740665097648e+03
-3.768521008835563407e+03
-3.919428668786623348e+03
-3.131272608981460053e+03
-2.271205291127042528e+03
-1.293514250267306579e+03
3.402565101672605579e+02
1.808341153567045694e+03
3.599325318402049106e+03
5.158176879205609112e+03
5.875654778850162074e+03
6.063434171663300731e+03
6.003341790396869328e+03
5.456680123583830209e+03
4.687338751894544657e+03
3.315849342055158104e+03
2.211731510520418851e+03
1.701537778867205816e+03
7.268943571913951018e+02
-6.066690738129352667e+02
-1.487511583942565721e+03
-1.903086703834377886e+03
-1.692875387120174310e+03
-9.323595588844169697e+02
4.202961984212720381e+01
1.491878629092415395e+03
3.003755974596207125e+03
4.103211611390423059e+03
5.336838622461870727e+03
5.144353433270498499e+03
3.065330536880428099e+03
1.534304898197117382e+03
2.058903626102313865e+03
2.505592903138857764e+03
2.028769190500598825e+03
1.062963572465490870e+03
-1.993761971679566614e+02
-1.725871183066353524e+03
-2.496085932175130438e+03
-4.054611570843023401e+03
-5.615842599576504654e+03
-6.055316300370866884e+03
-5.980573705891874852e+03
-5.624969149064603698e+03
-3.002964182601825996e+03
-1.598962561234541681e+03
-2.080373522550044981e+03
4.904137688145195284e+02
3.719038464926735287e+03
6.626159011690125226e+03
8.108337757851473725e+03
8.648181375016376478e+03
8.595207349182526741e+03
7.903823557451752094e+03
7.382582007919965690e+03
6.718006429392971768e+03
5.010657349467413951e+03
2.920067554212754203e+03
1.219769007688736792e+03
1.888245187896162406e+03
-3.299458661961216990e+02
-3.470130076141961581e+03
-4.167567912420883658e+03
-2.912648837066444685e+03
5.163337122220506217e+02
9.640820517959822382e+02
6.843283926839237665e+02
1.662854971697648125e+03
3.763378067950490276e+03
5.700625207841449082e+03
7.030341684235830144e+03
7.840204650253673208e+03
7.593996250159689225e+03
6.710449029238489857e+03
5.904209413362859777e+03
4.163907237013045233e+03
1.776248222356633505e+03
-2.940114405345957493e+02
-2.504073158373431852e+03
-4.927202944127870069e+03
-6.241589137926495823e+03
-7.252403885445829474e+03
-7.899859545035643350e+03
-8.030164391046016135e+03
-8.027401059114587952e+03
-7.629580250784027157e+03
-6.578777740687647565e+03
-5.370055091294700105e+03
-4.214386609896532718e+03
-2.581852964696870458e+03
-1.965542194966967827e+03
-1.986482892192180998e+03
-1.884635654351627863e+03
-1.827040237951065365e+03
-2.435425435625597402e+03
-3.022034391152649278e+03
-3.617064938672163862e+03
-4.636445821766212248e+03
-5.304424269536545580e+03
-5.952273007368361505e+03
-6.387820576240914306e+03
-7.047914391528975102e+03
-7.813428251975443345e+03
-7.738272869238116982e+03
-7.036506379060436302e+03
-6.330040923666297203e+03
-4.788704831303602077e+03
-2.695338717078576337e+03
-1.127545021473858782e+02
2.847946142987113944e+03
4.764131406589265680e+03
5.655984817394573838e+03
5.409417526988740974e+03
4.391585682815233667e+03
3.748030336995296238e+03
2.870381758296573025e+03
1.030319273752525987e+03
-1.110661948244120595e+03
-3.187265968605059243e+03
-5.108389319554609756e+03
-6.058089859251746930e+03
-6.680270507690495833e+03
-6.217623032531443641e+03
-5.121893273624619724e+03
-3.792988498672449168e+03
-2.246842151074786216e+03
-1.028241122382725507e+03
1.271242359669986854e+03
3.500976304601852917e+03
5.425189764825852762e+03
6.576130563731038819e+03
6.955994324902132576e+03
6.907922043319285876e+03
6.533157666487841198e+03
5.625917307580247325e+03
4.131390822903646949e+03
2.447634984210141738e+03
8.287241413543407589e+02
-4.891676307111748088e+02
-7.457100547824094292e+02
-8.036203919745673829e+02
-6.227834904525749380e+02
-1.278145712874964374e+03
-1.722547081992980566e+03
-1.005825854629626065e+03
6.193043251783965388e+02
2.670174502543344261e+03
5.421113214516958578e+03
7.791323891530279980e+03
9.048943391939576031e+03
1.002827775689080590e+04
1.081358156669118762e+04
1.124415841638913844e+04
1.095034299346250009e+04
9.789256789361283154e+03
8.568841418081085067e+03
6.754234835948389446e+03
4.163702139114135207e+03
9.763894893987093155e+02
-1.838634413166788363e+03
-2.449700115754382296e+03
-2.419781598979147475e+03
-2.603466735331798645e+03
-1.629422811587955948e+03
-1.255379085044101430e+03
2.058959058643112257e+03
5.694735668851627452e+03
6.790225360156438910e+03
8.549540345977482502e+03
1.154883840607698949e+04
1.291431207233308669e+04
1.346212788750400068e+04
1.345529906099071923e+04
1.273677686237749549e+04
1.101658875275603168e+04
9.292860074433829141e+03
7.587628115516688922e+03
5.156895108102546146e+03
3.217650246545879327e+03
1.687917912818982131e+03
4.087495508523430203e+02
-5.297225363292021711e+02
-5.903296215369568927e+02
-5.851302891939883466e+02
2.638207726110383078e+02
1.462647609425854171e+03
2.593567908494231233e+03
3.975669050120649445e+03
5.356158773617852603e+03
6.199178044181055157e+03
7.446531934208375787e+03
8.252094180871563367e+03
7.541135051610291157e+03
6.405790121495088897e+03
5.134922815951834309e+03
3.085493827554019845e+03
6.335023995217698030e+02
-1.298005947559010110e+03
-3.006678823482153803e+03
-5.003751900884827592e+03
-6.515589730953450271e+03
-7.551443405075791816e+03
-8.572644551443918317e+03
-8.959122069820101387e+03
-8.722778548745105581e+03
-8.145730335788488446e+03
-7.102821826332689852e+03
-5.592898590554967086e+03
-3.927006774691875762e+03
-2.219251882857860892e+03
-1.037732175365165631e+03
4.648758824381906152e+01
9.835749934317442467e+02
1.060600499604088100e+03
5.573001990886045860e+02
-1.442598692721825728e+03
-4.307226767079317142e+03
-7.325523359080831142e+03
-9.591519376018954063e+03
-1.144339539945644356e+04
-1.338323511687597966e+04
-1.397718065922037204e+04
-1.395342558952486979e+04
-1.382893776942575823e+04
-1.323376996213816346e+04
-1.208694759362300101e+04
-1.063943712505193253e+04
-8.796253054402897760e+03
-6.836548721540826591e+03
-5.942297255684689844e+03
-5.877398725491684672e+03
-6.093838044537481437e+03
-8.739525544864098265e+03
-9.393449158982135486e+03
-9.267753020557043783e+03
-8.282466734332778287e+03
-1.177556012036730499e+04
-1.444898253947575358e+04
-1.318085769434505892e+04
-1.521133864786740196e+04
-1.556257456453691884e+04
-1.541159318006115791e+04
-1.789732160434144680e+04
-1.449184606884373716e+04
-1.197519234385341952e+04
-1.193730228385984810e+04
-9.498089360750496780e+03
-5.584441941881798812e+03
-2.687222306131304776e+03
1.789622935131561690e+03
3.245124358747072620e+03
4.679379468529966289e+03
5.629478413607351285e+03
6.682414001753902994e+03
7.061480408217542390e+03
5.559956423011816696e+03
1.681081577142999095e+03
-1.065837395647081394e+03
-4.368883138644686369e+03
-4.703285184614698665e+03
-4.395165639695596838e+03
-3.555322163313020610e+03
-5.009666525582957547e+03
-4.927354355406723698e+03
-4.876530616001551607e+03
-1.321141187815205058e+03
2.461074064941456982e+03
5.183170395205451314e+03
7.383992764771068323e+03
8.182453651024513420e+03
1.177251049577259982e+04
1.354403935106065728e+04
1.438598692872297215e+04
1.418246099628110824e+04
1.314011036367076304e+04
1.091345044121941828e+04
8.838516110229156766e+03
6.844212463790589936e+03
4.696571917672999007e+03
2.803841419201512963e+03
1.335833026034163822e+03
2.113359787225973605e+02
-1.135557056798727444e+03
-2.500013538014474307e+03
-2.629041878815924974e+03
-1.236649349886564778e+03
3.222153643868880977e+02
1.751558084224810273e+03
4.026380031800811139e+03
6.701574431052968976e+03
7.736976288649416347e+03
8.102561672443163843e+03
8.245215333591451781e+03
8.099881811080793341e+03
7.150435043713808227e+03
4.601329507330445267e+03
1.950322343784338045e+03
-1.992598726059410126e+02
-2.338883732498665722e+03
-4.245028249227741981e+03
-5.984158030933144801e+03
-6.892846738791597090e+03
-7.582056256351715092e+03
-7.474856408020000345e+03
-6.529286487360424871e+03
-4.686526929798232231e+03
-2.727719221051348541e+03
-4.196875931111644604e+02
2.188426412069044545e+03
3.294738647286974356e+03
4.296865827720518610e+03
5.096744299412463988e+03
5.972345194511402042e+03
6.703602442897290530e+03
6.500425437454270650e+03
4.552422872285426820e+03
1.590245862313237922e+03
-1.124936916358512235e+03
-3.195283683958738038e+03
-5.205264005122215167e+03
-6.716459153387027982e+03
-7.329150337280158055e+03
-7.426317079700707836e+03
-6.969246169984212429e+03
-5.753940068578257524e+03
-3.684647341873960613e+03
-1.053511230847733486e+03
1.334244035128351015e+03
3.877548747749324320e+03
6.373333867953808294e+03
7.951596384660801959e+03
8.577401002789665654e+03
8.679648986880407392e+03
8.007395798390103664e+03
6.887641560884126193e+03
5.038270764746917848e+03
3.034159856893661072e+03
5.121657651765304990e+02
-1.557752584263715789e+03
-3.888644085208784873e+03
-5.908519213854377995e+03
-6.624413678164344674e+03
-6.711283074668107474e+03
-6.591136343533798936e+03
-5.425835718558356348e+03
-3.770249100616787928e+03
-2.420385392217940989e+03
-1.328032790679807931e+03
-4.149778525367875659e+02
-3.030389570499853562e+02
1.920990601784096498e+03
3.327357051979952303e+03
3.523290733928431109e+03
5.080989423904647992e+03
2.882654150983857562e+03
-2.783651523690508384e+03
-6.081813426986504055e+03
-8.003645253788883565e+03
-9.351903957602948140e+03
-9.632296922851784984e+03
-9.560649253647241494e+03
-9.769754522742116023e+03
-9.916368093533264982e+03
-9.366312887841448173e+03
-6.954304932769287916e+03
-6.947025782553780118e+03
-6.728208889210251982e+03
-5.164509139085301285e+03
-3.158401421917552398e+03
7.656429669228136845e+02
7.097934974836689435e+03
7.333898461069262339e+03
3.720069995835940517e+03
2.403843764606596778e+03
3.056549060466298215e+03
3.551633557989091969e+03
1.130429567970402104e+03
-2.161776809669765953e+03
-4.288701986728147858e+03
-4.621116469979656358e+03
-4.787679297249283991e+03
-7.072127815342307258e+03
-9.497139146639736282e+03
-9.640301837609869835e+03
-7.649309550016871981e+03
-5.441746915763593279e+03
-3.552287997292991349e+03
-1.751545204615691546e+03
-5.550479222137307715e+02
1.240658027512406761e+03
3.261977657895155517e+03
4.922266417962083324e+03
5.119893456190484358e+03
3.322220968235411419e+03
4.205368383005177293e+02
-3.980285122835015841e+02
1.906483427148532712e+02
-3.102714853162174791e+02
-2.169596338956222553e+03
-4.320145794038576241e+03
-6.740677531882029143e+03
-8.682056834008888472e+03
-9.777258888360287528e+03
-9.469285822225287120e+03
-8.811078099674361511e+03
-9.297467511216489584e+03
-9.198197097002872397e+03
-8.621124059235367895e+03
-7.267005293250020259e+03
-4.097680239656052436e+03
-8.569585980081394609e+02
-7.776108251562254736e+02
-9.925168152925162985e+02
-1.496756466455382224e+02
1.489061080132478764e+03
3.165891455785903872e+03
-1.285120845365232753e+03
-8.572171740879524805e+03
-1.364544980621543073e+04
-1.681099322510001002e+04
-1.873598718908697265e+04
-1.862248338032072206e+04
-1.818762447595969934e+04
-1.577043648557524648e+04
-1.407672397609640575e+04
-1.151608231908749440e+04
-7.854939620509977431e+03
-3.971211816647972228e+03
-8.081001857587485802e+02
5.943369982876387212e+02
1.987964900829033695e+03
3.613609474334758033e+03
4.567139704644741869e+03
4.428292977984881873e+03
3.044788698781344465e+03
1.445320219138094672e+03
-4.404188417449685176e+02
-2.108873452561418617e+03
-2.542486059614851001e+03
-4.186780133280858536e+03
-6.803127376084014031e+03
-8.174998079619605960e+03
-7.709885367806039540e+03
-6.613122072716552793e+03
-3.001109199749284016e+03
2.480762399489656673e+03
5.304109370751781171e+03
5.295266630291144793e+03
6.632704817816238574e+03
9.509165922662305093e+03
1.105927184952982134e+04
1.183660538700956022e+04
1.205085954830245282e+04
1.317763795664350073e+04
1.939733548564483499e+04
2.443943505581292629e+04
2.649343637467515509e+04
2.669982192009712526e+04
2.345792941101577890e+04
2.177209484397902997e+04
2.202874039289319626e+04
1.993131811352106888e+04
1.971742866335059080e+04
2.221362218787521488e+04
2.536530737753404901e+04
2.789699164430458768e+04
2.918828076600989516e+04
3.009178664439687782e+04
3.369108912393725768e+04
3.982585262619789864e+04
4.336874310479640553e+04
4.382648610431998532e+04
4.296797482957776811e+04
4.289005069689684751e+04
4.311250356789963553e+04
4.277104428267050389e+04
4.214433450150372664e+04
4.053413709974781523e+04
3.633808035160815052e+04
3.400999412993974693e+04
3.224170560854456198e+04
3.098297692730779818e+04
3.096759395593847148e+04
3.102341151564495885e+04
2.952221495252074965e+04
2.826089401048995933e+04
2.739344566902529186e+04
2.591583308651878542e+04
2.580996621221098758e+04
2.617629009347449028e+04
2.581678479175363827e+04
2.510942039082585325e+04
2.448705673893053608e+04
2.432105127872495723e+04
2.327344061845057513e+04
2.105717109124345006e+04
1.705026191051748901e+04
1.223699576329465890e+04
8.634497769302370216e+03
4.213862471941363765e+03
-7.731163290497488561e+02
-5.212288453154974377e+03
-9.047155125639324979e+03
-1.284854008244175748e+04
-1.600054473052107278e+04
-1.920155118299504102e+04
-2.290656290021937821e+04
-2.750602355275529771e+04
-3.345730384568929730e+04
-4.205300474424719141e+04
-4.880196732995562343e+04
-5.314546920077472896e+04
-5.548717071577528259e+04
-5.421212524533095711e+04
-5.378379983972323680e+04
-5.594757117982255295e+04
-5.929338161468645558e+04
-6.022089548791429843e+04
-5.959141531247468811e+04
-5.978431289550269867e+04
-6.175104173423063912e+04
-6.248930196312151384e+04
-5.918172854226743220e+04
-5.445283380702084833e+04
-5.077264979849801603e+04
-4.719063756104111962e+04
-4.339211751410759462e+04
-4.025335565537470393e+04
-3.742366017210920836e+04
-3.158628863893611924e+04
-2.803547273224295714e+04
-3.058241909632012539e+04
-3.336227345703970059e+04
-3.740128596672921412e+04
-4.103067576958396967e+04
-4.057971847969404917e+04
-4.112572497345721058e+04
-4.355601354737554357e+04
-4.352594893115967716e+04
-4.451370721108743601e+04
-4.505248720292965299e+04
-4.437668932640522689e+04
-4.320875374408066273e+04
-4.306098561384317873e+04
-4.165461619846084068e+04
-3.801091457323742361e+04
-3.440525489958796970e+04
-2.982084766519598270e+04
-2.495293359069623330e+04
-1.864475272375189161e+04
-1.145955275803098266e+04
-8.004657159974924070e+03
-6.652190319540212840e+03
1.238755637303414687e+03
7.455769499899194670e+03
1.092336468510254599e+04
1.090711329875416050e+04
7.405628879804010467e+03
4.531371972603061295e+03
-4.041439843708009789e+02
-1.745517828258648251e+03
-2.719351049963739115e+03
-3.753237922275417986e+03
-1.735759456539176654e+03
-2.564687907466941397e+02
4.504041441702282100e+03
5.922306751637833258e+03
8.580756992712378633e+03
1.302077262633111422e+04
1.803273110890610042e+04
2.399591348396297326e+04
2.766366922501763474e+04
3.167345162560489189e+04
3.766056675136942067e+04
4.308128487684114953e+04
4.727173279667259339e+04
4.828800316843136534e+04
5.043608013246802875e+04
5.239596126760452171e+04
5.152171570237206470e+04
5.345729166916210670e+04
5.554162382230285584e+04
5.796355938307547331e+04
5.890897881832516578e+04
6.005280225388154940e+04
6.051189790355299192e+04
6.118616699289824464e+04
6.379352798343072936e+04
6.512290967300255579e+04
6.707722946533023787e+04
7.001032737072999589e+04
7.192996564249106450e+04
7.218396117078771931e+04
7.153410708495789731e+04
7.038613121447041340e+04
6.851363531421171501e+04
6.643723272630483552e+04
6.322843238882203877e+04
5.995271842681824637e+04
5.608963327240430954e+04
5.301362114603493683e+04
5.048105195659451419e+04
4.707225438891718659e+04
4.381271370780647703e+04
4.078698293168508826e+04
3.822961651803655695e+04
3.631708352894057316e+04
3.485553198372792394e+04
3.430026697834501829e+04
3.427972995732610434e+04
3.433328177991128905e+04
3.320576546800744109e+04
3.083088269790611957e+04
2.801398820735650224e+04
2.481239257169842676e+04
2.178799415956606754e+04
1.831283092334124376e+04
1.455016445248344280e+04
1.021030665955049881e+04
5.049472653071098648e+03
1.297493440702428416e+02
-4.035016831006584198e+03
-8.130493049107346451e+03
-1.285927688942797067e+04
-1.617525456398180177e+04
-1.816842458070090652e+04
-2.162155475152118379e+04
-2.413054428194827778e+04
-2.448719439693236563e+04
-2.521591331902122693e+04
-2.685954676673030190e+04
-2.758912241052816171e+04
-2.871848923073525657e+04
-2.995926706477467451e+04
-3.194512059499604584e+04
-3.463898834099370288e+04
-3.688988152979721053e+04
-4.007659357282146084e+04
-4.356574381172601716e+04
-4.680205203969646391e+04
-4.954050753744324174e+04
-5.119011850594816497e+04
-5.306465349701142259e+04
-5.500285860246086668e+04
-5.599251709002407006e+04
-5.572033318102423800e+04
-5.445197813126211986e+04
-5.289111138187653705e+04
-5.086840301085987448e+04
-4.787828462861741718e+04
-4.431018989959691680e+04
-4.184158713776709919e+04
-3.967814810181331995e+04
-3.801151224020855443e+04
-3.628225218685356231e+04
-3.581883781947845273e+04
-3.482590162359298120e+04
-3.327405108723813464e+04
-3.243880273606470291e+04
-3.313953529007403267e+04
-3.430169298717928177e+04
-3.551474109356688132e+04
-3.640497545947675098e+04
-3.765891722084819048e+04
-3.770893558613051573e+04
-3.750037031144878711e+04
-3.691268592847942637e+04
-3.545017217633000837e+04
-3.345575080458853336e+04
-3.301952414689290890e+04
-3.261874649082139877e+04
-3.129172181539467056e+04
-2.941366079500592605e+04
-2.790526316797321124e+04
-2.789835005834022013e+04
-2.831703789478405815e+04
-2.952746676168358317e+04
-3.152478490810241783e+04
-3.125723664148036187e+04
-2.862292073407139105e+04
-2.303397291878526084e+04
-2.165924428692462243e+04
-2.213084630423518320e+04
-2.059386226862934927e+04
-1.988620275976963603e+04
-1.782874393139143649e+04
-1.529018931411068115e+04
-1.306424934694442345e+04
-9.370613445130380569e+03
-5.437825255659364302e+03
-2.178556221005796033e+03
1.424359259795549406e+03
5.759240474118423663e+03
9.143550608492059837e+03
1.173582747791690053e+04
1.309725059193220295e+04
1.448917941970129868e+04
1.566215092999969238e+04
1.597541692234851143e+04
1.724111111860669553e+04
1.926866071646115233e+04
2.231833466122806931e+04
2.624321922217810061e+04
2.832686388019755032e+04
2.914502648004520233e+04
3.088816936215960959e+04
3.311665717975449661e+04
3.574215318882211432e+04
3.973237619525815535e+04
4.452884879789279512e+04
4.845891528976360860e+04
5.240955133515716443e+04
5.609946601564416778e+04
6.016654396236685716e+04
6.275146336114870064e+04
6.292904304490143841e+04
6.203367160671883175e+04
6.030957154032079416e+04
5.945836806948163576e+04
5.918356736788716807e+04
5.761360904776090320e+04
5.543698889487796259e+04
5.369140218335804093e+04
5.172646708596117242e+04
4.924564329872099916e+04
4.708426916145144060e+04
4.421271663259296474e+04
4.121874010034206003e+04
3.899207187070302462e+04
3.718733830753019720e+04
3.565524579512531636e+04
3.425947195003094384e+04
3.190350491261311981e+04
2.905087677919342241e+04
2.516816977564151966e+04
2.213709821061185357e+04
1.942801963037977839e+04
1.641826327868244698e+04
1.333423205589395548e+04
1.072132200316671879e+04
7.605935399496527680e+03
4.824557677732763295e+03
2.242616124194305030e+03
-9.145575117922801383e+02
-5.469364789590903456e+03
-7.128204799167903730e+03
-7.171804518162435670e+03
-6.527694575957359120e+03
-6.583373317078419859e+03
-7.192378163739643242e+03
-8.028505121862593114e+03
-6.477482048222256708e+03
-9.292909225076758958e+03
-8.734346140289359028e+03
-7.449460189074358823e+03
-9.929058256870244804e+03
-1.178482428478231850e+04
-1.495748516073182145e+04
-1.739487766532110254e+04
-1.839185079035998569e+04
-2.245920179234367970e+04
-2.304783329461360699e+04
-2.558958155605702268e+04
-2.827121593269078221e+04
-2.740751500013063196e+04
-2.625920721423560099e+04
-2.798895657343385392e+04
-2.641867025170582565e+04
-2.828930555031573022e+04
-2.715714231454374749e+04
-2.463151093434605355e+04
-2.103340812765733790e+04
-2.020975656323901057e+04
-2.126150427638928886e+04
-1.960391408036108987e+04
-1.920331540872183905e+04
-1.757692454542536507e+04
-1.980382967540876780e+04
-2.172525614773012057e+04
-2.489272156060582347e+04
-2.442671625935486009e+04
-2.541450542331410907e+04
-2.772741420548881797e+04
-2.610974128700876099e+04
-2.532563143664020754e+04
-2.442639708930963025e+04
-2.356054905250830780e+04
-2.252715767387977394e+04
-2.116703064900137178e+04
-1.961237391508139626e+04
-1.744026844568941306e+04
-1.561394426223958908e+04
-1.429790875902567677e+04
-1.347234171705640802e+04
-1.396040994040072292e+04
-1.400572108355651471e+04
-1.359960222811802669e+04
-1.393746649827848523e+04
-1.505981972243341988e+04
-1.648618370032104212e+04
-1.751787678721030170e+04
-1.731435657257579442e+04
-1.731621630901563185e+04
-1.762386826457199641e+04
-1.791576801857262399e+04
-1.768034892921858409e+04
-1.688509824648748690e+04
-1.708652800559511525e+04
-1.674582366651990742e+04
-1.354799143421867666e+04
-1.035985031415227240e+04
-8.540828084294600558e+03
-7.090987443829570111e+03
-5.264361794509734864e+03
-4.027166979000900028e+03
-3.046470992266074518e+03
-2.968432003504272416e+03
-3.535928408208263136e+03
-4.233064527193065260e+03
-5.374283452818292972e+03
-6.063211739525386292e+03
-6.415997905571796764e+03
-6.390586966093157571e+03
-5.749839148831144485e+03
-4.860885667208296582e+03
-3.042500514259813372e+03
-1.341788211519793776e+03
5.167411644227314582e+02
3.167063626397572534e+03
5.501891789416868050e+03
8.656871808046646038e+03
1.178455352128482082e+04
1.424060133679748287e+04
1.523521069411993085e+04
1.561692904398735300e+04
1.644652314796869905e+04
1.668817714033351149e+04
1.680136234288809283e+04
1.620483497392721983e+04
1.544135305761716882e+04
1.454979548225147300e+04
1.354798543562619489e+04
1.305280328332464887e+04
1.270619443164791119e+04
1.276988174315809192e+04
1.386775764131338110e+04
1.508858647666546676e+04
1.592020317069757584e+04
1.696163771601107510e+04
1.886800188305710981e+04
2.083335425269546249e+04
2.253272655817524719e+04
2.367317568250218028e+04
2.360169937436048349e+04
2.335240061547178266e+04
2.361528411590483302e+04
2.308332350246760689e+04
2.190435203978888603e+04
1.917731481721402452e+04
1.615230978709114606e+04
1.399223419945531896e+04
1.328499782026498542e+04
1.262355686179047916e+04
1.109485137555463189e+04
7.830912981727621627e+03
3.789630698203473003e+03
7.449199008110331306e+02
9.980172596641448024e+01
-3.358663070439063603e+01
2.181833882273227573e+03
6.496146981439137562e+03
7.057415434977157929e+03
5.815676528616964788e+03
5.098102266294687979e+03
5.247763492004287400e+03
5.605633689750691701e+03
5.317677414427726035e+03
2.463794811160287736e+03
-1.459117920430119284e+03
-3.004106938415393415e+03
-4.121124311053075871e+03
-7.071333732485156361e+03
-6.919861315942190231e+03
-3.439653950156286101e+03
-4.528760879049040341e+03
-4.682337046583784286e+03
-3.237416234523884214e+03
-2.130927194026562120e+03
-1.018932550572409582e+03
-1.903956021778811305e+02
1.347722630852140583e+03
2.105397756140084766e+03
1.878548464529029388e+03
1.921132199911372936e+03
1.856261335546080772e+03
1.985922641047724028e+03
1.370081055378669589e+03
-1.523345433789570507e+02
-1.347541214969422299e+03
-2.620634955385318790e+03
-4.561712493676136546e+03
-7.134914825260045291e+03
-8.902413493175479744e+03
-1.000132317240632437e+04
-1.134270915340448846e+04
-1.127872400436180578e+04
-1.080750714037500256e+04
-1.000817359978727654e+04
-8.216707672547103357e+03
-5.154094929832222988e+03
-2.537294202174127349e+03
6.864670382836716556e+01
9.578235162659344724e+02
-3.708675895850180382e+02
-2.658505913121747199e+03
-3.854072824999293061e+03
-3.941458835989506042e+03
-4.178563180622120854e+03
-4.288331414617320661e+03
-6.008885998641915648e+03
-7.903259784130832486e+03
-9.424549068835718572e+03
-1.109876587765561271e+04
-1.249986074351999014e+04
-1.268082284480694034e+04
-1.153764480923365954e+04
-9.599040108902863722e+03
-7.734710937674978595e+03
-5.693618214680847814e+03
-4.238685297536357211e+03
-3.240700478638601908e+03
-1.790390101602714822e+03
-1.305146501238178587e+02
1.075179814131225385e+03
1.351968826723403026e+03
6.038974443253983964e+02
-1.271643699014711615e+02
8.577486189019414553e+01
-8.368697400959803190e+02
-2.626097966357853238e+03
-4.177875837527917611e+03
-6.451745898475910508e+03
-9.058812254144499093e+03
-1.081084488988287012e+04
-1.116550904939675456e+04
-8.967738867650408793e+03
-6.380317043238635961e+03
-6.506840516656167893e+03
-7.207982449296833693e+03
-6.951523576234405482e+03
-4.018058387867847614e+03
-1.735180147011599274e+03
-6.734747441696415535e+02
1.151440473641065410e+03
2.140883926276947932e+03
1.237249372547074245e+03
9.808956817826622228e+02
1.656121142285929409e+03
5.412637188494144311e+02
-1.616398817534423642e+03
-3.298479700884830891e+03
-4.335462486645332319e+03
-5.491953810320330376e+03
-5.819567272874897753e+03
-4.070863471120186205e+03
-2.599503357292192504e+03
-2.482066437339887671e+03
-3.975979742871575581e+03
-3.470774217244388183e+03
-5.899656054609056355e+02
2.842972659618557827e+03
6.401673887946566538e+03
9.229851058378284506e+03
9.622133182854457118e+03
7.775194327115851593e+03
6.040474571808270412e+03
5.104416134105278616e+03
4.171661118680771324e+03
4.725845565279762013e+03
5.091449179650995575e+03
3.625948457106395836e+03
1.906987339626236235e+03
9.861821672142378929e+02
8.762083361312862735e+02
1.107351803302221072e+02
-1.636662433695685195e+03
-1.050400796959594800e+03
1.882112158366411677e+03
4.170435628036188064e+03
6.612188872180099679e+03
9.162043172131405299e+03
1.160168048839139738e+04
1.383456974430252740e+04
1.443925142808257260e+04
1.430525862565824355e+04
1.440295130194126068e+04
1.392769960168767830e+04
1.201895410448159782e+04
9.437012338766582616e+03
5.022286092185919188e+03
1.161334277172752081e+03
6.546910386131124824e+02
-8.804788462527347974e+02
-2.054890330134352553e+03
-1.785320778346635052e+03
4.896091537762391681e+02
2.315362020439333264e+03
3.215335224539090177e+03
4.414692862572325794e+03
5.715114484008450745e+03
6.574790631050535922e+03
7.471942222690644485e+03
8.253056258511349370e+03
8.620232752000272740e+03
8.395744322170092346e+03
7.747680869433695079e+03
7.035050617061306184e+03
5.769165714245136769e+03
4.321815229395772803e+03
3.290196548744913343e+03
2.275424849739212277e+03
1.437202092492982047e+03
-2.050435112162688256e+01
-5.314203264478342135e+02
1.042222551240256053e+03
1.051717733495447192e+03
1.247799180665603672e+03
2.144338528795350157e+03
2.751179365665086607e+03
3.901450437295563461e+03
5.685233350179054469e+03
7.157194322017037848e+03
7.485274638979280098e+03
6.933193644089733425e+03
6.780134086032533560e+03
7.054807165988360794e+03
6.256075952944721394e+03
4.732307829487934214e+03
2.412400915182995504e+03
-6.667116568376955854e+01
-1.451645646108296660e+03
-3.537806381862160379e+03
-5.156411352976406306e+03
-5.555794915952857991e+03
-6.052303452874010873e+03
-6.663234507190987642e+03
-6.853985206653594105e+03
-6.780909958727753292e+03
-5.437260643977868313e+03
-2.857359462645444637e+03
1.744983050134086113e+02
2.469094186388265825e+03
4.263061795112370419e+03
5.812999035900731542e+03
6.874468069078227018e+03
6.537056550631035861e+03
5.594327507906584287e+03
4.478745028012347575e+03
2.787746533018845184e+03
7.168872470082355903e+02
-1.215318487681928445e+03
-3.297382622430485299e+03
-4.840849505037488598e+03
-6.421279371635849202e+03
-9.038993100360876269e+03
-9.437488815971952135e+03
-8.409462849554471177e+03
-8.526364715736066501e+03
-6.725570841607874172e+03
-3.842525596010714253e+03
-3.343699840008443061e+03
5.244869850295043534e+02
4.137489612184666839e+03
3.494848187137376044e+03
5.619095677206558321e+03
5.843684019589792115e+03
4.853128673377722407e+03
5.523790780216236271e+03
1.281989665468111980e+03
-1.064777973341782172e+03
-1.080646962795469079e+02
-3.388494339890014544e+03
-3.443642434589829463e+03
-4.765015441326757355e+03
-4.618256102860349529e+03
-3.839973857129260523e+03
-1.100547506865557580e+03
-6.542563700191716691e+01
-7.230819189750163787e+02
1.245077965995605382e+03
1.588775228135664292e+03
1.581590999539520681e+03
3.690991532048587032e+03
4.417572479740289964e+03
4.850867246280005020e+03
5.115428659939412682e+03
4.580807366758501303e+03
3.810501760014556112e+03
2.386042415261487349e+03
1.937930682104158677e+03
1.676728658312179732e+03
4.699544728892650483e+02
-1.878919539415652480e+03
-4.131224544629264528e+03
-5.781264576870733435e+03
-6.693379285767039619e+03
-7.023943828606687930e+03
-6.802316694440569336e+03
-5.983780620244654529e+03
-4.840503475686571619e+03
-3.012594699392877828e+03
-7.131893215396200958e+02
1.039409427798475917e+03
1.611894810702535096e+03
2.215119720486102324e+03
3.428158479679570064e+03
3.531850770864060905e+03
2.523644480343700707e+03
1.116895774654654588e+03
-6.944143119374364232e+02
-1.754237357809259038e+03
-3.236607328233793851e+03
-5.115606595724861108e+03
-6.414393238054623907e+03
-6.877228901182616937e+03
-7.568182954979897659e+03
-7.815544996302111940e+03
-7.843495240180975998e+03
-7.327927060601135054e+03
-4.844700052995989608e+03
-1.173833717163317715e+03
2.194570541808083362e+03
4.602632531574883615e+03
5.997080801890601833e+03
6.804897750219757654e+03
7.077299492284617372e+03
7.185084776183739450e+03
6.452148145526086410e+03
5.512614767227461925e+03
3.740191658456931236e+03
2.063542069976336279e+03
8.111797759288386942e+02
-7.413074684404592745e+02
-1.963165176048215244e+03
-2.637098025664647139e+03
-2.567153229964796992e+03
-1.240209456653552024e+03
-6.718264551871656920e+01
-1.088943617877109631e+02
1.288356331619433490e+02
1.366147219115741336e+03
2.598321216637357338e+03
4.145542363895267954e+03
5.976872569156658756e+03
6.942456081405126497e+03
7.178457461648084973e+03
6.570947891608237114e+03
5.475004200740673696e+03
3.938806777336809773e+03
2.644461630342792887e+03
1.707965037165668491e+03
1.734693855712833681e+02
-1.238931961900656006e+03
-2.448072838204906475e+03
-3.576724923655199291e+03
-4.024683140105376879e+03
-3.632958426660002715e+03
-2.982346533029679904e+03
-1.675561144127852231e+03
-6.022576639040976261e+02
6.350062370128950988e+02
1.942669728763864669e+03
3.301885336985426875e+03
5.441773333861810897e+03
8.224551503835091353e+03
9.611379463462642889e+03
9.609564507575101743e+03
8.677287605074805469e+03
6.782713799820416170e+03
4.636038076796367022e+03
2.196458339423524194e+03
-1.022941875788839866e+03
-3.861120158683880618e+03
-4.685885823698360582e+03
-5.626009958784313312e+03
-6.524267422020140657e+03
-6.561347780751048958e+03
-6.300904387256407972e+03
-5.354663449848329037e+03
-4.040341786086042248e+03
-2.284587699938158039e+03
2.549388639492543120e+02
