2.012162924797145934e+03
1.830246878733584936e+03
8.642320941345469691e+02
-5.074158456728910238e+01
-6.545708106936129980e+02
-2.541065794469940613e+02
-5.032423265354764226e+02
-2.889864809430589432e+00
7.329200149652606342e+02
1.622148088571964081e+03
3.047832502318952265e+03
4.110031595533482687e+03
4.348933521922876025e+03
4.225707814507017247e+03
3.005292308624999350e+03
2.212664313447127370e+03
2.449977944386004310e+03
2.093315442253678611e+03
8.806051566990953461e+02
7.428087744584659049e+02
1.529187435700566766e+03
1.475948603545541573e+03
1.595613659133171268e+03
2.140056435454852817e+03
1.800376498907128052e+03
1.346696321480453207e+03
1.140013867376466351e+03
1.416323805727693525e+03
1.505815217715628023e+03
1.108486630553904888e+03
1.340240883703492500e+03
1.713329563082548930e+03
1.430916675680404978e+03
1.737000722295175592e+03
2.024716412491835399e+03
1.621910945108689702e+03
1.079069105962107642e+03
6.281137758387536678e+02
1.370189062492934795e+02
4.878017605846560656e+01
-3.766567963115914495e+02
-9.202314290803208223e+02
-7.597607414324426145e+02
-4.012071163458734873e+02
-3.469873688729581573e+01
2.059033587479461005e+02
4.374666759389444906e+02
6.290208232668122719e+02
6.965569878063864735e+02
6.871194462456780911e+02
8.278151980547909261e+02
8.266149653506325876e+02
7.506363848877421105e+02
5.789821708635882942e+02
6.526280370981329497e+02
1.021584284814494367e+03
5.339444446310568537e+02
-5.271975316024658014e+02
-1.104880442464360385e+03
-1.174058499730615040e+03
-1.268704478385128823e+03
-1.461779697387926717e+03
-1.084177982246951615e+03
-7.808589077974122574e+02
-1.004959764291917963e+03
-4.756002985636337712e+02
-6.189441058134048035e+01
1.642005274988484018e+02
4.385411200640405696e+02
5.061153691774070467e+02
7.722085280806757055e+02
6.210056602410126061e+02
7.856405989649617823e+02
9.361787954691960749e+02
4.847347206177608996e+02
1.642313911669231459e+02
-6.445862713806894817e+01
-2.993628089090516937e+02
-4.824834235544960279e+02
-2.874330619942029941e+01
-1.423358077843517435e+02
-6.645570245554384883e+02
-5.172715676495816979e+02
-1.873303372489799358e+03
-4.544677855189808724e+03
-9.477493176102600046e+03
-1.095698521630074902e+04
-9.784462881930066942e+03
-9.006135277136943841e+03
-8.431807593327341237e+03
-8.466143123743886463e+03
-8.325879925668486976e+03
-8.164860946691810568e+03
-6.481355972065071001e+03
-7.558596851026612967e+03
-6.876373497505560408e+03
-3.807666759351323435e+03
-4.349224858722952263e+02
1.586494229575672307e+03
1.953883000502141613e+03
1.621284415118454490e+03
1.546432302228152139e+03
1.295242988763558969e+03
1.609391223902241791e+03
2.305591937007932756e+03
2.602668055182684839e+03
2.558846475375638875e+03
2.160365010375518068e+03
2.462456715844379232e+03
2.883065182730696961e+03
3.248086913204760549e+03
3.477674170982773830e+03
3.769951938226889069e+03
3.810873323054150205e+03
3.511476196485853052e+03
2.960802282738131908e+03
2.755815748460227042e+03
3.173329781453737723e+03
3.303895566784885432e+03
3.241085333890257971e+03
2.496828687296247153e+03
1.475020401894116276e+03
1.893706048051560174e+03
2.963594761180789192e+03
3.710784246751865339e+03
4.077547664852532307e+03
4.083978247058389570e+03
3.961120736716364263e+03
3.958818686324819282e+03
4.189960719914209221e+03
4.575424117093749373e+03
4.756524376391840633e+03
4.408349821397098822e+03
4.342593151346412924e+03
4.827252765921411992e+03
4.778377186206732404e+03
4.145832791697021094e+03
3.496587983863609679e+03
2.346722958805601593e+03
1.938260445158986386e+03
2.197128897788955783e+03
2.269279069398566662e+03
2.382708912317977592e+03
3.236305620172078306e+03
4.277029520008377403e+03
3.689721548052443723e+03
2.558045279939181455e+03
1.878377622657686970e+03
1.153225607586454998e+03
3.143056022290419378e+02
9.485092090301026246e+02
3.368981189832329164e+03
5.342773491641950386e+03
5.618840913283599548e+03
5.402148125902710490e+03
4.747573599469715191e+03
3.857947130239648232e+03
3.255231280213512036e+03
1.728234182705705507e+03
-2.250023949908540544e+03
-6.639398163074924014e+03
-9.733896798365816721e+03
-9.833521630492663462e+03
-9.962917921130345349e+03
-9.789464040578674030e+03
-8.623181073924873999e+03
-7.199982125950061345e+03
-6.970924922663554753e+03
-6.873322260812990862e+03
-6.316354448022534598e+03
-4.664657250296011625e+03
-4.356211000914284341e+03
-5.298148195371526526e+03
-5.090318497669573844e+03
-1.153759226625912561e+03
-4.704991513449307945e+02
-4.985467209743786952e+03
-5.125399474253266817e+03
-5.912502379167698564e+03
-6.262031515705348284e+03
-6.529830840963706578e+03
-5.834946809342724009e+03
-4.932401280925618266e+03
-5.162207407667781808e+03
-5.164224232532231326e+03
-4.553351681016715702e+03
-4.217573470744206134e+03
-5.257832127239459624e+03
-4.808005009256804442e+03
-7.401678474715397442e+02
-1.856223009451246298e+03
-6.070247274270967864e+03
-6.052261053148522478e+03
-6.281149767416099166e+03
-7.870921237487016697e+03
-7.772578630697810695e+03
-6.579188931596308976e+03
-6.529716346814103417e+03
-1.000283791731354086e+03
2.867241623069368416e+03
3.623954326776296512e+03
5.947794804950945945e+03
7.299780581480556066e+03
8.129104282273515309e+03
7.181920978092354744e+03
4.289120246781671995e+03
5.935946841131541305e+02
-5.375742066236186929e+02
3.969099342446608603e+01
-7.215840479256854678e+02
-6.063040458230615286e+02
5.259286328950799998e+02
2.984042332441390954e+03
5.713952601356475498e+03
5.779413825353500215e+03
5.884366666135440028e+03
6.562887116806952690e+03
4.478141596505417510e+03
9.443248954149465817e+02
-1.302993682539879273e+03
-2.806156872104669674e+03
-4.900364115184979710e+03
-2.860309300535140210e+03
2.651866510198267406e+03
6.497121885032710452e+03
7.075170117900218429e+03
5.454788972332559752e+03
4.615785227787930125e+03
5.352035242694404587e+03
6.275609259410056438e+03
5.327652143968750352e+03
2.284506515425589441e+03
1.287750940915558715e+02
1.012578977246699196e+03
2.742938238808716051e+03
1.059782691726470830e+03
6.598557658793899918e+02
2.384564291469467207e+03
3.478747686512033397e+03
4.969236022415188927e+03
7.030360885750700618e+03
6.774029016608651546e+03
4.888260338263846279e+03
3.618824673043561233e+03
2.537307605171644354e+03
1.258332916839514610e+03
7.578741221724093293e+02
-6.440039022424698487e+02
-1.360228384470486844e+03
9.603112074214715221e+02
4.020410385984587265e+03
5.770768790425917359e+03
5.610572017268246782e+03
5.089744265117046780e+03
5.292304594415344582e+03
5.895362902852726620e+03
5.172112522014152091e+03
3.631237537989642533e+03
1.774763034875570156e+03
5.768332977263893326e+02
2.844448492237653170e+01
3.935620019725459429e+02
1.054089224182408088e+03
2.414124461199410234e+03
3.577582158432488995e+03
3.485445450028212235e+03
2.749692859573750411e+03
2.266281021193539345e+03
2.615170665754286802e+03
3.786430511778369237e+03
3.896102861934776683e+03
2.745261713495108324e+03
2.326900748011903488e+03
3.098917879157633251e+03
2.625368702961396593e+03
2.943256370308245664e+02
-2.804285014561733988e+03
-7.536511134471064906e+03
-9.200330574820112815e+03
-1.022778358375302923e+04
-1.056993475192632832e+04
-9.575736256021122244e+03
-8.644172296645019742e+03
-9.330267879590561279e+03
-8.460049673656903906e+03
-7.409537632936960108e+03
-7.268706514893449821e+03
-7.787470098078647425e+03
-7.467807341295502738e+03
-7.663691315886792836e+03
-5.516225869392029381e+03
-3.592441842109279605e+03
-7.401317730841773482e+03
-7.946836870342905058e+03
-7.875020589963741259e+03
-7.373874573107294964e+03
-7.630413275466345112e+03
-8.266621893801209808e+03
-7.863473211266369617e+03
-8.099045214857142128e+03
-6.663354937632270776e+03
7.156752221780723744e+01
1.679744224994243041e+03
2.048211738044594767e+03
2.006997544116509061e+03
1.868106034112188127e+03
2.023558345416063503e+03
1.867328708331738198e+03
2.268418596015520052e+03
2.939843095232761243e+03
3.390639651956524631e+03
3.627736030213135564e+03
3.704146862669489565e+03
3.435948510821601303e+03
2.948217346911578261e+03
2.717886268069360085e+03
2.334970971743309747e+03
1.965458573943702959e+03
1.376382926764790454e+03
9.106602806482218284e+02
7.682700371762916802e+02
8.923271912926293226e+02
6.607870639037670344e+02
1.201632639744154631e+03
1.667884433324898509e+03
1.569566682694684914e+03
1.861723512076579027e+03
1.785314095511809001e+03
2.200390183880566383e+03
2.429981393904656670e+03
2.972111737423244449e+03
3.373810168694581080e+03
3.504044210411993390e+03
3.460892736496267844e+03
3.405371762773516366e+03
3.370441536731049382e+03
2.917044619368034091e+03
1.543261029058342274e+03
5.081548914895054736e+02
9.870967169756156068e+01
-5.805516823615805322e+01
1.937229603899097263e+00
-3.100788086834365913e+02
-8.099349914883766814e+02
-1.347218790106971653e+02
5.106341425531429650e+02
9.240927849774177503e+02
1.317758179688439895e+03
1.055610401754755685e+03
1.276764069124219247e+02
-9.249731626915366434e+00
9.810156892970986746e+02
1.412455196272502690e+03
9.720532305814017491e+02
7.328218646679235917e+02
3.093906192385219356e+02
3.178169738804612621e+01
-3.509933968544646632e+02
-1.085934239922718916e+03
-1.762058392400648927e+03
-1.862373676240839131e+03
-1.556930064427288471e+03
-1.303746810925054888e+03
-1.021764287803785123e+03
-6.939298029213803147e+02
-3.682984492425365488e+02
-1.558864529282134868e+02
-1.436555387985522714e+02
3.342194985005446028e+01
-4.165821499884308565e+01
-5.898843636751851136e+02
-4.642222603665341012e+02
7.331972707646744425e+01
1.167371149494638729e+02
-2.390166253344885092e+02
-4.519461316121091841e+02
-6.440665931091355105e+02
-7.523181008248228636e+02
-5.876823290705409590e+02
-1.045240326376840358e+03
-1.788099248486797023e+03
-2.055261303030436466e+03
-2.046713488618617248e+03
-1.585460168608057757e+03
-1.607465049754544680e+03
-8.637651541572661245e+02
-2.343846113846240939e+02
-7.993490591390507234e+02
-9.696120391060811698e+02
-1.011147943965141621e+03
-8.679980486991883026e+02
-2.602666665091646223e+02
6.450667186250685745e+02
1.050034677336212553e+03
2.696612981737343375e+02
-5.350755967842990231e+02
-7.512279280510146009e+02
-2.139013544631057471e+02
3.418684209535848026e+02
6.430542559213779441e+02
2.825858100242916180e+02
-4.066061296561098288e+02
-3.092467653566141053e+03
-3.868954428378230659e+03
-7.441009671357604702e+02
-3.809829479779679104e+02
-3.475846241324054517e+02
-7.195157543540106815e+01
2.646352187045296205e+02
5.161358064805425556e+02
1.213664794108548449e+03
1.602237397306927051e+03
1.611796871502562681e+03
1.292284880635874742e+03
5.566399968759309331e+02
6.891238602533353514e+02
1.513868654429409162e+03
-2.061333936529274524e+02
-4.056988844020769648e+03
-6.309391180117264639e+02
7.330010149855569352e+02
6.677282503518453041e+02
5.011088934499019842e+02
4.340234042395608753e+02
6.594842011312351815e+02
1.195470097323730670e+03
1.434950454383768374e+03
1.529769659437766450e+03
2.538975047596699824e+03
3.049589677091329122e+03
2.760426162184532132e+03
2.571152091547290183e+03
2.432889379263112460e+03
2.753017434756276543e+03
2.845306068950748340e+03
2.795748196091662976e+03
2.646202753717614542e+03
2.058596456860654143e+03
1.591855848852474992e+03
1.092915341093115330e+03
1.251796965880385187e+03
1.488394736531042099e+03
9.496229800336700464e+02
1.032445043510208507e+03
1.578936653993374193e+03
1.701967744689981373e+03
2.375200791227110585e+03
2.603966126621722196e+03
2.547538502207138663e+03
2.423607755939878643e+03
2.428134458124596676e+03
2.943207694699176500e+03
3.388694269155825623e+03
3.507466367960239040e+03
3.431561175459338756e+03
3.239465954866992433e+03
2.783181272388158959e+03
2.244906785418909294e+03
1.521482160270400755e+03
1.766900813102568691e+03
1.790138539597277259e+03
1.561333749857632029e+03
1.344653837426345035e+03
1.374230491410340164e+03
1.439954748554065645e+03
2.069719225009210277e+03
2.218652963897392965e+03
1.494644883160455947e+03
1.554629259426894123e+03
1.995516303632193058e+03
-8.408024390609692773e+02
-6.256147294478324511e+03
-8.899539458895860662e+03
-7.676963510946090537e+03
-6.048234705680101797e+03
-5.760178556362125164e+03
-6.025781681786834270e+03
-4.025112678261756628e+03
-5.119998902819887917e+03
-6.550764533564395606e+03
-6.980976311309478660e+03
-7.372200184896621977e+03
-7.404122686711953975e+03
-6.612769300556754388e+03
-5.750150276136029788e+03
-5.073303643361609829e+03
-6.231783874485903425e+02
-3.098596188594892737e+03
-5.418324774524271561e+03
-5.970339390156035734e+03
-6.263855984823041581e+03
-5.760897729959086973e+03
-5.292165409877382444e+03
-4.957669586708271709e+03
-4.502558828644171626e+03
-4.129783543063277648e+03
-4.507388759148729150e+03
-4.946389267120624027e+03
-5.095587890054101081e+03
-5.605793700001105208e+03
-4.559964434992455608e+03
-1.480057501235777409e+03
-4.597962705132757947e+03
-6.315621472164987608e+03
-5.728894441684690719e+03
-5.948794444624549214e+03
-3.921507062926652907e+03
2.685931610147319589e+03
4.080642921560548984e+03
4.796802936127409339e+03
3.056509250683687696e+03
2.199753552218674486e+03
5.594538325914479174e+03
5.299007383382898297e+03
4.633295263695856192e+03
4.839548622387858813e+03
4.854823964306807284e+03
4.536071273631381700e+03
3.871290857616982976e+03
3.795495900593165061e+03
3.396630714745636851e+03
3.153780091473483935e+03
3.010103945304842910e+03
3.215684238059626750e+03
2.922538412497983245e+03
2.863696882788421590e+03
3.071123360366207635e+03
3.033974078687245310e+03
3.155431332599933285e+03
2.990480013061389400e+03
2.987079009824104560e+03
2.927319571022292166e+03
2.897275495576569483e+03
3.424026514339129790e+03
3.696853375156460061e+03
3.780998995886367084e+03
3.639572093462829343e+03
3.287566263963481106e+03
2.919833487403279378e+03
2.362387751467346789e+03
1.912424771313866358e+03
9.678636026323160877e+02
-4.103823008888881532e+02
-1.512820130124377442e+02
8.313445991709673990e+02
1.851436518554010263e+03
2.411022479054552605e+03
2.839107104154140416e+03
2.986662764011332911e+03
3.204602803418271833e+03
3.211044950814658023e+03
3.028104606592939490e+03
3.030750179791436494e+03
2.862046725064215025e+03
2.832982845699331392e+03
2.459454895219183072e+03
2.084465861230725750e+03
1.312892095263411875e+03
6.085608733151145771e+02
3.066766276962623579e+02
3.398825131409975029e+02
3.371089788044793067e+02
5.513901689192588265e+02
6.197170305270958579e+02
5.580565967304918331e+02
5.643889522228948863e+02
9.337327299695767806e+02
5.611015651479376629e+02
6.374564595024530718e+02
7.917520601632445505e+02
1.153008992502727551e+03
8.632609498633099747e+02
1.127442971326844145e+03
1.143560907445516023e+03
1.419576381251747989e+03
1.128532378795107888e+03
3.533594543761438445e+02
3.279913157296123813e+02
4.163798557956877175e+02
1.485446563771921831e+02
-1.695971427273439929e+02
-2.590965385146553217e+02
-8.297029463944026872e+01
-3.612912158519467312e+02
-6.130145024414497357e+02
-3.361704852598701336e+02
2.082321005876860340e+02
4.011243983863577114e+02
-3.523206676867085996e+00
4.482402456592919862e+02
9.864123349427052290e+02
8.859774537951518596e+02
4.659176805424268650e+02
2.812280254169220370e+02
1.989284803980949903e+02
3.369924416833593455e+02
-1.336630260085348937e+03
-4.739988169033761551e+03
-9.705187191639000957e+03
-1.091619267224726718e+04
-1.105201267105778061e+04
-1.051779050511890273e+04
-1.066654831901376019e+04
-1.015227669708581561e+04
-9.765022404585815821e+03
-8.984751944477331563e+03
-9.167412153646708248e+03
-9.956023836307853344e+03
-9.452749848658660994e+03
-5.870587348173779901e+03
1.655235707589598348e+02
1.689524102799296998e+03
2.347386133895744024e+03
2.465082772219317576e+03
2.760654698013569032e+03
2.544080401823294324e+03
2.726312439364146485e+03
2.744333397420963138e+03
2.104094169200866418e+03
1.730585919671008924e+03
1.486771636771534986e+03
1.092598171477470714e+03
5.380271382443816037e+02
3.950697911867137577e+02
5.177422495116347818e+02
7.420476946697906442e+02
9.559668004127124732e+02
1.312563190500547080e+03
1.253787558470974773e+03
1.430634149163400252e+03
1.775135939513596895e+03
1.977271550539429882e+03
1.887043385334390450e+03
1.848495662521964505e+03
1.600642639532021803e+03
1.784412499679314578e+03
1.567893010921635778e+03
1.319094877279041157e+03
1.086937621840148040e+03
5.394154839616476238e+02
3.865078407810566432e+02
-3.676832697384874393e+01
-4.244608793172820924e+02
-8.085859360497828447e+02
-5.290127108668129949e+02
-1.617076931970474618e+02
2.483229135769542211e+02
2.350998019770802898e+02
2.875822306550650183e+02
3.938189602558089177e+02
1.028834952275823298e+03
1.057711454815097113e+03
1.348467424035060731e+03
1.335121495634180064e+03
1.065617492308637793e+03
8.419508364432990675e+02
9.742021829741076999e+02
1.100406521383496283e+03
7.404694249915706905e+02
5.376147824884808415e+02
5.251422509402169680e+02
-3.431869703946765071e+02
-1.062402150096322885e+03
-4.464620926478085607e+02
-7.113438430567616706e+02
-9.289708178249381945e+02
-5.683226414966941320e+02
1.365128138670058888e+02
1.605527541888121448e+02
-5.822528990168660812e+02
-1.752931885950975357e+03
-1.759418527834625081e+02
8.244392559090399573e+02
9.590644334235111046e+02
6.451733853802825251e+02
3.900638301907735013e+02
5.472669538788871932e+02
3.628752025151493967e+02
2.769645850344031714e+02
-1.344053933607062845e+02
-8.401691041436126852e+02
-1.412353665536882090e+03
-1.224017973403340420e+03
-9.321508290756150927e+02
-3.537012718427014306e+02
-5.065307109609353375e+01
-4.729665964314894495e+02
-2.875785154712691565e+02
-5.784131815500937819e+02
-1.216478040152327139e+03
-4.228421651418242391e+02
3.315076743641109260e+02
2.686090811454797631e+02
-1.934975841193307531e+02
-1.675070998358748398e+01
4.028902717245269400e+02
7.374512161961499714e+02
4.808409568728910699e+02
3.089592011466971826e+02
-1.907839747483373927e+01
-4.262175759801919526e+02
-6.825346876696787604e+02
-6.130176946885836742e+02
-6.426919404896182186e+02
-4.975756149798720571e+02
-1.676932934294178210e+02
-1.500336294919869999e+02
-1.805927078057561630e+02
-1.747176359648664956e+01
1.983711596481772688e+02
3.130497858968376477e+02
4.066100580229990555e+02
3.709952743176299350e+02
6.632604143394744369e+02
1.164453797724941523e+03
1.340593299170197497e+03
1.080559771934294076e+03
8.292108882265056309e+02
2.325593650951237805e+02
-4.563658392154837884e+02
-6.905352318750540235e+02
-6.618278139840646190e+02
-2.684300027191453637e+02
-4.985468347337679234e+02
-4.490571888566865937e+02
2.851306618808781081e+02
6.218758945506048121e+02
9.182459566167761977e+02
8.694504521165935103e+02
1.592780495834666226e+03
1.627947531021281293e+03
1.473793857025628995e+03
1.810497769317047187e+03
1.252275662578334050e+03
1.573571682119119941e+03
1.651378234394540641e+03
-1.832225893916612222e+03
-8.582468757653849707e+02
1.497360716248491599e+03
1.011684380482831671e+03
2.465204574094405814e+02
-4.461021532254176236e+01
2.426255211038476887e+02
5.157024940617939137e+02
6.978692600017740233e+02
9.413656348547059451e+02
7.732928155112228978e+02
9.676255637127437694e+02
1.086894744332381151e+03
1.597154387669180323e+03
2.050346066432406133e+03
2.396376975804067570e+03
2.324223814359504559e+03
2.474953869831460906e+03
2.436394376712446501e+03
2.236075508513231398e+03
2.054248630635880090e+03
1.528168552732900707e+03
1.104944332746335249e+03
1.263110202007416319e+03
1.422908688216053406e+03
1.129131378241051152e+03
9.560701442408886805e+02
1.063089167702554960e+03
1.392177411032766486e+03
1.624090293212202141e+03
2.004764602822688403e+03
2.318377563325209849e+03
2.504048413034364330e+03
2.484030760054794428e+03
2.324031492490161327e+03
2.581381430221722894e+03
3.242018400024403036e+03
3.057543870186618278e+03
3.068975487040047483e+03
3.003323248933800187e+03
2.433534812033153230e+03
2.326706409846824499e+03
2.495229530427744066e+03
2.293732187449423236e+03
1.639074021447632049e+03
1.429095161137611285e+03
1.057609032667701740e+03
1.123671520228572035e+03
1.577005625978938951e+03
1.850740942858010158e+03
2.346873553407860072e+03
2.295632493621952563e+03
1.123669709076881134e+02
-3.890926312349356976e+03
-8.638414516762637504e+03
-9.257100205907838244e+03
-8.681882796043555572e+03
-7.958981003163340574e+03
-8.050623763510294339e+03
-8.200585213545968145e+03
-7.759683928923970598e+03
-6.968044488661458672e+03
-7.095533355853533976e+03
-8.028777151684892488e+03
-7.731940334026183336e+03
-7.620540294401073879e+03
-7.903413063108837378e+03
-5.456460608999225769e+03
-2.529742521283258156e+03
-7.076151162669421865e+03
-8.329636155544520079e+03
-7.754033068541784814e+03
-6.996369937011634647e+03
-5.953678932044282192e+03
-5.371830038019853419e+03
-4.985904527926634728e+03
-5.117894962600416875e+03
-4.956760311744699720e+03
1.205785594839039732e+02
5.233312879477613023e+03
5.621288888160187526e+03
4.832387397981423419e+03
4.342912671095884434e+03
4.101772288963376013e+03
3.144909388598103760e+03
2.499670914890031781e+03
2.639001499263352343e+03
3.183991014929062658e+03
3.437933393166352744e+03
3.238922898099811846e+03
3.152857953560906481e+03
3.483633961449007074e+03
3.472575158458340411e+03
3.626878106594229394e+03
3.529662181665320986e+03
4.027985062588694746e+03
4.037903153389150702e+03
3.772346677629152055e+03
3.452390982182636890e+03
3.343286028386557518e+03
3.364081279302039547e+03
3.162720064200192155e+03
2.520306845216945476e+03
1.547868008654810183e+03
1.015592992795375835e+03
9.555644934407761184e+02
1.100880725414670451e+03
1.219762177463987655e+03
1.391408922667478919e+03
1.130589002877194844e+03
1.041172108154945818e+03
1.138261098564255690e+03
1.486110388446811839e+03
1.790099780561547050e+03
1.630311227629161749e+03
1.544641653363436717e+03
1.690173360345520678e+03
1.868208869345445919e+03
1.267077331273213076e+03
1.022931946667278567e+03
7.325085696140876053e+02
9.202323970699262645e+01
-4.383191333496376387e+02
-6.464903249321101839e+02
-1.075382005571548461e+03
-1.452907622137973021e+03
-1.695147486024212867e+03
-1.163949918264609778e+03
-1.056027063893684272e+03
-9.163568394658916532e+02
-4.819540066016317041e+02
-2.960155007139732675e+02
-4.296510088056664927e+02
-5.989926095698133395e+02
-1.079569916705202104e+02
-3.941724712132670305e+01
-4.862745117062291911e+02
-4.805854652632592661e+02
-4.152414569727824869e+02
-1.661119690255375474e+02
-2.215336795898483402e+01
-2.421526156468081297e+02
-7.891063709326764410e+02
-1.197095570415705197e+03
-1.523019377390606678e+03
-1.540023933304899401e+03
-2.002139527739910136e+03
-2.201272484253068342e+03
-2.396468813498040163e+03
-2.097572744666018934e+03
-1.656492000820802559e+03
-1.879271100012145780e+03
-2.047859142202579505e+03
-1.659106641601156070e+03
-9.132652890712907947e+02
-7.184407817010451254e+02
2.239522667096846575e+01
5.732338463308602741e+02
4.210671431023672540e+02
3.269608880764947685e+02
3.838845967246731448e+02
9.076644699470364230e+01
-1.593557268176277546e+02
-8.233605171594039120e+02
-1.320100276398242386e+03
-1.349848323002206143e+03
-1.601871628526432687e+03
-1.650239000987870213e+03
-1.939893107418294903e+03
-1.314908977578462100e+03
-8.172812016284415222e+02
-7.110597504510784574e+02
-8.933211662002033790e+02
-6.721358496919812069e+02
-6.484638977283148051e+02
-8.622209886950859072e+02
-4.895669635626387048e+02
-6.486999427721214033e+02
-3.198722228840947992e+03
-6.446692597119183120e+03
-5.003649916121381466e+03
-2.233722545060340963e+03
-2.135949551066784352e+03
-2.156346890520778288e+03
-1.961142903553960878e+03
-8.553317666908411638e+02
4.359525610127828372e+02
1.035542291608162714e+03
1.439291474381067474e+03
4.012130799964112953e+02
-2.247858343641752981e+03
1.229144610817068497e+03
2.112067960562000280e+03
1.595739244198526194e+03
9.698895359751631986e+02
8.383607741323953633e+02
1.640630344211145712e+03
2.007598042093101412e+03
1.755757429107085500e+03
1.753115242643544207e+03
2.406540728861235493e+03
2.836147566390149223e+03
2.625119561232186697e+03
1.922666583697534861e+03
1.278542717749172880e+03
1.538375677475409930e+03
1.764423401349552250e+03
1.762737333521512710e+03
2.592209413054341894e+03
3.261546152887870903e+03
3.375130633569534893e+03
3.241568544003547231e+03
3.202804292968029131e+03
3.355876386007329984e+03
3.621896940432881365e+03
4.342154723714753345e+03
5.301567567119827800e+03
5.757544672147037090e+03
4.884749276923292200e+03
4.401893714295582868e+03
5.123160092511728180e+03
5.484989128497606544e+03
5.691567794614446939e+03
6.302920818490792954e+03
6.436680546766049702e+03
5.942907347638706597e+03
5.376673270588988089e+03
4.856605597120716084e+03
3.389740185802856104e+03
2.215101595010176425e+03
2.137616837098894848e+03
2.578033544307655120e+03
2.240550764385599450e+03
2.336678147616816204e+03
3.083530892692377620e+03
4.101245069425583097e+03
4.924855298324413525e+03
3.918022991891363745e+03
2.728710390692167948e+03
1.822900624195337741e+03
1.619553042758751417e+03
3.511573716993690596e+03
4.311925282078885175e+03
2.240521826366642927e+03
6.043365070793238374e+02
1.008351831517465484e+03
3.594802656525815223e+02
-3.220261391185707907e+03
-8.590927810485894952e+03
-8.869495797619423683e+03
-8.788058124583189056e+03
-9.616542859886476435e+03
-8.799929477779727677e+03
-4.626238987753389665e+03
-3.963498035316651567e+03
-6.044583450211298441e+03
-7.757234725778178472e+03
-8.591389898140429068e+03
-8.448401965580160322e+03
-5.953402372314640161e+03
-3.956090056380586702e+03
-7.402450735758689007e+03
-6.232514760964611014e+03
-6.649316984139848500e+03
-1.049478142559634944e+04
-1.181689851218239346e+04
-9.730617497903083859e+03
-6.467845819014998597e+03
-7.436570640310783347e+03
-7.007737332161677841e+03
-6.557278610982869395e+03
-6.289107264053835024e+03
-5.451181832876463886e+03
-3.413374642393149770e+03
-2.678587384394772471e+03
-7.602749641479595084e+03
-1.000882245024234544e+04
-6.699729040553770574e+03
-1.181936372680137174e+04
-1.698061664101968563e+04
-1.851840513889195063e+04
-2.041066585451391802e+04
-1.871735272259474368e+04
-7.514363056561110170e+03
-5.055475934097526647e+02
1.017124977686188117e+03
2.387801891255430291e+03
4.593533660878036244e+03
1.065737075438613101e+04
1.361642639565603349e+04
1.015985966339376500e+04
1.074979825952840838e+04
1.228534546777322976e+04
8.929566791849672882e+03
5.069624072759693263e+03
2.666691501585020205e+02
-5.636226176217578541e+03
-1.185195146787469457e+04
-1.363737047325874482e+04
-6.189396189443309595e+03
2.305063244679255604e+03
1.092216294691851363e+04
2.015597262896209941e+04
1.911160820000803869e+04
1.392419813794595393e+04
9.737774348827584618e+03
4.273464394415442257e+03
1.018340598050843937e+03
2.135524557464033478e+03
3.800271914426243256e+03
4.425796051550357333e+03
5.216271385381592154e+03
7.729850523063269975e+03
7.631748861415216197e+03
3.886983907238709889e+03
2.257722375159654803e+03
2.451114192409939733e+03
7.811868543373929015e+02
-2.891609417356752942e+02
2.875320520510765164e+03
6.157819763351825713e+03
3.651348294981079562e+03
2.960961061380930005e+03
2.971773649542537896e+03
1.804707647359796511e+03
1.296852727590316135e+03
1.129538743924593518e+03
2.712377068817062991e+03
3.663608663427629381e+03
4.133271623360338708e+03
5.939418634645597194e+03
6.687112008291159327e+03
6.750386118514575173e+03
6.728377924364316641e+03
6.611085280583904932e+03
8.487140340158488470e+03
8.288856119785446936e+03
5.897255485357659381e+03
6.491201004422253391e+03
5.384718067408019124e+03
2.134826868408047176e+03
1.997541176418802706e+03
1.388742365302650796e+02
-1.450246044401286099e+03
-1.034898342578847632e+03
3.409370786252379730e+02
-2.985986741709334069e+02
-3.453492425821491906e+03
-4.636793338036904970e+03
-3.797468831027732449e+03
-2.357535964542144484e+03
-4.699113975579495559e+02
9.773699878014714386e+02
-9.170442171802145026e+01
-8.481698202802434707e+02
7.720135877305796157e+02
1.937799585369937631e+03
1.224099370559927593e+03
7.819339504245658645e+02
-3.607199030723388091e+02
-8.769253811962379359e+02
-1.680730052377756465e+03
-1.977167098474423483e+03
1.471165789912745403e+01
3.972846074492250864e+03
3.685192105389151038e+03
1.078706573264353892e+03
-1.863635098347862822e+03
-3.942850232554047579e+03
-2.826046977871620584e+03
-1.313271363632859902e+03
-2.110496773113123254e+03
-2.983763099694147058e+03
-3.271179436984845779e+03
-2.820803074252884926e+03
-4.280646717288281252e+03
-7.919833170456316111e+03
-9.627413967496564510e+03
-9.170460646621349952e+03
-1.004898310927937018e+04
-9.914075777735979500e+03
-9.584747702849495909e+03
-1.081101601024466254e+04
-1.226189215194369353e+04
-1.179258741746466330e+04
-1.042616481590119656e+04
-5.667749806027328304e+03
9.814989108724936386e+02
3.087536145092483821e+03
2.348302236244354845e+03
1.272726043834650454e+03
1.199695618600264652e+03
1.203189408640151896e+03
6.721225398316725830e+01
-6.902947207298988133e+02
-1.293405016656945463e+03
-1.939251405907630442e+03
-1.859393152230288138e+02
1.318430140837334193e+03
1.245895860928118509e+03
2.557402330563524174e+03
1.999870755008827246e+03
6.271903993147318488e+02
-5.371424608926207611e+01
-1.670881584514933593e+03
-2.170330732648018056e+03
-1.387161496047982837e+03
-9.244504874237064769e+02
2.317758353475298918e+02
3.573470905458627840e+03
4.249490310364624747e+03
3.341735062412996740e+03
3.171250072376498792e+03
2.500976982178750859e+03
1.594808281535661536e+03
1.571756355540097729e+03
8.948158811789742231e+02
-3.711159548510070749e+02
-1.486059470390767274e+03
-8.029778801857501094e+02
2.644122212588450566e+03
4.394149877107875909e+03
3.534058192588146994e+03
2.212848973971396845e+03
1.598512360229417254e+03
4.920165335773665447e+02
-2.277909048867774544e+01
8.906050687494229123e+01
-6.555216689559475753e+02
-1.441466413938575897e+03
-1.268678177630443315e+03
8.288576865769621236e+02
2.192087489826648834e+03
2.500937670540579802e+03
2.532339017308134771e+03
2.256506290390200320e+03
2.603498558682179464e+03
2.566306566811695575e+03
2.079853397402442624e+03
2.437771591749256459e+03
2.379740697281602479e+03
2.794516686608168129e+03
2.728967513320037142e+03
2.270775064348126762e+03
1.515297844627923041e+03
1.510558891556919434e+03
-4.593031855204777685e+02
-1.317104176994681666e+03
2.769298908422768690e+01
4.912697427976713698e+02
-2.167242174099215845e+03
-6.982794499365350021e+03
-4.679388791699097055e+03
-1.141074126685884266e+03
-2.837796660358966619e+03
-3.282476070905872348e+03
-4.651094635804019163e+03
-3.656674471072989036e+03
1.952827584399643911e+03
4.549716285827707907e+01
-4.236579354931875059e+03
1.581646537623672884e+03
-3.518518288401726863e+02
-1.319036534305490477e+03
