1.501942294578072733e+03
2.452594169957728354e+03
3.157514266847114868e+03
3.708749194696225459e+03
4.142296055184062425e+03
4.702145161863237263e+03
4.795334530639576769e+03
4.235990634506269089e+03
3.682097771132986963e+03
2.999657744574607477e+03
2.155600404297250861e+03
7.419430628891744846e+02
-3.593696074297390055e+02
-1.338417228236299025e+03
-2.333186348202079898e+03
-2.858686266168410384e+03
-2.849973766747161335e+03
-2.540050612515607099e+03
-1.659820618119329311e+03
-8.792979647276807782e+02
8.169820556371384157e+01
8.153524113996796814e+02
1.612085525037800153e+03
2.434875592409523506e+03
3.087758107268458843e+03
3.200696266294518409e+03
3.386816811590335419e+03
3.145038342231427123e+03
2.636395300464936554e+03
8.808993910103117742e+02
1.323391422976179115e+02
-4.754781069463018639e+01
-2.456173379031512468e+03
-2.120033150711889903e+03
-2.470026746397512852e+03
-2.813974438344055670e+03
-2.680816958550720756e+03
-2.239178887910646154e+03
-1.281951012482995793e+03
-2.179468261560045903e+02
7.992441938890758593e+02
1.585718045012060429e+03
2.194865684326455721e+03
3.090092375377189910e+03
3.664421428917467438e+03
4.151842350405296202e+03
3.887177877679749145e+03
3.743334103586892070e+03
3.707378081314992869e+03
3.202320705754204937e+03
2.221105675434178920e+03
1.036728361284285256e+03
-2.428687633777906285e+02
-1.276710149964896573e+03
-1.908824805040780802e+03
-2.519270704175917672e+03
-2.485071862981258619e+03
-2.372170073551496898e+03
-2.076528525096620797e+03
-9.761052548761332446e+02
9.816967955811198010e+01
6.383210175662698020e+02
1.174372995642477917e+03
2.218403097570485897e+03
3.258449760049971701e+03
3.912486030376209783e+03
3.840518728717731847e+03
3.457609337895695717e+03
2.783755474417055211e+03
2.116953662739300853e+03
1.246192806254343850e+03
2.104649775053867131e+02
-8.153034341116847372e+02
-1.997108839753785105e+03
-2.410000664313327889e+03
-2.430044039592663921e+03
-2.170298270465303631e+03
-1.896741943635016696e+03
-1.676304492440325930e+03
-5.139305889955008979e+02
6.843946699453360907e+02
1.412703772002659207e+03
1.820039335634379086e+03
1.065488599945992974e+03
-1.515908020047792206e+03
-6.020170743145247798e+03
-7.752286672936107607e+03
-7.215229243003846022e+03
-7.596957412340978408e+03
-7.262516795137687041e+03
-5.639089184313980923e+02
8.107973065407783224e+02
-6.262452693972254565e+03
-1.173164503625468933e+04
-1.113477564739003719e+04
-6.421952650453732531e+03
-3.323174457853546755e+03
-3.696363351244981459e+03
-1.574590469857436801e+03
1.331252297778705724e+02
1.423867212224493187e+03
2.168669727879570473e+03
2.525592743696857269e+03
3.088702269040770261e+03
4.019998777648270334e+03
4.385492381628258954e+03
4.929224084678976396e+03
5.177198459949403514e+03
4.710404571470379778e+03
4.099841935806582114e+03
3.024511482774636534e+03
1.598336144010971793e+03
5.623359807095343967e+02
-2.305261798525180836e+02
-1.421336451230319426e+03
-1.758069921258146906e+03
-1.943824292038571684e+03
-2.082574456379610638e+03
-1.167276204415481970e+03
8.405903941276937985e+01
1.120414926427391720e+03
1.986848862201080237e+03
3.152393786944562180e+03
4.008100996810807828e+03
4.473058746857015649e+03
4.631265068447672093e+03
4.770738465407158401e+03
4.399511889497451193e+03
3.740563983049908984e+03
3.302876335187617769e+03
2.706431878864162627e+03
1.823195128343727902e+03
3.120800338881871312e+02
-8.558721682735214245e+02
-1.771698646133217608e+03
-1.984455897263895167e+03
-2.135180533063343319e+03
-1.892835116581423335e+03
-1.391380870853648730e+03
-6.027647010434485537e+02
6.680783958916198344e+02
1.535183946867472059e+03
2.257559160351200717e+03
2.671264869176315642e+03
3.340355591744124467e+03
3.345849061434279065e+03
3.197702389706779286e+03
3.834919715711644585e+03
3.327496109326198166e+03
3.231711947627338759e+03
2.151401515534038481e+03
7.854502674101094044e+02
-2.014092860743347657e+01
-4.644379482704078441e+02
-1.270427417029478875e+03
-2.131223969451956236e+03
-2.877856983985547686e+03
-4.827403686021310932e+03
-8.778576757863302191e+03
-6.554375574756158130e+03
-5.914836591769417282e+03
-3.218966407720880397e+03
-2.051708678861361477e+03
1.702958642300661950e+03
1.036075493863520251e+03
5.887050742515839374e+02
1.922820736431445766e+03
9.164216050365332649e+02
3.395564525479017448e+03
2.634266058263753166e+03
1.896427830429931873e+03
-2.072966209327501929e+03
-3.813917451617270672e+03
-6.177523840374827159e+03
-4.403805380563887411e+03
-6.181766007378129871e+03
-5.594426014844641031e+03
-6.864783020670044607e+03
-4.354815038948564506e+03
-2.377474765726265105e+03
-4.366766329493005287e+03
-3.224691576579556568e+03
-1.541985082149287791e+02
1.547797876139359005e+03
-1.007692024525841930e+03
3.417287367831758729e+03
3.628796051379280470e+03
1.838293459125438574e+02
1.646401694527444761e+03
-3.263498461307423440e+03
3.309329473029789170e+01
-3.418325794757283234e+02
-3.134333998525033167e+03
-6.594929811424127593e+02
-1.310331104177050520e+03
-2.232934721247199377e+03
-6.348307892171265848e+03
-3.881479919269309903e+03
-2.019438545069498105e+03
-4.753108625459907671e+03
-2.382499757597146981e+03
8.824029011403356435e+02
2.496596688210775483e+03
3.433110707694397661e+03
4.398111588597809714e+03
4.815566469779448198e+03
4.932409086143029526e+03
4.920611658984514179e+03
4.512227803967512955e+03
3.678387878031886885e+03
2.839270411539994711e+03
1.950602790778817962e+03
5.270352174342862099e+02
-3.535489894598105138e+02
-1.007519659966476638e+03
-1.363572010594812809e+03
-1.594904773352931215e+03
-1.446941431679940251e+03
-9.891006680446879500e+02
-4.063343644630262474e+02
9.814898888620715525e+02
-4.439503249335584378e+00
-7.352580877389262923e+02
-1.752932202826275216e+03
3.982807773190861553e+02
3.578174062406574194e+03
4.990365805663895117e+03
5.416273898826219011e+03
4.562790387901149188e+03
3.850550206045479172e+03
3.450258418828965659e+03
2.102743804932596959e+03
5.679181712173245842e+02
-2.725166229870596908e+02
-8.319184958283943843e+02
-1.468006161383507560e+03
-1.726320383835134862e+03
-1.510031187315994430e+03
-1.064128082280081571e+03
-3.445936076223902091e+02
9.794250081045699972e+02
1.927399718659667315e+03
2.612182233397714754e+03
3.474699478401236775e+03
4.231153239056502571e+03
4.497293951243009360e+03
4.768457553006219314e+03
4.811615733761072079e+03
4.750092837070209498e+03
4.082678929405482450e+03
3.132148470400399674e+03
2.460843284195097112e+03
1.293209758579199161e+03
1.914417860493471935e+01
-7.755607316478600524e+02
-1.484872685294423945e+03
-2.000638872170198738e+03
-2.397137320710757649e+03
-2.056440610590577307e+03
-8.424488142502316350e+02
5.108289484694701628e+02
1.354360638279169279e+03
1.531151036855551411e+03
2.737224681686922395e+03
3.613654860996963635e+03
4.179455819273080124e+03
4.550554558966765399e+03
4.935043980747428577e+03
4.741996511185169766e+03
3.932318012379123047e+03
3.493966434812156876e+03
2.984937821352443279e+03
1.731238252610254449e+03
-9.213644212121376853e+00
-9.225910772113994653e+02
-2.834048299160622719e+03
-5.945542059523207172e+03
-1.092905019468204227e+04
-1.261150813388654205e+04
-1.146185086585348472e+04
-1.020104083234492828e+04
-9.013982634706253521e+03
-7.231616619230898323e+03
-6.436015819602071133e+03
-5.378176912960789195e+03
-4.432948952472524979e+03
-4.461317635407749549e+03
-1.148441187344776836e+03
3.500956694778540168e+03
-3.938275561373172422e+03
-6.857340190210662513e+03
-6.613159599022539624e+03
-3.627708780010621467e+03
-5.256077934177224961e+03
-9.616372052349983278e+03
-7.440581755188629359e+03
-1.156709470696684321e+03
-2.694842432010064385e+03
-9.737898962172079337e+03
-9.952786995065544033e+03
-4.318447095130631169e+03
1.686219739249667555e+03
4.409241831858619662e+03
4.843634332445961263e+03
5.411430225991502084e+03
6.071674061240870287e+03
6.209476662284031590e+03
6.189892954995868422e+03
5.624955508202285273e+03
5.008724252370404429e+03
4.328114934604332120e+03
3.276134170456548873e+03
1.962798193074982009e+03
7.580803926869539282e+02
-3.810869818027660472e+02
-1.226680695419358926e+03
-1.380795459610050557e+03
-1.410435802375096046e+03
-1.090506171750433850e+03
-3.368905917512419137e+02
9.184703914434286389e+02
2.016513317829630978e+03
2.826283677284143778e+03
3.838973968947781032e+03
4.416743152871790699e+03
4.794587344128542099e+03
5.203453196820032645e+03
5.430276908717792139e+03
4.823175513863218839e+03
4.512351774220172956e+03
3.680675963602460797e+03
2.566029064852332795e+03
1.236436120569745754e+03
-5.206843397051994060e+01
-1.169522186983438132e+03
-1.718921581617056290e+03
-2.122275955711637380e+03
-2.337617336702170633e+03
-2.091854387958096595e+03
-1.338850076333186280e+03
5.542496789041994276e+00
1.001521525546657813e+03
1.437228252210657047e+03
2.013659456282252677e+03
2.950771986063728491e+03
3.330922748742327258e+03
3.512127425330681945e+03
3.678068032694467547e+03
3.205009283151971431e+03
2.647083060489605032e+03
1.538905988123717179e+03
-1.587176382944183160e+03
-1.700050253136531637e+03
-1.153109604303894230e+03
-2.421381419214689231e+03
-3.243202043892393249e+03
-3.787489423449676451e+03
-3.820257315327074139e+03
-3.281551698196683446e+03
-2.249417042014385970e+03
-1.425757581968663317e+03
-8.654256029081415136e+02
5.657286657690531229e+01
1.035231797014962012e+03
1.243640890318431730e+03
1.603971351795946930e+03
2.435376322245888787e+03
2.587819843023219164e+03
2.612296403048826960e+03
2.395721412376528406e+03
1.512915056225048374e+03
8.799796126075897291e+02
-3.181358655170973861e+02
-1.577553821742512127e+03
-2.475226440921351696e+03
-3.058199088095638217e+03
-3.502404494813601559e+03
-3.506848685152091093e+03
-3.151671534768360289e+03
-2.730936594150364726e+03
-1.462443942083332786e+03
-4.730941427615089196e+02
2.800830725642292123e+02
1.550127211771005477e+03
2.164969947985071940e+03
2.515616466672470779e+03
2.787119936824070464e+03
2.885402633348852760e+03
2.205608216485450157e+03
1.619839614278753061e+03
7.638627660267187593e+02
-1.952863286815810113e+02
-1.455566507084419072e+03
-2.705081374368954584e+03
-4.037985101740046957e+03
-4.701355554411456978e+03
-4.618390892115663519e+03
-4.274074298356815234e+03
-4.090290845615411854e+03
-3.207088316412675795e+03
-1.973486028292592209e+03
-4.705299179566731596e+02
4.179001941564824847e+02
7.228013134602223317e+02
4.910249586005509315e+01
2.083960463774640630e+03
3.027281883709133126e+03
3.205080237277660217e+03
2.712375589756148202e+03
2.581189898338493094e+03
2.497410317509457855e+03
1.596883751346731515e+03
5.225730158677741883e+02
-2.343613831971546006e+03
-2.513407125533281942e+03
-3.152757237578007789e+03
-4.276384502541327493e+03
-2.992864839533303439e+03
-2.227140891141832981e+03
-1.566366440628331247e+03
-6.348107033118728850e+02
5.218994916519550316e+02
1.433606767320071867e+03
2.094274210393720750e+03
2.810791321675627842e+03
3.491636886056172443e+03
3.305506123041930550e+03
3.108235113234842174e+03
3.057859036853438283e+03
2.311632678431878503e+03
1.685623230305171774e+03
8.753831920762796699e+02
-7.169368389496519001e+01
-1.115698174970408218e+03
-1.956017552246519244e+03
-2.008164633069972524e+03
-1.862661717609994639e+03
-2.101673674038672289e+03
-2.038152205622426209e+03
-1.139201894470931848e+03
-1.000757236699589470e+02
4.341174324820500487e+02
1.220466492655390084e+03
1.939182032063168890e+03
2.538330841085674820e+03
3.279744270862862777e+03
3.623499993143628217e+03
4.092861688882314411e+03
4.193402493431893163e+03
3.431482582163913321e+03
2.893567075024842779e+03
2.089148155972673976e+03
1.066200452804310999e+03
-3.611031308634782704e+02
-1.350446697936786677e+03
-2.106916917676466255e+03
-3.089807078631855347e+03
-3.333677618902208451e+03
-2.998767494096672635e+03
-2.502894771530076923e+03
-8.229535619415837573e+02
8.880524372825971113e+02
1.760137669175450810e+03
2.237261262122529843e+03
3.127450208501679299e+03
4.205833612956763318e+03
4.229493383676867779e+03
4.110409088510155925e+03
3.468757220067392154e+03
3.205588578648363182e+03
2.458616885295740303e+03
1.031790753579873581e+03
-3.088911738037829764e+02
-1.509414680184858526e+03
-2.656790969553266677e+03
-3.243158298601375009e+03
-3.285606831498354040e+03
-3.217277750538893542e+03
-5.885705450347658370e+03
-7.089907382162627982e+03
-7.997874764803929793e+03
-2.616759640037933877e+03
-2.576947561902914572e+02
-2.976454073709729528e+03
-1.105896032531934225e+03
-5.429795063655460581e+02
1.013270225547786254e+03
-2.734128269551157246e+03
2.953920703645607318e+03
-8.415676899097094292e+02
-3.592566132334695340e+03
-2.777998135990233550e+03
1.257082414543945788e+03
1.128535437907894448e+03
2.843461910348433435e+02
-3.025476949963746847e+03
-8.266901311257706766e+03
-7.883027723030082598e+03
-4.566756931264533705e+03
-6.094902431841196631e+03
-5.042467936116886449e+03
-2.494400801225729538e+03
1.079401532137025470e+03
2.106958687433746945e+03
-4.156617827228311057e+02
5.296149166746299670e+02
2.936862333525730264e+03
-1.028912383942699080e+03
1.703338461940098568e+03
9.587441172580898865e+02
-8.406296741857433972e+02
-9.498685789883667212e+02
1.212862844736784155e+03
9.696292194407374154e+02
-4.104376739174119280e+02
-5.433485554888942488e+02
-6.371978344275157724e+02
-1.034070460430687490e+03
-1.012829350702652278e+03
-9.013432184217308532e+02
-3.426962005484621159e+02
5.831039686596441243e+02
5.232248070194796128e+02
1.552754492303500456e+03
3.124689172072304700e+03
3.925197500713497902e+03
4.345461305053361684e+03
4.693402877643617103e+03
5.725020395407215801e+03
6.581361881816372261e+03
5.700493053407503794e+03
3.254355445718568262e+03
9.559593030877114188e+02
-1.165642617607593593e+03
-2.941847780393537050e+03
-3.984801311596238520e+03
-4.534760554509002759e+03
-3.853762972238651400e+03
-2.642793886332691272e+03
-2.076819961342009265e+03
-1.859667028447250459e+03
1.646562352019771254e+02
1.168098258159020816e+03
8.507311793100024033e+02
4.986420077442309776e+03
5.129438004850742800e+03
5.130085080372839911e+03
5.441649847683915141e+03
6.065652607769843598e+03
5.998726412425213312e+03
4.721746408106330819e+03
3.900286383771017427e+03
3.092939940496529744e+03
8.474667418570912787e+02
-1.062218472820761690e+03
-2.415156176868568309e+03
-3.005073426610671959e+03
-2.741821281003323293e+03
-2.220111691958166830e+03
-2.461654073833538860e+03
-2.535438670761570393e+03
-2.208512792130050457e+03
-1.101879394940340944e+03
4.452210815392893295e+01
1.130732005562801305e+03
2.633771031664075053e+03
2.971658652340443041e+03
3.419387059411297287e+03
3.780953332732489343e+03
4.214358901097797570e+03
3.584586923239171028e+03
3.063602001200908035e+03
1.787406609898147281e+03
-2.174472997704378852e+00
-1.678185821374360557e+03
-2.398647991095717771e+03
-2.059559534241212987e+03
-2.685986716383963085e+03
-3.474039042113952291e+03
-2.868727124942490718e+03
-6.200112567869865643e+02
1.307076380660384302e+03
2.399503981050776474e+03
1.986304361724734690e+03
2.282520662136469582e+03
4.965293651566745211e+03
5.644602028765891191e+03
5.042362871140379866e+03
4.647622906791235437e+03
4.632422702306665087e+03
3.779658381535695753e+03
2.352181647072962278e+03
1.252990571443273893e+03
-6.669005898529394472e+02
-2.500618850178853336e+03
-3.511273481659106437e+03
-4.504919521077332320e+03
-5.934643475145153388e+03
-9.445515049974941576e+03
-1.225846681887012346e+04
-1.456145557095380900e+04
-1.374054502996684460e+04
-1.202968548939204811e+04
-6.493728991007892546e+03
-6.267633022887047218e+02
-1.953857117841009085e+03
-9.717872859031002008e+03
-8.755762750912732372e+03
-5.184574988940237290e+02
3.498742167061659075e+03
4.556723102158764959e+03
3.911511938703232317e+03
4.205230929534661300e+03
4.169763003516267418e+03
2.928954199647407222e+03
1.697729243323306036e+02
-1.848843413317344357e+03
-1.865914819530374416e+03
-2.655384759325460436e+03
-3.652327144643411430e+03
-4.063827074648532744e+03
-3.130797959030969650e+03
-1.581625901832226191e+02
2.250949882277890538e+03
4.426579301858426334e+03
6.027758340228839188e+03
5.428478856880367857e+03
5.396754317740794249e+03
5.367567683287778891e+03
3.639975045169053828e+03
2.134000012792049802e+03
8.655762234011123155e+02
9.595928775250932858e+02
1.132010604736904952e+03
-5.802189362886643949e+02
-3.067084551866177208e+03
-3.374567316452596515e+03
-2.524847961677370222e+03
-2.073968056795072243e+03
-8.168453863258743013e+02
-7.325001992229180132e+02
-9.348813007895427063e+02
-2.049068670875379325e+02
-6.055993984121390667e+02
6.040876232867190083e+02
2.810250401065773985e+03
2.435901493725194541e+03
2.708003627087547557e+03
4.589565107920641822e+03
5.831638951461148281e+03
5.963248475585854976e+03
5.733414045258077749e+03
3.366068735801704861e+03
1.725119497848472292e+03
1.464506278066388859e+03
8.053411608431940749e+02
-2.124163946160126386e+02
-1.454832331862578258e+03
-1.653965224045051173e+03
-1.849807161596286960e+03
-1.863283160338382459e+03
-5.362149222931261647e+02
5.332218893762579910e+02
1.172134534153186451e+03
1.979573880455852759e+03
4.076636567141806609e+03
5.797353717499155209e+03
5.618668725976749556e+03
4.980658109711754150e+03
3.139240334382963738e+03
3.404531440214131180e+03
1.765881889944211707e+03
-3.701876000833281523e+03
-5.485860693381899182e+03
-3.653349385816400627e+03
-4.290294522141700327e+03
-4.971629871990582615e+03
-4.571316314081601377e+03
-5.917324113077400398e+03
-5.656594322038028622e+03
-9.237126685889472355e+03
-2.216853245865945610e+03
-6.687270862109435257e+02
-8.846572136445363412e+02
-4.688603794020286841e+03
-3.777532559337865223e+03
-2.517354868971554424e+03
-2.390052802612133746e+03
-4.463466149821339712e+01
4.673941803877499297e+03
3.328743984092865958e+03
-1.010316511489020399e+03
9.047272166746636231e+02
-3.208156225851268573e+03
-3.996966362723431757e+03
-3.354675328147200162e+03
-6.791391908104124923e+03
-2.811127843340026175e+03
-2.485815933199496158e+03
-2.807437825813202835e+03
-6.682973903333450835e+03
-8.644364458918011223e+03
-2.871588481875205616e+03
3.235407261051169371e+03
1.385707982699535933e+03
1.323346822737087450e+03
-3.885986912274601082e+02
1.595830637088235562e+03
3.502662058607973904e+03
4.365951139996980601e+03
2.958707552567801940e+03
3.688971931829355100e+01
1.465516334941778496e+03
1.042596672414011209e+03
-1.000903189805328680e+03
-2.022061622150209359e+03
-2.109952243770161658e+03
-1.916636586933161652e+03
-1.853143171556951074e+03
-2.644405318399975386e+03
-3.435381102152036419e+03
-3.122110655765201045e+03
-2.236585471572626830e+03
-1.705602195251968396e+03
1.222826589239668920e+03
4.783742325961207825e+03
5.437086173137030528e+03
5.530905717569784429e+03
5.790236340882339391e+03
6.351123553083767547e+03
7.288511515132088789e+03
6.847397521558364133e+03
5.149686968831616468e+03
1.944350546349611477e+03
1.819322979501622513e+03
1.243714295145332926e+03
-1.735245963188561973e+02
-6.705623636980477613e+02
-1.543793424837928796e+03
-9.658300357200168946e+02
7.127948238947344635e+02
1.648800702731674846e+03
2.095255531718732982e+03
2.816141945686862073e+03
3.488836287049663042e+03
3.608514189585069744e+03
4.284941055754999979e+03
6.091067924041601145e+03
7.063540195302810389e+03
6.241081999113897837e+03
5.163079940662222725e+03
3.898680502313674879e+03
2.854303315257186568e+03
6.074539490279161100e+02
-1.374567432565625722e+03
-1.715940116448132130e+03
-2.259072183816579127e+03
-2.564177272470732532e+03
-2.366461520986666528e+03
-2.252844891986162111e+03
-1.846067716986893402e+03
-8.583847889835740261e+02
1.864894809981591663e+02
5.691290910656435926e+02
1.347216535044945658e+03
2.933829463646238310e+03
5.013382739117238998e+03
6.248704676391955218e+03
4.859804681344711753e+03
3.608311311476731589e+03
3.490572986382185263e+03
3.584747626487815978e+03
3.115356768253208884e+03
1.347377358277994745e+03
3.516973080351835392e+02
-9.475125165824904627e+01
-1.012956246211270695e+03
-2.886010105566979746e+03
-3.497995549684908838e+03
-3.588824023565783136e+03
-4.150555127169237494e+03
-3.534247207826726481e+03
-1.396833161783413061e+03
8.670722387552775245e+00
1.146269853671456076e+03
1.795903726412702326e+03
2.206579692675204569e+03
2.057378551578943643e+03
8.538367062891724402e+01
-4.191396298497968019e+03
-4.554965719843109582e+03
-4.672329425586120124e+03
-5.707574059498440874e+03
-7.364743393085196658e+03
-9.273979192705199239e+03
-1.039238114096745267e+04
-1.027693894847023148e+04
-9.922677858649694826e+03
-1.028965334492788497e+04
-1.091169212846275514e+04
-9.590832894677747390e+03
-1.273364309897806606e+03
-4.879118774062347939e+02
-6.473496626886126251e+03
-3.412106629108674497e+03
-1.253754006746283039e+03
-5.432356000008203409e+03
-6.466832691586379951e+03
-6.635217628650344523e+03
-4.381512198877979245e+03
3.846423281639463767e+03
6.430582291542678831e+03
5.972925012228016385e+03
5.254258613764628763e+02
2.899832871775926790e+01
1.338656595222947317e+03
1.133420575133151942e+03
5.743039042671505285e+02
2.023405197462918750e+02
2.474593210222930395e+02
8.647407825089134121e+02
1.402216911039692604e+03
2.316878050860634630e+03
3.311832552043079886e+03
4.090130504047527666e+03
4.707867391609498554e+03
5.276055680980692159e+03
5.507809169982795538e+03
6.203100610353070806e+03
5.499078342805310058e+03
4.384840018268053427e+03
3.424419080261753152e+03
3.206770692430099189e+03
3.175831101160521939e+03
2.037682996658438014e+03
6.923529245172871924e+02
3.657715256854516497e+02
-4.731910678705843907e+02
-1.806494000709489228e+03
-2.593028747364641731e+03
-2.784630595101601557e+03
-1.654241176203395071e+03
3.702939438273771344e+01
5.923875275136820164e+02
1.757990614714234198e+03
3.654885157269698084e+03
4.662134821659819863e+03
4.053861962394210877e+03
4.087123852968517440e+03
4.827928471554173484e+03
4.506395992009813199e+03
3.475551445519980462e+03
2.514301496298689926e+03
1.427008285841284078e+03
-6.434874886974739638e+02
-2.372332538469045176e+03
-3.289991499322183245e+03
-4.420273167593159087e+03
-5.252322826586771043e+03
-3.952130608070604922e+03
-3.182053922374716876e+03
-3.637789094761438719e+03
-2.106935190445056378e+03
6.445883721513708053e+01
1.329873275251725545e+03
1.903166966782125428e+03
2.206805507795683297e+03
1.196059713943933730e+03
2.282801502109018656e+03
2.479878798383987942e+03
1.357203729075760521e+03
5.458907935256589781e+02
-2.659047430971389758e+02
-1.236185477034505311e+03
-1.437099471619681708e+03
-1.850589848483681635e+03
-3.016573894367584217e+03
-3.707068429424030001e+03
-2.966170001314515048e+03
-2.965073647330249969e+03
-2.796742796517465649e+03
-2.016124784561670594e+03
-1.234149096054648680e+03
-7.615787757404917784e+02
-1.544298956785762584e+02
7.243431244493261829e+02
1.965896830190414448e+03
2.887273452918678686e+03
2.782449512896790566e+03
2.255282285201449668e+03
1.464761789089292051e+03
1.224030387996627951e+03
1.523169706815332347e+03
5.890038306594620963e+02
-1.134615501941061211e+03
-2.117678565464328585e+03
-2.773273571701503442e+03
-3.343373466885374000e+03
-3.060987842462621757e+03
-3.068175900688922411e+03
-2.591847678045926841e+03
-1.600065073212931111e+03
-2.759154922082751114e+02
2.987759147395933610e+02
7.059778163614428195e+02
1.266521991250070414e+03
1.904417771812212322e+03
2.483720530853307991e+03
2.652402061061437507e+03
2.197630217385442393e+03
9.973128202207560662e+02
8.832767793472471567e+02
9.815496618587808371e+02
7.201080154950756196e+02
7.591693391267472180e+01
-1.182136254887870564e+03
-2.422119243244540485e+03
-2.822046411860356784e+03
-2.873128726898708919e+03
-2.429363379569675089e+03
-2.097723536418565345e+03
-1.350222677167941129e+03
1.119810959972664506e+02
9.108501004102905654e+02
1.706492349120000881e+03
7.489194569226955309e+02
-1.734829299805825713e+03
2.578125767342230120e+03
4.795940108427084851e+03
4.867926055094991170e+03
3.413692890077524680e+03
1.676867018194501952e+03
2.045438484099608161e+02
-8.873302705470330238e+02
-1.618930610862699041e+03
-2.009178988335346503e+03
-2.920281967867882486e+03
-3.195964859182637156e+03
-3.067128156635189953e+03
-2.855512814679584608e+03
-2.438010516122604258e+03
-1.624305659645405058e+03
-5.327166642377864036e+02
7.426808200669387361e+02
1.527916737654131566e+03
2.445722459521854489e+03
3.939824370658310272e+03
4.263600983892925797e+03
4.721283805859364293e+03
4.857340537861326084e+03
4.353162204919417491e+03
4.202489620303000265e+03
3.277119430368757094e+03
2.120321001235794029e+03
1.020422080394949830e+03
9.856506946669770741e+01
-9.192272539018927091e+02
-1.561663694300920270e+03
-1.984913160973392678e+03
-2.307668393564155849e+03
-1.458085192073055396e+03
-4.435541116326685369e+02
7.057759725101225285e+02
1.456989617629175427e+03
2.147833437482472618e+03
3.185297754768234881e+03
3.713381007888743170e+03
3.821214769137312942e+03
4.162874894939580372e+03
4.161973896397505086e+03
4.285744250670495603e+03
3.945233926416764007e+03
2.707303638436401343e+03
1.859861099852434108e+03
8.598283855248170084e+02
-6.287094155543487517e+01
-9.311829494118826460e+02
-2.011082388591462859e+03
-2.816697336642772370e+03
-1.940098975106947137e+03
-1.184244922008758067e+03
-3.033046113656311604e+02
2.946233121517551012e+02
1.113737417826977435e+03
1.663124009405551760e+03
2.832818526125044173e+03
3.438771555250014899e+03
4.054959533406929495e+03
4.027429726306675093e+03
4.295171126038861075e+03
4.030550698091372851e+03
1.998265500885613164e+03
-3.771539640714170361e+01
-4.925178845684126827e+03
-8.993290054544331724e+03
-1.068200032252753044e+04
-1.171541011284856177e+04
-1.189264177882469994e+04
-1.208065522934198816e+04
-1.093737831605982137e+04
-1.011877185668970742e+04
-9.875813770787173780e+03
-8.634393338608919294e+03
-7.276481918326217055e+03
-6.647128870803606333e+03
-5.152264061685118577e+03
-1.360679008215518252e+03
5.135734291628456958e+03
1.939975822957281707e+03
2.164056562769010270e+03
-1.712901532019434626e+03
-5.042874914570345936e+03
-5.516937830113122800e+03
-5.992040741841797171e+03
-6.992186694293806795e+03
-4.611394896266285286e+03
4.933735171507950099e+02
-5.338903454791797003e+02
-8.297217839651837494e+03
-7.360553194547568637e+03
-3.248790785214762309e+03
-3.628924274530521416e+03
-1.285969271837315773e+03
-1.969897568887604393e+03
-6.475992672301928224e+02
-1.073750097380908301e+03
1.465716022726778874e+03
5.989756217028934770e+03
6.467339173104359361e+03
7.225531777813685949e+03
6.593509733810906255e+03
5.641244890690759348e+03
5.139712926059647543e+03
4.153984677541809106e+03
2.689189979538573880e+03
1.456272629995316720e+03
7.132273271216785133e+02
2.201615745896428109e+02
3.360160151585479866e+02
2.646869668653433223e+02
5.392679261497020207e+02
1.236810385210505274e+03
2.563417627803921732e+03
3.697089931196796897e+03
4.311919200061466654e+03
4.908069321960327215e+03
5.377898341625740613e+03
5.954486947058967417e+03
6.070860377420603982e+03
6.126131267469489103e+03
5.748373467698085733e+03
4.863685067699620049e+03
3.540965957969758165e+03
1.273180706375011823e+03
-9.742783720658650282e+00
2.012401451739481502e+02
-1.513838791111990076e+03
-2.352123977263787310e+03
-1.929881972962107284e+03
-1.944799898588097221e+03
-1.513028383906132603e+03
-7.785756271106463373e+02
5.255104910733201677e+02
1.633601871056091795e+03
2.604845598092438649e+03
3.432296155901729435e+03
4.267731974873168838e+03
4.823524062458172921e+03
4.912030396684798689e+03
5.034829743022453840e+03
4.636170693061055317e+03
4.509181583025152577e+03
3.541559104772026330e+03
2.340880982685418530e+03
1.464026539649297774e+03
3.878217129895188009e+01
-6.198907340766180596e+02
-1.149050808145954534e+03
-1.554716538150001725e+03
-2.018938240944694599e+03
-2.139756083781200687e+03
-1.382121395400343090e+03
-5.429791387251735841e+02
4.346874585330826335e+02
7.028578742409009692e+02
1.548481476574500448e+03
2.484686354699468211e+03
3.257583582339547775e+03
3.797116171084221151e+03
4.177144212833196434e+03
4.191620838015463050e+03
3.644595608750877091e+03
2.913057693153601576e+03
1.772908771009994780e+03
5.321447957811959668e+02
-6.392080620542093357e+02
-2.044210113852324866e+03
-2.916940496975203587e+03
-3.206558201749103773e+03
-3.069165644936490480e+03
-2.780706804054043005e+03
-2.385234734604277946e+03
-1.303808697245958228e+03
7.859683738828591970e+01
9.930878428661815178e+02
1.587672074262501155e+03
2.045255027686875337e+03
1.866863308039743288e+03
1.065513881656595743e+02
2.239296991444376545e+03
1.159092255064933397e+03
-6.199054487131254973e+03
-8.659195303101023455e+03
-9.852408821978942797e+03
-1.079570236536885932e+04
-1.107215379368589493e+04
-1.182899515727657126e+04
-6.831294211244132384e+03
-2.593033418125774460e+03
-7.171080495393359342e+03
-1.237565482128127405e+04
-1.204377160798730802e+04
-8.311397691549069350e+03
-2.659502532038672598e+03
3.679968083289331275e+02
2.588947021033643523e+03
3.373409478144305922e+03
4.065510959805300445e+03
4.498179311856433742e+03
4.778376373567802148e+03
4.610121154524077610e+03
3.906308837879793373e+03
3.408918655169135945e+03
2.699991816372788890e+03
1.719449186482868072e+03
2.451309388697550560e+02
-1.226960945558885669e+03
-2.209842583560863659e+03
-2.810561087027834674e+03
-2.736135503388592952e+03
-2.566559871469024529e+03
-1.896821614433082459e+03
-1.116886577729852434e+03
1.432109482590893208e+02
1.191513774229628098e+03
1.779145419312596232e+03
2.505133367192430342e+03
3.164508694232496055e+03
3.754232252335477369e+03
4.101195645522976520e+03
3.904502971809961309e+03
3.682219465253788712e+03
3.443327112545257023e+03
2.568748490316829248e+03
1.135478880287277207e+03
-2.455327623007291606e+02
-1.745256863560964348e+03
-2.405763646315546339e+03
-2.650102097695265456e+03
-2.819319601947134743e+03
-2.500286501804953787e+03
-2.096927170487878811e+03
-1.381239527888507610e+03
-3.661830398513413911e+02
4.672831269430897123e+02
1.576249078895635648e+03
2.321816266427304527e+03
2.509111060853042090e+03
3.070079351647483236e+03
3.322654227450053440e+03
3.098883938202354329e+03
2.713693433467118211e+03
1.764082902656862871e+03
1.116208678714460802e+03
-4.755270728118427996e+02
-1.810154084344818102e+03
-2.760839348700369101e+03
-3.155718225605308362e+03
-3.451853986258332043e+03
-3.618322061150465743e+03
-3.558076298265948935e+03
-3.318210976611160731e+03
-3.524444677518749359e+03
-2.702070262747937704e+03
-1.020718194822725650e+03
1.055567773590418028e+03
1.924009086746790672e+03
2.539820473624306942e+03
2.946062770685924988e+03
3.293722735448024650e+03
3.230766875103789516e+03
3.034218209536762970e+03
2.294081233938793957e+03
1.362415641615329150e+03
4.402202482263683692e+02
-1.067534497221694437e+03
-2.433849983976794647e+03
-3.468714444097159685e+03
-3.717118638138165352e+03
-3.606098833272400952e+03
