-1.903488808309435262e+04
-1.992153482418490239e+04
-2.109712455010685517e+04
-2.184630080346241448e+04
-2.203764465449804993e+04
-2.236817527560502276e+04
-2.256277180020125161e+04
-2.238070290805853074e+04
-2.212018984091408856e+04
-2.166281411360216225e+04
-2.065312335266953596e+04
-1.969223812362355238e+04
-1.839445570171748477e+04
-1.728006286349359652e+04
-1.600835990343042431e+04
-1.484029919968114882e+04
-1.285273517227984667e+04
-1.089362975387879851e+04
-8.466631757790146366e+03
-4.845723091167944403e+03
-2.577007301652318347e+03
-1.532494443046781498e+03
3.526836776317256295e+02
2.480106515600693456e+03
5.030815001116413441e+03
7.831787062738512759e+03
9.656993635891636586e+03
1.085040900027597309e+04
1.163392445730723739e+04
1.247862988126768869e+04
1.358857171755683157e+04
1.516874782670129753e+04
1.623227168921745761e+04
1.539929282371625777e+04
1.301397635560297203e+04
9.074464884512717617e+03
9.721737223511823686e+03
1.114095512972717370e+04
1.127143929136027327e+04
1.360640577838422359e+04
1.854110722497005918e+04
1.963274303159943884e+04
2.075054546090514486e+04
2.105084179186884285e+04
1.934907186322364214e+04
1.293659051162818832e+04
1.151256901516285325e+04
1.090640421526763748e+04
1.014441032418311261e+04
8.322007683032619752e+03
6.342493981737177819e+03
5.279166181989726283e+03
4.842462749512329538e+03
4.771860837880546569e+03
6.001755637872157422e+03
1.705439866483912510e+03
-9.595644837232952113e+02
-2.111822588804279803e+03
-1.486944314554802986e+03
1.020591933903674430e+03
-4.749674305946157801e+03
-7.558145696521466562e+03
-9.645359535513367518e+03
-1.151277122871371648e+04
-1.336383808564671199e+04
-1.449004905354360199e+04
-1.529980713558775824e+04
-1.560855282342169085e+04
-1.504071725543375214e+04
-9.405655731925462533e+03
-4.629758067689602285e+03
-3.985390533838526608e+03
-5.453949232830814253e+03
-8.986908639343861068e+03
-9.499691585862030479e+03
-9.553530338612768901e+03
-1.019477846819993283e+04
-7.741851398488583982e+03
-4.454141853979242114e+03
-2.665982706716655230e+03
-2.921641902592310544e+03
-2.939475977712309941e+03
-1.805946406300708986e+03
1.624941402812705178e+02
2.403539240803378561e+03
2.944910085837685074e+03
2.929113194677144293e+03
4.257784491531990170e+03
5.521622454330710752e+03
8.192238760539372379e+03
1.145218892240318928e+04
1.381813654596631932e+04
1.473571045147942277e+04
1.476142941875862743e+04
1.417387377216703862e+04
1.428670756797229660e+04
1.497589580829039005e+04
1.508705049532492740e+04
1.431393446219281941e+04
1.342823315862996969e+04
1.352181767986805789e+04
1.438331850068476342e+04
1.510592337311513620e+04
1.549478105402745859e+04
1.672254469549339046e+04
1.599508716953464136e+04
1.512682446380809233e+04
1.490758486664705742e+04
1.714003982303364683e+04
1.847775753482383880e+04
1.868123411701394070e+04
1.865309991316114247e+04
1.789652577176068735e+04
1.656500795177993496e+04
1.478494512622843467e+04
1.310215554987583164e+04
1.242668290679988058e+04
1.108877012100457250e+04
9.101715645570351626e+03
6.929053247526948326e+03
6.156091200343316814e+03
4.850769114261865070e+03
2.244170873278255840e+03
8.799478699681368425e+02
-5.245141647416533033e+02
-1.438962769580447002e+03
-3.563948477954550071e+02
-4.240027961104586325e+02
-1.931242381579557559e+03
-4.072771148115666620e+03
-6.474125789479582636e+03
-8.248896536245096286e+03
-9.705602168708359386e+03
-1.038477570204778567e+04
-9.932011193983411431e+03
-8.900856200443704438e+03
-8.703902641896522255e+03
-9.560662349505979364e+03
-1.043275341887878312e+04
-1.014876177716923303e+04
-1.093139087285071764e+04
-1.066033457895576430e+04
-1.024221033204751257e+04
-1.238959992297328790e+04
-1.497201055218434703e+04
-1.673817659360077596e+04
-1.771684835689029569e+04
-1.885367982309839135e+04
-1.900329983845006791e+04
-1.812033731446490128e+04
-1.699436457262590193e+04
-1.561194315652675687e+04
-1.433289160496217846e+04
-1.138220789088668789e+04
-8.629469717284146100e+03
-6.535173882763880101e+03
-6.532085603869945771e+03
-8.010915386642894191e+03
-9.591366219947291029e+03
-1.065324043311842433e+04
-1.294718855093697675e+04
-1.317087187393738168e+04
-1.194408298395938436e+04
-1.066143896654616037e+04
-1.005156609982488771e+04
-1.022137465412923666e+04
-1.057153686165659019e+04
-1.144785953136354874e+04
-1.269723526414872867e+04
-1.327755392032941018e+04
-1.373086460223657377e+04
-1.467965631728826520e+04
-1.357027009082801669e+04
-7.799762464726904000e+03
-5.581157197165020989e+03
-6.145481647456623250e+03
-6.449535538391793125e+03
-4.134953658443112545e+03
-3.695680114504194080e+03
-3.825820129987579548e+03
-3.918213871378128715e+03
-3.713560252452638906e+03
-3.248684727484805080e+03
-3.211509741953849698e+03
-4.115952982999616324e+03
-4.732904227395438284e+03
-4.176382553799217931e+03
-2.838317413354069686e+03
-1.378664737460864899e+03
3.246919443226543081e+02
1.647931726073721165e+03
2.235985294827813505e+03
3.580609806522279996e+03
3.853709511504688180e+03
4.350432177887028956e+03
6.165950251801590639e+03
8.937390205370398689e+03
1.140264933211950301e+04
1.294868915642767024e+04
1.312753321746835900e+04
1.283730407479076712e+04
1.232099313628822165e+04
1.194420811539249917e+04
1.274285084784494029e+04
1.372598209753921947e+04
1.384647366258407965e+04
1.467611508087633956e+04
1.543780655581572137e+04
1.555355972452560309e+04
1.515424525435933901e+04
1.470981108368332389e+04
1.443116022977300418e+04
1.359791260768218854e+04
1.243674356076483127e+04
1.223838222896007028e+04
1.368241430581429631e+04
1.488170652863765281e+04
1.593218691263473193e+04
1.557483526418686779e+04
1.460239179552705355e+04
1.365246991181649355e+04
1.262171962727388745e+04
1.138584382817888218e+04
1.191762134240926935e+04
1.331234016285705184e+04
1.387062439465899297e+04
1.358931374474182121e+04
1.272399037601225064e+04
1.107621430193882225e+04
9.629780698455162565e+03
8.752406183764291200e+03
6.565617429158003688e+03
7.119836124863850273e+03
7.026719130388492886e+03
3.693153895588311570e+03
2.882422242436379747e+03
5.235933350618658551e+03
6.171910693974725291e+03
5.942729399472267687e+03
6.160999453707087014e+03
5.691465094185167800e+03
4.590431233108390188e+03
3.424288642060093480e+03
3.069565795933214758e+03
2.995841682690289872e+03
3.466636706584250078e+03
4.199302076320730521e+03
3.911323165653925571e+03
2.851261121921864287e+03
2.440679325671750576e+03
2.305039261140021608e+03
3.156675176385233044e+03
3.477026945945177886e+03
3.638628876826687247e+03
3.778067358500414684e+03
3.429719456287903540e+03
2.289815813820947824e+03
1.358699710565738769e+03
7.509654833435846513e+02
-2.109320697751983573e+02
-1.221437519951210106e+03
-1.903985627249703839e+03
-2.524075509241843520e+03
-2.839305596152918497e+03
-3.235398304161305532e+03
-3.332888612803359592e+03
-4.058441834350079262e+03
-4.148619292424626110e+03
-3.809979784896567708e+03
-3.318092397858302775e+03
-3.673452831431010964e+03
-4.535607278604309613e+03
-5.159063093573082369e+03
-5.406374240152694256e+03
-6.204132432445459926e+03
-6.606938931435351151e+03
-6.031447096540648090e+03
-5.991068072714722803e+03
-5.827030740870004593e+03
-5.609671638213391816e+03
-5.163770768174597833e+03
-5.039882148832944040e+03
-4.975425473628236432e+03
-4.378812301972840942e+03
-4.697392087987907871e+03
-4.965470508635599799e+03
-5.083538357183602784e+03
-5.327095146802953423e+03
-4.989683584730551047e+03
-4.034435307135080620e+03
-3.596377021431396315e+03
-2.941788549133559627e+03
-3.244906263925248822e+03
-4.110780772547968809e+03
-4.494740506931943855e+03
-4.170790753129191216e+03
-3.067609797024856562e+03
-2.594928457865386918e+03
-4.909359673769194160e+03
-4.579369789251844850e+03
-3.268112184387055095e+03
-2.324581910621184761e+03
-1.681522302632037963e+03
5.252362440895068403e+02
2.049105020173243702e+03
3.986809540496692080e+03
5.631358796186475047e+03
6.303333589509869853e+03
7.572851067117461753e+03
9.092750844464526381e+03
1.062676214217457527e+04
1.107153664308424050e+04
1.213845268624768869e+04
1.284456839207111625e+04
1.256070699580959263e+04
1.211093664761858417e+04
1.198500152851636267e+04
1.223634680788687911e+04
1.160109785890279636e+04
1.074482989459598502e+04
1.011990590182086453e+04
9.487470312027353430e+03
8.965233651500564520e+03
8.445194351899763205e+03
8.267608181370387683e+03
8.290497221800820626e+03
8.289444003413544124e+03
7.873516329135818523e+03
7.497290790839819238e+03
5.579144577430139179e+03
3.350293925704092544e+03
3.392762717809448077e+03
3.926716748781522710e+03
3.445992935667970869e+03
2.408427124247781194e+03
1.876281904367647257e+03
2.075684538356514167e+03
2.505242563526263439e+03
2.748103312857926539e+03
2.974674009839508017e+03
3.297767137441433533e+03
3.965016722039710658e+03
4.239951454428209217e+03
4.383874251484014167e+03
4.956083394076536024e+03
5.167958634494780199e+03
4.833625091501067800e+03
5.077014340739589898e+03
5.404598829635307084e+03
3.771328056382730210e+03
6.039677239753044660e+02
-3.273099466243530514e+03
-2.803933223045991326e+03
-2.439318030255854865e+03
-2.926754128272894832e+03
-4.310796281897667541e+03
-2.268478976141159364e+03
4.262702936998226505e+03
5.573290971469621581e+03
1.019034651534533964e+03
-9.484634683923541161e+02
-9.494444429365845508e+02
-1.808068506468551504e+03
-2.322166793935622536e+03
-2.833858616321969748e+03
-2.121897680168049646e+03
-1.278972551066447750e+03
1.300743699754173349e+03
-6.005065717048096303e+02
-3.043283548214970324e+03
-3.528025144814061605e+03
-3.076087811277674518e+03
-1.414014675881698849e+03
-7.360235255075192526e+02
-2.345811415291641879e+03
-3.233099009508216113e+03
-2.762822197236694592e+03
-1.149944950076448322e+03
3.872779092874878870e+01
5.343569231263100846e+03
8.676589581412699772e+03
9.587663511799430125e+03
7.127973208081003577e+03
7.954363897748114141e+03
9.039851545399924362e+03
8.108792088441111446e+03
7.795467264463272841e+03
7.166047155396448943e+03
6.471475886747814911e+03
5.813895814078609874e+03
4.787416504558264023e+03
4.003178006770298452e+03
3.670393599522747536e+03
3.615430483217349320e+03
3.349866735712580066e+03
3.886408851579784368e+03
3.048688010535290687e+03
1.541426165315248909e+03
9.309612871287554299e+02
1.593615568790685529e+03
3.318974301850610573e+03
3.121424272790653049e+03
9.194365794438252806e+02
-1.156289998849644689e+03
-2.865211084746537836e+03
-3.519817233175482215e+03
-3.524646738656285379e+03
-2.719152926691641369e+03
-2.550641271925203000e+03
-4.329257172979699135e+03
-5.542191389097190950e+03
-5.680833403094196001e+03
-6.563577577334585840e+03
-7.993592664058878654e+03
-8.780962884937622221e+03
-9.930806389729992588e+03
-1.137529629004271010e+04
-1.285666436784310281e+04
-1.506630586711723481e+04
-1.544749252280955625e+04
-1.422736930205585304e+04
-1.426906055098897741e+04
-1.291860799382541882e+04
-1.109896513575517747e+04
-1.123205213318569076e+04
-1.361197438697966390e+04
-1.792672616688629205e+04
-1.958950451554196843e+04
-1.671557647015699331e+04
-1.556825687691827261e+04
-1.566322133987695815e+04
-1.648011783883776297e+04
-1.739009058226202251e+04
-1.773864431904396406e+04
-1.836826371545416259e+04
-1.997603251161574735e+04
-2.077608319322117313e+04
-2.075368407477012443e+04
-2.069601884041095764e+04
-2.114834393758180158e+04
-2.192390111041623095e+04
-2.222593462481782262e+04
-2.285880473558681115e+04
-2.341088234011777604e+04
-2.441847368597078821e+04
-2.483003708808022930e+04
-2.421217434257150308e+04
-2.332860653912934504e+04
-2.291346244231326273e+04
-2.318606419559910501e+04
-2.411188183584613944e+04
-2.478353834125918729e+04
-2.479879356123434263e+04
-2.485333977600344951e+04
-2.517694788644470827e+04
-2.614150585912237148e+04
-2.690576284343335283e+04
-2.674033946748553717e+04
-2.770800416173168924e+04
-2.845757671999564991e+04
-2.866190390300994113e+04
-2.921993593487250473e+04
-2.975662212380929850e+04
-3.050601160859222728e+04
-3.120102031583274584e+04
-3.156466250147493338e+04
-3.051712401775806939e+04
-2.781568139628192876e+04
-2.715661556265713443e+04
-2.776518950056020913e+04
-2.875470609376942957e+04
-2.947774031553464010e+04
-2.978091997451931456e+04
-3.010767033131153585e+04
-2.870249954314183196e+04
-2.612080155254415513e+04
-2.387624690013705549e+04
-2.180856545511735021e+04
-1.929358633673927034e+04
-1.644305470884667011e+04
-1.461191850815433463e+04
-1.363328255311541398e+04
-1.222504565407361224e+04
-1.091815260817683520e+04
-1.067663858347178575e+04
-7.758604923594862157e+03
-3.628237108940547387e+03
-2.977135799682710058e+02
3.257890569835242331e+03
6.954978845236549205e+03
1.216423921477682234e+04
1.800400882352699409e+04
2.221942816182293973e+04
2.394871390305977184e+04
2.476562251813865441e+04
2.574957883250583109e+04
2.779000207186075932e+04
2.939032676856068792e+04
3.071594439106033315e+04
3.121209680822587325e+04
3.234010047994974957e+04
3.347520845074304088e+04
3.311352144968831271e+04
3.223620185502845561e+04
3.311851713993385783e+04
3.527073877178008843e+04
3.677608420699558337e+04
3.726463031542606041e+04
3.750730762849507300e+04
3.801221902434789808e+04
4.056641302862099110e+04
4.312792075692794606e+04
4.360197123190318234e+04
4.247680192231933324e+04
4.169033477831580967e+04
3.997852564197133324e+04
3.938935863329851418e+04
4.070585042642027838e+04
4.281418073783419823e+04
4.480133254603570822e+04
4.514021890468403581e+04
4.580792874216208293e+04
4.511857139258716052e+04
4.467707763739538495e+04
4.392439469413788902e+04
4.303855941139260540e+04
4.242073878360074741e+04
4.172012896269893827e+04
4.111787237506292149e+04
4.104409202247249050e+04
4.015482597435711068e+04
3.860029870021992974e+04
3.638161800334335567e+04
3.380013588675022766e+04
3.307719941336307966e+04
3.539899392475523200e+04
3.449877057143246202e+04
3.293491590296713548e+04
3.226692557847740682e+04
3.123230812804561356e+04
3.066149052658864457e+04
3.131931515067687724e+04
3.121035721785539863e+04
3.013430901302669736e+04
2.736887289903346391e+04
2.720088775996386175e+04
2.989211757470008524e+04
3.233747336720854219e+04
3.454894935156769498e+04
3.183862985895719248e+04
2.969058056275323543e+04
3.046197752126439082e+04
2.909810649764960908e+04
2.519539176565681919e+04
2.675020256718863675e+04
2.651027731781231705e+04
2.733492726720708015e+04
2.997374428541727684e+04
3.447246033856159920e+04
3.644283552357502049e+04
3.467260728286589438e+04
3.151681604235167833e+04
2.937552978125399386e+04
2.291979924963799203e+04
1.997491736925073201e+04
1.724628706245287322e+04
1.286131862066814028e+04
6.327428137887968660e+03
-9.336644869734869872e+02
-6.393486709576453904e+03
-1.279240351159876627e+04
-1.613940923611251492e+04
-1.978351846841368751e+04
-2.626663867839023078e+04
-2.917878875604091445e+04
-3.772762427811989619e+04
-4.253688224915238970e+04
-4.603625924973779183e+04
-5.345121804798243102e+04
-6.216622216889616539e+04
-6.858164462342641491e+04
-7.496281588204820582e+04
-8.223207457922080357e+04
-8.983959615722375747e+04
-9.505629118331687641e+04
-9.886604125693446258e+04
-1.039037384054116847e+05
-1.074751409707340645e+05
-1.095391548790957459e+05
-1.158225495300115872e+05
-1.231098349145254761e+05
-1.275155508607973607e+05
-1.330782412063563534e+05
-1.343013778217260260e+05
-1.343903000311202195e+05
-1.427623718020716915e+05
-1.561119326429099601e+05
-1.644072227269222494e+05
-1.702784145413370279e+05
-1.754425246446501988e+05
-1.775035886581378581e+05
-1.757786170541809988e+05
-1.709995854349911388e+05
-1.657385465154873964e+05
-1.684145424473348830e+05
-1.754193727622692240e+05
-1.757496303294802492e+05
-1.729689979059634788e+05
-1.711411845930936688e+05
-1.664072961339500034e+05
-1.549581505467919924e+05
-1.360343523129356618e+05
-1.135744984259323101e+05
-9.175360878969720216e+04
-7.003596005731250625e+04
-4.615993696089461446e+04
-2.177870797023368868e+04
7.174648671133796597e+03
4.008877932615211466e+04
7.020782817205785250e+04
9.357474705855554203e+04
1.162170901970499835e+05
1.204880132363378943e+05
1.077566892321079940e+05
9.444504891069458972e+04
9.719757137273871922e+04
1.077723874226946209e+05
1.148824805664109881e+05
1.152108328537264897e+05
1.126044229065482941e+05
1.118567766870031192e+05
1.128488698438732099e+05
1.131873705360820895e+05
1.141227156117244594e+05
1.159451797711923136e+05
1.202521254831804254e+05
1.252105413095140684e+05
1.275759700487477676e+05
1.316370983893106168e+05
1.348668380204390560e+05
1.358549637737582671e+05
1.380276010523973964e+05
1.410671607844705286e+05
1.436936765629896836e+05
1.433160960065422405e+05
1.415242131105189328e+05
1.378540141094260616e+05
1.326165043881472375e+05
1.257493295819748892e+05
1.170578344194083766e+05
1.082503939120377909e+05
1.019163846382162301e+05
9.892395051851549943e+04
9.881838542325291201e+04
9.898289228520878532e+04
9.815648851697168720e+04
9.618900628118180612e+04
9.153912253182135464e+04
8.587978487068423419e+04
8.222159318256900588e+04
7.763089901324152015e+04
7.249009797047560278e+04
6.601349010439217091e+04
5.805416049041999213e+04
5.015202478930613870e+04
4.402113335552759236e+04
4.154951229005200003e+04
3.873285608048534050e+04
3.449574842355051078e+04
2.944783421333396836e+04
2.453866438011449281e+04
2.046562052254886294e+04
1.727495535225697677e+04
1.208092244512829893e+04
5.627625502208628859e+03
-9.810142719499744999e+02
-7.457227172685765254e+03
-1.454330923097270897e+04
-2.168349679656734952e+04
-2.715933079354339498e+04
-3.056140414448263618e+04
-3.401616862109981594e+04
-3.467425789588681801e+04
-3.519087782271795004e+04
-3.731707218735187780e+04
-3.904714580768031010e+04
-4.156105930160942080e+04
-3.914379813450530492e+04
-3.765035595315400860e+04
-3.947392481233071885e+04
-4.206687181425360905e+04
-4.468555272178279120e+04
-4.680125372584579600e+04
-4.950245322867594223e+04
-5.119268820977566793e+04
-5.240650872185784101e+04
-5.338349160916911933e+04
-5.465039457137883437e+04
-5.643594866153080511e+04
-5.753480241012509214e+04
-5.663877156955352257e+04
-5.569772793182329769e+04
-5.629250542890820361e+04
-6.106105439075891627e+04
-6.273634601809806918e+04
-6.114133263720435207e+04
-5.920792424282492721e+04
-5.729011184837305336e+04
-5.546198431779855309e+04
-5.234955985034141486e+04
-4.959480991599549452e+04
-4.943479377078832476e+04
-5.096150394743516517e+04
-5.150897610042632732e+04
-5.225139148788250895e+04
-5.303871839200513932e+04
-5.231296880822929234e+04
-5.148819358100416866e+04
-5.122336895143787842e+04
-5.075949304184765060e+04
-4.822457595812060754e+04
-4.455952224648457923e+04
-4.130522735042476415e+04
-3.877880343429515779e+04
-3.630420242534003046e+04
-3.381108401662362303e+04
-3.103710484592280045e+04
-2.961594879202483571e+04
-2.884243734304969985e+04
-2.716228151238157807e+04
-2.475704248850311342e+04
-2.066635490550033501e+04
-1.711492382693833133e+04
-1.373936591586295253e+04
-1.143110754754827758e+04
-8.701511112750467873e+03
-5.159910791784648609e+03
-2.778372755204169152e+03
-7.899861244843145869e+01
2.826976604895102810e+03
5.476476430528663514e+03
7.106603353548608538e+03
7.928139452678741691e+03
9.050004077677216628e+03
1.051937149187199793e+04
1.029478939348919084e+04
9.151769457996984784e+03
1.350568452700574198e+04
1.450980911826564079e+04
1.452067592981653252e+04
1.682418667248425481e+04
1.770011923049524921e+04
1.896524321063448588e+04
2.018828192629415935e+04
2.113646555511673432e+04
2.059140248122226694e+04
2.083505131225696095e+04
2.120736385460715246e+04
2.037891021599825399e+04
1.912033703793008681e+04
1.766112842181300584e+04
1.638962349273651125e+04
1.654249061616430481e+04
1.651964988593459202e+04
1.542092729283182052e+04
1.406230546240947115e+04
1.212269663029426374e+04
9.504970773312285019e+03
8.500243958858984115e+03
9.344918766222926934e+03
9.140474123793281251e+03
8.397292798273321750e+03
6.660893571426054223e+03
4.440700287592599125e+03
4.489150713631323924e+03
4.319818907555873011e+03
3.116424745012588573e+03
2.671876054765991285e+03
3.872977387188167086e+03
3.312747069569044015e+03
1.970153314054994553e+03
6.302654837492615343e+02
7.282461753204261186e+02
1.584145028684279623e+03
2.504211421995059027e+03
3.694708147380482842e+03
3.851806915258811387e+03
3.907882829102747564e+03
2.711430510803413654e+03
3.883889231459812891e+03
5.872785139248840096e+03
6.674512083478418390e+03
6.255367162050644765e+03
5.860138815691566379e+03
5.794490156129521893e+03
5.894958922465959404e+03
5.026222466614879522e+03
6.557906667580119574e+03
7.461548449240084665e+03
8.615889915292304067e+03
9.091731515707415383e+03
1.071701539845082880e+04
1.205624649758042142e+04
1.297588605876348265e+04
1.442064964403857448e+04
1.543632458818437226e+04
1.483309701922024942e+04
1.390776118056257837e+04
1.356295047493583479e+04
1.524960206376626411e+04
1.606668611999027235e+04
1.709468213970855504e+04
1.717712991818556111e+04
1.766005680389721601e+04
1.809405977896149489e+04
1.765340141546646191e+04
1.685516506549558108e+04
1.638121030037034870e+04
1.670741163189294093e+04
1.576210203511789405e+04
1.449560975525575304e+04
1.491129391924861011e+04
1.608066858386820786e+04
1.680650336740804778e+04
1.873760654455039912e+04
1.919765136820451153e+04
1.776310191004163789e+04
1.712050550989854310e+04
1.669606047765746553e+04
1.745405076266626929e+04
1.700148142985206869e+04
1.755034268280147444e+04
1.754439635951130913e+04
1.669060761405736412e+04
1.671506015911487702e+04
1.680218670286084671e+04
1.699609428544147522e+04
1.721008639841575132e+04
1.606619493936272193e+04
1.416382324702192091e+04
1.352069588211330847e+04
1.428757809517098758e+04
1.359130681076157089e+04
1.303368011195208965e+04
1.269820798741575345e+04
1.201433145452252757e+04
1.189607477698818366e+04
1.138837860947329318e+04
1.058681719579216951e+04
1.000080819282150151e+04
1.034041316104411817e+04
1.019591268929947364e+04
9.128363005944169345e+03
7.679744936679677267e+03
6.328228534635455617e+03
5.833777565822489123e+03
5.717418180331562326e+03
6.521862967976926484e+03
7.554716101255894500e+03
6.841714455431721035e+03
4.791741749166285445e+03
3.642261623285882251e+03
3.653515957330026140e+03
3.433824270348950904e+03
2.815783433613035868e+03
1.908289044768669783e+03
1.518393118963462882e+02
-7.716490778406069921e+02
-9.755634070907026398e+02
-1.248007333096588582e+03
-3.069744188884688356e+03
-5.064748624885864956e+03
-6.508065868163807863e+03
-1.138846229879466773e+04
-9.916517663978240307e+03
-1.050456484125652241e+04
-1.510142191086635648e+04
-1.609158680440596436e+04
-1.637800090625489065e+04
-1.617698058185401896e+04
-1.638853693519756052e+04
-1.614794391027843085e+04
-1.619199330831393672e+04
-1.512592513842485641e+04
-1.275715881730912224e+04
-7.437689148378010941e+03
-6.765759287416943152e+03
-6.763126296336418818e+03
-8.187484024458413842e+03
-1.305439614033695943e+04
-9.039713046796525305e+03
-7.759120303872519798e+03
-8.872451646875206279e+03
-1.066355545080837692e+04
-1.143488195260569046e+04
-8.490192833359233191e+03
-8.791022858139675009e+03
-9.974813249745655412e+03
-9.844347339262785681e+03
-9.596333748931934679e+03
-1.029442811202340090e+04
-1.304501520072373569e+04
-1.426467234192588512e+04
-1.243676970839298338e+04
-9.947849887625437987e+03
-9.350394092635471679e+03
-9.493656996062862163e+03
-9.753923653383133569e+03
-1.096382858199035763e+04
-1.238130348233087716e+04
-1.349022515877118894e+04
-1.365627187975310153e+04
-1.310787033526833329e+04
-1.234150616526332487e+04
-9.367499884374592511e+03
-7.845296071903817392e+03
-8.202500126183726024e+03
-8.484426596074719782e+03
-7.553595766149566771e+03
-6.909340655895469354e+03
-7.225701789931993517e+03
-6.935147228217707379e+03
-6.606316437091157241e+03
-6.941015203123010906e+03
-7.441559919612001977e+03
-7.805183754741461598e+03
-7.866268005008223554e+03
-7.174151221099136819e+03
-7.053183662582665420e+03
-6.227871768524873005e+03
-5.008326575967180361e+03
-5.456607320984691796e+03
-5.801994420176944004e+03
-5.347784596898632117e+03
-4.861217127823524606e+03
-4.435014521764102028e+03
-4.337404845919021682e+03
-4.322979220581550180e+03
-6.838767928854801539e+03
-5.357521393055368208e+03
-4.449354094957803682e+03
-3.700286000521690312e+03
-3.718391569374541177e+03
-3.904964602720329822e+03
-3.062432515068688190e+03
-2.169485574491785883e+03
-1.966451479065184913e+03
-2.454270599459595360e+03
-2.879082414700289064e+03
-3.144084998948891098e+03
-2.950244103828222705e+03
-2.317609930586072551e+03
-1.438141271415856409e+03
-2.095796902446520107e+03
-2.738420829297643195e+03
-2.403792807684715171e+03
-2.234035527593410734e+03
-3.227282451583454076e+03
-3.433473652210269847e+03
-3.125381974610147608e+03
-2.720391156375646915e+03
-2.416617433406004238e+03
-1.719189099706775096e+03
-1.584901727429201628e+03
-2.407604631717531902e+03
-2.638145609150398286e+03
-1.966369796002575185e+03
-1.625982994831425685e+03
-1.235425978600614144e+03
-4.972537005986168310e+02
-4.781696601434913418e+02
-7.289458488329353258e+02
-6.842554546462156395e+02
-5.018843673630822764e+02
-2.515589487323622393e+02
-1.079566848068577514e+02
-8.765970020495494737e+02
-1.330252862737305122e+03
-1.243690454952024311e+03
-2.581346090008901228e+03
-3.139813780459140162e+03
-3.198954574653595046e+03
-2.726612196117238454e+03
-1.770686075451965280e+03
-2.102917429269715285e+03
-2.849993376172724766e+03
-3.062492425691392782e+03
-2.109858237758619907e+03
-1.643721506096482472e+03
-2.929650497994842226e+03
-4.428329643279922493e+03
-5.381338692792090114e+03
-6.128260607797944431e+03
-5.238759205004517753e+03
-3.781328978925342199e+03
-3.112517820633624979e+03
-2.678909946760220464e+03
-2.207079526882864229e+03
-2.916488843895560876e+03
-5.311856248113921538e+03
-9.511752918006544860e+03
-1.058730026450287005e+04
-9.307815917894515223e+03
-6.327841011446431366e+03
-4.436598627244959971e+03
-4.070092956065926046e+03
-3.033932888122396434e+03
-2.846926537386701057e+03
-3.947489074944415734e+03
-7.409194096698392968e+03
-9.298678297916269003e+03
-4.664580639381452784e+03
-3.136398771098339239e+03
-5.297705269986860003e+03
-4.944062389807638283e+03
-3.333035419449383426e+03
-2.843252107683245868e+03
-4.330303617718888745e+03
-4.811819402146168613e+03
-3.552508246545955899e+03
-3.263031599859903508e+03
-2.373034762269206112e+03
-2.292081600200136108e+03
-2.614993026802666009e+03
-2.992412273637160979e+03
-3.046967850927108884e+03
-2.637633044109659295e+03
-2.064164320045276327e+03
-1.842269071801478276e+03
-2.111589378142059104e+03
-2.457785177289380954e+03
-2.756914096502889606e+03
-2.767820885627148982e+03
-2.604271638921134581e+03
-2.591128192118920197e+03
-2.603478505962051713e+03
-2.577143648455986749e+03
-2.493107738040835557e+03
-1.622409075976634995e+03
-1.693113442341389828e+03
-1.160139545423646950e+03
-1.505504242575858029e+02
3.155888038898827119e+01
-1.108796041830873662e+02
4.079633818319778698e+02
1.732511931460429082e+02
-1.282329617043903625e+02
-2.207037166178096470e+02
1.286731665492337982e+02
5.966321016105127910e+02
1.273962032945445344e+03
1.795516155400138814e+03
2.434164729026428176e+03
3.092713611210964245e+03
3.283577652428156398e+03
3.385406920497990996e+03
3.485018785647698223e+03
4.231376294616586165e+03
4.247840945654459574e+03
3.637947034500541122e+03
2.647283061642991015e+03
2.037544175912359378e+03
1.562467450600101301e+03
1.084739877840084546e+03
1.473824319806055655e+03
1.819138636758180837e+03
1.489359918291353551e+03
2.774070130628020706e+03
-6.264278137830556261e+02
3.963399091147920785e+02
2.281844303124393264e+03
1.135566420730566279e+03
3.231930062474054012e+03
4.136400903682959324e+03
5.937434616750639179e+03
3.923282785854260055e+03
5.384356493831111948e+03
6.312247088605403405e+03
6.023351155886909510e+03
5.979951648730311717e+03
6.139160094825449960e+03
6.257101398328980395e+03
6.821284298058068998e+03
6.712309066978984447e+03
6.022514257908076615e+03
2.949232898508021663e+03
4.602799851159301397e+03
5.485484133968472634e+03
6.488438102094654823e+03
7.004891412706352639e+03
7.258348782728111473e+03
6.568360360889630101e+03
2.708307918262704334e+03
2.600512482041594922e+03
1.799139445592263883e+03
5.110528940253771907e+03
4.908992490163504044e+03
4.911695503532398106e+03
6.403880884984829208e+03
6.971987743664045411e+03
5.922334049511385274e+03
2.937266027613950428e+03
-2.607735931817385335e+02
-1.363584270062039650e+03
3.272738981699829424e+02
-3.207244777546900991e+02
-1.768299797693577148e+03
-3.197319698874835467e+03
-4.378384206178667228e+03
-3.844008487597496696e+03
-7.527872241410289007e+02
1.474690128256077287e+03
2.714774440393729947e+03
2.046845224517534007e+03
-2.427402396464366063e+02
-1.896641245593435769e+03
-2.416226345776331982e+03
-3.146965968793998400e+03
-4.563620794957397266e+03
-6.911791199873014193e+03
-8.435670094152143065e+03
-8.300615123567620685e+03
-6.642142311966886155e+03
-5.285449484604740974e+03
-5.389938530222656482e+03
-5.744723302651722406e+03
-5.491303580152065479e+03
-6.833506675425068352e+03
-8.178889255700431022e+03
-6.721780167635191901e+03
-8.052019570863574700e+03
-8.680487044344925380e+03
-8.332962649971086648e+03
-7.939457315070356344e+03
-8.188217964162775388e+03
-8.353442769884930385e+03
-7.502483974485660838e+03
-7.485464066269133582e+03
-9.211633082534459390e+03
-1.071260895152634839e+04
-1.199843810309418404e+04
-1.198661240693261607e+04
-1.085945900184999482e+04
-1.036365084840251438e+04
-9.196733388876560639e+03
-7.690422558357209709e+03
-8.445486881574286599e+03
-9.064664546189975226e+03
-9.287795254243097588e+03
-1.081347167501901095e+04
-1.216508709999464736e+04
-1.309500248924418520e+04
-1.289935254837413231e+04
-1.194653455271288476e+04
-1.128947736411931692e+04
-9.981238753795374578e+03
-8.474767058117944543e+03
-6.235948891183548767e+03
-4.759538310551739414e+03
-2.264409412687383792e+03
-1.175569116629088057e+03
-1.587880803872023534e+03
-1.372047580563270230e+03
8.752692687034240180e+02
3.931487180231553339e+03
5.497976433086574616e+03
6.288075538059272731e+03
6.363023722579639980e+03
7.543163144907228343e+03
8.668939269263451934e+03
9.691739502164018631e+03
9.993646540422276303e+03
1.047513260799440286e+04
1.215384206302631355e+04
1.243032935644669124e+04
1.232304898188804145e+04
1.531957325707787277e+04
1.747454698315343921e+04
1.812350555475534929e+04
1.719105835457623471e+04
1.714680768129231728e+04
1.779045768917971145e+04
1.730973190296007306e+04
1.679426648745468265e+04
1.681282056403184106e+04
1.531921827941759511e+04
1.399206313115327976e+04
1.379401818156416812e+04
1.264404088870731175e+04
1.012889217136730986e+04
5.532312723528625611e+03
6.191216620381588655e+03
8.238448938195278970e+03
7.552898910016150694e+03
9.240325431527202454e+03
6.814878929209608941e+03
5.562149348213692065e+03
4.722357152923566900e+03
5.476488173974098572e+03
3.381339769216132936e+03
