3.076930197032392016e+02
1.781208687251552874e+03
2.963267205715299951e+03
3.270955671817584516e+03
4.062302639482560608e+03
3.769397992134289780e+03
3.361372355599696220e+03
3.077289664525965236e+03
2.175148240839439495e+03
-2.519090929569041464e+02
-1.735770744095271994e+03
-1.990369847747269432e+03
-2.089734242511236971e+03
-2.620821968510446368e+03
-3.422624623539434651e+03
-3.684965108805093223e+03
-3.381774397656691235e+03
-3.847951336462855579e+03
-3.903404017188953276e+03
-2.747119164482262022e+03
1.461992387941488460e+03
2.396049589248135817e+03
-9.328122634744972856e+02
-2.582523153264775374e+03
-2.715008900427236313e+03
-6.760674809697010232e+02
3.542331503946680726e+01
-3.174456217457846833e+03
-4.199716840123415750e+03
-4.252187946930952421e+03
-4.327750186700045560e+03
-4.499385764373935672e+03
-4.314055732876167895e+03
-3.947719934171569093e+03
-4.170216342282026744e+03
-4.637505546048599172e+03
-4.827566828106887442e+03
-5.028302491068741801e+03
-4.543579306995220577e+03
-1.246318359524749212e+03
4.636295180528356923e+02
-4.166391196097427496e+02
1.157963565730727169e+03
1.935583950339375633e+03
4.068298889103050897e+03
5.029146555727867053e+03
5.099205197715285067e+03
4.819542700422904090e+03
3.856230948330297451e+03
3.441336541034617767e+03
3.860940708690799966e+03
3.850114387021180391e+03
4.012948760188468441e+03
4.199427678440508316e+03
4.358642091134523071e+03
4.135575035635239146e+03
3.399281628419830213e+03
2.628820506730616671e+03
2.349254440369536042e+03
3.123726783477799472e+03
3.602300901774311114e+03
3.783124320141941098e+03
3.297329827228285467e+03
2.879165871813210288e+03
2.902589855156060366e+03
3.074632664186294278e+03
3.841353407317884376e+03
4.168779613263884130e+03
3.936922954475121969e+03
3.915853446528185032e+03
3.752719422796799790e+03
1.602462548955450075e+03
2.087814925598028822e+03
2.492819971117601199e+03
2.080964285469549850e+03
1.728140784913275866e+03
1.662699689605630056e+03
1.173722912046110650e+03
1.186366225656820461e+02
-1.588207171415712082e+02
4.444865350414667091e+02
8.578914002112198887e+02
1.183351226265203877e+03
1.346810324585922672e+03
2.158225199738953506e+03
2.904555314227934105e+03
3.425761342270050136e+03
3.432823785705163573e+03
3.494783083071718920e+03
2.588659885236118498e+03
1.082302931505872948e+03
-2.513432284833376968e+02
-2.348951344632134806e+03
-3.811638240522681826e+03
-4.834864034730884669e+03
-5.047682960631391325e+03
-3.417011726893025298e+03
-2.189821789645041463e+03
-1.774127026147969218e+03
-8.439621241785498569e+02
1.906499992667973515e+02
6.097452335962881307e+02
1.257359345545066844e+03
1.848422842329260220e+03
2.986978513606621163e+03
3.878065257440791811e+03
3.724493511352191035e+03
3.896033207859799404e+03
3.841694219044811689e+03
3.019561294164274841e+03
2.693700264549795975e+03
2.570097204394506662e+03
1.908775743932653313e+03
1.045686501589520731e+03
4.628170467993128341e+02
-6.498944381338712901e+02
-1.034532759998022357e+03
-1.280124360829227271e+03
-2.029676307790828332e+03
-2.309232297161924180e+03
-1.875776067664752418e+03
-1.102277701738903033e+03
-6.377153366829811603e+02
-8.760953646677324969e+02
-1.090398184865538951e+03
-8.026639536028822022e+02
-6.079111469271668966e+02
-9.824536639403181937e+01
6.222917849137008943e+02
6.006902104943463883e+02
1.049360985717644326e+02
-6.739622355252989792e+02
-2.129066255371073112e+03
-4.798318138395670758e+03
-6.158761440728282651e+03
-7.232387489876089603e+03
-7.859248450917686569e+03
-8.005359005285656167e+03
-8.360674095538723122e+03
-7.440184418613484013e+03
-6.474833663146000617e+03
-5.832559836018303940e+03
-5.288333777173309500e+03
-3.707202042023263402e+03
-1.020484399904178119e+01
7.476676004824431629e+02
4.354380438885111744e+02
7.100761990260631364e+02
9.375851234315981628e+02
5.709726803484527409e+02
4.423647383302056113e+01
-4.496242661198799624e+02
-7.535105934231122546e+02
-1.077510062185939205e+03
-2.056646743258495007e+03
-3.332900898681887611e+03
-4.455321728735557372e+03
-4.916955133443082559e+03
-4.442844334309502301e+03
-3.612024629133632516e+03
-2.904570289725356815e+03
-2.570376358590715427e+03
-1.694340834559134919e+03
-1.107470462686442261e+03
-5.548723821691787634e+02
2.615007083034794846e+02
8.526914285898582193e+02
1.625558457502630517e+03
1.925076950550714400e+03
1.852326689235311505e+03
1.484426734555960365e+03
1.914495319345242592e+02
-9.936932773580261937e+02
-1.995031210230985153e+03
-2.650606800559658041e+03
-2.394403449817281853e+03
-2.104423164579663535e+03
-1.781686186887848180e+03
-5.771990959113024928e+02
3.310787744452292145e+02
8.772555047061970299e+02
1.305344621436357784e+03
1.393252868234733569e+03
1.680079499652241338e+03
2.357897346380318595e+03
2.882754457818026367e+03
2.642623578873842689e+03
2.298481059205366364e+03
1.882309911061697221e+03
1.622139405345196792e+03
1.571048753186358454e+03
1.380088265732471655e+03
1.194323539394976251e+03
7.777122668634674483e+02
7.500050961107297098e+01
-6.795156279701868698e+02
-1.075951567227344412e+03
-1.664374540772843147e+03
-2.285030504598523294e+03
-2.225618158294182649e+03
-8.491022080217612711e+02
5.041633146596495862e+01
3.431333689714189177e+02
2.910014723480631460e+02
7.500798453356258051e+02
1.052370130263845112e+03
1.294863504748497007e+03
1.885530385015789989e+03
2.346415713057461289e+03
2.846657960787715638e+03
2.739272995024512056e+03
2.613259931833031715e+03
2.436610241573018357e+03
2.185354195412129229e+03
1.578422098536096883e+03
7.587809396856034709e+02
-8.659679063894462558e+01
-3.846982187052352060e+02
-9.304806087568512112e+02
-6.008924705011519336e+02
7.014800920431100906e+01
7.256912693177692972e+02
1.195790183013539036e+03
1.858470433072026935e+03
2.288653923514601502e+03
2.464310046551701816e+03
2.273538452894620605e+03
2.054476765530163902e+03
1.518133214498056304e+03
1.375446879620765230e+03
7.753892299945326840e+02
-4.000760419894529463e+01
-1.001762584493207669e+03
-1.543988113862508726e+03
-1.549663116107022461e+03
-1.388798176762872572e+03
-1.470494285315626485e+03
-1.534828769566157462e+03
-1.417734940637270938e+03
-1.237067772540116266e+03
-7.597230162992029818e+02
-1.586718587649635310e+02
2.980206680780729016e+02
7.713477051154618493e+02
1.046123040796972191e+03
1.339231401965391342e+03
1.526599894255781464e+03
1.442321056000585031e+03
8.634501629927838167e+02
3.998267235291065163e+02
1.406268881275673550e+02
3.688515487687877794e+02
-1.258643651303206212e+01
-8.556253404147408901e+02
-1.435268393585284684e+03
-1.670552389775675010e+03
-1.887457237041858207e+03
-2.394097356435439451e+03
-2.929849406981491029e+03
-2.655806732605826255e+03
-2.592859967055331708e+03
-2.398990747749985530e+03
-1.889128137628093100e+03
-1.488418094849686213e+03
-9.179047557671983668e+02
-4.505491016772590456e+02
1.356368626092775003e+02
9.348959184270263449e+02
1.123947837544488493e+03
1.142473128672513894e+03
6.877022674915549487e+02
4.873719263948075877e+02
3.955363894954551824e+02
4.941682343925062355e+02
2.861390540178628044e+02
-7.204568384112118338e+02
-1.295616878068109600e+03
-1.435859037082403802e+03
-1.468213628339108936e+03
-1.894264342121968639e+03
-2.017871151775918634e+03
-1.334425297782127473e+03
-5.756967184847155750e+02
4.813242530509975836e+02
1.146647731982616733e+03
1.972262974112748907e+03
2.586014852567377147e+03
3.213838666523169650e+03
3.479694252070607035e+03
3.117110272796117442e+03
2.903174653012383715e+03
2.699134937250231815e+03
2.324716152302496994e+03
1.992859040807452402e+03
1.599376093890072298e+03
1.030177128161713654e+03
9.887004785280381611e+02
6.763477160889077595e+02
7.210325578640239428e+02
9.549280121126020049e+02
1.586128761125920391e+03
1.780538344826272578e+03
2.468989558643706005e+03
2.986534025436688353e+03
3.194207183538205754e+03
3.469093362142007663e+03
3.850109038128706743e+03
4.015160412717385498e+03
4.047337242550333940e+03
3.979634415972958323e+03
4.117770014504816572e+03
3.377610920774492570e+03
2.807040410106406398e+03
2.264985102343401650e+03
1.656735392199660282e+03
1.340213016128463551e+03
2.750810380057932889e+02
-1.564965802865820706e+03
-4.022045156074990700e+03
-4.427035409864545727e+03
-4.626970215656113396e+03
-4.445850400910372628e+03
-3.506914884325246476e+03
-2.743345074131303591e+03
-2.395340612253437030e+03
-2.105742102364588391e+03
-1.353912289862251782e+03
-7.361863678697992555e+02
-5.219469236872247393e+02
2.998782943068136433e+02
3.475927272739701493e+03
5.265878096990432823e+03
2.693346955323585462e+03
-6.841161987533339470e+02
5.131673144530041100e+02
-2.613933741324111679e+02
-2.524280480720164633e+03
-2.721723980249845681e+03
-3.125200560255206710e+03
-3.000313750451236501e+03
-2.445429218866885094e+03
-1.502892512513062002e+03
-7.361168639879265356e+02
-3.124790586260496070e+02
-4.614460936393525969e+01
-2.893831554334863654e+02
9.978091794654227442e+01
1.632259575533329553e+03
5.393902767542741458e+03
6.975553074534755069e+03
6.884140848003623432e+03
6.318685668715243082e+03
5.739867984022764176e+03
5.205549485784184981e+03
4.734683529628615361e+03
4.296924296866324767e+03
3.369358303617189904e+03
2.596784664188628085e+03
2.117761563659285002e+03
1.991490807253682306e+03
2.598172564477592005e+03
3.369219402107507904e+03
3.681888672958736151e+03
3.868522904123894023e+03
3.962322878224378655e+03
3.821349708535396530e+03
3.773837357718755356e+03
3.770934766596180907e+03
3.750680319484588381e+03
3.433269062434845182e+03
3.592949750435432179e+03
3.883004576106918648e+03
3.520780943434599067e+03
3.224522066823622481e+03
3.212422797431903291e+03
2.373913362487508493e+03
1.370356029378018548e+03
8.550274593642050149e+02
6.282007400862278246e+02
7.811881574089279638e+02
7.464622535555238301e+02
4.963588690024524226e+02
8.751079341730696797e+02
1.144972351580846862e+03
1.256354102396670669e+03
1.427826907066110834e+03
1.367783407204660307e+03
9.235785465141602799e+02
-1.663622490027914580e+02
-7.446371750953437640e+02
-1.552710302336391806e+03
-1.973397486705636993e+03
-3.177422448190000523e+03
-4.726274570296455749e+03
-6.042607509154564468e+03
-7.697973682377004479e+03
-8.753100587832450401e+03
-9.364448185974730222e+03
-9.864637525209587693e+03
-1.020248845762328892e+04
-1.038638782907676250e+04
-1.040511238686693105e+04
-1.070227704107745740e+04
-1.133524026923594647e+04
-1.136346462222377886e+04
-1.153658016494054027e+04
-1.165709526671743151e+04
-1.091554558535799515e+04
-9.572498854521691101e+03
-9.360553803409704415e+03
-9.158237044904240975e+03
-8.014017291499477324e+03
-7.077324434466904677e+03
-6.715758238967017860e+03
-6.567032745808826803e+03
-7.527880337129124200e+03
-9.201134094434275539e+03
-9.352335272138880100e+03
-8.812963717123675451e+03
-8.269688420373184272e+03
-8.701246575495970319e+03
-8.319355752144178041e+03
-7.344622053920837971e+03
-7.289722668723887182e+03
-7.628404434156896968e+03
-7.811249701109426496e+03
-7.117929508946877831e+03
-6.248079301745642624e+03
-6.141332144424904072e+03
-5.363488603813791087e+03
-5.292442630439010827e+03
-5.902029587080285637e+03
-6.789141897575271287e+03
-7.248621625993743692e+03
-7.958256216242877599e+03
-8.847049466095635580e+03
-8.833870701577343425e+03
-8.318611122857973896e+03
-8.294276569474805001e+03
-8.179819281440461054e+03
-7.589205263936360097e+03
-6.200468414647104510e+03
-4.984614530967337487e+03
-3.976574955846358080e+03
-3.227406448140418433e+03
-2.949124859156944240e+03
-3.560771568716224920e+03
-4.636581094224440676e+03
-4.061712773814628690e+03
-3.007221076038050342e+03
-1.994232820577569100e+03
1.979013320833926855e+03
2.536252043237889211e+03
1.754214118113149880e+03
-2.982572977254156399e+02
-4.364804902093144392e+02
-2.582656896417465830e+01
-1.468757200527872556e+03
-2.476566291666499922e+02
8.120094763496181258e+02
1.910878171483632059e+03
2.975546871795464995e+03
3.944610090649686299e+03
4.106611565794611124e+03
4.447057737966578316e+03
5.900372629526996207e+03
7.208069540384181892e+03
8.085550607486264198e+03
8.749216722615252365e+03
9.689693214399052522e+03
9.597429600067422143e+03
9.193736482972013619e+03
8.099028043553458701e+03
7.235645733386304528e+03
6.485849495155196564e+03
5.750004990852561605e+03
5.075375129399971229e+03
4.896211470816697329e+03
5.813803993826158148e+03
7.065391045789809141e+03
6.866287183204364737e+03
6.022749200088617727e+03
6.364058407010860719e+03
8.186447850891515372e+03
1.019115815506377112e+04
1.167143434651528878e+04
1.262953837188773832e+04
1.425575020270498135e+04
1.597931977575860947e+04
1.638348887805000777e+04
1.678541212903209816e+04
1.773225119392060151e+04
1.735720747097331696e+04
1.588154282771454200e+04
1.492942846142095914e+04
1.508610903366362436e+04
1.641680380324672660e+04
1.742671169410206130e+04
1.807610042703688305e+04
1.959218478837834846e+04
1.989423160866143007e+04
1.945847780360261459e+04
1.880820040581132707e+04
1.970677852241707296e+04
2.137957091243060131e+04
2.083699225874686454e+04
2.113232437639746422e+04
2.181484849368701180e+04
2.089191386491742378e+04
2.055199113714147825e+04
2.194355416885434533e+04
2.292401338196618599e+04
2.526279797205621071e+04
2.759837888122276854e+04
2.710323279395375357e+04
2.563977370946780866e+04
2.506944136185788011e+04
2.583281685734425628e+04
2.723849858311386924e+04
2.723102972111048803e+04
2.718999226462713705e+04
2.743000427708732605e+04
2.593575958484672447e+04
2.874298459372460638e+04
3.011836014310838073e+04
2.804763365379560128e+04
2.892464856018191858e+04
2.642734950408546138e+04
2.521751431269496970e+04
2.468295544003008035e+04
2.197048075856690411e+04
2.102405500644775748e+04
2.220069740069200270e+04
2.121038562420255403e+04
1.727214589759466617e+04
1.379791645600641277e+04
1.329576483779434420e+04
9.112793856839383807e+03
1.064510222372489989e+04
1.247182757870139903e+04
1.092106848559303762e+04
1.145202783359235946e+04
1.166801767416352050e+04
1.182637582445195039e+04
1.218434339203381205e+04
6.979301066076902316e+03
2.657649431100674065e+03
8.786884449688543555e+02
-5.071133232188064540e+03
-1.269231401878616816e+04
-2.474136313820623400e+04
-4.030680137874554930e+04
-6.459406870627411990e+04
-9.106463285699505650e+04
-1.147868871118534298e+05
-1.254352271241004637e+05
-1.237359768104021059e+05
-1.209795357605145400e+05
-1.207242801847823721e+05
-1.204335553708435618e+05
-1.198506409653622250e+05
-1.186448434252701700e+05
-1.176473469482216460e+05
-1.164683127888822492e+05
-1.136639425057335902e+05
-1.094114076379694598e+05
-1.074318245940490160e+05
-1.062013015114730078e+05
-1.061149154125841887e+05
-1.071108267663383158e+05
-1.036000979315839795e+05
-9.891489989808245446e+04
-9.555738817211246351e+04
-9.483055159029555216e+04
-9.479428555498766946e+04
-9.263336917005782016e+04
-8.917995392810052726e+04
-8.296507268990873126e+04
-7.683190338202532439e+04
-6.923358125120960176e+04
-6.106711333181751979e+04
-4.702154399126824137e+04
-3.207000026130474362e+04
-1.577556315419958628e+04
-7.302407868436089302e+02
1.017196389726152665e+04
2.141000596044617487e+04
3.277774643770146940e+04
4.437282323475544399e+04
5.567541453159131197e+04
6.773065408813241811e+04
7.651599422924405371e+04
8.426164981675545278e+04
9.477669773748003354e+04
1.041328335616037075e+05
1.101688953555280750e+05
1.152426715591038228e+05
1.203159567821301898e+05
1.235864885796135641e+05
1.247290362990673893e+05
1.256733358188161365e+05
1.252841444411677076e+05
1.253432339037057245e+05
1.251003238394491200e+05
1.242381474547444377e+05
1.211449332619044144e+05
1.178752766210918635e+05
1.154678345687099500e+05
1.095983342941966548e+05
1.032834567287300015e+05
9.514159601182529877e+04
7.926723815599743102e+04
6.088884294837317429e+04
4.910496842233361531e+04
4.116407333678166469e+04
3.362041816318669589e+04
2.602745812895796189e+04
2.205263233437158124e+04
1.941013480070872174e+04
1.845207645471555225e+04
1.887758747603095617e+04
1.824389151282760940e+04
1.783719547610170048e+04
1.770870212569048454e+04
1.589653411723655518e+04
1.311882960191904749e+04
9.960641577416134169e+03
7.177795120770129870e+03
4.692245393803881598e+03
2.349092871543291949e+03
-1.254732508527927394e+03
-3.998419241454853818e+03
-5.687050322057034464e+03
-6.976762251912104148e+03
-8.235787130337523195e+03
-9.783356493812500048e+03
-1.010076012369836826e+04
-1.025020210486842370e+04
-1.125906468490126645e+04
-1.366876060365711237e+04
-1.548967767556238687e+04
-1.417621512084227834e+04
-1.275277644104242427e+04
-1.172378596589543122e+04
-1.015465442662780333e+04
-8.913812330663931789e+03
-7.093792241956067301e+03
-6.870101222607645468e+03
-8.368307252816757682e+03
-8.420958329771976423e+03
-8.910677605273642257e+03
-9.289074308541172286e+03
-1.030371604330365699e+04
-9.461312567286418926e+03
-9.096561065707290254e+03
-1.214918238267136803e+04
-1.184191345551164886e+04
-1.124246600214703903e+04
-1.385060147772790879e+04
-1.533004533592905500e+04
-1.505050778667370469e+04
-1.559689548600346825e+04
-1.612796405220672750e+04
-1.662944309691358649e+04
-1.732522273742997641e+04
-1.847216431668198493e+04
-1.930206530050300717e+04
-1.962972438114080069e+04
-1.837501993462883911e+04
-1.696989228250056840e+04
-1.623808523887623232e+04
-1.598140139547878061e+04
-1.819758068921662561e+04
-1.973040381445868843e+04
-1.971077948092696897e+04
-1.925359995798856107e+04
-2.001066385059859022e+04
-2.166967316826504612e+04
-2.232449545972533815e+04
-2.311798625208334124e+04
-2.449087847562466413e+04
-2.480292206879521837e+04
-2.486284379850789992e+04
-2.386845568357284719e+04
-2.214547866679107028e+04
-2.064053909482938252e+04
-2.041837431351179475e+04
-2.048269456882861050e+04
-2.067114921550887084e+04
-2.089132428658688514e+04
-2.007683850870304013e+04
-1.973422583030948954e+04
-1.901505371189814832e+04
-1.802994495453623313e+04
-1.790542825870631350e+04
-1.814997990870302237e+04
-1.819210808630876636e+04
-1.837346615611507514e+04
-1.861763272281422542e+04
-1.838707642190514161e+04
-1.845819257856433978e+04
-1.799327892070772577e+04
-1.661154097715648459e+04
-1.645416193545535498e+04
-1.685244610337828999e+04
-1.595685738711347039e+04
-1.442460756418141318e+04
-1.352799444955730178e+04
-1.330538403803554866e+04
-1.317380774015813950e+04
-1.177854026155913562e+04
-1.064563101970430398e+04
-9.389323770250673988e+03
-7.953736793471919555e+03
-6.763769992539621853e+03
-7.109678011221887573e+03
-7.481427444022144300e+03
-7.166929247849102467e+03
-6.422138783186330329e+03
-5.497095477345293148e+03
-4.085653977370684970e+03
-3.494716834388894767e+03
-2.195281491052249294e+03
-2.181135346323426802e+03
-3.019922977319456550e+03
-1.442508998638988487e+03
8.911082300313729547e+02
2.018283249103654725e+03
3.428369180881064040e+03
4.544797249450928575e+03
5.033966214865156871e+03
5.609188099138800681e+03
6.360841376821860649e+03
6.927340006976247423e+03
7.628112425451065064e+03
7.668384866289421552e+03
8.556484934910497032e+03
9.334024163213374777e+03
1.035660235895493861e+04
1.087560886088402549e+04
1.128234090385024501e+04
1.131225761221860557e+04
1.200986800621723160e+04
1.292274258884952542e+04
1.390637777713106516e+04
1.493425820176392335e+04
1.545709483550348341e+04
1.572143780074417919e+04
1.591377103046570483e+04
1.640577526921544631e+04
1.617811896348112532e+04
1.627043096255765158e+04
1.624127610878367705e+04
1.599612568364477374e+04
1.625758786052134019e+04
1.597436734325063844e+04
1.579300605803317012e+04
1.488612056695165847e+04
1.369331480074231149e+04
1.331322273782932825e+04
1.326430788961326652e+04
1.391711088626558012e+04
1.396935683080735180e+04
1.317153693531007411e+04
1.247519523922691951e+04
1.218406034950002868e+04
1.222673980560928248e+04
1.231366249188656911e+04
1.265433258752903203e+04
1.334414265366523614e+04
1.388865873865958747e+04
1.326558638993362365e+04
1.226655244862368090e+04
1.144898031613098283e+04
1.115917637615750027e+04
1.066627991790660053e+04
9.659096011970999825e+03
8.467020701580880996e+03
7.462520737147890031e+03
7.048151262226887411e+03
6.486056233772451378e+03
5.299520685805567155e+03
4.694093645082823059e+03
5.485213877113938906e+03
6.022108532360582103e+03
6.211975858109076398e+03
5.596414727039014906e+03
5.229648490830821174e+03
4.823658622877725065e+03
4.678649150089209797e+03
5.295054780039962679e+03
4.869166737356764315e+03
3.932108992668342580e+03
3.189762583011318384e+03
2.941681491620980523e+03
2.753589526266495795e+03
1.924331404327568634e+03
5.370966458008167592e+02
1.829187658622369099e+02
6.725952866050087096e+02
6.201879205724911799e+02
1.005649372163598173e+03
1.371453327850208098e+03
6.203957340160617377e+02
5.732651323884049788e+01
-1.246637168946395349e+02
-1.502495280067107615e+02
-6.651029480349793630e+02
-1.182228549231788520e+03
-1.634591635634375962e+03
-2.160788843514613291e+03
-2.454911979099728342e+03
-1.858091672072840538e+03
-1.243518403025771931e+03
-1.568516030849425761e+03
-1.915531487478274585e+03
-2.364023271793801086e+03
-3.894442784703803227e+03
-4.937438322621495900e+03
-5.228500261473785031e+03
-5.802191498275115009e+03
-6.522234719113987921e+03
-6.864347728081379501e+03
-6.455013749831763562e+03
-6.169730254214825436e+03
-6.378950774195136546e+03
-6.094223529155390679e+03
-7.058420035444481982e+03
-9.136211190057130807e+03
-1.161825386675265327e+04
-1.364003928319047009e+04
-1.347415701776192145e+04
-1.275342117899759251e+04
-1.139660473249093047e+04
-1.111578462825254610e+04
-1.103874383110675990e+04
-1.034422479997576738e+04
-9.775033700295725794e+03
-1.024946429166495909e+04
-1.072443843922386623e+04
-1.072600689622594837e+04
-1.037408002060085892e+04
-8.912152892735708519e+03
-4.836986346740103727e+03
-4.714394717227445653e+03
-5.934190276325736704e+03
-6.106052656785042018e+03
-8.068675202540473947e+03
-8.055429278867342873e+03
-7.289912358233926170e+03
-6.792192639531501300e+03
-6.640908282899558799e+03
-6.546305677244415165e+03
-6.155758922074102884e+03
-5.891783485564761577e+03
-5.670716286054779630e+03
-5.992797150579905974e+03
-6.275327449609100768e+03
-6.492554972047593765e+03
-5.738930692508890388e+03
-2.317667341387608303e+03
-7.768914378592339745e+02
-9.826565569855670219e+02
-2.206245714197706093e+03
-2.296987328220162453e+03
-7.486721224280317983e+02
-8.332950444287731671e+02
-1.239804493563731512e+03
-2.062612212090100002e+03
-2.226307753146754749e+03
-1.879252417166077066e+03
-3.138725792375726542e+03
-3.004785479144776218e+03
-2.404191815205772116e+02
2.268127386579348695e+03
2.913641516562478500e+03
2.164846416194675385e+03
1.438514332276953155e+03
7.336957375085777358e+02
8.102656009872001732e+02
1.148105050791645226e+03
2.458290906500550591e+03
3.879897726974462785e+03
3.462978339364360181e+03
2.728569530704498447e+03
3.207652713700966160e+03
3.944299736203930024e+03
4.029795530307128047e+03
3.922208376766132915e+03
3.834530069569844727e+03
3.608752360940080052e+03
3.541959362787544251e+03
3.461365016528858632e+03
4.436021370143504100e+03
4.479861889359111956e+03
4.309039944135421138e+03
3.859201968477369974e+03
3.169440691332781171e+03
2.721597921980277988e+03
2.292812618959509109e+03
2.188346597014010058e+03
2.118374302675615581e+03
2.251166782563815559e+03
2.560787068689936859e+03
3.270467962917818113e+03
3.715615967171851480e+03
3.351435786871165874e+03
3.088238990418910362e+03
3.188334327505270721e+03
3.057181760327476695e+03
3.050711757134118216e+03
2.802302240513799916e+03
2.328624604861846819e+03
2.183725095526099722e+03
1.988948514098930673e+03
1.916050724681078009e+03
2.237014456854616128e+03
1.440930617846423047e+03
7.654907288536547867e+02
9.639427393011571894e+02
1.101632650784248654e+03
1.594960080684600143e+03
1.489330635404890472e+03
1.757113496659998873e+03
2.610639551296464106e+03
2.119199624286844028e+03
2.243181076205268710e+03
2.587063940133980850e+03
2.892333152648228861e+03
2.695643965703157392e+03
2.602365297410331550e+03
2.199734782809193803e+03
2.007113951892654086e+03
2.141996423715474975e+03
2.175857715425660444e+03
2.086013762537761068e+03
1.709926316963519184e+03
9.541043822914876955e+02
4.697842062305866762e+02
-1.236319480296536995e+02
-3.607592789652712213e+02
-1.202175968669283890e+02
5.143660252000769333e+02
2.364503457686290915e+02
-7.594480391962964632e+02
-1.694918486462051987e+03
-2.469546787084530024e+03
-2.810995823026736616e+03
-3.352800230086321790e+03
-3.915585794377338971e+03
-3.667065680022212746e+03
-3.041777027591918795e+03
-2.108353354732671505e+03
-2.721445510202569494e+03
-4.027698201795989917e+03
-5.999711973034311995e+03
-8.231129676771264712e+03
-9.868608926696977505e+03
-1.010182656801604753e+04
-9.233521774370163257e+03
-8.800252653930367160e+03
-9.047694513864380497e+03
-7.851585265856714614e+03
-6.962690956439442743e+03
-3.966593210414052010e+03
-1.067894431174513329e+03
-6.093228653126714107e+02
-6.908433488695873166e+02
-9.658133742253739911e+02
-1.218990186981030320e+03
-1.564325328039780743e+03
-2.341561296550739371e+03
-2.682297008891703626e+03
-1.808281034598537417e+03
-4.722994094190488568e+02
-2.451814823443777698e+02
-5.875802504324487785e+01
3.612022960986454478e+01
-4.873095410488558059e+02
-3.769233858419021317e+02
1.903553030095936265e+03
3.568354507480025859e+03
2.688433714604248962e+03
1.752921192648394026e+03
1.019019706316393808e+03
7.988075291643167475e+02
1.461506175840008382e+03
1.622261191563539569e+03
1.739211301616117453e+03
2.121445167554417822e+03
3.392077436479793960e+03
3.512270139965967701e+03
2.721204461741457635e+03
2.473844806474321558e+03
3.146171396086952427e+03
3.885184497225646282e+03
3.893982077075525012e+03
3.903645605465302197e+03
3.592256227346357718e+03
3.434788702789565377e+03
3.608200037845038423e+03
3.342454358054363183e+03
3.896563295391871179e+03
4.333600861366424397e+03
4.244603605131796940e+03
4.019570709334708226e+03
3.242479802575781832e+03
2.882384974706480989e+03
2.994265213415991639e+03
2.719035594059325376e+03
2.339635190120451625e+03
3.083968089674025578e+03
4.373009854796593572e+03
5.041700756090885989e+03
4.993982977897621822e+03
4.957814612975739692e+03
4.700058598734212865e+03
4.814551686642951609e+03
4.551121645373748834e+03
3.723659474501355817e+03
2.704125235903429257e+03
1.790409308697323695e+03
1.710337926890776544e+03
1.883721387943186073e+03
1.376344889078460483e+03
6.551615869894675370e+02
1.012115187806251924e+03
1.318865326297400770e+03
2.156364597978631082e+03
3.021456865918293715e+03
3.255905646526572127e+03
-9.355952846903419129e+01
-5.371460970002551676e+02
-1.655763966968681416e+03
-1.968722069795975131e+03
-2.213305123311899933e+03
-8.508088962761062248e+02
-1.210458228892412308e+03
-2.705375209038430967e+03
2.611710969038867916e+02
-1.137209563468764600e+03
-3.304754919607283227e+03
-6.446784155098445126e+02
-4.441609534040325116e+02
-2.228374245647915359e+03
-1.989525906266077527e+03
-3.299139618760655139e+02
-2.859313494692443101e+02
-9.247774085344965442e+02
-2.297647585736072870e+03
-2.097778499031543106e+03
-6.624925354230967969e+02
-8.241138394752690601e+02
-2.344874755427354557e+03
-1.533933077029975266e+03
-3.347652532232751128e+03
-4.119419675851574539e+03
-4.516501459080828681e+03
-3.838137962345831056e+03
-4.731635153452390114e+03
-4.094272561553433206e+03
-5.538380857672000275e+03
-3.875306678855252358e+03
-1.839296246862725184e+03
-3.988463812540244817e+03
-3.623028490453512859e+03
-2.960285541641520012e+03
-2.953511869256462433e+03
-4.400955730004665384e+03
-5.214996262116632352e+03
-3.036904110852431586e+03
-2.826882566985143058e+03
-2.541210041868729604e+03
-1.447124671178228709e+03
-1.447800048481632302e+03
-1.202567487357565824e+03
-1.049715528789251039e+03
-1.245471712204559708e+03
-1.384063342066085170e+03
-2.230756186141652961e+03
-2.766823202596385727e+03
-2.841473081558452122e+03
-3.837909005621089364e+03
-3.732456841591294051e+03
-2.086236982869072563e+03
-1.040376044508667519e+03
-3.449129889964738709e+02
2.490578362622160000e+02
9.201577003460220112e+02
1.914143350159452666e+03
1.156745252521302518e+03
-4.151490984443448156e+02
-4.987050637920921190e+02
-3.662090678480341239e+02
-1.577774496851503159e+02
8.354107137377811796e+02
1.632111759870614833e+03
1.100147754029368571e+03
6.413306641518624929e+02
7.395793571081048867e+02
4.185613715510833117e+02
-4.539323227097955282e+02
-9.070143759034475579e+02
3.322343870169689950e+01
2.320980767769108297e+03
4.722033377259231202e+03
4.736212771599888583e+03
3.481503907305943812e+03
2.946816624483289615e+03
3.283010837630243259e+03
3.390996442469741851e+03
3.262650460659180681e+03
3.063831628421603909e+03
3.513529063686918562e+03
3.850677535559326770e+03
2.738208318472659357e+03
2.203052852532610814e+03
2.974628025855356555e+03
4.037031836110841596e+03
3.888462359313614797e+03
2.591117916251542283e+03
2.179649124283198034e+03
2.595823392023242832e+03
2.677800957699520950e+03
1.870610462710430738e+03
1.635299776534288640e+03
1.739837015965087176e+03
1.809216693647165812e+03
1.658654824956611947e+03
1.647085257349752283e+03
2.611347686138070912e+03
3.290352984523497980e+03
3.328208184389709459e+03
3.174035870741839517e+03
3.913893093061108175e+03
4.367869239886415016e+03
4.467940128863914651e+03
4.321153694162056127e+03
4.040447647598758977e+03
3.537847901562306106e+03
3.187574460761133196e+03
2.035728990559163321e+03
8.693151607826974896e+02
8.604335335357098984e+02
1.354250608582484347e+03
1.708897085636458996e+03
1.161447371422411834e+03
2.540773158101307558e+02
2.009319160673665294e+02
5.702077120181284045e+02
-1.469108817417040200e+03
-4.885908179224616106e+03
-3.960022001588385592e+03
-3.572314616021012171e+03
-4.272598935701574192e+03
-5.169762800298400180e+03
-5.321714381032653364e+03
-4.882312935698050751e+03
-3.386465144634435092e+03
-2.680997010730949569e+03
-3.324715171759185523e+03
-3.971566122092800015e+03
-4.159392892961873258e+03
-4.331989465607470265e+03
-4.090180587707649920e+03
-2.143817380641514774e+03
-2.886738846896833820e+03
-3.127756722269218244e+03
-2.476680747148185219e+03
-2.232349575103690313e+03
-1.187647558076210544e+03
2.411623372569797084e+03
2.490589017206371409e+03
6.533220625241292510e+02
2.273007055820339247e+03
2.587809490096860372e+03
2.592851182894721660e+03
2.623266038085747823e+03
2.305096099381867134e+03
1.786472818293165801e+03
7.075038799200106041e+02
-2.067023926698782930e+02
-9.379530240660017171e+02
-1.158140513900064661e+03
-6.440563475737784529e+02
5.604628232183684986e+02
1.769591931674413672e+03
2.367475337320714971e+03
3.000340098057153682e+03
3.593261698380993494e+03
3.893271192114676978e+03
3.656505994535576519e+03
3.692139569631715858e+03
4.169291902196297997e+03
3.154073879447588752e+03
1.922628851552414744e+03
1.274110868155683875e+03
1.215554512622925813e+03
8.100514824330400643e+02
-2.234048606275350437e+02
