5.132764677789371035e+02
6.511637656345615142e+02
1.331615570398610544e+03
1.170783792557783954e+03
-5.644011137798589317e+01
-2.093130099020679893e+02
-3.176982245758052272e+02
-2.545509844335595631e+02
2.951197408951653642e+02
2.533133237683811956e+02
2.240243636716760420e+02
9.202969987434744326e+02
2.771105437980909869e+02
-4.166429913079226026e+03
-4.446378729720413503e+03
-3.524707354851200307e+03
-2.687295120821458113e+03
8.100297180633097014e+02
-1.747930675182568393e+03
-2.124431196438213647e+03
-1.789293932228868016e+03
6.815839137208490683e+02
-8.968581857154147201e+02
-1.920669176569488627e+03
9.292158308729938199e+02
7.478246376503319652e+02
-1.318872698123319424e+03
-2.556828914483512108e+03
-1.535036708153875907e+03
-7.724888675027543741e+02
-2.417170609243245053e+03
-1.915016945547263504e+03
7.209683525238706352e+02
4.927699778440633622e+02
5.543998941483862382e+02
2.929391774752564288e+02
2.353643242659779276e+02
6.761762586134922515e+01
-2.865234214747485112e+03
-2.829146369900186073e+03
-2.410706850908962622e+02
1.611900295751743442e+03
-1.243310601726318282e+03
-6.987249322289893598e+02
-1.827266349521064285e+03
-1.757885432286822152e+03
-1.806607205033616538e+03
-2.204390112188506009e+03
-4.032036606962947758e+02
1.206951235238603658e+03
1.695117569615632192e+03
2.774236608268486634e+03
3.014366626058876591e+03
2.358464994753715928e+03
1.380504961272099081e+03
8.575326735423104765e+02
4.295871639795045667e+02
-5.143548602626593720e+02
-3.823427855290350408e+02
5.036279008953706011e+02
1.183596838565164262e+03
1.739594594652837486e+03
2.185607022997372042e+03
2.930607822274285809e+03
3.154634918918473886e+03
2.342631565936451352e+03
1.809667529749355481e+03
1.800871637352280004e+03
2.085911586486842225e+03
2.158794692158446651e+03
2.027972277500755581e+03
6.764202987737268131e+02
-6.057763867263989823e+02
-1.511430985916139662e+03
-1.329472518402578544e+03
-3.261911624115545010e+02
4.043197117597578654e+02
1.229008544646474320e+03
4.236633884152740279e+02
-1.949989305209261374e+03
-1.154409882666132035e+03
-2.523807596236841562e+02
1.939565354941278770e+02
5.763983272387631587e+02
7.871419314023913785e+02
4.652091703797111677e+02
7.956730355514508801e+02
1.482591889457090019e+03
1.927960469586840873e+03
2.023519125067878349e+03
1.996074037831730720e+03
1.789570229537168871e+03
1.410874856685027225e+03
1.416324049017870038e+03
2.060312147668403213e+03
2.139886234551943289e+03
1.676617150836545534e+03
7.540890505710044636e+02
4.256521933092890890e+02
5.214711544404557344e+02
1.033072716975787898e+03
3.456991361361575628e+02
1.252556252826711045e+02
1.096706419681019952e+03
1.515999349219884380e+03
9.870057392136449153e+02
9.026935309396417324e+02
4.770586464248031007e+02
4.760998600738056439e+02
9.008614207890432226e+02
1.234339936316544708e+03
1.339556086844107313e+03
1.506548295116492227e+03
1.543350114278633100e+03
1.450880668798762372e+03
8.131135789739810207e+02
9.850579817365388635e+02
1.717570839236075244e+03
9.776729248574270059e+02
3.053244397475008327e+02
4.264855124573196008e+02
9.511905907224879684e+02
8.445605281524348129e+02
2.965639405897994720e+02
6.551992100279702527e+02
1.237459668049385755e+03
1.350346349997077823e+03
4.058640589316407841e+02
-2.159268387084743779e+02
-2.280763663811484321e+02
2.063860097848091186e+02
4.865357860032463009e+02
-7.966531496361131985e+02
-3.778303292150063953e+03
-5.985338522802104308e+03
-6.189635079477428008e+03
-5.929333420753038808e+03
-6.748593762156740922e+03
-7.705367381900526198e+03
-7.048561371833784506e+03
-6.372122439154126369e+03
-6.658113784945765474e+03
-7.135524435428652396e+03
-6.864433422449411410e+03
-7.240785121705772326e+03
-6.885501147521600615e+03
-5.882676314625726263e+03
-2.978280829310907393e+03
9.057588158147741524e+02
2.293384418155285857e+03
2.016476234385828548e+03
2.095104061055049442e+03
2.145440488587538312e+03
1.230510477925022087e+03
6.623310181779193044e+02
1.743112007077181261e+03
2.170881140414985111e+03
1.849606470422324264e+03
1.654243359276849560e+03
1.826715228716585671e+03
1.679001364947360344e+03
1.914115424473846588e+03
2.044012211019341976e+03
1.511694410818411598e+03
1.210294634025425466e+03
1.309833366582442068e+03
1.970269246190083777e+03
1.706536269137583531e+03
7.836676541924397270e+02
1.188770617975272671e+03
2.168937752202584761e+03
2.252254096816243873e+03
2.218715932947853162e+03
2.043295398314515296e+03
9.650322493670239510e+02
9.000036170064910266e+02
1.504201700337899410e+03
2.109516802170526717e+03
1.808865086450364970e+03
1.442309206488753489e+03
1.473950047219956559e+03
1.160801064303117073e+03
7.148585970665008062e+02
4.512073678746671135e+02
7.068475632508352646e+02
9.867934378314220112e+02
7.301208464525095678e+02
3.828971381753744367e+02
-3.763765368320409532e+00
1.851771719160958583e+02
7.738003343106494185e+02
8.722117393503169751e+02
8.293594526390837700e+02
8.481524958399496654e+02
8.346958967706224257e+02
7.351848605216389387e+02
2.327402541556051574e+02
5.592796175371256595e+02
8.147048330390493902e+02
3.923045488274602235e+02
3.758994967796549531e+02
3.944557076135370721e+02
3.601258360732677488e+01
2.607323282037343688e+02
-7.685483694997672046e+02
-1.718921982000677872e+03
-5.884563183136195903e+02
1.569576725269962765e+02
4.242077719833051219e+01
-2.710276620425040619e+02
3.247011799102830309e+02
5.054471569815167413e+02
1.401421825284696467e+02
-1.721199811353956193e+02
-2.562168986879969452e+02
-5.410204463299324118e+01
-1.496438655780199554e+02
-1.138617958030278032e+02
-8.571394838023600471e+01
-1.751923003330166182e+02
-6.863529737532909394e+02
-9.183045292819318774e+02
-5.950399615791146744e+02
-2.905938056415444066e+02
-5.929535306162244979e+02
-7.091269579765772733e+02
-8.320365509784036249e+02
-1.078444635700323261e+03
-3.822564965034967486e+02
4.263326919755978679e+02
5.132061657118101721e+02
2.023244129013356201e+02
2.348576386355307122e+01
-3.672939155451339843e+02
-6.759532173082245663e+02
-2.604796123165928066e+02
3.532277687353528108e+02
3.901746954613154799e+02
7.320155571438316144e+01
-4.107369756112774439e+02
-9.796487208504892124e+02
-1.500642013771216170e+03
-1.148676314968122597e+03
-2.206181408622469462e+02
2.005151679314538171e+02
-8.362788520309340612e+00
-3.838158503397825427e+01
-1.125266564068660955e+02
3.694497066085212964e+02
-9.417644154485607544e+00
-2.972848862329487929e+02
-8.392755333811015817e+02
-7.303758530414040706e+02
-6.815203014132072212e+02
-5.969240478457819563e+02
-1.022621015141675571e+03
-6.295520767700926399e+02
9.509418399789490195e+01
3.405226664550624491e+02
4.190388968917977763e+02
9.715287071142117838e+02
8.028405453899608801e+02
5.326984355206244572e+02
8.049217977774453630e+02
6.525264932516886347e+02
3.454769095421770544e+02
-9.234852758280053919e+00
-3.186434530730855386e+02
-9.847555570038593942e+02
-6.403302162331991667e+02
-9.771485846638828434e+02
-1.222780018496889852e+03
-2.393683455002764049e+02
4.871587869659891794e+02
4.916409857470116549e+02
1.477238507862451797e+02
1.404558559719784512e+02
7.998118545444937126e+02
1.189589592429216282e+03
9.326816556695715690e+02
7.705542273662412072e+02
1.022825682345287987e+03
7.517356439796076302e+02
6.264243760946620796e+02
6.799521942019589460e+02
4.004435061569532195e+02
3.144082231214098577e+00
6.570359758120382594e+02
1.243535972854918100e+03
1.440097290129609974e+03
1.173999393107999595e+03
1.471583844321020706e+03
1.531446086620140477e+03
1.298355463556122231e+03
9.886806650582295788e+02
1.230127518013877761e+03
2.360646614041169869e+03
2.753160746917760207e+03
2.132691229887786449e+03
9.745731384771387411e+02
7.135865179019062907e+02
6.748654254744787977e+02
6.742536045981730695e+02
8.358725171875248634e+02
1.074968225800152595e+03
1.004013538590941721e+03
1.715078155034891552e+03
2.294244572232342307e+03
3.343207458126151778e+03
3.114824161678208839e+03
2.282964396107911853e+03
2.502624505759207750e+03
3.052017976163117964e+03
2.822522315359589811e+03
2.706221230227532487e+03
2.733803880142498201e+03
2.878986975336441446e+03
2.977712439742373590e+03
2.670413412715099639e+03
2.380516265673169983e+03
2.721002996357816301e+03
1.425446404413953360e+03
5.893581950111049537e+02
1.554609217961815830e+03
-1.981781247194945308e+03
-6.735994306655902619e+03
-6.901867235170895583e+03
-6.663168606522290247e+03
-6.521474624558061805e+03
-5.569739137876553286e+03
-6.038922703764089420e+03
-4.997349902284310701e+03
1.025772313172276881e+03
3.436716910234600164e+03
2.954418645798995385e+03
-2.033377247857696602e+03
-4.056957844035571839e+02
2.815382736349396509e+03
-7.763126069203096904e+02
-5.397926869440183509e+03
-6.525104390340658028e+03
-6.677622067587529273e+03
-5.795606011049785593e+03
-4.550043944477020887e+03
-2.047348798024709367e+03
-2.514109989815037807e+03
-5.734768463631562554e+03
-6.555420219087869555e+03
-6.847884250176088244e+03
-6.270555916948854247e+03
-5.227573562097619288e+03
-4.608958609881531629e+03
-4.745999331058957068e+03
-5.066833396984938190e+03
-1.907183930346421221e+03
2.248152031936730054e+03
3.390092836777860157e+02
1.925312074323799607e+03
2.778221475444348016e+03
3.148678827184485272e+03
3.642657859369235666e+03
3.168304841566753112e+03
2.721676481617485024e+03
2.525839622913332278e+03
2.024913632055973039e+03
1.215983514483285489e+03
5.079280838041424317e+02
3.887012188664018026e+02
6.432714443602972096e+02
1.243664576324828431e+03
1.872241958329331965e+03
2.892228053096241183e+03
3.534610230385870182e+03
2.767173773256853565e+03
2.562890340319688676e+03
1.859144879861851450e+03
4.640476411135847457e+02
-4.491795890889456473e+02
-5.412605279967272054e+02
-5.973106819385027393e+02
-5.304136868404889356e+02
-9.837395049180893238e+02
-1.314612807261303942e+03
-1.170124039974781681e+03
-6.070629496306071360e+02
-5.234535746460285282e+02
-1.101269804497571613e+03
-7.152036198978686343e+02
6.179278550756180266e+02
8.884540238269905785e+02
1.346256123062918505e+03
3.516304419834395958e+03
4.187508804411590972e+03
2.989873237167123989e+03
1.661510588483255333e+03
1.475469973612516469e+03
2.295695938897905307e+03
3.076098443608032994e+03
2.920105222255902845e+03
1.646135792403057167e+03
1.762157189310275271e+03
2.692374236159535030e+03
2.468646568892214418e+03
2.436835488049151536e+03
2.944741332038946894e+03
2.190280990412564279e+03
-4.865086974265774984e+02
-2.361682437154206127e+03
-2.678527759205896928e+03
-3.423546956637131188e+03
-4.643889000864733134e+03
-3.626132894860940269e+03
-1.698370672663791083e+03
-8.738041458505384753e+02
-3.684213631676051932e+02
3.937521962744144162e+02
1.573696170325552430e+03
2.118418600747017081e+03
1.916855823769429890e+03
1.447950707854457505e+03
2.233742713081795955e+03
3.197274998239420711e+03
2.953536376764359829e+03
1.717483025498317602e+03
-3.784974251559525271e+00
-1.188186734399215311e+03
-1.002809334416099318e+03
4.033960348052435307e+01
6.713171900556850460e+02
7.421403198092773437e+02
8.918787341022075452e+02
1.557672768123328751e+03
1.996511130895497217e+03
2.289371084918710494e+03
1.642205570516831131e+03
1.323126571199924911e+03
1.924163641914708023e+03
1.571300177630600729e+03
6.996098725769805924e+02
2.732809374044082915e+02
-9.026940178191566702e+02
-2.481376387619104207e+03
-3.922686075261803580e+03
-4.652598203055288650e+03
-4.482164066905247637e+03
-4.398369309345194779e+03
-3.812302263440231854e+03
-2.070997723000095903e+03
-9.973984375464976893e+02
-1.474483015343164652e+03
-2.161310826553454717e+03
-2.073835515135566311e+03
-3.118072519322689459e+03
-5.272970939228869611e+03
-8.445603187176438951e+03
-8.480954428030137933e+03
-7.758913120846954371e+03
-3.660484234894968722e+03
-2.147770822802623115e+03
3.712203558680161564e+02
8.424162360011475812e+02
4.008309882619943778e+02
-6.685584311700453100e+02
-1.730889814629145121e+03
-1.921944876208485539e+03
-1.534854660749949517e+03
-5.336499763530196105e+02
-7.984487831215457163e+02
-2.247249441212674810e+03
-3.898081476109719006e+03
-4.798014488179185719e+03
-4.757078583210146462e+03
-4.002317463053735537e+03
-3.902770321457906448e+03
-2.979535754308500600e+03
-1.005658127918837295e+03
5.627963815728730879e+02
5.908548330456176245e+02
5.885584375217761135e+02
-7.428547026709271961e+01
-1.291805517178279160e+03
-2.916704991492440968e+03
-3.778616639898472840e+03
-1.694622364857136063e+03
1.513884379849211882e+03
3.390338443614180051e+03
4.745596959948376025e+03
5.822775441192516155e+03
4.574881941517385712e+03
3.534880593148609023e+03
3.703678117343618396e+03
3.622190357747032976e+03
4.513280908664730305e+03
5.889900439239860134e+03
5.403968773087201953e+03
3.940498622689035983e+03
3.545393232402708236e+03
2.828570206445813255e+03
1.943953574370795650e+03
2.100420647041047232e+03
2.715775569210959929e+03
2.595949550699884639e+03
3.800237644046744094e+02
-1.989958818156411326e+03
-1.011124602130623430e+03
1.162294165014964847e+03
2.384352654333274131e+03
2.044046591428265174e+03
2.389225745714476943e+03
3.771698857838660842e+03
2.379400905332572620e+03
3.432639552337290070e+02
-5.938107458855619143e+02
-3.506727977377487605e+03
-4.187887501087747296e+03
6.147218513594434626e+02
4.752306182777695540e+03
6.963555413426373889e+03
7.321423473312956048e+03
5.672807265748537247e+03
4.495561670825677538e+03
3.630690646213034142e+03
2.322258325979454639e+03
6.422009740877307422e+02
-1.796294565196868973e+02
1.314779909914146629e+03
1.908384422201150983e+03
-1.088677113235536353e+03
-5.067475316305984961e+03
-8.465258538357231373e+03
-1.103222332338387241e+04
-1.115842058431565056e+04
-8.030809691675237445e+03
-2.964509736318267642e+03
4.125488257244031047e+03
7.886329790064320150e+03
5.791867629563676928e+03
2.806030383976284611e+03
-2.144807386925915882e+00
-3.505697914172651053e+03
-6.148712065028365942e+03
-4.607256513053484923e+03
1.604719663528035426e+03
7.161221247326199773e+03
8.739151130318416108e+03
6.307472504412393391e+03
4.985225251779863356e+03
9.259467276667468468e+03
9.080116102056625095e+03
6.250132271873182617e+03
8.476576181193251614e+03
3.975502092585582886e+03
9.438761337830891307e+02
-2.553609026625341869e+02
-1.153182695835970208e+03
-2.443512784650949015e+03
-3.335249558634450295e+03
-4.057424072666030952e+03
-5.637024138358403434e+03
-5.589004869459386100e+03
-1.913370737818684802e+03
-1.737154792003261491e+03
2.576999651746404538e+02
3.533199687110443392e+03
4.626358549493250393e+03
3.584141532325851131e+03
-4.192733183140004485e+02
-5.976694389188747664e+03
-9.477153062703817341e+03
-8.227589870443112886e+03
-5.905813196282528224e+03
-6.105900276420806222e+03
-9.296867568175584893e+03
-1.411959592870132656e+04
-1.379610944866082718e+04
-6.889278225359094904e+03
2.557089723169505305e+03
8.323965966475287132e+03
7.579605868608491619e+03
5.049065967696803455e+03
2.759238705497350566e+03
-2.368332394039678547e+03
-6.730234174231321049e+03
-9.181734461734760771e+03
-7.708918392408395448e+03
-5.398856099973429991e+03
-1.657522823057541700e+03
-3.836340366020926353e+02
-6.061952299896444174e+02
3.137575918932396689e+03
7.443281134944117184e+03
7.458825024953442153e+03
4.856493810016401767e+03
3.699599548118909297e+03
1.944624048612213585e+01
-7.327135746985440164e+03
-1.173689526208662210e+04
-1.449692181779493876e+04
-2.084913983422181627e+04
-2.851457295421558956e+04
-2.962615483611308082e+04
-2.549686229606173583e+04
-1.251242841854186008e+04
2.598517587386891591e+03
9.759960394633495525e+03
1.283618875104037761e+04
1.508095296328664699e+04
1.842634216281557019e+04
1.787656413071370116e+04
1.430958398026178475e+04
1.285649721074320769e+04
1.427697020585159044e+04
1.393970577727584350e+04
1.273484505274948060e+04
1.189929145443220659e+04
1.007395690628638840e+04
8.495986316782671565e+03
7.851413479653901959e+03
6.385319773156304109e+03
5.502853413237065070e+03
5.250142528050779219e+03
6.192321374054925400e+03
5.758476024819246049e+03
4.076736826190968259e+03
7.461269009267135743e+02
-3.619280143074829084e+03
-4.636369008472491259e+03
-3.372089858636498320e+03
-3.229491510360013763e+03
-5.950482639038165871e+03
-9.752828570011386546e+03
-1.135944100566290217e+04
-1.262919465369734644e+04
-1.084399298110929158e+04
-4.517705227517602907e+03
7.387413619593146450e+02
5.168441411444037840e+03
8.899601644728556494e+03
8.830377097276079439e+03
6.428716265797890628e+03
4.507573292282888360e+03
1.200918833535375825e+03
-2.723262589615517754e+03
-3.330834708971851796e+03
-2.124787940951614019e+03
1.744827814684292889e+03
1.829137275295854806e+03
1.030151971792793347e+03
3.473543129370953864e+01
-1.221004454978120066e+03
-3.082853723208004340e+03
-5.786712985617758932e+03
-8.907628426709063206e+03
-1.469968512653982179e+04
-1.761474968140164128e+04
-1.619577203559402005e+04
-1.463968140807289274e+04
-1.094560408148954593e+04
-7.935664499825536950e+03
-5.645691174095494716e+03
-3.343345640435229598e+03
8.714187783151197664e+01
2.537831922203514750e+03
2.691879161384542840e+03
-1.467730650942377906e+03
-2.213109720739779718e+01
-2.069368567510231060e+03
1.203651728805064749e+03
5.654980524919396885e+03
7.552345682446981300e+03
8.986694927518374243e+03
1.019910974114591954e+04
1.157366334392665885e+04
1.281531774253723233e+04
1.365998916790941985e+04
1.357765628930367347e+04
1.296729883180568322e+04
1.269469181113032755e+04
1.235866393703428366e+04
1.179331216513026993e+04
1.129779667534510918e+04
1.068117040876182728e+04
9.819322798582517862e+03
9.240018395173006866e+03
8.243133626589513369e+03
6.851662472643853107e+03
5.662601706343301885e+03
4.753915454381120981e+03
4.201526587505732095e+03
3.815368634454880976e+03
2.624341570896574012e+03
1.560434999957022001e+03
2.685253677268064507e+02
-1.411468569572194838e+03
-3.102441719871249006e+03
-2.929423335698152641e+03
-2.831581757732183632e+03
-3.114938936702155843e+03
-2.267542851653288380e+03
-1.463457379769726913e+03
-1.398778153972419886e+03
-1.261621785552552865e+03
-1.738081553614093309e+03
-2.259306067828087180e+03
-2.500475281860718951e+03
-2.583650000041646763e+03
-3.415791679056866542e+03
-3.744970691146046647e+03
-4.395296587598772021e+03
-4.901784728731651740e+03
-5.542399464747662023e+03
-5.969082871714366775e+03
-5.477074775262403818e+03
-4.275549293722205221e+03
-3.930000682822546878e+03
-3.772335517172558411e+03
-3.677786296081848377e+03
-4.567406174909697256e+03
-5.910904962238665576e+03
-6.891293033066517637e+03
-4.688779414641619951e+03
-4.217512338595151959e+03
-3.888540051749447684e+03
-3.624080830978713948e+03
-3.098145422090970897e+03
-2.964714707542442738e+03
-3.295818304601882573e+03
-3.379539464595887694e+03
-3.173992314599358451e+03
-3.176364353419980034e+03
-3.839696120863814485e+03
-4.686134658294687142e+03
-6.226875945931095885e+03
-7.713004129213513806e+03
-8.117472431426588628e+03
-1.011534328262014424e+04
-1.381964658907325247e+04
-1.422238103367621989e+04
-8.396538254214148765e+03
-1.230200261349816174e+03
2.988295398381404539e+03
2.219734615743583618e+03
4.181587353301833900e+02
4.249484223551503703e+01
1.466931349660988815e+02
8.138988410489326952e+02
9.760388137673101028e+02
9.509809958045626672e+02
7.837266462388960235e+02
1.264166187602356104e+03
1.190189743401596843e+03
1.894881023266542115e+03
2.144298370042133683e+03
2.082325008682667885e+03
1.867949999188900620e+03
1.861194714002794171e+03
9.199709813778785019e+02
-6.047893833368767673e+02
-9.940582584681017124e+02
3.962626783564426773e+02
1.372209519965706249e+03
1.014549328237549958e+03
1.494145576544872029e+03
3.168993529315016531e+03
3.828146403903008377e+03
3.661548053944681214e+03
3.553078191714728746e+03
3.575965488060689495e+03
2.602288784004305398e+03
4.771951846334221045e+03
3.316123650081890901e+03
2.239661635932236095e+03
4.788095677168562361e+03
5.198394248493426858e+03
5.304644975464462732e+03
4.741959818491704027e+03
3.471508001937964309e+03
2.361258711159373888e+03
2.548230515909781388e+03
2.606486091623522043e+03
1.334070171636812574e+03
1.719156246679048934e+02
-5.220961085625636855e+01
1.742783084614465452e+03
3.859582577237865280e+03
5.265076078870884885e+03
4.921885352927799431e+03
3.734464129419193796e+03
3.029800980775850803e+03
1.337554767261797224e+03
7.445409603540156240e+02
2.551494848757585714e+03
2.550516341522095445e+03
2.055311089367094610e+03
2.935142126569724496e+03
3.336573631239052702e+03
3.155375195876692487e+03
2.469820827470604854e+03
2.251895281015288674e+03
2.100193526741556070e+03
1.975609825539842859e+03
1.597535555911866822e+03
1.538431254954916085e+03
1.905856013279259969e+03
1.908154520046548214e+03
1.155861388671479745e+03
7.084063630655441557e+02
7.165270284206396809e+02
7.690782909594420289e+02
1.068653373690839089e+03
1.057999366294101264e+03
7.561599484505102282e+02
7.179958188380448973e+02
7.303809093241803794e+02
8.037877849030236348e+02
1.228465689815131327e+03
1.513318826184123964e+03
1.088150814350530936e+03
5.431385452993483796e+02
3.708925079392025737e+02
-1.997481564983366411e+02
-1.326699272983720903e+03
-2.213785245112907432e+03
-2.142675532559412659e+03
-2.187123658473561136e+03
-1.697195456436773384e+03
6.477949170919252708e+01
4.007000735379160687e+02
-1.822933260232215105e+02
1.509391543229472532e+01
-1.109939680820748436e+03
-2.206723002039121184e+03
-1.959829296141259192e+03
-2.455628404623979350e+03
-2.513982963362619103e+03
-2.737405503841898735e+03
-3.745706365992132305e+03
-3.837830326770868851e+03
-1.755459170022974831e+03
2.954811287050840178e+02
9.498865573305033649e+02
-5.495235676307751191e+02
-2.335848440798593401e+03
-3.352278546457618631e+03
-4.301657407935524134e+03
-3.358822607396830790e+03
2.455912854304319808e+03
4.125270513409670457e+03
3.058660261966853795e+03
-2.884491072361701299e+03
-5.086201649611644825e+03
-5.138262559174911985e+03
-5.496354077949287785e+03
-5.694587290366353955e+03
-5.456992195427696061e+03
-5.751183337865350040e+03
-5.979929929220420490e+03
-5.505643422248425850e+03
-5.651742216074649150e+03
-5.693105457931199453e+03
-5.417182888921174708e+03
-1.912567451967579927e+03
-1.543994895684723360e+03
-5.004603517206109018e+02
2.168930223450945050e+03
2.818480370393596331e+03
3.294510224351370653e+03
1.912922428167047201e+03
-3.566457800846545069e+03
-2.030477450405102445e+03
9.559818799930592377e+02
1.530954815324516630e+03
2.528587465395565232e+03
3.088904425970736156e+03
2.409886305607182294e+03
2.121675431037922863e+03
2.361247173930119970e+03
2.751598301189668746e+03
2.551689561673003027e+03
2.702661074918886698e+03
2.415645610365399079e+03
2.225864907975130336e+03
2.878471225078937550e+03
3.373294365442874550e+03
2.703179510528012088e+03
1.719223145194729341e+03
1.003735557837966780e+03
6.388697967509458522e+02
9.251642970023809198e+01
-1.489276117287044599e+03
-2.564695409729585208e+03
-3.219160207803294270e+03
-3.743697604909013535e+03
-2.278315026451106405e+03
2.640359330749275841e+02
1.889616292728630469e+03
2.954660052498206369e+03
3.649199905349858000e+03
3.060415997349951340e+03
2.697461217920440504e+03
2.708138983118266424e+03
2.631222481739931027e+03
2.724423564514539066e+03
2.705027657546110277e+03
2.425472012543515575e+03
1.783828760100056115e+03
1.332195108431922790e+03
1.172707073601738330e+03
9.064546708640235693e+02
1.355500542362491672e+02
9.192597261208899226e+02
1.353529623363489463e+03
1.162055180376282351e+03
2.117778897035402395e+02
-1.996442799042674096e+03
-3.758575668027689971e+03
-1.025607694043790616e+03
-2.873939263741483501e+02
1.945578539263727436e+01
-3.497007131409491620e+01
-3.407247752614726721e+01
-4.407185917015987684e+02
-2.161471748856246904e+03
-3.659047608867238978e+03
-2.082857343726948784e+03
-2.290035993477416923e+03
-3.887465334958754283e+03
-4.607136546291288141e+03
-3.619026430890217853e+03
-1.722166586865339013e+03
-5.205553992109722685e+02
4.048291115876421600e+02
1.429067428731711061e+03
1.497210045596584905e+03
1.202590506921987554e+02
-9.007179539800631574e+02
-5.797099753216396039e+02
3.062956965940872465e+02
7.433403631850183046e+02
3.749777399801497779e+01
-7.262852585623210189e+02
-1.201965232112388094e+03
-1.559436017496937438e+03
-1.559641815219386217e+03
-1.085639502203473285e+03
-6.224225500342421356e+02
-6.100132113922551298e+02
-9.153090092021408282e+02
-1.921288365075006368e+03
-2.324920343952756411e+03
-1.329134151364550235e+03
-1.929067066125916199e+02
1.976024228608534372e+02
3.883665017958728640e+02
1.844431008955584730e+02
-1.612659918223120030e+02
-3.477731846126363848e+02
-1.550833319971334845e+02
-1.212330821125337081e+02
-3.621710445637978637e+02
-4.178979558567558001e+02
-4.964533758191797688e+02
-4.888501266755345682e+02
-6.980767636893370991e+02
-5.422002333914181236e+02
-7.581404699440881814e+02
-1.009934245167010090e+03
-1.176620193523909620e+03
-5.112452322693342239e+02
7.408214509708382423e+01
-5.487486287561547442e+02
-8.187529320567902005e+02
-1.585874942419406125e+03
-4.052288206771278965e+03
-2.814773745369991957e+03
-1.103302453219459721e+03
-1.068997831116040516e+03
-1.191130948336571919e+03
-1.586325265314482351e+02
7.541065157661466856e+01
6.294562366355434335e+01
-1.180715122411383362e+02
-3.246612483903427915e+02
-1.798434644858239437e+02
4.373195742539873550e+02
5.627619720565481884e+02
6.374574937753826589e+02
7.784171461123922882e+02
8.026438370566949061e+02
7.191674130859935303e+02
7.990072778961708764e+02
9.510367130305011187e+02
8.283581541360368874e+02
7.301182491341011200e+02
7.780199563527461351e+02
1.069459103363274608e+03
9.551247070078836714e+02
6.241022655935481680e+02
8.857109908557091558e+02
8.380231278123136462e+02
8.498969823531421071e+02
1.042243360744054144e+03
8.109376144422797097e+02
5.029711720220344660e+02
5.082972889492739341e+02
7.719021170830085339e+02
9.976724688503016978e+02
1.094702249304363704e+03
1.211862265668775080e+03
1.115088509432331421e+03
7.983808792175451572e+02
7.547401956694619685e+02
9.501530930300669979e+02
1.287727527879493891e+03
1.794442314779524395e+03
1.543106669555372491e+03
1.265552988222030308e+03
1.479718935337615903e+03
1.947671864369706782e+03
2.228315271536951514e+03
2.004507198494632121e+03
1.933254903657119257e+03
1.750547150601936664e+03
1.906384629393557589e+03
2.204725943744088909e+03
2.166629367774000457e+03
1.933742819889227576e+03
1.714641875924088481e+03
1.561283822986580617e+03
1.589217827687582485e+03
1.717501973184531835e+03
1.806129592876991865e+03
1.904198740841303106e+03
1.661774947800624886e+03
1.632790174817451771e+03
1.634190064073223994e+03
1.361028964801683514e+03
5.564354007473330057e+02
-1.240603153593747720e+03
-3.108220497968673044e+03
2.047062575410772567e+01
1.193194895428326276e+02
-5.913694978207818167e+03
-7.129448052037472735e+03
-6.602869551372736169e+03
-6.890967389457182435e+03
-6.676609426754309425e+03
-6.342883789340312433e+03
-6.877043092015178445e+03
-3.911914116026911870e+03
1.776550203459006980e+03
1.834248819586285435e+03
-3.477798479477824003e+03
-6.514528814526846872e+03
-6.280892762141021194e+03
-5.666910905173863284e+03
-5.691542044861897921e+03
-3.760807862241616476e+03
4.913580945302715008e+02
-9.805334585949537995e+01
-3.993122746453918353e+03
-6.023765138840002692e+03
-6.202874871651294598e+03
-4.968495995397777733e+03
8.482997321241036843e+02
2.650587315366891289e+03
2.459436260471603873e+03
2.637892240996985493e+03
-2.221283706219092835e+02
-5.951646739212917055e+03
-6.756499735661459454e+03
-5.733676181514981181e+03
-4.438226465628315054e+03
-1.157168251275046714e+03
2.061579887599425547e+03
2.693043983160320749e+03
3.184240635732416649e+03
2.977228194043116218e+03
2.600070073512632462e+03
2.576814578744986193e+03
2.735472943247443709e+03
2.786109816601148395e+03
2.957681703927311446e+03
3.322044725240656135e+03
3.145232717635706649e+03
3.172447816688964394e+03
2.930778697117361389e+03
2.901365322135161477e+03
2.969152017292787150e+03
2.857962599692545155e+03
2.617931799376995059e+03
2.533056563854726392e+03
2.412374036565444385e+03
2.368026286560633707e+03
2.399044297152739091e+03
2.783234677868109884e+03
2.754541585230574128e+03
2.798186006018201169e+03
2.787367294510163902e+03
2.361124630655408055e+03
1.853342436367815026e+03
1.824011987987320936e+03
2.035400119284208586e+03
-1.941510020535712613e+02
-1.613392602826308348e+03
-8.672624142285161497e+02
6.309523954885019066e+02
1.761083017996634908e+03
1.830188471958429318e+03
1.679948740455595271e+03
1.699701746486191269e+03
1.793526500884534244e+03
1.622571001339603072e+03
1.506469347250003011e+03
1.657126946202922682e+03
1.601996914695419036e+03
1.459106163611691500e+03
1.280195750184941744e+03
1.479016879484317997e+03
1.285783335971916358e+03
1.171467416326266175e+03
1.011998212378577591e+03
9.885216096424145462e+02
7.408425432864581808e+02
6.893511096459926648e+02
5.704171969810029168e+02
4.657061025317202052e+02
4.860096253571746274e+02
6.624674024210165726e+02
5.610768270407514819e+02
4.208746747558942616e+02
6.229667301641527501e+02
3.853923842796464783e+02
1.301275312947441876e+02
2.421761220182484635e+02
4.936056743166289493e+02
5.664969844180112659e+02
8.339440212923731224e+02
6.499131438177943210e+02
5.293027596299051538e+02
3.561565181291330191e+02
8.662412889841679942e+01
2.446780379411800652e+02
1.033783434479632177e+02
-3.452346493227288988e+02
-5.961478455960643714e+02
-4.303220521641288769e+02
-2.917057802034599376e+02
-3.641902659241579840e+02
-4.757824749503398039e+02
6.431750285434131342e+01
3.190291603838864489e+02
5.564603357414642915e+02
7.636544252601529479e+02
8.485939911162179214e+02
9.784381338152167018e+02
9.622316763730636922e+02
-6.350695742170931908e+02
-3.564446696469160088e+03
-7.377913493733113683e+03
-7.488514205795766429e+03
-7.547160905138232920e+03
-7.294764009803368936e+03
-6.571328300009065060e+03
-6.378874140913463634e+03
-6.219426854872148397e+03
-6.842718999234599323e+03
-6.763935908379689863e+03
-6.668070700885368751e+03
-7.050080633449818379e+03
-6.622893173197045144e+03
-5.635293571494851676e+03
-4.447318806511552793e+03
-3.023498856395690382e+02
-2.015263186181176252e+03
-3.449993632864584470e+03
1.014510224277919860e+03
2.971304028800244396e+03
3.012519792747420070e+03
2.969265510904314397e+03
2.955543892402019537e+03
3.278081209794648657e+03
3.261019271568325166e+03
3.118483730473030391e+03
3.193395281045395222e+03
3.170632954543050801e+03
3.174108190142221247e+03
3.126880092472138131e+03
3.069935295368098650e+03
2.802256295345206581e+03
2.522963404056102263e+03
2.791163425079880199e+03
2.713831539653968321e+03
2.546886144923377287e+03
2.474263330050865534e+03
2.825020326387374553e+03
2.482243833611935770e+03
1.857947476642573747e+03
1.716212549050468397e+03
2.142059070454347875e+03
