-1.716178830387578671e+02
-2.425560549226572675e+02
-1.830841264125761114e+01
-1.776642985157965882e+01
5.904480132347366350e+01
5.563012094130637024e+02
1.026886726746092563e+03
1.482650607016578306e+03
1.707692319410087521e+03
1.684962876778281498e+03
1.644393238867080981e+03
1.246972718360166709e+03
1.271713124019795032e+03
1.489633178791526916e+03
1.703918840524105008e+03
1.375493421006275867e+03
1.338998390894353861e+03
1.057608191385131931e+03
8.005157220600485743e+02
6.525430995762053499e+02
5.255105666831293547e+02
5.255341047689175866e+02
5.365711225193522296e+02
2.576737082208664447e+02
9.281468529825322378e+01
4.609940841896191728e+02
9.295014346245978913e+02
1.108143022130678446e+03
8.848020615850266495e+02
1.163460405863569122e+03
1.704227232240571539e+03
1.716166585501621967e+03
1.766296900474359745e+03
1.583649044186295669e+03
1.244169951809879876e+03
9.678033099221993325e+02
8.895568756789543841e+02
7.555640278551860547e+02
3.977458287602113387e+02
7.600929476793403410e+02
-6.753751217711239860e+02
-3.385678626005289516e+03
-7.389879092586236766e+03
-7.998116516116545426e+03
-7.828230200119550318e+03
-7.348069020280770928e+03
-6.743556372477186414e+03
-4.935817290965745997e+03
-4.958750517161206517e+03
-2.277302557450710992e+03
-1.129483041695066504e+03
-1.890268209670603483e+03
-7.576351271508225409e+02
-6.985593123988247726e+02
-4.099912419688722025e+02
-7.379662139679988968e+02
-4.374482868636786407e+03
-3.566559613816817091e+03
-5.247133999379058878e+03
-6.251184042250460152e+03
-3.138717616542247924e+03
1.541294805713214828e+03
2.189963058241275121e+03
2.293281648468027015e+03
2.455180867573163596e+03
1.139745441577158999e+03
1.386061790921712372e+03
1.251210098013837978e+03
1.437215182059824656e+03
1.621110908709354135e+03
-9.981211404093687634e+02
8.925126458958764033e+02
-1.813002700197275090e+03
9.713644403257916338e+02
1.754746859914073184e+03
9.441770494783302183e+02
1.366569772782094788e+03
1.333913751637625182e+03
1.142226046097765675e+03
1.174445330752108703e+03
1.265604313670610054e+03
1.513768080510842992e+03
1.304865930953968245e+03
1.376944444638357936e+03
1.564158226507662448e+03
1.488456537794912265e+03
1.753811757799445559e+03
1.954187740273660211e+03
2.176582976569787206e+03
2.489044775213088542e+03
2.304637000291286768e+03
2.145348166440369823e+03
1.616172272780919457e+03
1.364017772976636707e+03
1.277141484977592881e+03
1.034653715788798308e+03
9.285173469792357537e+02
7.546765960550444561e+02
3.721238729035447363e+02
3.139756681674890046e+02
-3.525865510403189660e+02
-8.277963204684257335e+02
3.324540160795717014e+01
3.308036947655998006e+02
5.550363337732895843e+02
4.661150231002627606e+02
8.803905473788037170e+02
9.901898292750581732e+02
9.686939216207877053e+02
1.079899970088218424e+03
1.136121579530301233e+03
9.807542591887688559e+02
1.096037508967868234e+03
1.059736296848460597e+03
8.660995719262469947e+02
6.675381415888117544e+02
6.930374485632266897e+02
8.694490858092067356e+02
6.429257190956026307e+02
7.572607221270959599e+02
6.946259992910457868e+02
5.844194001896885311e+02
6.979915403959847708e+02
8.119475239640187283e+02
9.514511879117399076e+02
1.133404470520483073e+03
1.350922156777890677e+03
1.262545571499004154e+03
1.337743828127201823e+03
1.304543786853360643e+03
1.407187689240798136e+03
1.377652864423245092e+03
1.156954650797889371e+03
1.294000603533878120e+03
1.198885643265803765e+03
1.145690131957425365e+03
1.062285929390392766e+03
6.794311911961408441e+02
6.531963649666902256e+02
3.827419763824029246e+02
2.110417925694700898e+02
1.100485016651104360e+02
2.906672806298574869e+02
4.519691129832904153e+02
4.640546877525497393e+02
5.609654643306656681e+02
9.926424541006526852e+02
1.341020507062122988e+03
1.105952884140474680e+03
7.713490824473672092e+02
4.720484268809977948e+02
1.911909073102397372e+02
-6.629794185288060362e+02
-1.438575611797714600e+03
-2.401761099853785709e+03
-5.175519155190571837e+03
-1.608862532341818451e+03
-2.248634093115360884e+02
-7.235705175854905065e+02
-5.053992695167989041e+03
-8.705895700329048850e+03
-8.405387226552144057e+03
-5.829584194699361433e+03
-5.246673908228328401e+03
-7.273678658041292692e+03
-6.910359651526308880e+03
-6.599579997295591056e+03
-6.095997761836225436e+03
-1.785598376758130598e+03
2.142479202631802309e+03
-5.180030918186334929e+02
-1.623919556131423178e+03
9.246948327594527939e+01
3.482639131773669874e+02
-1.158754427819149896e+03
-1.515189646030195490e+03
8.841624291985768878e+02
1.099130897087164385e+03
8.772364381990365700e+02
6.275526106699334150e+02
-1.451771333669551495e+03
9.895108950504271661e+02
7.434221774768202522e+02
5.768980483816405922e+02
7.098705459366287869e+02
9.682981799050811560e+02
1.411101121796851203e+03
1.464306789846202946e+03
1.595896214217103534e+03
1.416168388918601067e+03
1.699320240506661094e+03
2.033363200732270798e+03
1.893199830409691685e+03
1.348803612018200511e+03
9.392410272662817761e+02
5.653872187462519605e+02
3.202386881911380101e+02
1.098463525053684435e+02
2.003299178658790538e+02
2.398738939592662405e+02
2.244321634902252072e+02
2.529601134747079811e+02
4.362745059000413335e+02
6.893426384590117095e+02
6.994124607166784244e+02
6.135523298441038378e+02
5.808328696236349060e+02
5.803426311009729943e+02
6.870353536552408968e+02
4.687067600625125010e+02
7.195567248355388301e+02
6.957145125477088641e+02
3.841636320479588562e+02
2.818586674715409117e+02
1.757795503924175478e+02
7.082221637004691672e+01
2.051666658678864223e+02
4.373325362874251141e+02
-7.887552225161610409e+01
-5.445943860676020449e+02
-7.399032290024292706e+02
-5.875580593479412528e+02
-3.653478723719777577e+02
-4.026341765428614394e+02
-5.222645465020581241e+02
-1.970347568627525732e+02
-3.389698063124308192e+01
-2.056777124347958932e+02
-5.871315726951334000e+02
-1.350486160135375485e+03
-5.758430975156957174e+02
1.538950834469648044e+02
2.118848567570258581e+02
-9.717542039647767638e+01
-2.745720639917066705e+02
-3.462289094501434192e+02
-4.201081518441754383e+02
-7.420332489866171954e+02
-9.350366033312773197e+02
-9.939299643013032437e+02
-7.557395372339753976e+02
-5.153917997675030165e+02
-4.526674531394003793e+02
-3.307109440588862412e+02
-3.707791422677213973e+02
-1.489650577981462334e+02
1.979056020925931136e+02
2.450860910014339424e+02
1.274624873478574614e+02
1.669028300872799377e+02
3.325014748660573218e+02
6.423329486767521530e+02
6.212972503925261663e+02
8.092988061531093535e+02
8.811746871785853727e+02
9.642708495130250412e+02
8.726078551508313694e+02
7.039785874079558425e+02
4.135841697219502322e+01
-3.073336279674101092e+02
-3.511047455884153123e+02
-4.778665987486745053e+02
-5.965309415047030370e+02
-4.262522124676472686e+02
-1.372081640315637969e+02
1.127431175058439408e+02
8.675670491435683118e+01
3.187231404473839191e+01
5.301581090187542600e+01
3.139780820733055293e+02
4.517757706081724791e+02
2.136026319092540859e+02
2.653607372260366404e+01
2.435751627256698555e+02
2.636755244252260582e+02
2.156100023333241040e+02
1.692384390300412917e+02
1.064042478986314819e+02
-2.360686567396012947e+02
-3.259466252266829542e+02
-3.999886904737941791e+02
-1.090253325562222244e+03
-1.629156507773980593e+03
-1.199686822825555282e+03
-4.106194620729405642e+02
-1.311342255146715274e+02
9.761277624266480757e+01
4.155416529874985940e+02
9.088633367315416081e+02
1.337525572286779834e+03
1.444144275673867696e+03
1.246044649262157009e+03
4.704652086826150708e+02
9.878534696376028705e+02
8.772133114464434129e+02
7.957743782234754235e+02
1.205677973114419274e+03
1.090364493697947864e+03
1.189234123035240600e+03
5.491169731369512874e+02
6.368909421134107873e+01
4.158507322554854113e+02
7.584399717795606648e+02
3.316494913948207000e+02
4.826469769878311808e+02
9.605510021279203556e+02
1.342869499911576213e+03
1.441230775852659008e+03
1.716358711597841420e+03
2.164152785469182163e+03
2.462427222614171569e+03
2.354908685343303659e+03
2.181301034223908118e+03
2.151340323775432807e+03
2.255778977649577428e+03
2.110343848749519566e+03
1.445907049092254056e+03
7.353581542246108711e+02
8.594959978639989231e+02
6.498709998394787135e+02
-3.909428134920639195e+02
-1.068566196601809679e+03
-1.319588103627954524e+03
-7.186914952344639005e+02
-9.236978639111745792e+01
4.690259507697004437e+02
6.102483675982861087e+02
6.967944241758310682e+02
1.020309075717758276e+02
-9.763192810632114060e+01
9.894450383984925566e+02
2.863886291643391360e+03
3.462964053382693237e+03
3.933203464521125170e+03
4.655766843893317855e+03
4.039833979094155438e+03
3.238293049276722741e+03
2.956254293077756756e+03
2.045495687331048202e+03
1.623521753503197488e+03
2.565242098542827080e+03
3.129319469556301556e+03
2.892929328319763954e+03
2.085883933321061249e+03
1.140465871866209909e+03
8.351655955699361584e+02
7.690252843026630671e+02
-1.339531415208938938e+02
-1.577009646469397467e+03
-4.935855431259501529e+03
-5.541788780724504250e+03
-4.836644055271496654e+03
-4.900497112688604830e+03
-5.796311849550674197e+03
-7.069997099339915621e+03
-8.322211382017236247e+03
-6.503487985619992287e+03
-6.677839532923017941e+03
-8.804318432828260484e+03
-7.790014951153782931e+03
-5.465208779659474203e+03
-5.707306762056770822e+03
-6.061140696003017183e+03
-4.266593806770806623e+03
-6.906242693530185534e+03
-6.727254341899177234e+03
-2.098264030270148055e+02
2.870066622056285723e+03
-1.190129688417727721e+03
-6.010470453760454802e+03
-5.615309378172810284e+03
-6.036387504680081292e+03
-7.010511789683388088e+03
-6.666045766135965778e+02
4.369980399013181341e+03
5.520933776913631164e+02
-3.419873796844108256e+03
-4.202240285126453273e+03
-6.490786451099957958e+03
-9.998313891491203321e+03
-9.409768471981838957e+03
-3.104097467180728927e+03
6.850636815518548246e+03
9.595569110225804252e+03
7.094946631359056482e+03
4.792054421879802248e+03
4.251051312891435373e+03
3.933682155846569458e+03
4.180794225743351490e+03
3.107348208818673811e+03
3.048580154717344612e+03
4.334934283419844178e+03
4.784465041255811229e+03
2.571122236692674505e+03
1.156816823385756152e+03
1.268379596884145485e+03
1.203874566020169368e+03
2.035713170176916833e+02
-2.029357932852847853e+03
-3.007788243083161888e+03
-2.064817746765114407e+03
3.876670643491557655e-01
1.917993446926705701e+03
3.836283475781643574e+03
5.032156814705750548e+03
4.848603515006657290e+03
2.285717931382542247e+03
9.976657576924574187e+02
3.143506346103456508e+03
4.410426543699264585e+03
4.300897630065293924e+03
4.585887178565336399e+03
4.881119616557937661e+03
4.408811162528999375e+03
3.200588619218551230e+03
1.951884720336832970e+03
3.627929654918352298e+03
4.285707943826005248e+03
3.580102456978821465e+03
5.933024724512118837e+02
-3.433425281070664823e+03
-5.630543891733213059e+03
-7.071957711176868543e+03
-4.167758814879402962e+03
3.819240725276630428e+02
4.167131787648811951e+03
4.382478766720283602e+03
3.287856046974645778e+03
1.997619251801500695e+03
-1.982084640721887752e+02
-1.102566375200319499e+03
5.367861770035008249e+02
3.947787776317633416e+03
5.565646167168057218e+03
3.808239378793110518e+03
1.108406591957539604e+03
-7.007748047675062253e+02
4.178837413071992160e+02
2.117782262878140955e+03
2.756982745498781696e+03
3.058871615217241924e+03
2.961618712016172594e+03
1.594378216360786382e+03
-2.832246186850628646e+02
-3.627689790739926593e+03
-4.461081914894036345e+03
-2.996025345678315716e+03
-6.363590998383745045e+02
2.830294601301341118e+02
5.832848264121620332e+02
1.451525446017007880e+03
1.176349884361459772e+03
-7.341990389019476027e+01
-1.204744134889414681e+03
-1.480737753524487061e+03
2.983064212019917250e+02
1.831445512946914505e+03
2.943825295339676813e+03
1.558197862560249860e+03
-1.270547856035357881e+03
-1.505395919696099554e+03
-7.952955719702327997e+02
6.153723466039432566e+01
1.796086711212642740e+03
2.562350923999098995e+03
6.613669901178641339e+02
6.142348172514008411e+02
1.453764545644982718e+03
1.899906257539143098e+03
1.669798054873572482e+03
1.874864946307690161e+02
-4.020199156106686132e+03
-6.707465600169652134e+03
-3.279206354169090446e+03
-1.741443624159517185e+03
-2.832323283238034946e+03
-6.111703409705022750e+03
-5.971369345009343306e+03
-3.600714174766227643e+03
-6.643233966376927128e+03
-9.378685657866102702e+03
-1.008813021457124523e+04
-1.047078302790069392e+04
-9.205567002415520619e+03
-4.640394663197249429e+03
-2.136184603189010886e+03
-6.690397763050696085e+02
1.424778754369839362e+03
4.804142756215526788e+03
4.631061926103301630e+03
3.636552405650915716e+03
1.445464371490555322e+03
-7.522655400228305780e+02
-1.953611833399211719e+03
-3.229434066739666832e+03
-2.580770328557260655e+03
-3.011714270900857628e+03
-2.627450265965926519e+03
9.857979496341433787e+02
3.326158665086851670e+03
2.452707587358182536e+03
-4.552292304760769781e+01
-1.128607256629452195e+03
1.377477197551982044e+03
2.847578992213816036e+03
2.290682667479155498e+03
2.779734770547503103e+03
4.844641739521979616e+03
5.659313197493202097e+03
4.938724749339593473e+03
2.253869396645706274e+03
3.880814565070008939e+03
6.100471688043226095e+03
5.890863007392920736e+03
5.531810512765118801e+03
4.372255770477864644e+03
2.683455349794394351e+03
2.050256348631093715e+03
3.279591137808006806e+03
2.908669688079883599e+03
1.224887851409407631e+02
-1.366167085191249271e+03
-1.053672663234900483e+03
1.451690303199484902e+02
3.937572926247848386e+02
-1.668923553013046558e+03
-3.565997547580303944e+03
-2.814545764185997996e+03
-1.013607260485452002e+03
1.955706017862776434e+03
5.237364971357367722e+03
6.537507698841209276e+03
6.690258718418041099e+03
5.037676594522537926e+03
8.856100674681699729e+02
-5.799067725309864727e+02
1.183379594572494170e+03
3.187310553979708402e+03
8.128104076350858804e+02
-1.344957411828533623e+03
-5.400618784296332251e+02
-2.090583131429263176e+03
-5.305555317646222647e+03
-9.738911493593304840e+03
-1.242761744998884569e+04
-1.617674390052290619e+04
-1.175232803804296418e+04
-8.932456857823819973e+02
2.580646801531159781e+03
-2.464828390803579623e+02
-3.326601676547073566e+03
-3.639605781568816838e+03
-4.804677791346651929e+02
8.613659412470606185e+03
1.024172715541862453e+04
8.131823825378543916e+03
4.601176255744016089e+03
1.409782290216543856e+02
-6.865855853705208574e+03
-1.214239882401477553e+04
-1.413156043623086043e+04
-1.618048627539855806e+04
-7.181239265940388577e+03
-1.468796112117013990e+03
4.520004010019029010e+02
4.429192362029956712e+03
6.548931213227511762e+03
6.327370193352015121e+03
1.663532524008312066e+03
2.774333328051463923e+03
5.962766649624757520e+03
3.800974635766322081e+03
1.679087125960010951e+02
-4.633552641690059772e+02
-6.376172534289503346e+02
4.056148912377031138e+03
3.948931704223822635e+03
-4.713178928982550133e+03
-1.130525184828640340e+04
-1.313522928367730674e+04
-8.027026249937776811e+03
-5.763556885798509029e+03
-5.995958957115155499e+03
-2.115181483664598545e+03
-9.141895723702301666e+02
1.744296015618948104e+03
6.646371170797380728e+03
6.153825013183926785e+03
8.120565109254259369e+03
5.410686386551804389e+03
4.176168790005234769e+03
5.339043250920247374e+03
5.740475270255256873e+03
8.274548646152106812e+03
8.800211720582788985e+03
1.866575671703058333e+03
-8.051437236059215138e+03
-1.092692331090582047e+04
-1.235075440224217527e+04
-1.659668739572710911e+04
-1.803070052217729608e+04
-1.264982052687431315e+04
-4.909077044781994118e+03
4.616430952988194804e+03
1.346867247254590620e+04
1.398868306596085313e+04
1.047383516530141969e+04
8.460213665767068960e+03
4.407798814663859957e+03
-3.703584337372757886e+02
-5.569169733940648257e+03
-7.873664661783700467e+03
-3.948770891686202958e+03
-1.157884016606010817e+02
3.880400542586835854e+03
9.095092537884429476e+03
1.102801313615045547e+04
7.244953968136841468e+03
4.141092239863234681e+03
2.080607585199374626e+03
4.987091134668985433e+03
5.746646593670745460e+03
3.536326674202278809e+03
5.137208768451574770e+02
2.397928482543473365e+03
3.817414369008271933e+03
-2.807161791330074720e+02
-2.595826330031496127e+03
-3.446879626239108802e+03
-3.824831181462336644e+03
4.806767951732377696e+03
1.276111045979469600e+04
1.392838504395583004e+04
9.944264796748737353e+03
7.296923208671460088e+03
6.381321419434873860e+03
5.336838115549118811e+03
4.111347826213776898e+03
9.460754559265967600e+02
-1.863606247771083645e+03
-3.009415184522520121e+03
-9.186044523629545893e+02
3.227624982054183420e+03
4.225043354756652661e+03
2.324540925784400315e+03
-1.814872886646355482e+03
-4.169103042040846049e+03
-1.788252892816409940e+03
1.293511586840210157e+03
3.681204765723927267e+03
4.246051990115593981e+03
2.013985157831234801e+03
-1.101162715844646982e+03
-1.966401305412307465e+03
-1.348696066685649612e+03
8.110745545020404279e+02
1.387788111044121479e+03
-1.273738791970199145e+03
-2.999673381389774022e+03
-1.401081455470876108e+03
-1.599045199088993741e+03
-3.463554990472429836e+03
-5.503548331154587686e+03
-6.568895551682123369e+03
-7.943728100196091873e+03
-8.590368774643549841e+03
-3.368787399580895908e+03
1.782117064293217481e+03
1.126298662932920024e+03
-4.529260573241151178e+03
-5.020528292810246967e+03
-1.921429669729390071e+03
-2.089025113661838020e+02
8.377594345623418803e+02
4.050544377095160598e+03
-1.138445594148196051e+03
-6.219055136278338978e+03
-8.584108775213398985e+03
-8.200663214981701458e+03
-9.446838181683322546e+03
-1.304497421309352467e+04
-1.242529948963232891e+04
-2.092847342855498027e+03
2.045587745630293057e+03
-1.145900109514406950e+03
-1.857285551216225485e+03
-3.495427147632420656e+03
-4.500389740677555892e+03
-5.865367968099393693e+03
-1.237499142636159604e+03
7.603615112940454992e+02
4.074352840620080656e+02
9.497048909302532138e+02
1.985098223471435858e+03
-2.555872776695518951e+02
-4.986420716948286099e+03
-5.369304716854264370e+03
-2.952189441757861914e+03
2.800978331442788658e+03
5.248340381590935976e+03
8.729898602585221852e+02
-5.463927354382485646e+03
-8.338582421327357224e+03
-8.959133588099326516e+03
-7.729655415305985116e+03
-4.245056273330667864e+03
1.802740318487427430e+03
4.142682928728437219e+03
4.919881743166862179e+03
7.057461920801501037e+03
8.634514379153421032e+03
7.234987854452444481e+03
6.785731340609031577e+03
8.888754714160975709e+03
8.630119483539821886e+03
7.495052767430035601e+03
7.044702198682090966e+03
7.628905837513452752e+03
5.743655924679641430e+03
3.771975950753668258e+03
1.880818998324175254e+03
7.813011303728313806e+02
1.120662132326354140e+03
-7.162698317714075280e+00
-1.799171159874721297e+03
-1.770283449531415727e+03
-1.474601416691228621e+02
1.423927517798961162e+02
-1.822400058821869834e+03
-1.776872133018023987e+03
-1.122524347162322101e+03
-2.572088561789717005e+03
-1.682155352395270256e+03
3.661302389363969723e+03
6.030924015434154171e+03
2.754696958986070058e+03
2.644208548108667401e+03
2.304549006574326086e+03
3.363398618575595123e+01
-1.096445410939267276e+03
-8.715474105776935403e+02
1.092835362153449523e+03
2.318931246402154557e+03
2.635544896488358063e+03
2.129559547629960434e+03
1.747041579540539487e+03
1.802128932779439538e+03
4.979404743432296527e+02
-1.310376186428201663e+03
-2.591750832079795146e+03
-1.822237382684080330e+03
-6.117031285359461208e+02
3.947482529309187385e+02
3.724837721644870925e+01
-2.999258669204208218e+03
-4.585078596930475214e+03
-4.832130350410578103e+03
-4.264169633923405854e+03
-3.724013945717633305e+03
-1.893677239277714534e+03
-1.485451644152161180e+03
-8.462938824936725268e+02
-1.130401131421550645e+02
1.402543330573628850e+02
-1.445284998185486813e+02
-7.552993049718912744e+02
-9.569475832032957214e+02
9.375196814757443065e+01
5.784968754776788273e+02
1.709195485064757122e+03
7.710678781676596145e+02
-1.691865339346313931e+03
-6.055215729900543238e+02
-8.928292837592413207e+02
-2.147845972733820417e+03
-4.867175842384599491e+02
2.175712135651351673e+03
2.855644478035350858e+03
-1.609003744923070599e+03
-4.690384540228170408e+03
-2.776562777565865872e+03
-3.824820077082252965e+02
1.262020137329953741e+03
2.150962737881024623e+03
2.289144892310622708e+03
7.844362866166337653e+02
-1.196280139085513156e+03
-2.022096047618620105e+03
-1.465917653018659394e+03
-3.368671298169120831e+01
-6.072671674539653850e+02
-1.424426139903850071e+03
1.278482609301075854e+03
2.226422982143504669e+03
1.279467846393413311e+03
2.197730265949322529e+03
3.203192097777738127e+03
3.639577917237201746e+03
2.966038448424854323e+03
2.757709257613820228e+03
2.812731652579856927e+03
1.770024505798651262e+03
-5.013064088063421764e+02
-2.380933145596019585e+03
-3.572669746946434316e+03
-3.982236665093452302e+03
-3.117816948496304576e+03
-1.661243167466155683e+03
9.600254343517515565e+01
1.825314137849197778e+02
-1.558438689906869968e+03
-2.871090195632611085e+03
-2.771345005692083305e+03
-3.812925212136472624e+02
1.805621402241556552e+03
3.073360934306012496e+03
4.565856051409362408e+03
4.382045585796976411e+03
3.074991451689053974e+03
1.105307501102167635e+03
-4.167911842134527234e+01
-1.323601052766442081e+03
-1.127114041873351425e+03
6.541547924557625038e+02
2.204990397042069162e+03
2.184020796123633318e+03
1.535579888224592196e+03
2.293747795547667920e+03
1.603534536270062972e+03
4.399573555728304655e+02
9.602466811201227301e+02
2.248022974837980655e+03
2.721883199961110222e+03
2.901187084602256618e+03
1.662495781737541392e+03
6.489487165767346823e+02
1.019907816451636336e+03
2.399222948815056952e+03
1.681521884463202923e+03
5.451542916779799270e+02
-1.028142617712543370e+03
-3.803927944151582778e+02
1.665262886207750853e+03
2.299210045386537786e+03
2.601182769971338530e+03
2.798673216539741134e+03
2.272309704371049975e+03
2.021853696487831030e+03
2.136040211451659161e+03
2.631867338408925207e+03
2.506110255859593508e+03
2.664869413897439244e+03
1.685818546728305819e+03
2.513097449126381946e+02
-3.051258043390537296e+02
1.333431055814288811e+03
2.643239516137169176e+03
3.231129934098497870e+03
3.839489208770352434e+03
3.144936485848063967e+03
4.421572482233523829e+02
-3.756000418891444951e+03
-6.864982653955151363e+03
-7.283436999598214243e+03
-6.757423019480386756e+03
-6.238721465731730859e+03
-5.460179700846949345e+03
-5.713661115213655648e+03
-5.361303041015135022e+03
-5.718593529407745336e+03
-6.466682352548977178e+03
-5.603561991144151762e+03
-5.010413814475317849e+03
-5.196104035302907505e+03
-5.331170243476019095e+03
-2.917558877599223706e+03
-2.949269357153388228e+03
-6.493686918517643790e+03
-7.250645423917834705e+03
-5.773892362811161547e+03
-4.660307849927728967e+03
-4.473209492879609570e+03
-4.628561300420692532e+03
-4.554867737359628336e+03
-4.513204694720599946e+03
-4.269648904205736471e+03
-2.473170765373022732e+03
3.343457659185442481e+03
4.120147050483727980e+03
-6.276455207242316874e+02
-8.324488976609520705e+02
-3.395257590652555791e+03
-2.910148065679002684e+03
6.849588567837207620e+02
2.103166550079896297e+03
1.890692802483839159e+03
-9.040119415567377814e+01
2.847858022744249865e+03
3.692243268061341041e+03
3.509549260204846632e+03
2.305958414202644235e+03
2.048797776231299395e+03
2.009306981050738614e+03
1.965469514458585763e+03
1.728912665483967658e+03
1.468585971277476119e+03
1.664558953785478479e+03
1.826964175402425553e+03
1.684033615781722347e+03
1.719026967325853320e+03
1.595824460534421632e+03
1.889321805261971576e+03
1.993413094277564142e+03
2.205248529944185066e+03
2.331127359286455885e+03
2.513060511266023241e+03
2.650859995063415226e+03
3.126654472058550709e+03
3.734630476928992266e+03
3.781904773557554563e+03
3.275441588811888323e+03
2.408322672759565194e+03
1.690495429076621349e+03
1.270403259737013514e+03
9.319123332854248929e+02
7.157410637241426912e+02
3.765113126654101734e+02
2.989438286786460708e+02
1.051739995159220825e+03
1.464012054487569230e+03
1.335847756162590713e+03
1.407038693488900890e+03
9.053439090481524545e+02
8.817890731220547877e+02
1.480253898710262320e+03
1.118577125991597995e+03
1.134983682020517108e+03
1.072707281034061225e+03
1.097685813471834535e+03
8.320083837942880791e+02
3.676810325382969609e+02
-3.369078920890345898e+02
-6.348749777688844915e+02
-8.768353114691192332e+02
-9.587140391580231835e+02
-2.474399385265442959e+02
1.528666994982321512e+03
3.196857240240833107e+03
3.333911200983497565e+03
2.764693677342333558e+03
2.256128901361180397e+03
1.603594095858023593e+03
1.226296825528475665e+03
1.090927613289205510e+03
1.111244902449811434e+03
1.368940310260813249e+03
1.811167392427259301e+03
1.872475638908259953e+03
1.484130371891029881e+03
1.172950753621542617e+03
1.038787642609645218e+03
7.864502308338197736e+02
7.567524755416857261e+02
4.563710187531634688e+02
1.125180432847860743e+02
-2.137397927265324995e+02
9.344189591251446814e+01
1.100072662815188664e+02
8.028914408261039171e+01
-2.975051475993785743e+01
1.875938692915948707e+02
4.274902009537323124e+02
1.300017517454866720e+02
-6.279160276333133197e+02
-1.076369175269925790e+03
-1.432123761828750958e+03
-1.735158165178394029e+03
-1.720440070167395788e+03
-1.985026069742997834e+03
-2.043036276357579027e+03
-1.543384678379673005e+03
-5.750244088708897152e+02
-8.705139529023431066e+01
-3.756484711945281560e+02
-5.537403040133217473e+02
-1.165122039118729390e+03
-2.801969884856964654e+03
-2.990367618459949426e+03
-7.471729906329356936e+02
-1.205539668340958315e+03
-4.269876505814826487e+03
-6.102104949162951016e+03
-6.748794027071584424e+03
-7.388157947019171843e+03
-8.247192255821106301e+03
-8.380723969296810537e+03
-4.979849783760226273e+03
-3.695728023433977796e+03
-4.823957578063683513e+02
-3.189091718912586657e+02
-1.118276529818569543e+03
5.785666321987720266e+02
6.666271516257243093e+02
8.618231998896903860e+02
9.022472999358827792e+02
8.089450972403276410e+02
3.489135921062943879e+01
6.491954167568736978e+01
2.469678536530954602e+02
7.970455665581165476e+02
1.211213250421167686e+03
1.155692466520095422e+03
1.321411760211612545e+03
1.273284126613612216e+03
1.144211841439257341e+03
1.502170717824973281e+03
1.666012617440336498e+03
1.611806635388892801e+03
1.457496273284776407e+03
1.333040375736606393e+03
1.342481237078800405e+03
1.396859048869892376e+03
1.083215264750497454e+03
9.875197383013594390e+02
9.766621470133624143e+02
6.746800623077490400e+02
8.554825628539506397e+02
9.642213482881874143e+02
1.029041591170346237e+03
1.013708915816827357e+03
9.222888293591820457e+02
8.218957250019567482e+02
1.255296868937632098e+03
1.531342308201509468e+03
1.538153390496047223e+03
1.263167782773742829e+03
1.288358567243079506e+03
1.392317294369849606e+03
1.127008758535463130e+03
8.194577267321581076e+02
5.206812884992199315e+02
1.772289833906259915e+01
-7.528023834864576713e+01
-2.018771187472691864e+01
7.594655040713224992e+01
1.919885664157272629e+02
2.998670323560452857e+02
4.127570335900161922e+02
-2.112330296544531393e+03
-1.825677245528238927e+03
8.429053608460661735e+02
1.287541946474980477e+03
1.586093544059526948e+03
1.565548929102337524e+03
1.428938540015353283e+03
1.129404778323232904e+03
8.199121973183725913e+02
7.454601716228113446e+02
6.651752735473636449e+02
8.111677689578579020e+02
-6.485506418197596759e+02
-4.135992175267023413e+03
-3.179198462249938075e+03
-4.728124991291105061e+01
2.118677575096055250e+02
-1.118615511804255789e+02
-2.780184991435858592e+03
-5.360656760285700102e+02
-2.585075582398892493e+02
-3.125584995394241560e+03
-3.265172479081514325e+02
-1.215327189997825599e+03
-2.560924203185887563e+03
-1.769356224014308737e+03
3.054805846053346841e+02
-2.916265531948882654e+03
-3.057504323276824380e+03
-2.912676651011633453e+02
-2.433472572179302915e+03
-2.492618824787856227e+02
-2.346749322487203244e+03
-9.959259441680829923e+02
-2.326658068594598262e+03
8.310886229786071908e+02
-2.607564926295143550e+02
-3.360044991756778472e+03
-5.277222884125598057e+02
-1.389904181476778604e+03
-1.539648804914531411e+03
-6.218847897985751842e+02
-1.687608719389421367e+03
-2.896715774695628625e+02
-3.011088655239360378e+03
4.120346065299445968e+02
-2.116321554424682745e+03
-2.162017189117527323e+03
-2.040309168707176468e+02
2.736670321829607246e+02
1.643932237338964569e+03
-1.406359987431315631e+03
4.188563197839969803e+02
-1.221414952803040023e+03
8.658727872354555757e+02
1.574767217019767713e+03
1.742236087164937544e+03
1.687236855772120180e+03
1.552744863906439605e+03
1.343808102049760691e+03
1.790404321835790370e+03
1.923590721431148495e+03
1.705440444116766230e+03
1.643946778087042503e+03
1.691889484576213590e+03
2.028248298780779123e+03
2.239049096400151939e+03
1.935249859860464994e+03
1.823931199343797061e+03
1.607299927232339996e+03
1.422513569822402587e+03
1.320402063377929380e+03
1.205758178108260836e+03
1.040491201213174463e+03
9.198993614006694770e+02
8.119668712340444472e+02
8.738378303967367629e+02
1.186268007402659578e+03
4.452363318680833686e+02
9.068633549429335972e+02
1.507049972126753573e+03
1.399812823870516922e+03
1.025031157325244067e+03
8.387369838237610793e+02
7.958687575437791111e+02
6.482804065628863555e+02
7.314863164638303488e+02
6.400564218745793141e+02
2.583918124795470135e+02
2.235316400512957102e+02
3.411807326064246126e+02
7.110519195850687311e+02
7.928076781423516195e+02
6.175291157743644135e+02
8.281431717706931295e+02
9.194150537430082295e+02
1.006103195831344124e+03
9.303468849660333717e+02
8.865859749632684270e+02
8.845005590874314976e+02
6.509207933984034753e+02
5.168009358137097706e+02
7.591054794464448605e+02
8.421583132021186202e+02
8.150356972025118694e+02
1.172679516654289046e+03
1.618631034243324393e+03
1.929970609760834122e+03
1.614630487150594263e+03
1.975636524521475849e+03
1.909879928326858362e+03
2.083316805324658162e+03
1.694946749607866423e+03
1.509757625168313325e+03
1.732722357015362604e+03
1.716764400560988406e+03
1.028852826355773004e+03
1.530995153347070527e+03
1.804169780589347056e+03
1.704427547151143926e+03
1.618725390223289423e+03
1.727010050248670723e+03
1.655261689378521169e+03
1.553459268890184376e+03
1.881570895190835699e+03
1.795619340236811240e+03
1.655629047548300377e+03
1.867535959093890369e+03
1.748289347736797708e+03
1.578931579024630537e+03
6.295161417528440779e+02
-1.880907008573914254e+03
-6.170327293740679124e+03
-7.710752064846404210e+03
-7.812169497095007500e+03
-7.610587479887026348e+03
-7.759149031231986555e+03
-7.679971864037725936e+03
-7.148984361315612659e+03
-6.921161768196951016e+03
-5.872518486291428417e+03
-6.027090033837517694e+03
-6.423750715300340744e+03
-6.837458754522356685e+03
-6.404077981077331060e+03
-6.140676339061788894e+03
-2.579277883750322871e+03
1.193160336845928668e+03
1.015629605428417108e+03
-2.037973505736735206e+03
-5.756631332701074825e+03
-6.597273807849052901e+03
