-2.865471709482964343e+03
-3.446558014717367314e+03
-9.664333485101531096e+02
-2.533078915242756466e+03
2.375297483668467748e+02
-2.491635522041817694e+03
5.674510790979703643e+02
-7.516442758663518475e+01
-4.544418184674276745e+03
-3.014351580780082713e+03
-3.259722609528911335e+02
-2.224329926423435154e+03
1.024583378281375417e+03
-1.528192011149896643e+03
-2.397624423621455662e+03
-1.622631422205342915e+03
-1.857161813593412035e+03
1.278695507665401465e+03
1.964960422435726741e+03
1.964655829946200129e+03
1.797707940856204914e+03
1.440038879813143012e+03
1.235631872975696524e+03
1.591534183734760290e+03
1.616650402001824659e+03
1.634936982985564327e+03
1.544518559892588883e+03
1.013346833450412873e+03
2.624306966966362893e+02
-1.024539384596804759e+01
5.493035888138367682e+02
6.301042603705185456e+02
6.881370770077048746e+02
1.044338534630247523e+03
1.333731584416164424e+03
1.507375893499490758e+03
2.104249797707080688e+03
1.154481181918656830e+03
-2.300176814724549331e+03
1.733616722894170152e+02
1.032201490103234164e+03
7.952481852141564787e+02
1.204175736342988756e+02
-7.392798261151170891e+01
4.547558650906378830e+02
9.388618154598578940e+02
1.235108373147092152e+03
1.557924239982808785e+03
1.145824952177626074e+03
1.137032582542506589e+03
1.449427412089559766e+03
1.475055367149141603e+03
1.748944806272643063e+03
2.054766224432119543e+03
1.950305357520155894e+03
1.689933531486562515e+03
2.012403617264448030e+03
2.007065357160055555e+03
1.965709330644807551e+03
1.990135659234852483e+03
1.943642541486658502e+03
2.036224820639068412e+03
1.619617560106262999e+03
1.533849630082866270e+03
1.787911678618215774e+03
2.007719237496672122e+03
2.006390833383873769e+03
1.851202547906993914e+03
1.573437304514871585e+03
1.179439528652026866e+03
1.020297018435243331e+03
1.187581791296590609e+03
1.134120792731468555e+03
1.345900372625630098e+03
1.741950480977882307e+03
1.977270347605783400e+03
2.391830167996267846e+03
2.316605409895536013e+03
1.678580105549008522e+03
1.345722650510514995e+03
1.238042566076075445e+03
1.345412313892760722e+03
1.254840986350570347e+03
1.611394095555753438e+03
1.655025161099091974e+03
1.807687618186367445e+03
1.747296478349521294e+03
1.630855021922205196e+03
1.285414951145821533e+03
1.137009442046168260e+03
1.207546610817413239e+03
1.248962688794707901e+03
1.199304009414219081e+03
2.206291724898194957e+02
-2.409089813143353240e+03
-6.331937348069241125e+03
-7.948837972855192675e+03
-7.364763166952199754e+03
-6.818702172044189865e+03
-6.052588647025604587e+03
-6.553524285498514473e+03
-7.534505675477143996e+03
-7.698399551301095926e+03
-7.408347980031556290e+03
-7.003383657191309794e+03
-6.878439543863543804e+03
-6.643458565656977953e+03
-6.580486835596725541e+03
-7.011578891885920712e+03
-4.342761702505700669e+03
-2.758998932157071067e+03
-5.970317896368171205e+03
-6.221712071285972343e+03
-5.841192737140053396e+03
-5.831706285089324410e+03
-5.533244849495418748e+03
-4.697793884324088140e+03
-3.423361971506597001e+02
-1.088835583158928102e+03
-7.762619183611329845e+02
9.854988992698605443e+02
3.204133301097986646e+02
3.090420618883289080e+03
3.883568830945941954e+03
3.507958236719128308e+03
3.160564247606365825e+03
2.857330094411024220e+03
2.618313820614350334e+03
2.570549132914597976e+03
2.602105230164729619e+03
2.418125799916692358e+03
3.001599884504212241e+03
3.231463828576012929e+03
3.114724164244891199e+03
3.021479054872327652e+03
2.984736870631475085e+03
3.306476641299625953e+03
3.532759260083580102e+03
3.143646335776506476e+03
2.972231822507098968e+03
2.620540125599387011e+03
2.290533933507436814e+03
2.030231108577421537e+03
2.201729668872185812e+03
2.120033458907437762e+03
1.899186676197864244e+03
1.497319223209102574e+03
1.847529382689766635e+03
1.427844278107542095e+03
9.253282294331503408e+02
1.185012425413801338e+03
1.219803926125357521e+03
9.947474993357591302e+02
1.098894229877099178e+03
1.253296329616778166e+03
1.631043168851343125e+03
1.979112773322405246e+03
2.037616907025591672e+03
1.932661355215353069e+03
1.659431776202569608e+03
1.069964879306254716e+03
9.304236987922907929e+02
2.918859964147201822e+02
-2.036246877834537088e+02
-3.961171905120114388e+03
-4.897601934187359802e+03
-3.754839821636217494e+03
-2.447058329475711162e+03
-1.181489882312641384e+03
-7.396813192294379178e+02
-4.985730725690320355e+02
2.045680740837237721e+01
1.304278872432496428e+01
3.455551843081551624e+02
1.094000460635276113e+03
1.353705011809056714e+03
1.103483632052405483e+03
5.683478364798430675e+02
2.332336071381978968e+02
-7.088118955072136487e+02
-7.477126642141208777e+02
-7.654213196115701976e+02
-4.168643164678833273e+02
4.898967746306756226e+02
1.101820931472995653e+03
1.007803538889433071e+03
7.878408685764939037e+02
7.420396334612677265e+02
4.056854547259651156e+01
-2.755744552166339076e+02
-5.723999960790932846e+02
-8.229024170886076490e+02
-1.000147231209832171e+03
-8.040366275914032030e+02
-3.356159320057129776e+02
-4.892727659781795069e+01
5.508589686751892600e+01
2.474619452868001872e+02
1.772102517562437924e+02
-4.366861475744133827e+02
-4.883566763993901532e+02
-5.077830283847455917e+02
-5.149446310233349777e+02
-4.848207673658884573e+02
-3.524402447284531377e+02
-3.148813393252760875e+02
-2.211226786751282418e+02
-3.632505151103280241e+02
-7.703017858583019688e+02
-9.912912041424084464e+02
-7.831644644770439072e+02
-8.689307246219560739e+02
-9.305974851241201122e+02
-3.761890972793566448e+02
-8.968929947902748268e+01
6.599175863222670557e+01
4.068480373320767285e+02
9.408271676782030681e+02
3.940142583829200476e+02
-4.743676644076899152e+02
-2.671415353966398015e+03
-5.571216592913176100e+03
-8.983980508051812649e+03
-3.990023023409079087e+03
-2.514228241041038814e+02
-1.880865227578358372e+02
1.901158057094461924e+02
1.241836550889514967e+02
2.330537450858788588e+02
-3.711690491752644334e+02
-5.848167859856091582e+02
1.150808668871572422e+02
1.445729348940878936e+02
-4.205397241029830724e+01
-9.103896922770979927e+01
3.157913659126358130e+00
3.975343059388484335e+02
9.175169925292551625e+02
1.484982612410084585e+03
1.778887198110860027e+03
1.130174877409638839e+03
1.015726482086013675e+03
7.751999520335322131e+02
3.717674628412608513e+02
5.240516163561489975e+02
9.552544328716793416e+02
1.454007647255758229e+03
1.959762615595710940e+03
2.120219473555061541e+03
1.915903869723512116e+03
1.944735422880685746e+03
2.060390510987779635e+03
2.436504660752144446e+03
2.285043355132799206e+03
2.310411799447896556e+03
2.405229033869071372e+03
2.809434663569471923e+03
3.379738588612301101e+03
3.067179675642453731e+03
2.459552650468693173e+03
2.041145172934404627e+03
1.330494340720466880e+03
9.800076195356143671e+02
9.492977774058241494e+02
1.226641863410398400e+03
1.334389181566503112e+03
1.237185551863185538e+03
8.128521357746767535e+02
4.686049258963712418e+02
-7.207337626262174979e+01
-4.858494012165991762e+02
-1.138904217455844758e+02
7.626177418313538965e+02
9.977156051937718075e+02
1.535093891313276572e+03
2.632969463418719442e+03
3.351426696798981993e+03
3.737527118864617478e+03
3.847266678667598626e+03
4.025650519223584070e+03
3.429733338933283449e+03
2.136514501554600429e+03
2.170900742291458300e+03
1.998900452198787434e+03
2.092519907496293399e+03
2.339764208762606359e+03
2.205687382075905589e+03
2.297253471937540326e+03
2.519520794196147108e+03
2.258512486080028339e+03
1.665174586326917733e+03
1.784494971236826359e+03
9.054944377527075403e+02
-1.359843022937357546e+03
-5.101127144034641788e+03
-7.353781972949437659e+03
-6.820360157645256550e+03
-6.727166341482468852e+03
-7.105186578836711305e+03
-7.391365036258229338e+03
-8.129785785199031125e+03
-8.644480826112279829e+03
-8.403433639597831643e+03
-8.765564784652422532e+03
-8.536819027423369334e+03
-7.567100062201913715e+03
-6.366333505450860685e+03
-4.972493436959788596e+03
-1.187562928053367159e+03
-2.381506178919180911e+03
-6.459246204654758003e+03
-7.453739873786768840e+03
-7.516011251786459979e+03
-6.841058496045288848e+03
-6.264778368777079777e+03
-6.274114930961093705e+03
-6.468924910471368094e+03
-5.958100766243318503e+03
-5.522739581574572185e+03
-6.162743093143266378e+03
-7.492048392795783911e+03
-8.099677788798397160e+03
-6.986559183763693909e+03
-2.648709106064429761e+03
-3.252068766972533922e+03
1.914198822734678913e+02
5.343832797024542742e+03
6.211236165355107005e+03
5.576598293255802673e+03
5.107013749750101852e+03
5.178533785003916819e+03
5.387180800656834435e+03
5.018032365349939028e+03
5.118156058169814969e+03
5.079656637193697861e+03
5.237623145554281109e+03
5.497098075191121097e+03
5.371152424430081737e+03
4.765852401088734041e+03
4.549285507422019691e+03
4.603499272813939569e+03
4.516597733083804087e+03
3.446492995840575077e+03
2.543205027155740027e+03
2.393738261978381615e+03
2.347412159837773288e+03
2.384222338783151827e+03
2.096074963617408230e+03
1.853886569247521265e+03
2.045630918178976344e+03
2.002388366654030278e+03
8.993728671856293886e+02
2.837993043532374031e+02
1.335718251072837290e+02
4.785348934196128425e+02
1.335710249345117290e+03
6.849847153131634059e+02
-8.354942241378403196e+02
5.334337651137489047e+02
6.712688910585112581e+02
-6.690937519856016991e+01
-6.294477005676507986e+01
1.530023354913793128e+03
2.638925444917609639e+03
3.106837070292460339e+03
3.029727886658402440e+03
3.082308751529796155e+03
3.401547420287328805e+03
3.691780116189838282e+03
3.457735155656884672e+03
3.331319271772142656e+03
3.089538265689316177e+03
2.630504718995471194e+03
2.086048300813337391e+03
1.550569392034536804e+03
1.368672706146983046e+03
2.154972430554710172e+03
2.439246175330946699e+03
1.951584242155635366e+03
1.501649040032050834e+03
2.038465473148040928e+03
2.113122249569463747e+03
1.143591171719411477e+03
8.398939069798963146e+02
-1.740579280819408154e+02
-4.573656826952684469e+02
9.808740468416543763e+02
2.203631828501620930e+03
2.357815036333468925e+03
2.325366157491287595e+03
2.580311586175317643e+03
2.600685608662204686e+03
1.912440042233640497e+03
1.387466538385861213e+03
1.399679259568651560e+03
1.792097376687197766e+03
2.069677815574855686e+03
1.818469069295686040e+03
1.074391635775097029e+03
6.553847312061124057e+02
-2.916512029355682216e+02
-1.595775458618646780e+03
-1.697977083045477912e+03
-1.123216822293616588e+03
-4.175864882172461989e+02
5.828423603888189746e+02
1.679078477342417500e+03
1.846029218713585351e+03
1.587647089927773322e+03
1.524947473007854114e+03
1.424880925295467023e+03
1.878442012584706617e+03
1.670647211474176402e+03
6.704196592421430978e+02
-2.293257748267750230e+03
-6.949373647209567025e+03
-9.170926843417664713e+03
-8.789930362006763971e+03
-8.289405738221199499e+03
-7.756360831314207644e+03
-7.410772440767691478e+03
-6.827381292895167462e+03
-5.835357710846789814e+03
-5.939822997778264835e+03
-5.277952870447899841e+03
-2.592821802867823862e+03
-3.273370661880394437e+03
-5.595708070384969233e+02
-1.231423116436709961e+03
-1.358962276311687901e+03
-2.532260150134127798e+03
5.856333572493228985e+02
1.417779454578008199e+03
1.979208094776205144e+03
1.629952756279282767e+03
9.049727698282434858e+02
7.043406003748964395e+02
1.293055250288026627e+03
2.821164558544148349e+03
3.228619592325522717e+03
2.842388812034843340e+03
1.272542596215703043e+03
-8.679072602866921216e+02
-1.835944351057525409e+03
-9.904932619751339189e+02
-4.354817933571865751e+02
-2.199498248150921142e+02
1.381902811334171588e+02
-1.779796774349024133e+02
3.855661699631112924e+02
5.748340567556155065e+02
4.181681923681367863e+01
4.885611525943523930e+02
1.164140565155722925e+03
1.468575950005531467e+03
1.797933608086278809e+03
1.512384139811683553e+03
1.355917125303416697e+03
1.496629527851218654e+03
2.253561466627349091e+03
2.792763651674127232e+03
2.820317484270046862e+03
2.975302808004166309e+03
2.227791617151820446e+03
7.878424112344039258e+02
-8.604452460732761665e+02
-1.840941139727582140e+03
-2.855628074881286466e+03
-3.808444190470072499e+03
-4.960307382887470339e+03
-5.959167011507136522e+03
-7.015893284918513018e+03
-8.045444043299073201e+03
-9.935894109766246402e+03
-1.018221300481329854e+04
-6.598257880745292823e+03
-3.116566462087926084e+03
3.193619671459817937e+02
1.813749979808520493e+03
4.972937388459365025e+02
-1.546681574021984716e+03
-3.294081157516516214e+03
-3.367568713801972990e+03
-2.839115209602485265e+03
-2.763661558165569204e+03
-8.201084065522589981e+02
-1.121754478013587715e+02
-4.018892396832786744e+02
-9.253225892121222387e+02
-2.933997481047897509e+02
-3.160528920274476263e+02
-1.185177943490124790e+03
-2.509715169563604377e+03
-3.956632126113149297e+03
-3.581884410060402843e+03
-1.609460078960652254e+03
8.826734720388714095e+02
3.106664779532935881e+03
2.864562558131894548e+03
2.509431248378889904e+03
9.343247912357885525e+02
-2.727776843153773370e+03
-6.795868068423131263e+03
-1.091292556589059495e+04
-1.331394245614161264e+04
-1.334286246588199901e+04
-1.184259851491515110e+04
-1.094910742373703033e+04
-6.296342487004442773e+03
2.647687509946999853e+03
1.097203888148042824e+04
1.324976284858926192e+04
1.249782373708172963e+04
1.088219891468916830e+04
9.263881989170300585e+03
8.620941780796831154e+03
8.181425224105443704e+03
6.566377549434009779e+03
4.764832811077994847e+03
3.967778591432281246e+03
3.670195807357196827e+03
3.787018286444193564e+03
5.679225613823615276e+03
7.986865974136472687e+03
9.526916553737477443e+03
1.049137704715953623e+04
1.056724669585787524e+04
1.004751409410315682e+04
8.915072570131469547e+03
7.337824590102205548e+03
5.358831002153459849e+03
4.027043724126600864e+03
3.082350213176890975e+03
2.737723054008332838e+03
2.092125560699546895e+03
1.551464625540219913e+03
2.431703791017464027e+03
3.330938641587937127e+03
3.182175491038333803e+03
3.010224877681940598e+03
2.282083123395771963e+03
9.357039063626074267e+02
3.210048655811666549e+02
-9.507479567202696558e+01
-3.436106771648616700e+02
-4.747169767668602276e+02
-1.211447310779414465e+03
-2.536846661569244588e+03
-4.264162501204205910e+03
-6.433123764673120604e+03
-5.635450327905461563e+03
6.189077900892325346e+01
5.701757044570309517e+03
6.916738902895263891e+03
7.249902576954182223e+03
7.559933472037161664e+03
6.814236938113294855e+03
5.900444278247407055e+03
4.672408737112049494e+03
3.733072131097949296e+03
3.003466206466830045e+03
2.144597947164557809e+03
2.030948625270247931e+03
2.169592542306992982e+03
1.791551695002751330e+03
1.611572737220282306e+03
2.077554540927583730e+03
2.305730753449358417e+03
1.423242501499464652e+03
3.755266214544190575e+02
-4.154269935796161235e+02
-1.307648159495967320e+03
-9.285050100985894233e+02
4.183757404426079347e+02
2.494416339051756211e+02
1.918953610548512358e+02
6.958272199176387858e+02
7.829015929806985241e+02
1.340525593915629770e+03
9.444081160442084411e+02
4.378873858817825635e+02
-2.295714482963410603e+02
-8.715320491264853899e+02
-1.200039478621198896e+03
-2.376325632073847373e+03
-3.403008437097368187e+03
-4.310102301083313250e+03
-5.513839213290608313e+03
-6.682293884864865504e+03
-7.557458556809190668e+03
-8.313410974748308945e+03
-9.382159048183772029e+03
-1.057573159262292756e+04
-1.150916268517959179e+04
-1.210549203972714713e+04
-1.240373538201315387e+04
-1.210389814512060548e+04
-1.101701592434309714e+04
-1.126314002409735440e+04
-1.201317976402426939e+04
-1.349111703277554443e+04
-1.147003909719129297e+04
-9.153977435085977049e+03
-7.641958867430392274e+03
-7.240975043077331065e+03
-7.498029528058268625e+03
-8.125144013598668607e+03
-8.444289012833623929e+03
-8.332322945751473526e+03
-7.899256940083488189e+03
-7.314138170725893360e+03
-6.114997975511252662e+03
-5.751792258967418093e+03
-4.453405323646104989e+03
-1.053776289340268477e+03
-3.093280754431435525e+03
-3.840494343456763545e+03
-2.040257833707288455e+03
-1.738781650361440597e+03
-1.900160944063386523e+03
-8.173885072059659933e+02
-1.153602581947705517e+02
8.290520315478386237e+02
1.401852647887084231e+03
1.804998722382506230e+03
1.680546534720965838e+03
1.409599477937171514e+03
1.323184666468711612e+03
3.836380805753633922e+03
5.999284640417014089e+03
5.424985850869087699e+03
8.954512037824257277e+03
9.677895820203753829e+03
1.001813055768998856e+04
9.887305184342520079e+03
9.720526759943055367e+03
8.860866895667268182e+03
8.493331838260779477e+03
8.250050454574231480e+03
8.950125037080395487e+03
9.305598264254806054e+03
9.217609577153301871e+03
8.540188890051173075e+03
7.729276233877170853e+03
7.022924368441985280e+03
5.738233538438215874e+03
4.835297192542559060e+03
4.920144758202448429e+03
5.122848678680479679e+03
4.999597460267465976e+03
4.296453033556434093e+03
3.676473936155156480e+03
3.134688348349143780e+03
3.593158056552979815e+03
3.667001479087376993e+03
3.582304653752035392e+03
3.202119388602742220e+03
2.257574730377240940e+03
1.672803407018664302e+03
1.865801366300109748e+03
2.283571304396678897e+03
1.525138144413877171e+03
1.067514741195232773e+03
5.597229540663786338e+02
-4.221027008335063329e+02
-1.229864616599273859e+03
-2.106549014708140476e+03
-2.711094290310340057e+03
-2.420503649849468275e+03
-2.630790915061834312e+03
-2.982856309608322135e+03
-3.047371939215228849e+03
-2.966841206457429507e+03
-3.174313040856850876e+03
-3.002907972177249121e+03
-3.258651219952966585e+03
-2.948559979497966651e+03
-2.816572779044924573e+03
-2.343671364844804884e+03
-8.208774705684714945e+02
-6.241084514404310539e+02
-9.143915301544838030e+02
-9.349179853135395888e+02
-5.292214851763840215e+02
5.272619407132626748e+02
9.384980731205708935e+02
8.958263689093943185e+02
7.521325808237211277e+02
1.028975056911472166e+03
1.179445161522316539e+03
1.323566398804782693e+03
8.754670347487383424e+02
3.051730725714020309e+02
2.385944475567283405e+02
6.436775236622469265e+02
6.533034544139574109e+02
7.295226205823288410e+02
1.420409587187762781e+03
1.383061954663563711e+03
9.704838312687004418e+02
1.260610559854908615e+03
1.358283449640945491e+03
6.724913575034581754e+02
4.602036217065288497e+02
7.883597688422620422e+02
1.013957632961476406e+03
1.199882189735491238e+03
1.086103112650137064e+03
8.356991405515816496e+02
7.135838824136886842e+02
2.446639248163212983e+02
-4.680826026254732710e+02
-4.307123990506235032e+02
-8.441973065794917375e+02
-8.006214238351839185e+02
-1.044093261123527554e+03
-1.493691602195047835e+03
-1.686479455066419177e+03
-1.816495835794379673e+03
-1.833792594028136136e+03
-2.287361749784255153e+03
-2.830186623968205367e+03
-2.543315319657797772e+03
-2.486786145072336694e+03
-2.894632303606977075e+03
-3.296921700809934919e+03
-3.391751821749105147e+03
-2.890158741696821380e+03
-2.819153884256200399e+03
-4.680814139113030251e+03
-7.458086621378806740e+03
-1.139718130798699895e+04
-1.147950495418987339e+04
-7.360164065141993888e+03
-1.415339832873163004e+03
-7.870208055545327852e+02
-1.077033379968595455e+03
-1.224342227058062690e+03
-1.167972555687961403e+03
-1.312170070206049331e+03
-2.160987307841162419e+03
-2.654512913394069983e+03
-1.095964828940899679e+03
-1.572983966505382227e+02
1.134646431478576432e+02
-5.773801746390937240e+01
-5.191134995880925089e+02
-4.076575913039123407e+02
-1.343460535624138288e+02
2.178630879729724938e+02
7.369306061671314865e+02
9.526546788934421102e+02
6.968476069091118461e+02
6.113687697773252694e+02
9.391198120737227555e+02
1.374172266163284803e+03
1.742509023209492398e+03
1.852235321780116010e+03
1.844504055203271719e+03
1.785387381890909182e+03
1.384913824801503324e+03
8.409775664917635822e+02
4.643936189658053308e+02
3.579708801544257994e+02
5.726118664413901342e+02
6.729356715970646974e+02
6.764929917172415799e+02
1.277104923835398722e+03
1.326072476041821346e+03
1.222617910065184333e+03
1.104801825739186370e+03
8.006572317732041029e+02
4.671236646438262596e+02
6.551796517412185494e+02
8.348992845277352899e+02
1.125344104553784973e+03
1.566478823251793074e+03
1.633262214602248378e+03
1.400689764447861535e+03
1.736566103710590369e+03
1.583809197129093491e+03
1.602441910484328446e+03
1.546448669294954016e+03
1.641903310303201579e+03
1.464898499093840883e+03
9.765301302350288779e+02
1.118880482318763143e+03
1.542004736747752759e+03
1.840908770504436688e+03
2.215634440925886793e+03
2.530138415736729712e+03
1.934485172621005859e+03
1.385707083509895710e+03
1.805752635941922790e+03
2.070610706214493348e+03
1.702355593818525449e+03
1.696034749164519553e+03
2.113735535427955256e+03
2.516587840302694531e+03
2.597594625797216850e+03
2.742754601089470725e+03
2.369090133654935926e+03
1.474619297131379881e+03
9.546801456975542521e+01
-3.644224584669794240e+03
-4.795449003750513839e+03
-3.226108274473565416e+03
-2.262313928728506198e+03
-1.216487088715662594e+03
-1.832719708909522296e+03
-9.086800254745479606e+02
-3.779303370056770746e+03
-3.325252641459091478e+02
-7.671791261420675028e+02
-2.216180125704960119e+03
-2.910447912933991120e+03
-2.827928278854124983e+03
-7.145952301827941255e+02
-3.357374982369518420e+03
-3.873229251069688871e+03
-2.382114488400760365e+03
5.690953946598197035e+02
-1.215597080413287586e+03
-3.009244446132341636e+03
7.332190029283137847e+02
-5.860689749490600207e+02
-2.930648840613817470e+02
9.312824732947347002e+02
-2.323915346398538986e+03
-1.196937253972724164e+02
-3.420113567402714125e+03
-3.550009227166819073e+03
-2.561303740618114261e+03
-6.264993672520851760e+03
-3.478071819142011464e+03
-1.051557202006127682e+03
-2.121276445590166531e+03
-7.731602313034844656e+02
-1.328145324430274968e+03
1.450896583841459005e+03
-1.546031216163600448e+03
-7.108814835846557116e+02
9.364003200048364306e+02
9.378777995189548164e+02
7.266135108680841768e+02
5.296508346067007551e+02
2.360498475290730482e+02
1.608149059986700991e+02
4.159873131581475150e+02
9.216426289296200594e+02
1.027877337340904887e+03
6.897237059209162453e+02
8.721605435876075489e+02
1.213146925771031420e+03
1.033497753703599983e+03
1.097250865907491061e+03
1.570583395079770526e+03
1.801916651672265289e+03
1.886961263004812054e+03
1.814696195811978896e+03
1.509205303660308800e+03
1.065567934961845594e+03
6.498428403913330840e+02
2.430703453565650420e+02
3.194644979792332720e+02
4.246103132375421296e+02
1.183550587348329941e+02
-3.488999528660653482e+02
2.205971107035843488e+02
6.849127765319203718e+02
5.422082093616991187e+02
-2.256711250944642870e+03
-1.215906294601684976e+03
9.608452380641083437e+02
9.674353674856586167e+02
1.149918445367388131e+03
8.143533735333769528e+02
8.416248985110821650e+02
1.593717826431112826e+03
2.141668394242723480e+03
1.914465376872608658e+03
1.807119677306677659e+03
1.867684438846090188e+03
1.654163106611192234e+03
1.562566078317377787e+03
1.704907243192049236e+03
2.133827201334064284e+03
2.098362924565247340e+03
1.965484597854271669e+03
2.013390537823921477e+03
2.066967952983584382e+03
1.871167873757452753e+03
1.630962966750433679e+03
1.599479096819213510e+03
2.051645539132730391e+03
1.830460593754732145e+03
1.753896101814353642e+03
1.701972992911076972e+03
1.720665722894544615e+03
2.009974091738888319e+03
2.307989931266580697e+03
2.130735736936210287e+03
2.051248826036799073e+03
1.708551190833456303e+03
1.061553882178933463e+03
1.045222874342584646e+03
9.035677755901796218e+02
1.093621799554601921e+03
1.232440669048648033e+03
1.278044110092645951e+03
1.473335932685501803e+03
1.282336361805649631e+03
1.012105889134828544e+03
7.846935434305112267e+02
7.501218892638936495e+02
8.893184837640110345e+02
1.056227837547288573e+03
1.097852801202303681e+03
1.064325174147725420e+03
9.076488873013867078e+02
9.638338051024608149e+02
1.144933898630409885e+03
9.519395717041721809e+02
7.588984753141464807e+02
3.878075869882841289e+02
-1.771444735914975126e+03
-4.940811691110641732e+03
-7.802293705270337341e+03
-7.970903815004796343e+03
-7.779604138693312962e+03
-7.162370878575783536e+03
-6.982247897577231925e+03
-7.296333056664793730e+03
-7.334305108497875153e+03
-7.121197717975613159e+03
-6.843134475751564423e+03
-6.738209444651775812e+03
-6.352352380656693640e+03
-6.123520846107808211e+03
-2.736709864223447767e+03
-7.529270856692735379e+02
-2.418252649849213867e+03
8.253757483611818770e+02
1.898978530554473991e+03
1.983586923829963098e+03
1.425182775960862273e+03
9.767480795841294139e+02
1.336260734226349996e+03
1.694841860211104404e+03
1.434531873133940735e+03
1.448339114039719334e+03
1.319264838420600427e+03
1.134348454038506134e+03
1.349550379756428811e+03
1.716843156172356430e+03
1.384311690201604961e+03
1.268021300977888131e+03
1.273976452201474331e+03
1.463205511842372971e+03
1.478795588742256086e+03
1.380761403608834598e+03
1.004085387543599609e+03
4.407348817047206921e+02
-4.572743856428320441e+02
-7.218558506092883817e+02
-5.789656260816637996e+02
-6.646426224914700924e+02
-6.798225347494812922e+02
-6.934378908796144287e+02
-2.515081138605255830e+02
-6.797481529899512509e+01
-2.998298947091147397e+02
-1.070067695910217793e+02
-1.045060645120796572e+01
-1.181770637127696517e+02
1.183886751444746643e+01
5.155787111472444195e+01
1.240622738465051214e+02
-2.735475853246702513e+02
-3.433903649904960531e+01
4.236944565010394967e+02
7.926031606675131798e+02
3.074024442980200433e+02
3.408156068602161781e+01
1.906536909886961553e+02
4.913724878981729915e+01
3.096966463468290840e+02
2.254515197475946309e+02
1.325552944257706827e+02
4.927187336864107010e+02
3.516100309650666986e+02
-1.047852013697754927e+02
-3.122155672715044830e+02
-3.796441830374178039e+02
-3.610304087756809110e+01
-5.286480943665811765e+02
-1.431559935510153991e+02
-3.495707113834330357e+02
-3.679489845674038975e+02
2.485284981121520786e+02
6.289233200373230375e+02
7.842520418502753046e+02
2.295509686806187517e+02
-1.501738441600169267e+02
-4.739337047615354663e+02
-2.217925650035389538e+02
-1.317711987173142631e+02
-1.718550479891329132e+02
6.894717625550568130e+01
4.206418511802012858e+02
6.342034924086493675e+02
1.976059695216314935e+02
-1.111577962780877868e+02
5.894174407296008411e+01
4.687408315228588407e+01
1.615914626140508972e+02
1.470260345459097948e+02
2.692021973307860208e+02
7.721236326756356902e+02
1.284778901040101800e+03
8.441660700317133887e+02
4.272299810708139489e+02
7.959015429636237968e+02
9.991201223097087905e+02
7.338434459999648425e+02
7.230318427592525268e+02
5.176635588345754968e+02
4.857035081745610228e+02
5.471576183005435041e+02
5.710124197375633912e+02
1.961948540392806422e+02
2.361406806503376643e+01
1.562369633768522590e+02
2.220031740685909369e+02
7.578640769520694676e+02
9.488041496033264366e+02
1.091721701301776875e+03
1.260547316496949634e+03
8.642736328058153958e+02
4.288856203782005423e+02
2.962577861786126618e+02
3.743205369782423872e+02
5.370732301016620340e+02
3.134729133981968516e+02
8.639730570606319304e+01
2.288042554691173791e+02
-3.240361357185105362e+01
-2.383043732848940977e+02
-4.319274081307646611e+02
-1.263016505979880293e+02
5.471565747205768382e+00
-2.387018040202383418e+02
-3.777998976363620045e+02
-5.119074171103331423e+02
-2.751396981527585694e+02
1.284009203259242327e+02
2.036499071873289211e+02
2.075432309780758260e+02
2.503012086727819963e+01
2.750507251384991605e+02
1.115439365775646593e+03
8.708060682907973842e+02
3.318497843298380303e+02
6.283630667890315635e+02
8.321872636903257217e+02
7.667844395939862352e+02
8.607829489604256423e+02
4.490705648925724631e+02
2.072537414148892765e+02
3.312565180544938244e+02
5.534560439158575491e+02
5.953745312762198409e+02
7.081064280107848390e+02
4.816975308782552361e+02
1.417133425093128380e+02
2.294334286195448556e+02
5.356505551177797315e+02
1.424129700131784830e+03
2.022452293317672456e+03
2.076331100219068958e+03
2.213639628688290031e+03
2.315552475208395663e+03
1.877856018311370235e+03
1.357066854750383754e+03
1.239896873258960113e+03
1.241021802255659850e+03
1.010102434315293976e+03
8.850489231175832856e+02
1.248840162360604381e+03
1.790397379872240663e+03
1.521701873827511463e+03
8.406699133885853144e+02
7.589882588791921307e+02
7.367802734574257784e+02
6.151929709137856435e+02
1.539057641617878062e+03
2.378845554076924600e+03
2.363387411794452419e+03
2.403250458640516626e+03
2.677291396516995519e+03
2.757603974113927507e+03
2.667164573116239808e+03
2.971919713816168951e+03
2.851858472256030836e+03
2.217952379087560530e+03
1.590142782030501166e+03
1.765357315116737027e+03
2.240610063195916155e+03
2.390934826774712292e+03
2.326305710159877435e+03
2.827270329045329049e+02
-3.572762617106845028e+03
-7.065198751714870923e+03
-6.911637254746256076e+03
-7.221060191767292054e+03
-7.267405896057428436e+03
-6.760650883775596412e+03
-6.236786494605390544e+03
-5.726760518673650040e+03
-5.310519549383041522e+03
-1.641059780498330610e+03
-2.758393429414819821e+03
-6.238500909735128516e+03
-4.719389460109293395e+03
-5.642908096754124927e+03
-6.792063040494806955e+03
-4.772874004698483077e+03
-2.072340336692621349e+03
-5.687123678426075458e+03
-6.222489284938875244e+03
-5.591495770139760680e+03
-5.528933379151235386e+03
-5.235825500835843741e+03
-5.124058881707460387e+03
-5.501585714415351504e+03
-5.055465783093412938e+03
-4.959648617701298463e+03
-4.836039183111824968e+03
-4.560521139202893210e+03
-4.475040844061703865e+03
-4.134550370330031001e+03
-1.879802341811106885e+02
-1.122455293214599266e+02
-2.439319681461280652e+03
-8.091152529579052270e+02
1.595447411841344547e+03
2.717392368422987602e+03
2.890732700878383639e+03
2.576596214731818691e+03
3.033055516954389986e+03
2.926189096921978489e+03
2.783030575016903185e+03
3.309729470735672294e+03
4.046340505845038933e+03
4.136899670435913322e+03
3.436483113360747666e+03
3.485137578132189446e+03
3.759941814139094276e+03
3.698999682813191157e+03
4.059387642397776290e+03
4.241245197236999957e+03
4.171656889503613456e+03
3.874647719334311660e+03
3.197309029096667928e+03
3.044726015806905707e+03
3.063948931004294082e+03
2.817024833274985667e+03
2.440038307591786634e+03
2.662078064518393603e+03
3.268240176170827908e+03
3.546564006609730768e+03
3.027091932515636927e+03
2.369917666440103403e+03
1.903129161655903090e+03
1.826796205851480408e+03
1.931977041639298250e+03
1.995649809992361497e+03
2.090768272124009854e+03
1.988525274969543716e+03
2.215278309924704445e+03
2.547061102071153982e+03
2.302034110211189727e+03
2.096395611652194475e+03
1.550297172625228768e+03
8.808620831429174132e+02
6.949675353225380832e+02
4.006478838791862245e+02
-2.650891369980032550e+02
-3.168309200015698480e+03
-1.634943963605020144e+03
-3.738840644046719603e+02
-1.780049796463467828e+02
8.480060866543279019e+01
7.309568517477779892e+01
-2.993022408683287594e+01
2.387234781320821497e+01
3.722649818475557595e+02
4.434156260794068771e+02
7.568366987535747512e+02
8.055930948788131900e+02
