-4.828942041804446490e+03
-4.985673204228271970e+03
-4.515748485997273747e+03
-4.460182114244271361e+03
-4.365965661348875983e+03
-3.892114345775074526e+03
-3.946585634164756812e+03
-4.456323935550431997e+03
-4.927241502192395274e+03
-4.712365671712266703e+03
-4.443784934670799885e+03
-4.544439541763449597e+03
-3.533290144665814296e+03
3.272326256035410807e+01
-3.783402699134603608e+02
-3.391535100919157685e+03
-3.402770109851788675e+03
-3.730979215602765635e+03
-4.255229213470154718e+03
-4.342559374917600508e+03
-3.690972202106720033e+03
-7.524812917796363081e+02
3.836953739507404862e+03
4.431393575746871647e+03
4.662853672670287779e+03
4.069327875757645870e+03
4.307871700249137575e+03
3.986501485452636189e+03
3.959138917362754455e+03
3.600787147776504753e+03
3.287496085508543274e+03
3.443269587710769883e+03
3.499098139169570914e+03
3.313121893882760560e+03
3.182417529784274393e+03
3.221205475394216592e+03
3.376154118552885393e+03
3.251305409717948805e+03
3.163644369224994534e+03
3.079388285915931647e+03
2.907791421731770697e+03
2.968661166088950722e+03
2.469974669291209466e+03
2.396769522606906321e+03
2.734844099188495875e+03
2.773263580795133748e+03
2.477271804695736137e+03
2.774559398037842584e+03
2.396420502585427585e+03
1.947739793305917146e+03
1.556511029494754666e+03
1.554945208681273698e+03
1.844358065606501441e+03
1.833338606213658750e+03
2.217031410255193805e+03
2.596868314831741827e+03
2.784282003233182877e+03
2.537111835644590883e+03
2.137232556368341193e+03
1.772781975337804170e+03
1.703717338162798342e+03
1.965225137963929228e+03
1.953024506620412239e+03
2.247154653039944606e+03
2.395988987111045844e+03
1.654474887830823718e+03
9.193920888763803987e+02
3.365287209686073311e+02
2.437470203083401543e+02
5.464103335436826683e+02
1.014326063896130336e+03
6.602941654866225463e+02
6.187271484103837338e+02
1.144426990828662383e+03
1.165445619025050291e+03
1.302588639163078142e+03
1.816840687118878122e+03
2.228059664786286703e+03
1.899247920127131692e+03
1.825392691189619200e+03
1.612463972791305196e+03
1.642428936558763098e+03
1.603243806107517230e+03
1.437928702789107319e+03
1.613527040288439139e+03
1.716990734082060044e+03
1.308264853604452583e+03
1.284330148131374244e+03
1.328180284417579060e+03
9.007525974410156095e+02
5.830142016617495528e+02
5.129485771371599867e+02
7.305523424220232300e+02
1.009876586754859773e+03
9.968115739755519371e+02
7.804041368531517264e+02
9.296155101803786920e+02
1.464405777442769931e+03
1.820756728019951652e+03
1.380598882145459356e+03
-2.330461950150873633e+02
-3.675192203929882453e+03
-7.056827693543006717e+03
-7.427950580341304885e+03
-6.809555806493546697e+03
-2.336650654137944912e+03
-2.112251085800362944e+03
-7.000431526965453486e+03
-7.079185352070335284e+03
-6.841510420579676065e+03
-6.327436929634766784e+03
-6.814948753082435360e+03
-6.718167809393285097e+03
-6.370799303061958199e+03
-5.664906076533727173e+03
-5.078638727880314036e+03
-5.250921833206735755e+03
-2.675731314418469083e+03
-2.506107769521846421e+03
-5.615047867429217149e+03
-6.058558237620382897e+03
-6.215687385358995016e+03
-6.303445146678809579e+03
-4.974734386644388906e+03
4.804504201614382168e+02
2.202142736860115747e+03
2.496385755858660104e+03
1.890190254341155196e+03
1.344461965271095551e+03
1.384167348535983137e+03
1.877305923973284280e+03
1.817798933352994936e+03
1.697695561148479555e+03
1.966176390089004826e+03
2.073247076234883934e+03
2.041854028532061193e+03
1.712022358029152883e+03
1.423788793613734015e+03
1.313186061707961926e+03
1.280270848037963560e+03
1.673082757736409349e+03
1.969675748456961855e+03
2.217046253306807102e+03
2.182167594371014729e+03
2.400009930216686826e+03
2.394548096343268298e+03
2.168801372691039433e+03
1.749907528588467812e+03
1.289890843499122184e+03
1.327762786234041414e+03
1.215548189660134540e+03
1.075253194355394726e+03
8.888983680317526250e+02
1.108574300813849277e+03
1.404377768125627199e+03
1.431308441196954163e+03
1.255444773247251533e+03
8.949042551324495207e+02
4.987084001958388058e+02
8.008967106707328867e+02
8.913578823811927805e+02
8.300946869698683486e+02
7.791792422202609032e+02
1.100761852267436097e+03
8.229385701231024086e+02
6.287960355663083192e+02
1.235611515503924522e+02
-4.107901710876725474e+02
-6.783697426060768976e+02
-5.922525633428037963e+02
-1.933779819279238552e+02
-2.648761403217530841e+00
-3.040344209267964288e+02
-1.104442676997880426e+03
-1.534001434481903516e+03
-7.968821120030256679e+02
-5.666736017554858336e+02
-2.594904382679188188e+02
2.025780333119353998e+02
1.886062545683027167e+02
-1.704120832624513184e+02
-7.225104607588351655e+02
-8.926221308643005159e+02
-7.805702808002192796e+02
-1.099382138509013885e+03
-1.265149355550074688e+03
-9.088631493098985175e+02
-7.003748377583261799e+02
-3.107402117111191160e+02
2.349424310117533423e+02
8.164303375013322750e+01
1.154126417312386366e+02
5.226596268116126254e+01
-5.857463327247072584e+02
-4.306482344797380506e+02
1.276230764768800725e+02
7.121297652901233732e+02
8.848888847172129317e+02
8.359050123938243360e+02
2.341706069875007472e+02
1.926038944560617665e+02
2.032453583611763577e+02
4.301197376796621938e+02
5.372617360276298086e+02
5.727421000731716276e+02
8.765306050580547890e+02
1.232686495565663790e+03
5.912448973913360533e+02
1.191370987932575503e+02
-2.876644186935534435e+02
-2.882583007604218892e+02
-2.287203116257215925e+02
-4.670763468039807549e+02
-5.012724544840299927e+02
-7.222850427499054149e+02
-1.821012383842180498e+02
7.782832312941995951e+02
9.638201789965423814e+02
9.044380743413892105e+02
7.340602603377105879e+02
6.056881324752775981e+02
5.983506441942211040e+02
5.429703897690291114e+02
6.055763101446892733e+02
4.051357265942054369e+02
-1.034266135338036463e+02
-1.040053397696405455e+03
-1.295692105669574175e+03
-3.925281037571426737e+02
-3.606890047713648073e+02
-7.021969284408157819e+02
-5.939641246945237754e+02
3.989757535175684211e+02
8.045990103567647793e+02
1.179930093841361895e+03
1.814783089601246729e+03
1.675090989418383742e+03
7.798237177497194352e+02
6.470726427383264081e+02
3.238593936108201774e+02
-7.871176052242688570e+00
6.892435875874835460e+01
3.245105406698284014e+02
5.916551120670511636e+02
9.803599447382974859e+02
1.637428043037527686e+03
2.178871706267992067e+03
2.020270097762457908e+03
1.561907112106085833e+03
9.405188942927358084e+02
8.658917367291377332e+02
6.803170965282670295e+02
2.263714707046474359e+02
1.642570306123499222e+02
4.060803595127750896e+02
4.536556690259991456e+02
1.007684902571251769e+03
1.102783967375341490e+03
1.232416018792813020e+03
1.120299284466664176e+03
8.008169055570735964e+02
2.169736444890039024e+02
-1.333727212880520199e+02
-1.595008822476172838e+02
7.629005998409230642e+02
1.362651169861828976e+03
9.094839965156257904e+02
6.143494504453962008e+02
3.672488210762659833e+02
-8.237456083817350816e+01
4.234758724680099249e+02
2.782373775291370066e+02
7.117403562636280867e+02
2.205879967576834588e+03
3.291890343738316915e+03
3.706443966191541676e+03
3.748599094646208869e+03
3.371359988621756656e+03
3.000689296386701244e+03
2.878337386934820643e+03
2.561409084332073689e+03
2.196796474312476221e+03
2.347636545701159775e+03
2.656001271793644264e+03
2.793988854071480091e+03
2.836573301532906498e+03
2.174654475501450179e+03
1.323180023455205401e+03
6.833519035831930069e+02
1.042114979722400903e+03
1.082029513518765725e+03
-5.790812539389570475e+02
-3.330182247044562246e+03
-6.306171801094765215e+03
-6.122995842363623524e+03
-5.101547773001877431e+03
-4.824646105240211909e+03
-5.162323716963736842e+03
-4.774835882744285300e+03
-4.276212356128390638e+03
-4.330557527659007064e+03
-4.416069564489667755e+03
-5.172684455949200128e+03
-5.775306027302197435e+03
-5.387894031266960155e+03
-4.619944805109897061e+03
-2.312518063522384182e+03
-1.190685394685376423e+03
-4.381553337393429501e+03
-4.681683285785166845e+03
-4.626152903013787181e+03
-4.818051610319804240e+03
-4.664296592590140790e+03
-4.425929670432355124e+03
-4.299039193147478727e+03
-3.594649740410903632e+03
-3.440787581837625112e+03
-3.659482334246071332e+03
-4.337658432005709983e+03
-4.686004717485081528e+03
-3.846420788330171490e+03
-2.319059088958912014e+02
-5.103297963634047960e+02
-3.193511797061233210e+03
-3.287603997329169488e+03
-3.244756564692740085e+03
-3.267072554619438961e+03
-3.314685436436327109e+03
-3.538398236357128553e+03
-9.610180198583822175e+02
2.781437726745393320e+03
3.504038160380083809e+03
3.597802975652313762e+03
3.680730934033258109e+03
3.317819846198691721e+03
3.328258080080871878e+03
3.778078781870063722e+03
3.652270384586828186e+03
3.282903977389361899e+03
2.964021227646195257e+03
3.170712626899367024e+03
3.263913431858560671e+03
3.147628949564022605e+03
3.369094388104745121e+03
3.889619260307302739e+03
3.784629516502096976e+03
3.186284520477594924e+03
2.983234192227059793e+03
3.135309269469956689e+03
3.620530740651734050e+03
3.426864027212664496e+03
3.659539825911648222e+03
3.977762014475519209e+03
3.810474879535798209e+03
3.635468057471227894e+03
3.099776549465943845e+03
2.844412284836753770e+03
2.884564813222290468e+03
2.955421691964490492e+03
2.708883837573841447e+03
2.629704134197769690e+03
2.532830241423587267e+03
2.770190952999645560e+03
2.340340038036276383e+03
2.006802398847294171e+03
1.754291014790333975e+03
7.268416730298748689e+02
5.084634213123437689e+02
-1.576630453474053184e+03
-3.293863505003208161e+02
8.532400757477769275e+02
3.282015041521602257e+02
4.723481783489493750e+02
6.157739399193951613e+02
5.012975502623357897e+02
8.734070564770847795e+02
1.082427885770121065e+03
7.288849265863199207e+02
-1.311624523807648757e+02
-3.498649520001340534e+02
-7.612721104339583462e+02
-6.485040551862423399e+02
4.913960689792403400e+02
1.913424096304378509e+03
2.468556052649647881e+03
2.446750795662555447e+03
2.347997901052638554e+03
1.101372539219778673e+03
2.059536744961253021e+02
3.448157946658070614e+02
4.000727220472379599e+02
-6.012892131243762606e+01
-4.308385754133940964e+02
-9.442942785086864887e+02
-1.134680426078608662e+03
-9.710166975703425578e+02
-9.328806153001650614e+01
1.304520343942749150e+03
2.387410438499290194e+03
2.734422061226647656e+03
2.324666668981579278e+03
1.425066385157774675e+03
-8.838961482378786627e+01
-1.656894830301778256e+02
-1.508568455948008307e+02
-1.318531806396780723e+02
-3.347066154602506458e+02
-8.323453411377822704e+02
-1.968839375786863457e+03
-2.926333792730487403e+03
-3.071963286509303543e+03
-3.291744951176766335e+03
-3.272693551140147065e+03
-2.740872108279967506e+03
-1.828301018347817944e+03
-6.589359141108202493e+02
-4.728210982150859536e+02
-1.075939779061767922e+03
-1.566302301080972256e+03
-9.019590492687864298e+02
-1.195982303013533965e+03
-2.339387152212374531e+03
-4.177174567793228562e+03
-3.129352133035794850e+03
-3.078949012750586462e+03
-4.426031560458694003e+03
-5.232633775225239333e+03
-5.730842039445960836e+03
-6.293678689755741289e+03
-6.520170610816646331e+03
-6.484260691056616452e+03
-6.722030495273749693e+03
-3.286654214548320397e+03
-1.774094479042644934e+03
-2.050388706672327771e+03
-1.279592792565024183e+03
-7.586729933355939011e+02
-1.427593357770470220e+03
-1.854299508096251429e+03
-2.917857726219216943e+02
9.508907538843930070e+02
8.356023433124147459e+02
5.963428747922336015e+02
2.293025392047732112e+03
3.810604896856994401e+03
4.183029863617818592e+03
3.810263204427393248e+03
3.235356857618785398e+03
2.882325798399376254e+03
2.656147315434304346e+03
1.507886293017751314e+03
8.954872119674172382e+02
1.083896529916339659e+03
1.213092284187471023e+03
1.418107392480165117e+03
1.482969389891262836e+03
9.396941988355288231e+02
3.832341211680017068e+02
-6.004467572946867904e+02
-1.031356853538887208e+03
-1.361473244835599417e+03
-1.744838366318928365e+03
-9.235115508106583775e+02
3.955273344042770987e+02
1.269341534830224873e+03
2.375962294080630727e+03
2.760374240078315779e+03
2.274581679793117928e+03
1.611549922860846436e+03
1.042246728291255522e+03
7.506747553030097606e+02
9.589019594983806201e+02
1.562884079776443286e+03
2.347510827336064267e+03
2.395781450946309633e+03
1.732797418679712791e+03
1.216762653723413450e+03
1.187813445058163097e+03
8.779369051355212150e+02
6.499811826685339611e+02
5.837464414420868479e+02
9.727490230370987945e+01
2.835550853169093557e+02
1.512644320326462093e+03
1.808605667447525548e+03
8.082817092362053017e+02
-4.342602937027909320e+02
-3.569705989708705260e+02
-2.948843034593853076e+02
1.029213945767182565e+02
1.082520321061141885e+03
6.159235338606678170e+02
-2.599344966553529162e+02
-1.740997822030549287e+03
-2.270170621109673448e+03
-1.321433641539916380e+03
-2.316720450755326510e+03
-4.713086609354222674e+03
-3.695524458108709041e+03
-2.672028958631812657e+03
-4.466379754206309372e+02
2.456846272648901106e+02
2.306870528645672493e+03
1.259298735809805549e+02
2.052920830097066755e+03
1.341892322368474197e+03
-1.687158490426966409e+03
-1.831628368001981499e+01
-3.447521110514615884e+03
-4.566737756864127732e+03
-3.803978436445923762e+03
-1.239273213484230155e+03
-3.080651698129709985e+03
-5.521607513604473070e+02
-1.444740022368656810e+03
-5.238387734891767650e+03
-4.158056371097030024e+03
-1.864742783774420786e+03
2.985567473790249551e+02
-7.971886185352713028e+02
2.527994785880015115e+03
4.848013204133196268e+03
5.442865451368012145e+03
6.383593518427476738e+03
7.986201958596768236e+03
3.988684730183571446e+03
3.056060168491513650e+03
4.862231190488139873e+03
1.815255671777151520e+03
-1.049348227206391613e+02
1.025517936939560059e+03
-2.145375626594149708e+03
-4.480654282472235536e+03
-6.038281994517333260e+03
-4.991192447841595822e+03
-3.864390681695080730e+03
-4.289946743493701433e+03
-6.410859699241750604e+03
-7.867101525376975587e+03
-7.540654356580625063e+03
-6.083575419311030601e+03
-4.058896232521728962e+03
-3.126604435033306800e+03
-2.534719225384088531e+03
1.937771604130480910e+03
7.070914557534249070e+03
7.157572689617122705e+03
4.848689634101870979e+03
2.676389834368340871e+03
1.606760886503402844e+03
7.508712110529813799e+02
1.248436827828625610e+03
4.569344847274727726e+03
8.277652376883997931e+03
9.586385066773404105e+03
1.012945296625271112e+04
9.659821188462730788e+03
6.555460614774426176e+03
3.043184277330055465e+03
-7.186868171134923386e+02
-4.583131763435063476e+03
-3.238194208551342399e+03
-2.881950753086427085e+03
-3.863687218462866895e+03
-6.687681789273685354e+03
-3.878239028400369989e+03
-2.062599658921886657e+03
-9.089486402414618169e+02
1.523775278099115212e+03
3.524464008227135309e+03
3.890390868210216013e+03
3.288168311531813288e+03
1.573761335963888314e+03
-1.322601594459421676e+03
-4.107114576598965868e+03
-3.978678122458707549e+03
-2.517124071820810059e+03
-1.296897129357476842e+03
5.089067705414286706e+02
4.733481101599275462e+03
7.396868384389858875e+03
8.552166955759908888e+03
8.460322637931942154e+03
6.092293107432586112e+03
4.383069628822982850e+03
4.679499090996103405e+03
4.890564842443678572e+03
5.036976948236078897e+03
5.012699665600732260e+03
4.821193889944988769e+03
3.871260526992548421e+03
3.877856802651862836e+03
3.897990562969010170e+03
2.830643801641546361e+03
2.014828726239641128e+03
7.465655897774803407e+02
-4.961313578187645135e+02
-3.449264716243391831e+03
-8.056831476394955644e+03
-1.204578844804215441e+04
-1.313618537781759187e+04
-9.014075984733444784e+03
-2.686402447226377262e+03
-3.630972575079092621e+02
-3.401367358009050577e+02
-3.605539223320561177e+02
-1.464364659592098178e+03
-4.914944394330065052e+02
2.838048577357816612e+03
6.110261245968632466e+03
7.185209816600356135e+03
8.428959676642050908e+03
8.705539599072257261e+03
9.635934177646777243e+03
1.020820965735244317e+04
8.010360975857658559e+03
3.890469430235569234e+03
-1.584453694921136275e+03
-5.103352803103161023e+03
-6.244205512621256275e+03
-7.128914141406557064e+03
-8.288473201473992958e+03
-9.400751389410186675e+03
-1.079468035036603214e+04
-1.110329250870260876e+04
-1.057729457093041128e+04
-9.330958575419836052e+03
-8.257333086995888152e+03
-9.418246830089832656e+03
-1.074266456215236758e+04
-1.200549550633538638e+04
-9.149669950211215109e+03
-5.159217880240636987e+03
-4.729106725547995666e+03
-3.273197133620635668e+03
-3.755373408039338301e+03
-3.466594737796042409e+03
7.641807343061550455e+02
2.293975333812014469e+03
2.764770426181851690e+03
1.831600696505354790e+03
-1.934409207882444264e+02
-2.477255636683855755e+03
-3.821826137106235365e+03
-5.054016758611659498e+03
-5.721725826151135152e+03
-4.484988439454312356e+03
-8.457559770939152486e+02
3.050086149710545214e+03
4.282574780834496778e+03
3.218834247591735220e+03
1.803898054845156594e+03
3.757623132758164388e+02
-5.885789565882752186e+02
-1.685103615318310631e+03
-2.353788989234104974e+03
-1.710538402740560514e+03
-1.530207146410700489e+03
-1.486685720507153064e+03
-1.332885011439540904e+03
-1.574809816496690473e+03
-1.254402399340769307e+03
-4.766822760118642464e+02
1.708412942923717765e+03
3.771959211704504469e+03
4.562101845757112642e+03
4.439903538603722154e+03
4.573368749778621350e+03
4.656539086124563255e+03
3.971432364594071259e+03
2.882045179103845840e+03
2.366394602825312177e+03
2.237451177901497886e+03
2.549305464583059802e+03
3.056054725385865822e+03
3.398667106203795811e+03
3.686019850528214647e+03
3.599196716772003583e+03
3.947538865253570748e+03
4.283340795069640080e+03
4.564382162678851273e+03
4.607712716018943865e+03
5.019500104303203443e+03
5.191775025814156834e+03
5.414488354294037890e+03
5.199666634592669652e+03
5.499265659006723581e+03
5.401305397543267645e+03
4.560856025530371880e+03
4.044667195725091005e+03
3.438034580636021929e+03
2.550726460285343364e+03
1.833626601549172619e+03
1.384983134948104635e+03
1.645658425666524863e+03
2.800575972568794896e+03
4.180585094173231482e+03
3.963676183360654704e+03
4.089944898902171644e+03
3.985376657689811054e+03
3.472811904840953048e+03
2.698189702615216902e+03
1.797622855859218362e+03
9.620991618029453321e+02
5.886011305225156320e+02
-6.982802211831932482e+01
-4.702144802374020287e+02
-7.205110483460418891e+02
-1.027791917761873947e+03
-1.329153004845325313e+03
-1.391611952669374659e+03
-1.114181151548506023e+03
-1.074884204692893491e+03
-1.013728971883481449e+03
-1.252742123514248078e+03
-1.259917443672042282e+03
-8.862805426042566523e+02
-9.698422908340801314e+02
-1.492649001795461345e+03
-1.628852492425004129e+03
-1.991551051398806067e+03
-1.915769585882041611e+03
-2.050584518246708285e+03
-1.712013987719051329e+03
-1.670082140831291099e+03
-2.438791934076740290e+03
-3.198190028143681957e+03
-3.440283596132363982e+03
-3.502230042495855741e+03
-4.536079225736786611e+03
-6.669914184308373478e+03
-8.294719726933315542e+03
-7.654531565110535666e+03
-4.895410127612828546e+03
-1.450420091654397311e+03
6.664131721882638431e+02
5.510551485493263044e+02
6.454223901601329771e+02
7.353658852339896157e+01
-6.036962010139063750e+02
-1.946974093669910033e+01
-2.267657922757728670e+02
-4.415559110341930023e+02
-5.478447387138970726e+02
-8.127460334977351977e+02
-1.210378235332208078e+03
-1.204812219352672855e+03
-1.062170968683764158e+03
-1.511404523992500799e+03
-2.210504294386383663e+03
-2.860425931779890107e+03
-2.829329714170983607e+03
-2.217326698239633970e+03
-2.468371352077279880e+03
-2.362585666483115801e+03
-2.002171195443000670e+03
-2.104745019042603872e+03
-1.565752102231459730e+03
-1.505052607923209962e+03
-1.324182392745776497e+03
-1.068554293187152780e+03
-5.354022412245002442e+02
-3.069830498747318757e+02
-7.999944514999377816e+02
-7.766029008910641096e+02
-6.754096742783594891e+02
-3.850520227743866712e+02
-9.648407995797764158e+01
-3.516437108684273767e+02
-7.104928483144499296e+02
-7.186584160347093757e+02
-6.245824649700007285e+02
-5.823065859175552106e+01
4.520759646417380395e+02
7.773077942116416352e+02
9.349973234149659902e+02
1.146673803385656356e+03
1.353984817586426516e+03
1.564748098105691042e+03
1.377083458577451893e+03
1.385797465160957245e+03
1.411726663692329794e+03
1.524677468833850753e+03
1.503255859240460268e+03
1.807431997889311560e+03
2.083292262994895282e+03
2.048672054540627414e+03
2.271641392638258822e+03
1.635286730332363277e+03
1.173856180518479277e+03
1.220099698952551080e+03
1.311067148488451267e+03
8.262997608261317737e+02
1.480936213327740347e+02
-2.415217893810645364e+02
3.246544263860806154e+02
7.264078056115480422e+02
9.248302091322606202e+02
1.563738401082846394e+03
1.498073937742845374e+03
1.448790620856985470e+03
2.409546267542453734e+03
3.078149873770722479e+03
3.156944358857748739e+03
3.255166370824478690e+03
3.130849736527565710e+03
3.255949647142851063e+03
2.856494854266888979e+03
2.247389331898809360e+03
2.068375866168419634e+03
1.926377864902618967e+03
1.683552404291915082e+03
1.543958922023050945e+03
7.886592006305437508e+02
-2.605044726192528742e+03
-2.774009688105485111e+03
-2.310157053837959666e+03
-8.304237470847647273e+02
1.000947427237473221e+03
1.822040948145167476e+03
-1.665071174196655647e+03
-8.102273499950360929e+02
-6.876663223717191897e+01
-1.069708649718898641e+03
-1.383015171977186583e+03
-2.620809436996026307e+03
3.428698159363286777e+02
-1.232825251938026668e+03
-2.657758352088835181e+03
-1.297753788286262761e+03
-2.509672536911711632e+03
-2.966417620433031516e+03
-5.371606478044386677e+02
-2.204981434046702816e+03
-1.642879010417679638e+03
-1.769904550846142001e+03
-4.296253786099022363e+03
-3.353861419455739906e+03
-2.562581724824459343e+03
-2.022351956720643102e+03
-1.288962732669170009e+03
-2.660365794691943847e+03
-9.476436680231178116e+02
-5.707493957624089944e+02
-3.318677807916468282e+03
-6.234009348055473083e+02
-2.891850197819953561e+00
-3.570108200732645969e+02
-3.197557281252001644e+02
2.388114427082980740e+01
3.013987732976252332e+00
-1.373279801824472770e+02
-2.330523055300793658e+02
9.487748197537621309e+01
3.646773275270210775e+02
9.745588743791245179e+02
1.282627367843745560e+03
1.167746389087693615e+03
1.011512058929409250e+03
9.026726052963689426e+02
1.196446625375523126e+03
1.223992511684589999e+03
1.215307179145265309e+03
1.254494856332025392e+03
1.343429307432204723e+03
1.232934463405011002e+03
1.146970109966692235e+03
1.534644715085782764e+03
1.516854131367079844e+03
1.023616317323898556e+03
1.203908207710021770e+03
9.300353004595027642e+02
8.773070617090982068e+02
5.919413075160277913e+02
4.491505965226333501e+02
4.338934862319119361e+02
4.761256234702960910e+02
2.884383583948098018e+00
7.152096435417369094e+02
9.390442441658065036e+02
8.544759358542270320e+02
1.941512489283613832e+03
2.394028512788810986e+03
1.896989641338191177e+03
1.230510912153724576e+03
8.894347361679448341e+02
1.109695372815248220e+03
1.402563803164690171e+03
1.193709317687144448e+03
5.420048337383182115e+02
3.086998974578917228e+02
1.626674873051301518e+02
3.600826921034978341e+02
1.238482253778505822e+02
-9.737367099008011451e+01
-9.933002508419991727e+01
3.020704857937255952e+02
6.668298902281070468e+02
1.177838703709973061e+03
1.147116027537241052e+03
7.416085886264177134e+02
9.534177513762419949e+02
9.475452418906560297e+02
7.547540492893613191e+02
7.058000467702695460e+02
3.275838291593867666e+02
5.451836528721082686e+02
7.667757505868394219e+02
5.854190254479900659e+02
4.271138899577086363e+02
6.779085925219055753e+02
5.358056622530019695e+02
3.297249523787497196e+02
5.035864472902209741e+02
7.814086074637409638e+02
6.002220814766360490e+02
9.360406929854889313e+02
1.573822785507795743e+03
1.389493523609811746e+03
1.065107405969277806e+03
6.085253117068924666e+02
4.847457946240944011e+02
4.658263225349037953e+02
6.247416379836272426e+02
6.784511042847086628e+02
6.479657872840017490e+02
6.413462820442082375e+02
9.686011639679145446e+02
1.009694210349291325e+03
9.286385169155799986e+02
7.584057383001568269e+02
-4.840743267258836227e+02
-3.065819250096688393e+03
-6.740767568619940903e+03
-8.176902353528022104e+03
-7.417249963504174957e+03
-6.923849842537570112e+03
-6.933735161732673077e+03
-6.649855729926553067e+03
-5.870275331022979117e+03
-5.724036787986085983e+03
-5.639156128154786529e+03
-6.145699219103325049e+03
-6.437362121826080511e+03
-6.295127761782248854e+03
-5.242029700393238272e+03
-1.068311106231263921e+03
-1.009674075714285664e+03
-1.421036384378813409e+03
1.607500830381719879e+03
2.145929381825129440e+03
1.885172565343415272e+03
1.863141855730930729e+03
1.853801196727281194e+03
1.987310470712807046e+03
1.895643095083230492e+03
2.036804948996660869e+03
1.788919095051208160e+03
2.307046460485787520e+03
2.168208001792945652e+03
1.601408375887677948e+03
1.893621537709109361e+03
2.250880937236119280e+03
2.481216092758438663e+03
2.401569073769187526e+03
2.132945228483486062e+03
1.921340350497233885e+03
2.040754601109127407e+03
2.189212695460839313e+03
1.978753462711675411e+03
1.636383986811757950e+03
1.089157931881627519e+03
9.760710555454352289e+02
1.251095264168210633e+03
1.362273078821279341e+03
1.343657451805291885e+03
1.407289403858485457e+03
1.596217407531610206e+03
1.944414380060736903e+03
2.199890885841431555e+03
1.845691438207809597e+03
1.664834682768749644e+03
1.379361503257686536e+03
1.828393588165880601e+03
1.399817949014744499e+03
1.445592958377705827e+03
1.464884973117591471e+03
1.769885583996472178e+03
1.511638690623507500e+03
1.065913599738933044e+03
8.095078511125383329e+02
5.353102812948341125e+02
4.974324139475758102e+02
1.790532384453907184e+02
3.481116007713033582e+02
7.457029940141716224e+02
6.539299516778698944e+02
8.006971159505119431e+02
6.520520932264964813e+02
6.150735749097128746e+02
1.079755114459747347e+03
7.930834551635138041e+02
6.812114486869742223e+02
4.410848683524636726e+02
1.176747833497522180e+02
-1.897186985005808069e+01
2.403098938646096769e+02
-1.634864709157564846e+02
2.705551898436826832e+02
9.639602819016462831e+01
-3.242869497845746082e+03
-6.052238201948296592e+03
-2.939676176574059355e+03
-2.813121933362819618e+03
-1.133648570014640654e+03
-4.139254194220429781e+03
-3.550864741511188640e+03
-8.434180407619207926e+02
-3.266948471918506129e+03
-4.504440295468847580e+03
-2.698793311491878285e+03
1.039568820955055912e+02
-3.017146114762711932e+03
-3.615128769978951823e+03
-2.340275521276336121e+02
4.221779771162340467e+02
-2.234487852859787836e+03
-5.240685806030845697e+02
-1.246567583256228318e+03
-1.147973011554219511e+03
1.031717417244657554e+03
-1.974466405406089052e+03
-1.141514585491202979e+03
6.416107527830197341e+02
4.238809175732616836e+02
7.882816621900207110e+02
-5.851096966804726662e+02
-3.306284355695568593e+03
-1.421227012049517725e+03
-1.713902087477172927e+03
1.050675336063544592e+03
4.434731380040201429e+02
-1.967499809563257941e+03
-4.202798783069454771e+02
-2.144896153471401249e+03
-3.562625686336645003e+02
-1.181368890167613472e+03
1.642765482767615140e+03
-8.248917679398610971e+02
-1.151276268264191685e+03
-3.319377014929453253e+03
-2.803236180191327549e+03
-3.287920610234063588e+03
-8.634133988053242774e+02
8.752669254945127477e+02
1.556099772278375667e+03
1.664089477178676134e+03
2.012280626307275043e+03
1.843582811597333375e+03
1.610939336043878029e+03
1.612441923872528605e+03
1.481062573722091656e+03
1.308782365555788601e+03
1.339568183077303502e+03
1.325410842280150291e+03
1.169299232945936865e+03
1.143184467405229043e+03
1.185016735869231297e+03
1.236802965525168020e+03
7.574660240663588411e+02
7.068858908476347551e+02
9.706072348337739868e+02
7.856129529082662657e+02
-8.342499532219736125e+01
5.302784867518203100e+02
1.420684263512056532e+03
1.723828482616598194e+03
1.525080199782945101e+03
2.447229760428082045e+03
2.617863940045510390e+03
2.773539603840331893e+03
2.825894085294896740e+03
2.125115892136371713e+03
1.539782859069466213e+03
1.223947471047382805e+03
1.355879042811890031e+03
1.105298276648168212e+03
1.076244253782518626e+03
1.058663978662552836e+03
1.240398533016899592e+03
1.219503744288721464e+03
1.151925570517168126e+03
1.429875574053172159e+03
1.539197539932546761e+03
2.188824055830431917e+03
2.183309864774818379e+03
1.773013632492973329e+03
1.592597520173809016e+03
1.742044922873753649e+03
2.125426332707532310e+03
2.196977835213085200e+03
2.041502637778962253e+03
1.525900750784340516e+03
1.391036930275367922e+03
1.726861837608517362e+03
1.827386105226640893e+03
1.772568582900942829e+03
1.682318818359127135e+03
1.653566935605809249e+03
1.376241727710972100e+03
1.195263336610314809e+03
6.586139385012884304e+02
5.842475310394071357e+02
7.351359491747296033e+02
1.137279535343277530e+03
1.770609180331999823e+03
2.216022425320409184e+03
2.516495633276492299e+03
2.485076890316657682e+03
2.250788913111029160e+03
2.140562246170174603e+03
2.451288225498483371e+03
2.878958030783012418e+03
2.838540823741525855e+03
1.445966026126498264e+03
-1.345743782906922888e+03
-4.770556591655704324e+03
-5.294521714675970543e+03
-5.230582958001723455e+03
-5.468820524179580389e+03
-5.981262965797712241e+03
-6.657939662901775591e+03
-6.404904886177080698e+03
-5.741213749724397530e+03
-5.089801907456158915e+03
-5.526818673374628816e+03
-5.626218905158842063e+03
-4.745978871097478077e+03
-4.533202469509275033e+03
-3.720864571279586926e+03
-8.418704225261554939e+02
-2.026158037023802081e+03
-5.115777130724179187e+03
-5.450860613623861354e+03
-5.784435809067354967e+03
-5.743494012045311138e+03
-5.424948640736199195e+03
-5.422785764053995990e+03
-4.904980211527576103e+03
-4.792525635052296821e+03
-4.394344085491031365e+03
-2.344526328557808938e+03
7.938095023981509257e+02
3.284636626018999323e+03
3.289997837202021856e+03
2.737917579557421050e+03
1.890495019331212006e+03
2.171899998733290431e+03
3.092083237331170949e+03
3.244023508557435434e+03
3.515730212720875443e+03
4.000212552593632608e+03
3.640462186816183475e+03
3.287391110957219553e+03
3.046965172276060912e+03
2.431268457696975474e+03
2.663331455875167194e+03
2.699130697615849840e+03
1.953678228258269428e+03
1.476045104162271628e+03
8.852802847443806513e+02
6.064004877237216533e+02
7.634713741164335943e+02
3.950439289706675794e+01
-1.201519766664868939e+03
-1.176515857439957699e+03
-1.000505439408158395e+03
-1.684416029046026608e+02
8.407874931492455062e+02
9.342750644951954655e+02
8.479990451414158770e+02
9.669959356371603008e+02
1.132320519240247904e+03
8.290604820995383761e+02
4.043561160900024447e+02
4.803341517556345366e+02
7.799845065887080864e+02
5.581773657344647290e+02
1.594115145347802986e+01
3.074056426550023957e+02
5.868194509687928075e+02
1.146192249942562967e+03
1.419498407026126870e+03
1.345747101772613632e+03
1.790017375741192609e+03
1.932330082690797099e+03
1.299729561430033300e+03
3.432855477183688890e+02
-2.416000763618780184e+03
-9.600785680912694033e+02
