-7.660820521967525565e+02
-1.083348669534741020e+03
-1.895086045743164050e+03
-2.753195214980731180e+03
-3.274493069668844328e+03
-2.482918969417553399e+03
-1.370440957553550561e+03
-2.029708114756708994e+02
7.535174462880007695e+02
2.255046775648873336e+03
2.744641032331240240e+03
2.140323812128895497e+03
1.915134078802077738e+03
1.520481651159428111e+03
1.292859631927320834e+03
6.344451591571371409e+02
3.173291425570687920e+02
2.499261727611860238e+02
3.752861495044166986e+02
6.776227061884465002e+02
7.187787701276153030e+02
7.086238533836584566e+02
8.793430753034390364e+02
6.488340927254633925e+02
-3.510282962873989163e+02
-4.679865461403437052e+02
2.764235905218631828e+01
1.890562589995108965e+03
3.911831781733650587e+03
5.038261222906327021e+03
5.017952959165090761e+03
5.741042718296711428e+03
8.458112673600586277e+03
1.123997900210190528e+04
1.093767610432493711e+04
9.101170197258823464e+03
7.348348707722594554e+03
5.726128046550575164e+03
4.587993289718821870e+03
4.251894167652225406e+03
3.869601963808995606e+03
3.582992908187412468e+03
3.380914487747898875e+03
4.326193250239503868e+03
5.131679109883933961e+03
5.051303934250147904e+03
4.082911976622511247e+03
3.046396155686879865e+03
2.599547543529358791e+03
2.063215302863610304e+03
1.488316339430537028e+03
6.727458613835243568e+02
-2.236613588391324470e+02
-8.420814779007788502e+02
-1.571732800857656457e+03
-2.771787413317939809e+03
-4.106445434400040540e+03
-4.935859272677856097e+03
-5.716203025638921645e+03
-6.064691211622767696e+03
-5.973455776084742865e+03
-5.400642611804156331e+03
-4.261351262706937632e+03
-3.599741103521974765e+03
-4.204930393454083969e+03
-3.789073153981871201e+03
-2.361372065595030563e+03
-2.714949817065701609e+03
-1.617935889359343946e+03
-1.163404828348380761e+03
-1.505572491086475566e+03
-3.207606480109386212e+03
-8.573649123530130964e+03
-1.025787001427918585e+04
-1.141938938483043057e+04
-1.279333783319709801e+04
-1.417074885678503051e+04
-1.528779934605133894e+04
-1.051462048679259897e+04
-4.296147468587753792e+03
-3.115910606442819699e+03
-7.488084315727333887e+03
-9.049519589054929384e+03
-8.509253093159319178e+03
-8.457463990884687519e+03
-9.468188555899627318e+03
-1.044654916500165564e+04
-1.023064833621666003e+04
-8.709541805013288467e+03
-4.786302686621459543e+03
-4.415104759804919013e+03
-4.550021078404248328e+03
-5.704988976591804203e+03
-8.020136127055768156e+03
-6.655663840418253130e+03
-2.658698950864615654e+03
1.125598671585765715e+03
4.724194546154400996e+03
5.108135467583872014e+03
4.201445369581228078e+03
2.700179336973564659e+03
1.514319245081514509e+03
1.957698607619762015e+03
1.392422392150124779e+03
-2.349997773569918280e+01
-2.499438359184159708e+02
1.457157444772818280e+03
3.361692321173547043e+03
5.202588050998322615e+03
6.631686982078789697e+03
7.660840018894095010e+03
6.272994964982508463e+03
4.977252868916501029e+03
4.312922963638886358e+03
3.543134883854510463e+03
3.024738994130465471e+03
2.295810282697737875e+03
2.055418009918204461e+03
1.326522968748477524e+03
9.221422781962766066e+02
1.334413736557950870e+03
1.580634729771985349e+03
1.692849198853561802e+03
1.830817556657480282e+03
2.169289928399016389e+03
2.978240605221842543e+03
3.297876459923419588e+03
2.950396139498485809e+03
2.823106990918696738e+03
3.080362039189298230e+03
2.919317928620849671e+03
2.615050357467756385e+03
3.016474639483520150e+03
3.308586241424070067e+03
3.247227461605487861e+03
3.191462824690785510e+03
2.140496809053925062e+03
1.128537605108954494e+03
5.099276687120223528e+02
-2.001482613927254874e+02
-3.788403118691239229e+02
5.279123646988056180e+02
3.223507302575711719e+02
5.654624158595487415e+02
1.269428010172664472e+03
2.237275053131125787e+03
2.843159442687379396e+03
3.337241298240295691e+03
3.457672272038899337e+03
3.842641149417648649e+03
3.711308222919300079e+03
3.277824344401576582e+03
2.938428770611913478e+03
1.852418569453180226e+03
1.376867524352364853e+03
1.491733353364988943e+03
1.916053293483918878e+03
1.497020813473558292e+03
3.285970718030195030e+02
-5.702506883845920811e+02
-1.133250935131314691e+03
-8.924243123675573770e+02
-5.221263589176203368e+02
-7.882198894221618275e+02
-7.005327904925086386e+02
-9.430439744478865123e+02
-8.013301278620252788e+02
-3.452066845913428779e+02
1.172552519547457024e+02
-3.548368033667907184e+02
-2.242431763969153963e+03
-5.241017081049591070e+03
-4.839200554565330094e+03
-1.927892896447956218e+03
7.438852899357858632e+02
1.807328424011001971e+03
2.398320634526249648e+02
-1.842792774708251784e+02
4.171963853841015180e+02
1.062525833451106564e+03
2.186668576174857662e+03
2.119670180703187725e+03
7.931376240709727199e+02
2.299677700212812681e+02
1.111214264197197110e+02
9.197398045591558002e+02
2.029852009641885843e+03
3.326779818773823081e+03
4.837151350336183896e+03
5.449267997492836912e+03
5.339032643400698362e+03
4.462472720560221205e+03
4.014678677558767959e+03
2.995749861280417917e+03
2.050928551144925677e+03
1.433701177269934533e+03
7.720027783104367245e+02
-5.265270773145240355e+02
-1.291199031018733422e+03
-1.495638042555490529e+03
-1.679371724151267017e+03
-1.917697579907803856e+03
-1.861829473648703015e+03
-1.215372377838478315e+03
-1.257528064886030052e+03
-3.339046726139904422e+03
-6.002431297851977661e+02
-1.843192922856241864e+02
-4.061675734116471972e+02
-2.997615162013891563e+02
7.690399125268901344e+02
1.264050819389014350e+03
1.683124019597997176e+03
1.419411175586235686e+03
5.333455670453961375e+02
-9.466975479728728260e+02
-2.070245886256744143e+03
-2.156537811421665538e+03
-2.434731042856122713e+03
-2.771506758124627595e+03
-2.715173205982576292e+03
-2.614943022719000510e+03
-2.438286699133898765e+03
-2.146427829678296803e+03
-1.296648156508152169e+03
-6.498173813766807143e+02
-8.370329665321856965e+02
-4.038850320468833957e+02
1.792650438106948059e+02
6.889528822740086298e+02
8.766639513131988224e+02
8.510886324769456905e+02
3.443299052829823381e+02
2.663873665928887817e+02
-1.094961918233353799e+02
-8.099173549810996064e+02
-9.816960129301905909e+02
-1.298351659030156497e+03
-2.040491438308650459e+03
-2.674276583938232307e+03
-2.653520865834962933e+03
-2.856092869011028142e+03
-3.079562073910108666e+03
-3.556427729052402810e+03
-4.807696644086986453e+03
-4.525258217534956202e+03
-1.933602239500652331e+03
4.111086818219258134e+02
1.420274004620567212e+03
1.742012784736101821e+03
1.895375383189789773e+03
1.720594597482492873e+03
1.601690518397967480e+03
1.585575198799440386e+03
1.522127875937294903e+03
1.442200952606192232e+03
1.382737039769396233e+03
7.986163693565727044e+02
1.977937624457207377e+01
-8.067738069708257171e+02
-8.400957535171194195e+02
-8.041290708581559556e+02
-8.219423782456912022e+02
-7.776512752876927834e+02
-5.982680234677917497e+02
-9.476549099140901262e+02
-1.232932685710650276e+03
-1.782202296372501678e+03
-3.773356096458912361e+03
-1.843423507440659023e+03
-5.323244971941702488e+02
1.451879011450207145e+03
2.971218588182377971e+03
2.227682370865812572e+03
1.439224567645567049e+03
4.448070729337779312e+02
-2.229560949421178520e+03
-2.219895127713697093e+03
-3.708222787162100303e+03
-4.233542125566014874e+03
-4.100843958046697480e+03
-1.253066018211570736e+03
-8.961562167218265813e+02
-6.261708486461805023e+02
5.373589325282416240e+01
-1.580379685004011890e+03
-7.504641707522031311e+02
-3.939034319498031778e+01
-2.629173139984168756e+03
-1.375117499724711479e+03
-1.093308974997794849e+03
-2.029438646948603719e+03
-1.268254792037314246e+03
-5.037143786433194350e+02
-1.316877678654973806e+03
5.192704127000762355e+02
4.517508880637696507e+02
1.035506707906498747e+02
3.996167636899937179e+02
2.590233444039991468e+02
-2.423911968447871601e+01
2.648714740770373055e+02
2.923964743558389614e+02
6.484436630712083343e+02
5.400811838794313644e+02
3.483511860230087223e+02
7.833346843863639606e+02
1.804112338368421661e+03
2.769743158956915977e+03
3.096242379883457033e+03
2.972715111076731318e+03
2.930173509269388887e+03
2.395708669094286961e+03
2.220397624956920936e+03
1.711161918232505968e+03
6.440395703844385480e+02
3.006856373114763414e+01
-1.030831032546685037e+03
-1.730710086945447983e+03
-2.449612153869162285e+03
-2.596554689698785296e+03
-2.313405658005654914e+03
-1.624222706178407407e+03
-7.817557142662708429e+02
-3.908352877580052223e+02
3.252618389555685781e+02
1.388759539624026274e+03
2.274995639464106716e+03
2.806125740961524116e+03
3.044129500589726831e+03
3.230532092959218517e+03
2.861730311597623768e+03
2.498868677481620125e+03
2.238890583566431815e+03
2.018896602059039196e+03
1.260592028662226085e+03
2.643026015471630785e+01
-1.172516149129752876e+03
-1.068924315448635525e+03
-4.005386270625795646e+02
-6.733527319826906705e+02
-7.814295174133700357e+02
-6.555520746695531216e+02
-5.258293219750795515e+02
-6.544089915376865463e+01
2.027240280764026750e+02
4.085141640371732592e+02
9.063705489553861980e+02
1.649968898229391016e+03
2.381232678279188804e+03
2.634269110297746465e+03
2.496811176963116395e+03
2.069660638578771341e+03
1.469755822883432756e+03
1.176976719155746196e+03
8.044675759605142957e+02
9.130552248831786244e+01
-4.564661887588528657e+02
-1.187814257337591243e+03
-1.301848566924015586e+03
-1.104641651796253200e+03
-9.441237461212047037e+02
-8.733298139481285034e+02
-6.874215630937794685e+02
-4.523973689845643094e+02
-2.002333565473206818e+02
5.780278704934253255e+02
1.605429423495387937e+03
2.185244825670316459e+03
2.655540455105207002e+03
2.569215492228867788e+03
2.027199347089727553e+03
1.673485724121106387e+03
1.212985241486662744e+03
6.956185169789511065e+02
2.734699898667703906e+02
-1.785532323607140768e+02
-3.775889475803015785e+02
-6.726534952553909079e+02
-1.129750687968096145e+03
-1.703939056345854169e+03
-1.845235299944335793e+03
-1.806606531636575028e+03
-1.659996162349913675e+03
-1.256320104956907016e+03
-6.606868620512831285e+02
2.518037031322022017e+02
7.911773213974436203e+02
9.334732804836896776e+02
4.716004242891672220e+02
-7.644767551069447791e+02
-3.535745148572726521e+03
-5.750185750898718652e+03
-6.279680427524323022e+03
-6.096318805504730335e+03
-6.262186198035284178e+03
-7.423468654265811892e+03
-6.642960050829571628e+03
-2.602803026520276944e+03
-1.733990801239934399e+03
-1.576584923564829296e+03
-1.483618495264100147e+03
-1.032196389785799283e+03
-4.642720135102559311e+02
1.312522995006964379e+02
6.553826753381342769e+02
1.256048580711014438e+03
1.628297155868538312e+03
1.852103373391584682e+03
2.575459832025860578e+03
2.865441128187243066e+03
3.049007930064826269e+03
2.738058246376164334e+03
2.294502762276392332e+03
1.749392841240353619e+03
1.025824617330859155e+03
5.887988412491195049e+02
1.152895971522878114e+02
-4.208385476920240649e+02
-1.295655304745644798e+03
-1.291057599854903856e+03
-1.168024304206709303e+03
-5.555336750011073264e+02
-4.546333685678989696e+02
3.446779514733140104e+02
7.784215274513287568e+02
7.927056320892228314e+02
1.031706475291699007e+03
1.734557591801155013e+03
2.823914495185129908e+03
2.857537098644823345e+03
2.608395378639248065e+03
2.656632615153772349e+03
2.047465534792465860e+03
1.239758533052768144e+03
6.334026134490002278e+02
4.593543590700397772e+02
2.165231079554107225e+02
-1.719858122563209974e+02
-7.303875387278328901e+01
-6.215822545809360236e+02
-1.190580778778993817e+03
-6.472348234843773298e+02
-3.325648244993582239e+02
-1.095092125933166756e+02
2.088755412867733412e+02
8.996812678341585752e+02
1.527996887542209606e+03
2.316907224384807250e+03
2.029409151585987956e+03
2.495586798971014105e+03
2.634450671202238937e+03
2.409053467627859391e+03
2.463439732500754872e+03
1.805639531400568103e+03
1.230574630520723758e+03
9.471907338885682748e+02
2.865185272068234212e+02
-7.393852455584849395e+02
-1.472640509512776589e+03
-3.437111574642468440e+03
-6.372474532945925603e+03
-6.166727770596626215e+03
-3.929232863867001470e+03
-4.565879617621399120e+03
-3.020599290196907987e+03
3.006058539290210092e+02
-1.582284025274364012e+03
-8.411381963937648152e+02
9.099676583692216809e+02
1.336099851148629114e+03
-1.496709906216183299e+02
-2.212224174152338946e+03
-1.350922228382363244e+01
1.496378889302965035e+03
-1.629547414638810324e+03
-1.661843617710183310e+02
1.104125243045454425e+02
-3.738454215399747227e+02
-1.245914011433869064e+03
-4.247797072793807274e+03
-2.476568363636693903e+03
-2.144193441655176230e+03
-2.051537087260369390e+03
-1.577597180357232446e+03
-2.579365386556834892e+03
4.382328747550034791e+02
-2.517968859138414928e+02
-2.904042853544372633e+02
2.512436352874168279e+03
3.233703512857831811e+03
3.584406185050268050e+03
2.608623672584865744e+03
-1.014668763298525164e+03
-6.014278933369523656e+02
-2.216661923920407844e+03
-2.757382061644285386e+03
-2.378647593073535518e+03
-4.127428428021643413e+03
-3.547716663942718242e+03
-3.288461931673519302e+03
-5.825472714325306924e+02
-4.860184585103339145e+02
-9.671285076977762856e+02
-7.359104086699469462e+02
-9.163234364048919360e+02
-1.620275861286622103e+03
-1.625722208628537601e+03
-7.735725845629908690e+02
3.221407661524460195e+02
1.248403726585569302e+03
2.238187961178823571e+03
3.749508074327359736e+03
4.532340500494539810e+03
4.118757303256936211e+03
3.285726958754499719e+03
1.534230604244130291e+03
6.722073299672164239e+02
4.526470665561997180e+02
-5.504314945001360684e+02
-1.332114598163122309e+03
3.158887582726337939e+01
1.261739205152229488e+03
7.192741257426306447e+02
5.101742871581834606e+02
2.697672726777439607e+02
9.878848538143217866e+02
1.223442273909348160e+03
1.467522130588629580e+03
1.937884215368089144e+03
2.168690206083106204e+03
2.181799670936462917e+03
2.626219977614732670e+03
2.726548143410038392e+03
2.375398913952742078e+03
2.128587513963404035e+03
1.397275893636642422e+03
1.920532772617130775e+02
1.161645758386858063e+02
-1.974636332782775128e+02
-1.128992940626902282e+03
-9.464172445769449951e+02
-7.137456086962916970e+02
5.102361803534839879e+01
1.504952085463271260e+03
1.400953799464464964e+03
5.678647181407994822e+02
4.988099699433447540e+02
1.644261882947330150e+03
2.928645344534409560e+03
2.958252834418167367e+03
2.969849975574111340e+03
3.604316507739461031e+03
3.679799068420805270e+03
2.596116250979682718e+03
1.884185708091458082e+03
1.814014786908151791e+03
2.000597888885182329e+03
1.480871696427463803e+03
7.407438813915183573e+02
-8.082665291372278205e+01
-5.598430722654588862e+02
-7.252807531216867574e+02
-4.472287048888367735e+02
-1.817711910839580298e+02
-4.388373802729800559e+02
4.056548464144428863e+02
8.986995124148385230e+02
1.614257721713013780e+03
2.725361267644091186e+03
2.862945576094790340e+03
3.030016284002300381e+03
3.762575592015386064e+03
3.639629164946672063e+03
3.024215689222004585e+03
2.128231576548500925e+03
5.265538046007205253e+01
-2.535591118169808851e+03
-6.017554245592362349e+03
-5.821338189051379231e+03
-5.358940623225139461e+03
-7.478328367450742007e+03
-7.841516949527538600e+03
-4.612493133795596805e+03
-3.342221679291452574e+02
-6.567104909108337552e+02
-5.204058446112525417e+03
-5.336292839482078307e+03
-4.224433464008811825e+03
-4.227363985609224073e+03
-2.978758408877125476e+03
1.502182129901754706e+03
2.473384651969965944e+03
2.965756274260758385e+00
-5.470098868444069922e+03
-6.633919611534399337e+03
-5.919589928461692580e+03
-6.501082634301405051e+03
-5.506388226085726274e+03
-6.150504919807158331e+03
-8.435423422069387016e+03
-8.043194870496206022e+03
-6.207800264741246792e+03
-7.342183883241708600e+02
1.079581343166361421e+03
1.000609511906591479e+03
7.088723871557003804e+02
5.804022969262749712e+02
1.445287354064676492e+03
2.711559974698030601e+03
3.597276662432784178e+03
3.886421423279675764e+03
3.940060500353741190e+03
3.716213932754308189e+03
4.009898374967869586e+03
4.688135780470707687e+03
3.488855842527425466e+03
1.854041373548472848e+03
5.077005792336054242e+02
-1.008189351430763622e+03
-2.013638763482889544e+03
-2.317604687606939024e+03
-3.175059228976384475e+03
-3.603001923867372625e+03
-2.808428625946107786e+03
-9.282838888121731316e+02
6.544708054367475825e+02
1.555945278005394130e+03
2.978219333682882734e+03
3.344296258249207767e+03
3.344208819095621493e+03
4.179980760563678814e+03
4.405637923873069667e+03
3.920176716726810810e+03
3.272582879587538173e+03
2.586926222832310032e+03
1.204276437462469858e+03
-2.403480507034705909e+02
-6.280687331954245565e+02
-4.008264741594611564e+02
6.574447905315221306e+02
9.097537422108898681e+02
5.240654441876323517e+02
2.342650307918395072e+02
5.013246034471741837e+02
6.282913879894949787e+02
5.475030820038133470e+02
5.612015452312767820e+02
1.145552181798441779e+03
2.644618578191598317e+03
3.318247272565907224e+03
3.463689605539881541e+03
9.138474729169031434e+02
1.432609781966973514e+03
1.666601612099045269e+03
1.198887241164334682e+03
4.919006804805711681e+02
3.338863054319177337e+01
-1.298755810401299186e+03
-2.285573052774511325e+03
-1.867972882528634955e+03
-1.359952761091798266e+03
-1.157539258169744471e+03
-5.556128948995548171e+02
-3.841020872885386552e+02
-9.207599175911390432e+01
5.013910856067600434e+02
1.345333547515793271e+03
1.747761404777168536e+03
1.567691459658147096e+03
1.289230465157244680e+03
1.402374518089121466e+03
1.712070864606740088e+03
2.050344317089698961e+03
1.510310286619438102e+03
1.470267435117945070e+02
-7.125335754741470282e+02
-1.049443312446989012e+03
-1.494695742573450161e+03
-2.293381838656235686e+03
-2.819501616314547846e+03
-3.020150188018295921e+03
-2.747330614251331099e+03
-1.765994727717383057e+03
-5.151049049176292556e+02
-4.337032702077721638e+02
-4.677934746497318201e+02
-3.932652968186691851e+02
5.009089698383496625e+02
1.715663269083433988e+03
2.254117091771224750e+03
2.495277240044628343e+03
2.337092359933298212e+03
1.517512654894909701e+03
6.805204562843086933e+02
-2.318819809958802978e+02
-1.857647615824445495e+02
6.568887643247550159e+02
-1.998621758576074114e+02
-1.161131705046151183e+03
-1.127973693550550479e+03
-1.479387215090054269e+03
-1.544425242304352878e+03
-1.341078209609521764e+03
-1.135340506134265297e+03
-9.072357252675780046e+02
-5.316293372670168083e+02
-3.846492146001086212e+02
4.457706285553994690e+02
1.666734672988073498e+03
2.405132903876197361e+03
2.250986578260923125e+03
1.483271077097565467e+03
6.319956730983030866e+02
-4.374468529232841263e+01
-2.681958839083641578e+03
-3.637713495796783263e+03
-1.108942878092480441e+03
-7.684595840597409051e+02
-3.265313618994453009e+02
-6.243928016051791019e+02
-1.020956189498117169e+03
-1.537429870306425755e+03
-1.549963781164614147e+03
-3.901687692268690171e+02
-2.842610540839224882e+02
-2.633557644192051157e+02
-4.163118555592658936e+02
-1.989885445197333524e+02
5.355637576009560235e+02
8.020171181089590391e+02
7.703774336636965927e+02
1.828026805515801698e+03
2.530582693799679873e+03
1.952098680419376251e+03
1.727645726967263272e+03
1.328230484519990114e+03
2.739785788628391856e+02
-8.644197653777902133e+02
-1.511915443087266567e+03
-1.847521589645305312e+03
-2.106292659446600283e+03
-1.526146185319883216e+03
-1.215426763716408004e+03
-5.368773239779541200e+02
-1.456196848480500421e+02
2.270855511559542492e+02
2.233552469739617834e+02
6.584197073267802125e+02
1.155544261124598734e+03
2.040969751205123430e+03
2.278287245505964620e+03
2.210631800026574638e+03
1.791886583655199502e+03
1.301831533117383742e+03
5.945506687674361501e+02
-6.817484009706664949e+01
-4.313233749972864075e+02
-2.301947379745255517e+01
-1.889189492345576866e+02
-4.810034495893822282e+02
-1.351448298902594843e+03
-1.786296028156016291e+03
-1.866549001835702484e+03
-1.075381510296280794e+03
-5.388651573701787356e+02
3.007123250501009792e+01
2.825649332196485375e+02
7.996136687324612922e+02
1.155077636575651468e+03
2.028951282440102432e+03
2.336290510752123737e+03
2.245151586054693780e+03
2.110677999342743988e+03
1.981908438210809663e+03
2.157770837677429427e+03
1.321274885418607937e+03
4.293559756593616612e+02
-3.321671399963099134e+02
-2.122380803223410112e+03
-5.028151252257275701e+03
-5.866439702397589826e+03
-4.783085880338930110e+03
-4.676108398290928562e+03
-1.860440321674554525e+03
-1.562998095333069386e+03
-1.076748362062873184e+03
-2.604790636924969476e+03
-4.789321388762813513e+03
-1.065486128945436576e+03
1.037855562365444939e+03
-6.102324391795492602e+02
7.543178999885593612e+02
-2.529312196879268868e+03
7.179482039028728195e+02
1.809010003886158302e+03
1.166903194454672075e+03
1.371994697521941362e+03
-9.715569091150289296e+02
-9.537734877258651522e+02
4.153416795242994226e+02
-2.823450862289490033e+03
-4.918266203148793466e+03
-6.364456506279020687e+03
-2.438245354708324612e+03
-3.568676088411594719e+03
-1.267668102808271158e+02
-5.742117108268676020e+02
6.360811773048595796e+02
2.833047357730354179e+03
3.004821657003231849e+03
3.128660238447105712e+03
3.303593385985524037e+03
3.603593220623525212e+03
4.101436365417468551e+03
3.511153183108885969e+03
2.941985685808734161e+03
2.016132932219103850e+03
1.380783289275269681e+03
3.295871739951977588e+02
-1.074743849941802409e+03
-1.321949323768184286e+03
-6.867118760530438522e+02
-1.602305698236847320e+02
2.892223199755625274e+02
9.605104994555928215e+02
1.453393268344657145e+03
1.957928414483613096e+03
2.032245686772883118e+03
2.746498999861159064e+03
3.752231040978469991e+03
3.952656908894013213e+03
3.932579839547466236e+03
3.542905495741560571e+03
3.120192469345844074e+03
1.878270939455601138e+03
9.139604694922962835e+02
2.852131886010626505e-01
-7.166621496479102689e+02
-6.460554715621502737e+02
1.721476517025988642e+02
1.055213886906763037e+03
5.911607665430400402e+02
-3.324241702885196901e+02
-2.448703972438191613e+03
-3.567126318184674801e+03
-1.616113526351429925e+02
1.292034762894232699e+03
1.358565068621518776e+03
2.339628451000241512e+03
2.950042274459388409e+03
3.465685955468710745e+03
3.534003895503744843e+03
2.998106309794546632e+03
2.551583157505318468e+03
2.229812035534808274e+03
1.935006277905288925e+03
1.188913206609186091e+03
2.893341253044890777e+02
-6.901268932906601776e+02
-1.214784196805884221e+03
-1.434418845844036696e+03
-1.602084908066570506e+03
-1.946823668098857752e+03
-1.742558020971037877e+03
-1.644485831229585983e+03
-1.269848745873485086e+03
-1.038472098219530608e+03
-1.901607048504933175e+02
4.130614558185919236e+02
1.204558956244331739e+03
1.917640853565374300e+03
2.151418866243058801e+03
2.330937701496466616e+03
2.448235805798192359e+03
1.934492141379051418e+03
1.008476944658013508e+03
2.670183143915500636e+02
-4.998177030485680916e+02
-1.053158141960733019e+03
-1.492377061854075691e+03
-1.873850262763683759e+03
-2.140728472213651457e+03
-1.828057489794738785e+03
-1.243778230418746034e+03
-7.337971609302672960e+02
-2.069523979677657906e+02
2.457861235010848304e+02
8.195303842943108066e+02
9.865055833565033936e+02
8.276395161788133237e+02
1.111907021385767848e+03
1.861475488764712509e+03
2.476510032175411652e+03
1.531059848254684994e+03
1.025095712580859981e+03
1.152563677025699917e+03
1.483332720643000584e+03
1.426526853907104851e+03
-1.046381683410383374e+02
-3.092168261052212529e+03
-7.038175122926261793e+03
-8.345705865390667896e+03
-8.039733073312447232e+03
-7.972131188407425725e+03
-7.432840756423292078e+03
-7.824973071487031120e+03
-4.167442522687544624e+03
-1.540175684557252907e+03
-1.366844805222755440e+03
-4.762686518259331933e+03
-4.010637578079848026e+03
2.264266676268562151e+02
1.090519340557424130e+03
3.666537303656989479e+02
-9.089714522209759480e+02
-1.178230307434715769e+03
-1.514157864595148112e+03
-2.488771539049525927e+03
-1.961003745817595473e+03
-5.489249099692101481e+02
-1.854057361219311417e+01
9.729544359228518147e+01
2.246327215798800410e+02
3.074021190918243747e+02
-9.741805056989544198e+01
5.272513261264654147e+02
8.725370336408441290e+02
1.449391974846522935e+01
-7.008177723988029584e+02
-2.102698784322007270e+02
9.762193034217494869e+02
1.452778916100795414e+03
1.838471455232418975e+03
2.573323152794534963e+03
2.850411936393645647e+03
2.730809772362266358e+03
2.113548997518312717e+03
1.035674875884685434e+03
-6.781203607077065953e+01
-6.479589293422765195e+02
-1.344767146080695284e+03
-1.583079555680191106e+03
-1.297817090933812096e+03
-8.549370740239069164e+02
-9.114204620842394888e+02
-1.226668311414904622e+01
8.825837221272797706e+02
1.394257027587672383e+03
1.810902871050106114e+03
2.072595767198916747e+03
2.319422334157585738e+03
2.268441412987086551e+03
1.790543862704055755e+03
2.016707813911900075e+03
2.076144340197841302e+03
1.404825379612554570e+03
7.006531256043964504e+02
-6.312349002493203898e+02
-1.470789946008231027e+03
-2.187182303130218770e+03
-2.909414827441286434e+03
-2.864349438609471690e+03
-3.643513676011455118e+03
-3.807169499193468255e+03
-2.741480920062710084e+03
-2.509466604170203482e+03
-2.620136416575336170e+03
-3.029450438400856910e+03
-3.021377487421786554e+03
-1.973864098701339799e+03
-1.190841733219149319e+03
-8.450748751395381078e+02
-9.904015191760073549e+02
1.059129398343925033e+01
8.598865847378295939e+02
1.523362663115742635e+03
9.341143331629657496e+02
3.915114513538168950e+01
-2.716270358126933502e+02
-4.172821008679678130e+02
-6.899785016424227706e+02
-9.427522585014299921e+02
-1.245727609145165076e+02
9.186454301880199864e+02
5.958789240322290652e+02
5.219519234235758631e+02
5.458426433287448845e+02
9.036033389975269756e+02
9.990592186045123526e+02
1.072110635988597096e+03
1.561783592686364500e+03
1.898951706140230954e+03
1.416539748437026446e+03
1.778548239694652011e+03
1.902009006322182358e+03
1.908791941951779336e+03
1.880796373137200362e+03
1.521834662022022485e+03
1.112728030111861017e+03
6.745468315889930864e+02
-8.728930761804657550e+02
-2.890676817477463828e+03
-5.525666385241413082e+03
-5.719671395465672504e+03
-3.579880697125954612e+03
-8.666359297409330793e+02
9.137804007577693710e+02
2.872156596474349953e+03
4.778395986445701055e+03
5.223463204351050990e+03
4.571258525415344593e+03
3.159580974515197340e+03
1.554422018229241303e+03
1.017752692301859611e+03
2.945351666601789020e+03
5.116131575867078027e+03
6.251006895992672071e+03
6.753903524609396300e+03
6.752632080548506565e+03
4.973074139153975921e+03
2.793061036087012326e+03
1.635522090707284178e+03
2.301319637137263271e+03
3.517391914946006182e+03
4.020608238651781448e+03
4.095853889476935819e+03
3.675978728231094465e+03
3.254953524297270178e+03
3.342725075744489459e+03
4.626252998027504873e+03
5.786431079690370098e+03
6.338078703456534640e+03
6.071270421552037988e+03
5.580909362301503279e+03
3.864753267236782904e+03
1.603752356254329698e+03
-5.908726706471053376e+02
-1.292246739803738137e+03
-1.425548771563131822e+03
-1.147062027402042077e+03
4.058426548506628251e+02
3.172262386275137032e+03
5.027066437666986531e+03
4.218202095294967876e+03
1.459018697915084431e+03
-5.139493170584603376e+02
-2.861964079457738535e+03
-5.067626974607229386e+03
-6.161148220267654324e+03
-7.575023737592669931e+03
-9.835009529929438941e+03
-1.288616915680200509e+04
-1.255509073776842342e+04
-8.813035427592949418e+03
-4.308819241312950908e+03
2.152260665439834611e+03
8.081890572177263493e+03
1.248241269946017383e+04
1.201364200968659679e+04
8.827849557301193272e+03
5.565464180380593461e+03
1.509500329068587234e+03
-5.938661472120994631e+02
-2.105362179454583384e+03
-4.344095516858885276e+03
-5.945279329960131690e+03
-5.874898751928618367e+03
-5.313987583547600480e+03
-4.491475606404917926e+03
-6.520088630636073503e+03
-9.692961682465136619e+03
-1.081200916327869709e+04
-9.766177580929819669e+03
-5.497439556804520180e+03
-4.888716719453572296e+03
-7.866901323441458771e+03
-7.855927054594266338e+03
-3.758897250327549500e+03
1.415494054692149994e+01
7.523063066212084777e+02
2.005738911256244705e+02
-3.293029222183092315e+03
-7.892334754163071921e+03
-1.188523350142626623e+04
-1.404361209550167405e+04
-9.731415069622989904e+03
-1.573605861896908436e+03
5.702119517174581233e+03
1.216605863369601320e+04
1.300828712631250892e+04
9.924889955419732360e+03
7.263945326752929759e+03
4.842428449124801773e+03
9.649074067782524367e+01
-6.780796873605268047e+03
-1.034441226283854121e+04
-8.525315948373052379e+03
-1.044544436644324196e+04
-9.704681634520346051e+03
-6.590867718826352757e+03
-7.359696251061970543e+03
-8.074098964935395088e+03
-4.277294730709760188e+03
1.859980906324806256e+03
1.709919788207492729e+03
-5.137387774097148395e+03
-2.031868330533554763e+04
-2.944182384160071888e+04
-2.269064853953791680e+04
-6.450004797441061783e+03
7.684256334587376841e+03
1.302924717754092853e+04
1.437411150319149601e+04
1.646103930838782253e+04
1.580414828401171144e+04
1.605360475277610385e+04
1.693251062717808600e+04
1.574995281333276034e+04
1.365908884639482312e+04
1.253706452330210595e+04
9.708917324722038757e+03
3.488777450218309241e+03
-1.955213430763317774e+03
-6.546886335487316501e+03
-1.304418075023800338e+04
-1.645497799826913251e+04
-1.574511299308108028e+04
-1.260748406425429675e+04
-1.011989897237343393e+04
-7.244247105214213661e+03
-9.373999642483388470e+02
3.323823506543941676e+03
6.644555309667052825e+03
1.269591254692328039e+04
1.805802589306736991e+04
2.000098337749255370e+04
1.861995937211575074e+04
1.639401103055295243e+04
1.309012339154467372e+04
9.278330048632631588e+03
6.611681610443384670e+03
4.496248645146094532e+03
1.677104523382086427e+03
5.653698784110968063e+02
1.691112371120309945e+03
9.894432699557962678e+02
-9.244065144366248887e+02
-1.483205874564866917e+03
-1.199866288786410678e+03
-9.293563409058252773e+02
-4.046383686416110663e+02
-1.828814485856159706e+02
-1.052173777930829374e+03
-1.480571426261939678e+03
-2.513755609752137232e+01
1.357369996064068800e+03
1.699647262737397568e+03
8.829481454031190424e+02
-5.013459240931650811e+02
-8.706747358447644274e+02
-2.688250722210315757e+02
-3.295182169463611785e+02
-3.566372170001811810e+02
-4.106109947714952568e+02
2.656393787118964269e+02
2.283532977016883194e+02
2.498192279337989987e+02
6.099804844744393222e+02
1.363802198397512484e+02
-8.720317013699292374e+02
-1.233197920062876619e+03
-5.101040006800803894e+02
7.301690162577500587e+02
1.616604840574261971e+03
2.806180108055461915e+03
3.167731665995185267e+03
2.438112094789515140e+03
3.107312078649621526e+03
4.436272663793970423e+03
4.887940311145542182e+03
4.061245551445640103e+03
2.726131756145533927e+03
1.873458478960106731e+03
1.183183116339706885e+03
6.403531694151964757e+02
1.129944272590804530e+03
1.102749215821976350e+03
9.136479463377019101e+02
1.016650967476618234e+03
1.152647440742710160e+03
1.443530030089652655e+03
1.507244128947255376e+03
1.409718800259162663e+03
1.457879597986959197e+03
1.336693931940351831e+03
7.440446303371057866e+02
-1.421931272603731600e+02
-8.611259265367860962e+02
-1.494892578618912466e+03
