8.154927634438477071e+02
1.889343871507245240e+03
3.258169888969214753e+03
4.093167304944819534e+03
5.035441213168407558e+03
5.791203198768008406e+03
6.611350376869531829e+03
7.127752887067592383e+03
7.346516449122697850e+03
7.220732760447862347e+03
6.778522232103606257e+03
5.974004276691530322e+03
5.250187640895828736e+03
4.457093326630579213e+03
3.372640676499499477e+03
1.611721247248152395e+03
1.362123234553550049e+02
-4.137179781917920991e+02
-9.658672795001889426e+02
-1.528670061389759439e+03
-1.004341373806744059e+03
-4.409317338398850552e+02
2.956555919628875699e+02
8.995748368992893802e+02
1.952851570943383877e+03
2.998489456187753149e+03
3.294768625873261044e+03
2.469258180462235032e+03
-1.548198642229314430e+02
1.174574391449336872e+03
1.885224803803331497e+03
3.970608115294797699e+03
3.520637696004548616e+03
3.091379688593090577e+03
1.865254914164459706e+03
6.990738061012704065e+02
-3.871893723631510511e+02
-7.311640618633127815e+02
-1.197894725991857513e+03
-1.763219703845231606e+03
-2.020870666355784351e+03
-1.819624704045301314e+03
-1.086487916804927181e+03
-4.098082069216781065e+02
7.392120015700832028e+02
2.141466822862904792e+03
2.729212659195862670e+03
3.249051479320544331e+03
3.774916938484328512e+03
3.945883572471385378e+03
3.917011306829534078e+03
3.615303631669130027e+03
3.035766494217717536e+03
2.147252574152097168e+03
8.686709890652559807e+02
-1.869369296856114033e+02
-1.459593549010284960e+03
-2.424370236215079331e+03
-3.239352721151455626e+03
-3.353609558621429642e+03
-3.317166179558501426e+03
-2.434995299703246019e+03
-1.216092126254437972e+03
6.050996412491718246e+01
7.498268007328952081e+02
1.316958840102548493e+03
2.137916173942231126e+03
2.770752449664710639e+03
3.508409607332864653e+03
3.556859522174593167e+03
3.097079140412511606e+03
2.353115448666831981e+03
1.619952155798347576e+03
6.774785588771952689e+02
-3.553690955832580585e+02
-1.248631040529449137e+03
-2.422334347768011867e+03
-3.342598748514212730e+03
-3.612524552022312037e+03
-3.799150071526295960e+03
-3.712458574925966332e+03
-3.106466303360105030e+03
-4.578149294095474033e+03
-6.633510523867827942e+03
-1.029754264905816490e+04
-9.431194671920278779e+03
-8.311471241140487109e+03
-3.919360921330658130e+03
2.389137711780552308e+03
1.007991706047478942e+03
-5.095805231467850717e+03
-7.107183103830883738e+03
-7.428231386686613405e+03
-3.783120903567968980e+03
-2.224516940767244250e+03
-5.945441625468277380e+03
-6.267373200031303895e+03
-7.346435090752883298e+03
-3.692657726999994338e+03
-3.341024023871784721e+03
-2.547529529500616263e+03
-1.689104290969059321e+03
-7.406639555574820406e+02
6.227535805382470926e+02
1.353123560024548851e+03
2.287431022007956017e+03
3.388740262092826470e+03
4.251087778774772232e+03
4.732497480536357216e+03
5.005949877142643345e+03
4.789498484264820945e+03
4.288140787568427186e+03
3.485862478670059318e+03
2.728628744339514014e+03
1.534438677924969625e+03
2.342381997936494145e+02
-1.148053189854558696e+03
-2.185499960351143272e+03
-2.730120710562685417e+03
-2.885930561320859852e+03
-2.447961694918978992e+03
-1.737208925211879432e+03
-7.456602116365305619e+02
5.107730347523767023e+02
1.735089547182376464e+03
2.891345418660823270e+03
3.616589858474652374e+03
3.826889836476360415e+03
4.104268778130301143e+03
4.559714115350097018e+03
4.530314428745141413e+03
4.129092899412350562e+03
3.442043772617975264e+03
2.896143988252857525e+03
2.036406928095618696e+03
5.937920157504349845e+02
-7.627345576067655202e+02
-1.566243606765987579e+03
-2.378781489018642787e+03
-2.525332025229488863e+03
-2.419867171374040481e+03
-1.964360836908942474e+03
-8.577771925379677214e+02
2.109273738646072900e+02
8.997824151791875238e+02
1.385796534893420812e+03
2.170094318910322727e+03
3.039719402408110909e+03
2.730692293397273716e+03
3.305025429190736759e+03
3.496760924452626114e+03
3.246946621681068336e+03
2.517554686059194410e+03
1.474510446063181462e+03
2.178229804590969536e+02
-1.449212856112817462e+03
-2.916772429618595197e+03
-3.005888988301481277e+03
-3.317684715259132190e+03
-3.369480250415075716e+03
-3.269069157822801117e+03
-3.071353120169228077e+03
-1.860347148250083364e+03
-4.749939652001826289e+02
2.577996930725641391e+02
9.601141817583713873e+02
1.596980421999460305e+03
2.386462498339091326e+03
2.920588194704587750e+03
3.073344795764338869e+03
2.832754012275011974e+03
2.733915122629274720e+03
2.002838212348207207e+03
1.252454570379170264e+03
-3.297024536304783981e-01
-1.216529381432750597e+03
-2.554195019306334416e+03
-3.975453029323443843e+03
-4.425313092370095546e+03
-4.890781018702288748e+03
-4.526822663181923417e+03
-3.948389934542582978e+03
-2.721487993142675805e+03
-1.515138396272771388e+03
-5.133021905943211323e+02
6.000406549737116393e+02
1.804980337415645636e+03
2.525582967481257583e+03
2.869807060136425662e+03
3.189639862564862142e+03
3.489033118713954082e+03
3.336021794893514652e+03
3.125740946708635420e+03
2.394156743249493502e+03
1.302146847966869700e+03
-9.332739769347547565e+00
-1.572377216568756239e+03
-2.723093209293605923e+03
-3.222528799683885609e+03
-5.318715456221145359e+03
-4.935656540578654131e+03
-4.013418969449378437e+03
-3.051983327184221253e+03
-1.163372204311385531e+03
-1.085552901206110761e+02
8.324967600230058906e+02
1.684846403980619925e+03
2.582488194913074949e+03
3.390447742124489196e+03
3.842634724126331548e+03
3.373092924547663188e+03
3.194888480502438597e+03
2.714220479842384975e+03
1.833133394128037480e+03
1.169637628254041147e+03
-1.060053613797798633e+01
-1.198718319583944094e+03
-2.309784893844322596e+03
-3.645969700403862134e+03
-3.271988960345118812e+03
-3.123433372320511808e+03
-2.533904220607775642e+03
-1.074994020569627764e+03
-3.001200414559143610e+02
5.015354317822828989e+02
1.342198401845507988e+03
2.227527417533613061e+03
3.134944028147946028e+03
3.719871175455229604e+03
4.104489662446719194e+03
4.015891318178784331e+03
3.927937395793628184e+03
3.397547148437551641e+03
2.582442035458854207e+03
2.018992443846671904e+03
8.402597526830346624e+02
-3.142609735486008731e+02
-1.343315728792827031e+03
-1.689929874534722103e+03
-1.941234770767270220e+03
-2.003270503762727458e+03
-1.507010406957749865e+03
-6.029164654696005528e+02
4.635555485372703970e+02
1.243388238328058833e+03
1.601067695703182380e+03
2.579079646826918633e+03
3.417561027976992591e+03
4.241958977918474375e+03
4.442948514280189556e+03
4.470770290487393140e+03
4.359584711885875549e+03
3.838204009824540208e+03
3.027701652946532704e+03
2.355994073914371256e+03
1.327022086852573239e+03
1.387373249540174527e+02
-1.010952726564499130e+03
-1.462167239234711815e+03
-1.602939022283061604e+03
-1.574105983938819691e+03
-7.587983616485449829e+02
6.751242349133213416e+00
1.226609067311159833e+03
2.050999187706864632e+03
2.506028174830337321e+03
3.366712167377302649e+03
4.401050193678603137e+03
4.964094661744408768e+03
5.439999446861318575e+03
5.413766839634494318e+03
4.327199411487083125e+03
1.345300160065411546e+03
-3.037886546026460564e+03
-7.834482520017534625e+03
-9.444437799680068565e+03
-1.037371829684266231e+04
-1.116951644846813906e+04
-1.181573770284181592e+04
-1.148737952733446764e+04
-1.072454674922145205e+04
-1.035220699855482781e+04
-7.525273518075716311e+03
-6.007780207037606488e+03
8.594723629936180487e+02
-1.236956697203591148e+03
-6.072377092627451020e+03
-4.871839244444598080e+03
-3.644475285373250699e+03
-4.010464870867124318e+02
6.785058367085507598e+02
-3.966765750288306208e+03
-4.912863141830185668e+03
-3.123745147747051760e+03
2.774440116020407459e+03
2.195524915307864376e+03
-5.948398027981193991e+03
-1.004824571543209277e+04
-1.000596100705619756e+04
-4.583381286365457527e+03
-1.200506273118174477e+03
-6.350410412520587045e+01
1.435616796982110145e+03
2.621052360323284574e+03
3.392837585981502343e+03
4.218996055097806675e+03
4.918700111785544323e+03
5.522208299235241611e+03
5.642486842645544129e+03
6.042520361666384815e+03
6.134350545341829275e+03
6.058983388046338405e+03
5.726495246564474655e+03
4.568970103648509394e+03
3.650395944626975506e+03
2.488707457524829806e+03
9.560038395962600362e+02
-2.258529117993299451e+01
-7.940575539488876302e+02
-1.255607442493620056e+03
-1.610364034256303967e+03
-1.234123055093819175e+03
-6.256414313328375556e+02
5.480972432329123194e+02
1.590036760783018281e+03
2.094233507056175768e+03
2.751860829061019558e+03
3.782044300726568508e+03
4.375894499212738083e+03
4.467379637694684789e+03
4.492574643280381679e+03
4.247586169122440879e+03
3.879461250698168442e+03
3.002179221096762831e+03
2.045756082512599505e+03
8.220550226261208309e+02
-5.088791215866672246e+02
-1.807003492162830753e+03
-2.424410782980589829e+03
-2.913003329726829634e+03
-3.164310015167709025e+03
-2.484987669760098015e+03
-1.518435551986618066e+03
-8.546585352402958051e+02
-5.988735070351675915e+01
6.868147061479367039e+02
1.398436600878374065e+03
2.383160682780634943e+03
2.795378340613227465e+03
1.577572486038239958e+03
2.510996428071140599e+03
3.238071965896168422e+03
3.062747499662994869e+03
2.357654849164019652e+03
1.205176559614570351e+03
-4.014099215481923011e+01
-1.431037846910691769e+03
-2.544558802085575735e+03
-3.036907728809667333e+03
-3.580144108094627427e+03
-3.801318732630729301e+03
-3.467438666031471257e+03
-2.717551263152206047e+03
-1.707730705436709286e+03
-7.909147319826657849e+02
-1.188979809494429674e+02
1.060439865541705558e+03
1.936088617898543362e+03
2.435050047841969899e+03
2.737432009439184640e+03
2.958177904029929323e+03
2.893274244912238828e+03
2.401777108756400139e+03
1.735546581481411067e+03
8.505044036684890898e+02
-1.652460990213762955e+02
-1.705772201452454055e+03
-3.035197545840806015e+03
-3.854590376150280008e+03
-4.114042623904652828e+03
-4.465750627508365142e+03
-4.270670125220197406e+03
-3.551747536020131065e+03
-2.534876458725306748e+03
-1.632922941624274927e+03
-1.051059062463958753e+03
-5.835748498266204365e+01
8.193548014395407790e+02
1.602966642324972554e+03
1.950614809235305984e+03
2.270223786538816512e+03
2.425621548263336990e+03
2.498862962399288335e+03
1.828038966529032223e+03
6.400655607162500473e+02
-5.370946485144609142e+02
-1.755618084966669358e+03
-2.700718812533231812e+03
-3.014431980328058216e+03
-3.200746352354817191e+03
-3.570702503594924110e+03
-3.808450783480767768e+03
-2.657818332093909703e+03
-1.470794557970680216e+03
-5.337334475062823458e+02
4.985105384409114890e+02
1.573131339501778257e+03
2.614299569553319543e+03
3.247986975468407763e+03
3.052770062544768734e+03
2.767667488233031236e+03
3.371905642435163372e+03
2.677308852448846665e+03
2.655777287179071209e+03
1.780212043701205630e+03
1.895591848749849078e+02
-1.161325923234946458e+03
-2.186504283874668545e+03
-3.050050770591363289e+03
-3.972077148819803824e+03
-4.443571784486423894e+03
-3.847569990426735785e+03
-3.005973133033837712e+03
-1.972796438760203500e+03
-6.781891618020852093e+02
9.474215876954731641e+01
7.841712423907632683e+02
2.071307681488808157e+03
3.304034701138773016e+03
3.918213669501938512e+03
3.802782099716011999e+03
3.845673702130424772e+03
3.773769818216091608e+03
2.999077791678348149e+03
1.688697764002460190e+03
7.726575985621965401e+02
-2.292670857670720181e+02
-1.203249869871404371e+03
-2.176194076763278190e+03
-3.106112790794087232e+03
-3.332154165899884447e+03
-3.320295986553158855e+03
-2.831673621584242937e+03
-1.234433052570115933e+03
-9.347311325329268072e+01
2.875633330891034234e+02
6.777417466657760770e+02
3.088764069774983341e+02
1.521841282929563931e+03
3.081589494429707884e+03
3.391197148212475440e+03
3.361695959419045721e+03
3.205126275817154237e+03
2.762538210643572256e+03
1.693829469767266801e+03
1.013885534285250742e+03
8.286370440636672186e+01
-1.055342108608583203e+03
-1.663828531322104027e+03
-2.535552986034949754e+03
-3.119650200039242463e+03
-2.943131579854333268e+03
-2.433982535857982839e+03
-1.857143835235552842e+03
-5.706493035508688081e+02
-2.144155841281545634e+02
1.206502637058848961e+02
9.596320478768128623e+02
2.292478650570745231e+03
3.064163882767950781e+03
3.164714229890375009e+03
2.822110044358802952e+03
2.048440941226727318e+03
1.211652487782572734e+03
-1.872426899837582255e+02
-4.197044490578096884e+03
-4.550931429634526467e+03
-4.230906580959067469e+03
-3.640021514002148706e+03
-2.691290750733565346e+03
-5.113655318889525006e+03
-2.768223382205372673e+03
-4.502990945987522537e+03
-4.579644701996126059e+02
-2.849983044067995706e+03
-2.927993413768047958e+03
9.630341140102925692e+02
3.344308080603140752e+03
5.959947950355774537e+02
3.853123393165494690e+03
4.413601497524428851e+03
3.193327335292536645e+03
7.834440824348754973e+01
5.747182950479983674e+02
1.256538372763252937e+03
1.237716583940440842e+03
1.917288707886596058e+03
-3.601696310365736736e+03
-2.266443088398011696e+03
-1.389927099375141552e+03
-2.904983201749498676e+03
-6.151551669465880877e+03
-1.619635585625322392e+03
-3.666253415758832944e+03
-2.124233981938856232e+03
-2.387371251176556598e+03
-9.565689579273301888e+02
1.459042264031033255e+03
1.448437498364392013e+03
2.100613072298807310e+03
2.509716755082619784e+03
2.331868510383766079e+03
2.398132945222018407e+03
2.175455747563828481e+03
1.174803595493869352e+03
2.931360378496777912e+02
1.428489339337836554e+03
1.512983176309880264e+03
-1.673460342556694059e+03
-4.477865178176241898e+03
-4.953291928526149604e+03
-4.246678181978738394e+03
-3.507925620041287402e+03
-3.063055234602306427e+03
-2.379065743420851504e+03
5.831713372134646534e+02
4.108721748576876053e+03
5.109589278209206896e+03
5.194864383203240322e+03
5.743059832762132828e+03
5.347225797243944726e+03
5.320628100606107182e+03
5.511141391964222748e+03
4.037630190489525830e+03
3.578135744262886419e+03
3.233722403902009319e+03
1.069351141325987101e+03
-7.590363369867407073e+02
-1.845513269727658553e+03
-4.763292580687607369e+03
-7.368329519932832227e+03
-5.484990491154539086e+03
-3.657433018829255616e+03
-2.826594986914931724e+03
-2.112754094053330391e+03
-7.591411535868816145e+02
1.318366159389505356e+03
3.194915317182928902e+03
4.886941845299592387e+03
7.030290796154843520e+03
7.853002937176702289e+03
5.750474571153653415e+03
3.661469323202069972e+03
1.920665609659807387e+03
5.163293602049000128e+02
1.326184770521259907e+03
1.999070456865329106e+03
6.546781506968102349e+02
-1.125794536725330772e+03
-1.796539964813370716e+03
-2.701644818600283088e+03
-4.027077082682696528e+03
-4.185906234675391715e+03
-1.458120240959292460e+03
5.592505742760741896e+02
1.846276586664169599e+03
2.912034389496816857e+03
2.970603627160067390e+03
3.446986568144723151e+03
4.085181873912026276e+03
4.142188516996149701e+03
2.544012209611930302e+03
1.984671586994353675e+03
2.725197381427797609e+03
4.233592257726757452e+03
3.421742049891066472e+03
2.745927457381809518e+02
-1.832820921133545198e+03
-1.600651816004151442e+03
-1.224845639413544177e+03
-2.238421357789388821e+03
-3.078545791114141593e+03
-2.968234174667697516e+03
-2.293407019326803038e+03
-9.500842172519951419e+02
-5.232169061093350138e+02
2.623838368106036611e+01
1.320343481775425289e+03
3.004239388163095100e+03
3.718910863309678916e+03
4.351207165918340252e+03
3.228096594774019195e+03
1.973705799944129012e+03
7.959987840448882253e+02
-1.886076092033831173e+03
-6.950580906345881885e+03
-8.279490618307534533e+03
-8.122929160680824680e+03
-9.473000808545226391e+03
-1.113272228945718234e+04
-1.253309850133518921e+04
-1.190825520484848494e+04
-5.001190737034755330e+03
-2.509307650682658561e+02
1.209418905838990383e+02
-5.708732624568302526e+03
-4.735889895075939421e+03
9.263448253460931028e+02
9.339523431756342688e+02
-1.368982712979427333e+03
7.352740266491993282e+01
9.714764914804145519e+02
2.705879822035995858e+03
4.919727060937857459e+03
5.072986804381598631e+03
4.745602302045266697e+03
4.379577460405773309e+03
3.374840442376364535e+03
1.841352144244880265e+03
-7.689587667234865194e+02
-3.251183390980456352e+03
-3.709319479126793340e+03
-2.666353344186267350e+03
-2.006339439434431370e+03
-1.523173287512958041e+03
2.243095008120201612e+02
1.582142170757741724e+03
2.493248934239161827e+03
4.189671154861332980e+03
4.045395299256756516e+03
2.975471958176186490e+03
3.709919234848155611e+03
4.311760433144308081e+03
4.314965571608792743e+03
4.135511833557518912e+03
3.469343814291542003e+03
6.853816389064717214e+02
-1.616334972010106185e+03
-3.220879432064430603e+03
-3.633272295606091575e+03
-2.315572919365104099e+03
-2.654898345179184162e+03
-3.506174441575309629e+03
-2.186426518576354738e+03
-2.225551950419110653e+03
-3.424962361919833711e+02
1.403766592765741734e+03
1.020295011877673915e+03
7.940731090481202727e+02
2.026155683473655699e+03
3.234625926113451897e+03
4.567424545477480024e+03
4.905579588734606659e+03
3.063106157024912591e+03
1.226926205080187628e+03
5.759768915869095736e+02
-4.731003863898490813e+00
-2.588213984163124678e+03
-2.894513246038071429e+03
-2.045820748090805864e+03
-5.281994020315600210e+03
-8.089085925642504662e+03
-7.302114282220811219e+03
-3.546100939183501850e+03
9.740351829068807774e+02
4.833616686826495084e+02
8.894269613285041487e+01
2.944844428110666740e+03
3.787989898174093014e+03
3.821571150320738980e+03
4.423493700195798738e+03
4.769780427568627601e+03
4.001467129005260631e+03
2.948523351960015589e+03
1.278925212665433719e+03
-5.383423841689879055e+02
-1.533320829294978694e+03
-3.204029047748553239e+03
-3.182551338802119062e+03
-2.709920793733258051e+03
-3.382216493905861171e+03
-5.421454577381136005e+03
-5.357587209173234442e+03
-2.157594253111375110e+03
8.894946104208611359e+02
2.461673354358189044e+03
3.853969629831013208e+03
4.324492157216494888e+03
3.366277802447166778e+03
2.207364499088830598e+03
2.164758993582448966e+03
3.856489031489965782e+03
3.080563986617747560e+03
9.190340492177940632e+02
3.747974147027105118e+02
9.197834241980059460e+02
1.849670777613910104e+02
2.928529282450503501e+01
-1.386301648117744890e+03
-4.634886380912177628e+03
-7.386592545748229895e+03
-5.743403052618312358e+03
-2.354259921090942498e+03
-4.081410654746360933e+02
-3.392833091146795255e+01
-1.737770314878104045e+02
1.992568245100227671e+02
6.242942766315989047e+02
1.313374776306706053e+03
2.381504225742162362e+03
2.475666860278342938e+03
1.546866770759916790e+03
5.600621513040795207e+02
4.122280845132871718e+02
-2.976556251089596117e+02
-1.946396204502353271e+02
-5.167039985167145915e+02
-1.615891420217027417e+03
-2.695305877765296373e+03
-3.124080827990062062e+03
-3.966162037810155653e+03
-3.803627398094350156e+03
-2.585417124738880830e+03
-9.835404501487760172e+02
4.179655376480910718e+02
1.237024331680520618e+03
1.850697690271256761e+03
2.191043401868158071e+03
2.896033587846408409e+03
2.444750361318529940e+03
1.578177940545301908e+03
2.568321665267750632e+03
2.825252447414365633e+03
2.708686281043866984e+03
2.169021340379840694e+03
2.295867254622157816e+03
2.596377533059378948e+03
1.343273355257720368e+03
-2.804161175406729853e+02
-2.557778633219118547e+03
-3.260201195537677449e+03
-3.972210589006598639e+03
-5.007956618861985589e+03
-4.251629232847963067e+03
-1.310927687985953298e+03
1.883079519044926883e+03
3.697264267327719153e+03
4.196678496078655371e+03
4.081329296743659597e+03
4.139134992302933824e+03
4.918207275329189542e+03
4.778544785473413867e+03
4.715152427965070274e+03
5.093955953378535924e+03
2.825210663095328073e+03
4.463303808106657584e+02
-2.172661954797801229e+02
-7.616167924475366817e+02
-2.360894203639910302e+03
-4.353217855841102391e+03
-4.871304634528879433e+03
-2.839681100336304098e+03
1.018981875693882131e+02
1.283523349233243835e+03
1.737869505487440620e+03
1.167035061102742475e+03
1.539088380885707693e+03
3.211050112641733449e+03
5.174974095884875169e+03
5.931810626806964137e+03
5.653594153060818826e+03
4.802315070151737018e+03
4.048983043055181497e+03
4.571412383976077763e+03
4.692630649464969792e+03
4.238862155642312246e+03
3.128139831297449291e+03
2.000297298687426064e+03
1.285188226333414605e+03
2.328024104463773654e+02
-1.117789473452969560e+03
-1.771627262057898406e+03
-2.092946457117120190e+03
-3.466808686766130904e+03
-5.811976702414677675e+03
-4.570325982856078554e+03
-5.399833172425093835e+03
-4.826386190220479875e+03
-3.594986805828446904e+03
-3.913554203959391089e+03
-4.116932253463646703e+03
-3.744240418796388440e+03
-3.006465538626804118e+03
-2.465413618234684236e+03
-3.333097444641697166e+03
-4.513483391412880337e+03
-6.459365478413566962e+03
-7.229728007088118829e+03
-5.623112907073822498e+03
-7.062540024805116445e+03
-6.859906480929337704e+03
-9.811200828008155440e+03
-9.052452094061869502e+03
-7.923661713746438181e+03
-7.328684013532851168e+03
-5.581523758621041452e+03
4.847577289964444276e+02
5.302343310685289907e+03
1.382554871717790547e+03
-3.777515583162085022e+03
-3.796807352300164894e+03
-3.734316473488793690e+03
1.029752080856045040e+03
1.716421441512199408e+03
3.687865904767067150e+03
4.284178204846316476e+03
3.884278060402799383e+03
3.715279483082551906e+03
2.826267326373985725e+03
1.981166006083024058e+03
5.597393429674159506e+02
-6.630031917891991498e+02
-6.889811848748302054e+02
2.148497970716424277e+02
1.288668488905532286e+03
2.379555789768537579e+03
2.696566592606409813e+03
3.259753529745235483e+03
3.799250263244405232e+03
4.267160231765761637e+03
5.342485227082128404e+03
5.216091255449643540e+03
4.623137452990304155e+03
4.572873548898990521e+03
3.301300328686656030e+03
3.073242408924469146e+03
3.622746908178580270e+03
2.253924800686590515e+03
4.370183629865949371e+01
-1.140936962062485691e+03
-2.142024423221572761e+03
-2.839615784099312805e+03
-3.448568681070113144e+03
-3.256840316214247196e+03
-1.127482947874020965e+03
1.343550771756260247e+03
1.733409111588572387e+03
1.591115166805567014e+03
2.842847966602007546e+03
3.648625339540915775e+03
3.808630374811347338e+03
3.838772405504174003e+03
4.485378281442521256e+03
3.914651138161806102e+03
3.019417271425438685e+03
2.429841156404295361e+03
1.716965696207595556e+03
-4.912759916564396576e+02
-2.981855640343650975e+03
-6.276190739447584747e+03
-3.691657997630902628e+03
-3.007310644398521163e+03
-3.028573602102549103e+03
-2.341458440737293586e+03
-1.582199407712628044e+03
-1.622955256777785280e+02
9.024626532222686137e+02
1.548657599739114630e+03
2.304235358142012046e+03
2.736995385698893188e+03
2.953847136541868167e+03
3.052892068297335300e+03
3.211124278775702805e+03
2.794607750700949964e+03
2.509375422105038524e+03
1.894432206883318031e+03
4.618056830156643855e+02
-1.060462175083139073e+03
-2.783458863720929457e+03
-4.899334811236260975e+03
-6.106176231254187769e+03
-5.447960569555882103e+03
-4.185818647725850496e+03
-3.660758664046724334e+03
-2.652723994056520496e+03
-2.096771663829284080e+03
-9.767701611891224047e+02
2.963833573175027709e+02
1.907574503430418190e+03
2.631802498160049709e+03
3.119128536462001193e+03
3.278479572771227595e+03
2.870846098631428049e+03
2.812390961459058417e+03
2.334022414488671984e+03
2.218673060868247831e+03
1.854247675787670460e+03
-1.564611464913471650e+02
-1.810372437587876220e+03
-3.641517863884381313e+03
-4.394099837402302910e+03
-4.478030898802199772e+03
-4.598526856483974370e+03
-3.891603147040636941e+03
-3.394073859346566223e+03
-2.062969805694284332e+03
-1.034172743626959914e+02
6.505699182465317563e+02
1.672963786250742487e+03
2.805803877986931639e+03
3.117236799814293136e+03
3.142262987200898806e+03
3.422740791450806228e+03
3.267622846162734277e+03
2.535041623965134022e+03
4.857617623236403688e+02
3.136222453827544427e+02
-6.811024933594876529e+02
-1.871484121982658280e+03
-3.435751705211248009e+03
-4.068313613135798732e+03
-4.196345201579140848e+03
-4.394506017604346198e+03
-3.940877749123129433e+03
-3.501595427242085407e+03
-1.670497283190844428e+03
-7.359489978379357922e+01
1.189093358133080983e+03
2.149533401962171411e+03
2.785806397146544896e+03
3.302909101521712728e+03
3.697876611595144823e+03
3.320672720498971103e+03
2.925209998013308905e+03
2.484541651839477709e+03
1.994479942230668030e+03
7.558821283880363353e+02
-3.891951736162938573e+02
-1.419668521630814439e+03
-2.308766168915281014e+03
-2.896763003079384362e+03
-3.418736919431282786e+03
-4.115678193362111415e+03
-4.175607035227573760e+03
-3.526410863929029802e+03
-2.230929320277302850e+03
-1.338120740955274869e+03
-6.340747627613154691e+02
6.260752210035900589e+02
2.738501029125003242e+03
3.864342233600798863e+03
4.163453998724859048e+03
4.134712351154073986e+03
4.004180652237825598e+03
3.702758423313915046e+03
2.782492962813230861e+03
1.560655301675322562e+03
3.131679939390291452e+02
-9.103554275190384715e+02
-1.870159913571984362e+03
-2.063217245340500995e+03
-2.481389853221898647e+03
-2.854685434575161253e+03
-2.529131974328985052e+03
-1.687647990682536147e+03
-4.831954022694195601e+02
6.451957912118500644e+02
1.457597835909945616e+03
2.332150326289295208e+03
2.840868385461147227e+03
2.940668461484060117e+03
2.969578793557931931e+03
3.090536098050286910e+03
3.055583921649036711e+03
2.621753044719763693e+03
9.030298103033593407e+02
3.436991541556680119e+01
-8.352053236516774177e+02
-1.600801545301685110e+03
-2.358551617446008095e+03
-2.846472405538425392e+03
-3.434548230220273126e+03
-3.340732136684648594e+03
-2.733985951845635554e+03
-2.630302146953384181e+03
-1.664630889534579865e+03
-6.618250770156711269e+02
4.927687358008712692e+01
-1.474482921105423202e+03
-3.778030275880695172e+03
2.357173354804916414e+02
5.027895841403733357e+02
4.146070129258344423e+03
1.042584132118326806e+03
3.291474437431805200e+03
6.947543386077231844e+02
-1.054468662284910351e+03
-3.163279445050111008e+03
-5.532732846922461249e+03
-5.993768663951572307e+03
-2.660478135525041125e+03
-5.038030554904204109e+03
-2.788568140957949254e+03
-1.365927006972147183e+03
-1.315001940108599001e+03
-5.060661998377941018e+03
-4.294847731444481724e+03
-2.691569563462770020e+03
-1.000717761559445307e+03
1.248776463037559779e+03
3.348969579085406281e+02
-2.022134548273308155e+03
1.160708702317715733e+03
2.147391165468045529e+03
-1.594112905881687539e+03
1.156262021708427483e+03
1.965609879021073993e+03
-5.011584438040080158e+02
-1.775292581158145595e+03
1.980702438644210019e+02
-1.649787575851339625e+02
-1.482330280363638622e+03
-1.223882153796803095e+03
-6.136874995231839875e+02
4.131676369467321592e+02
1.348742673220805500e+03
2.786181085782647187e+03
3.497575929267497486e+03
4.480083042463296806e+03
5.430747891738449653e+03
6.098478982863297460e+03
6.087277009527200789e+03
6.129182150286303113e+03
5.948281592017033290e+03
4.974592326703277649e+03
3.816059753847630873e+03
3.168752084009850023e+03
2.128633488732232308e+03
3.747196037899818748e+02
-1.330031364222239972e+03
-2.454627997176420195e+03
-3.200994661007854575e+03
-3.460461945127180115e+03
-3.485507238170943310e+03
-3.482053160444927016e+03
-2.317105548868371443e+03
-9.145377897099554048e+02
-2.963599500841312988e+02
3.965141292998180234e+02
1.374035697043857681e+03
1.924227025519329118e+03
3.244112970548659632e+03
5.001686934121798004e+03
6.772032108803111441e+03
5.852117187451691279e+03
4.570991613768504067e+03
3.354502313780758413e+03
1.678481489094775043e+03
-2.791770435122263621e+02
-1.930478250711062628e+03
-2.028335882926523709e+03
-2.400760762583275209e+03
-3.226861062237601800e+03
-3.232959518791694336e+03
-2.619684206143445408e+03
-1.653881746097766154e+03
-2.358472980369489562e+02
1.039506304163186769e+03
1.596421917576755504e+03
2.198660409398171851e+03
2.600699175378666496e+03
2.985852401796167214e+03
2.678084900483036563e+03
2.932551009978629281e+03
3.179070435407757031e+03
2.986665071870276734e+03
2.435304740998501529e+03
1.217049217863859894e+03
-9.211433898557315558e+01
-1.637295318940916559e+03
-2.614648293187367926e+03
-2.760243213650873258e+03
-2.418109035037171452e+03
-2.395206865798784293e+03
-3.164559819175061875e+03
-2.396169073598131035e+03
-4.569573006504544992e+02
7.110370827342391067e+02
1.427900295335726014e+03
2.189691151254567558e+03
3.045379604567956449e+03
3.454043650629911099e+03
4.437542622933710845e+03
5.173814680646670240e+03
4.475957926923425475e+03
3.862066088915698856e+03
2.881049182963998646e+03
1.390884961724483674e+03
2.895006808948704702e+02
-7.091553081514128962e+02
-2.138132064094986617e+03
-2.898561317364272782e+03
-2.952549158915965108e+03
-3.074992813001695140e+03
-3.174791050452972740e+03
-4.032037210539107036e+03
-3.175668895328487906e+03
-6.153606110568273834e+03
-9.529846759074343936e+03
-7.970382996279554391e+03
-7.313107477936508985e+03
-6.240003679093144456e+03
-5.284129053582460983e+03
-5.418481448371111583e+03
-3.145964024776136739e+03
1.862474302392872232e+03
1.953973761120873405e+03
-3.151970629496484889e+03
-9.460224666261525272e+03
-1.094883702077103590e+04
-1.013182443321478604e+04
-7.481217364400778933e+03
-4.082137501658128258e+03
-1.743538516695279668e+03
1.796422596917787473e+02
1.049437317284794062e+03
1.977928898729292541e+03
2.671131160607553738e+03
2.919112305367010322e+03
4.075932658098301999e+03
5.193672432117398785e+03
5.828311997593999877e+03
5.327855139986382710e+03
4.839398303288066927e+03
4.993971906667157782e+03
5.012606591463465520e+03
3.815346255179141281e+03
2.799142697234715797e+03
1.573870245945836132e+03
1.144294696120248744e+02
-8.891427321775350947e+02
-1.512868947594911106e+03
-2.033710592181512766e+03
-2.200704212569385618e+03
-1.825810436164249950e+03
-1.022017686127343040e+03
6.297785399144122493e+02
1.784636958043242657e+03
2.806658946598308830e+03
3.963930213982400801e+03
4.312449491915179351e+03
4.430300777819204086e+03
4.720421923580343901e+03
4.654841023856716674e+03
4.512720240563970037e+03
3.600095575668962283e+03
2.502974671622875576e+03
1.512319119595378652e+03
2.809054300370896229e+01
-1.246764052901549803e+03
-1.920286885983672391e+03
-2.685426935500256604e+03
-3.238252650589788573e+03
-3.341838692208649263e+03
-2.888043196219138736e+03
-2.128803760300490922e+03
-1.225085866512178654e+03
-8.580787132497128766e+01
8.220839165414001855e+02
1.750497635846655612e+03
2.706453092828459830e+03
3.246115032830555720e+03
3.585985369377073312e+03
3.638302093658826379e+03
2.850848527071537319e+03
2.910366743919957571e+03
1.688872558941399802e+03
2.382819759429285114e+02
-1.213491342281075731e+03
-3.808301987727768392e+03
-4.563203102389351443e+03
-4.423239402497035371e+03
-4.743560000093333656e+03
-4.222152001714481230e+03
-3.743983456441719227e+03
-2.815956536699515254e+03
-1.803003358936823133e+03
-6.201205747279258276e+02
1.667439916553391583e+02
9.117370171954502212e+02
1.991866458714223427e+03
2.832140401064785237e+03
2.921546051429191721e+03
3.031153060090616236e+03
2.921980923848770544e+03
2.017967776542923730e+03
1.355097179763854001e+03
5.503510002263244587e+02
-9.572723131259170941e+02
-2.626820324747055110e+03
