-2.551257063875882977e+03
-7.036858490935803275e+03
-8.491483955491046800e+03
-8.004938905183436873e+03
-7.790323203667942835e+03
-7.209692899456033956e+03
-6.173995288029384028e+03
-6.210202631510983338e+03
-5.505300467998888053e+03
-5.856360061535346176e+03
-3.017322969215068952e+03
-7.892588678597071521e+02
-6.272268782852387403e+02
-1.124241386322172502e+03
-1.757360063714144644e+03
-1.788540155476982818e+03
-1.709762984277007490e+03
-4.477003400382472137e+03
-1.907332130917914583e+03
-5.272815725880912652e+01
6.739420589602079872e+02
1.397714406123809567e+03
2.134613897287460077e+03
2.937685433645372996e+03
3.437979197875103182e+03
3.756592643555889936e+03
3.971586180341567797e+03
3.719988819271164630e+03
2.730808081867871351e+03
2.627034812390888874e+03
2.994622981495655040e+03
2.567640490410607526e+03
1.928051207824062203e+03
1.353845801152426475e+03
8.570316490920405386e+02
5.265528252970648282e+02
7.254519049405555506e+02
8.577980777863227786e+02
1.128519496014017477e+03
1.803551031359138733e+03
2.131933647845356063e+03
2.570770018988984248e+03
3.011093284269403739e+03
3.450894845458109103e+03
4.420141529262829863e+03
5.151825452064364981e+03
5.357020104219744098e+03
5.508743354563403955e+03
5.255916201159461707e+03
5.039567973634556438e+03
4.574561350942984063e+03
3.567800885691756321e+03
2.877308447189732306e+03
1.884065231141352342e+03
1.619069117699187473e+03
1.273235570041106257e+03
6.565978689850293222e+02
4.963521629997368905e+02
1.033392292067463814e+03
1.465276276032597934e+03
1.674325873310278439e+03
2.544442927984287053e+03
3.887062615211444154e+03
4.499170305157382245e+03
4.907767699407641885e+03
5.105802151564446831e+03
2.317850944086847448e+03
3.185311658612408337e+03
3.858952334990813597e+03
3.849259430629632334e+03
2.263621021003922124e+03
-1.644426474172246799e+03
-2.688892444065884320e+03
-3.574670776684235989e+03
-9.269122894360746159e+02
7.353843827087455338e+02
7.653910334739907739e+02
7.409577776706366876e+02
-1.323109222855263170e+03
-3.023745950569229080e+03
-1.012194267168539909e+03
1.848346130532448115e+03
6.092818923668559705e+01
3.523551519330726933e+03
2.233167160395397786e+03
1.947578406816905499e+03
4.129773957767460161e+03
1.867845185213728882e+03
4.515713615298542209e+03
1.535139048385349042e+03
3.326043484517672368e+03
1.972244826951874302e+03
7.554420872186160807e+01
7.579785467893258328e+02
-1.252616082062837677e+03
-1.352527451728256892e+03
7.173220567155708522e+02
-2.176843354616691613e+03
-7.120280647965305434e+02
-2.695623305824265572e+03
6.305508506407956020e+02
-1.878431653057720723e+03
6.053647173846377427e+02
2.531897892326527199e+03
2.574114672100319240e+03
-4.230046980006123931e+02
2.437699300479724570e+03
4.214195403272927251e+03
2.743130753658040248e+03
1.201361071785400554e+03
3.170065691076375060e+03
-6.607172725917757816e+02
-1.740805287972671920e+02
-4.983204563878348381e+03
-2.009213559666628953e+03
-2.949174283427054888e+03
-3.269134178315551253e+03
-5.071072398222285074e+02
-2.681085090669057990e+03
-1.675962895371908644e+03
1.371316469842865899e+03
2.671658536122021360e+03
3.040995385546506441e+03
2.941345163312144905e+03
3.155775283831355864e+03
3.802316116908022195e+03
4.471998529181399135e+03
4.840925414828041539e+03
3.634159729137659724e+03
2.571722401613001693e+03
2.835447664433457248e+03
2.601594937998938804e+03
1.737060402993272419e+03
1.287097200819974887e+03
6.279426327147602933e+02
3.467277823244494925e+02
1.574415016623594852e+02
-2.928712485748196173e+02
-4.621580693502414761e+02
-6.192053104702231394e+02
-4.118123510742157833e+01
3.484513353740410366e+02
9.525504418475017019e+02
1.684192796444079022e+03
1.505794419684465311e+03
1.879766829035299907e+03
2.035787651812237755e+03
1.620671443300112287e+03
1.005900570107598355e+03
4.798965221152300842e+02
1.660698498845727329e+02
1.658144986212453205e+02
-5.524920425437510403e+02
-1.615894362297770158e+03
-2.270220897854333089e+03
-2.927989676323514686e+03
-3.460952663947840392e+03
-3.480919500435022201e+03
-3.285535173350691821e+03
-3.120451667679850743e+03
-2.680884566690513566e+03
-1.835164968926126448e+03
-1.321381172760307209e+03
-7.009257159105687833e+02
-2.669522791023715627e+02
-4.751385131603985883e+02
-7.464018905433429154e+02
-4.141023779049294262e+02
-5.040236312850237823e+02
-1.019438547539779165e+03
-1.314991038467246199e+03
-2.064960710379854390e+03
-3.478167471870627651e+03
-4.541380985901511849e+03
-4.924440988340257718e+03
-5.037169264471077440e+03
-5.056337984256276286e+03
-5.146699512894543659e+03
-4.788069618761756828e+03
-4.746287645782104846e+03
-4.344077597844730008e+03
-3.880211652549260634e+03
-3.565478764870983923e+03
-3.159592722968712224e+03
-2.482333170398089806e+03
-1.430500355619049515e+03
-6.269737546365132630e+02
-4.284929057748162222e+02
-7.127803659387259358e+02
-9.466167048838399296e+02
-1.118806449777893704e+03
-1.797276315285299006e+03
-2.364872405353391514e+03
-3.363519077365767771e+03
-3.951005895362491628e+03
-3.998264685468654989e+03
-6.252921955996417637e+03
-1.008367904768247718e+04
-6.804657853215621799e+03
-7.270013737171670982e+03
-6.195466514041118899e+03
-4.105758264590222097e+03
-2.200944171152867966e+03
-5.789853610149668384e+03
-6.929306061595868414e+03
-1.479259528273260912e+03
8.604467753617193466e+02
9.309797346588140954e+02
-2.123628150392878069e+03
-2.723247437718065612e+03
7.925153879877315433e+01
5.167961375536531250e+02
-3.325105648421962314e+02
-4.596362499198510250e+02
-7.665270301921791543e+02
-2.547115135980562627e+03
-3.282423236967526464e+03
-2.715358203921919085e+03
-6.855854566132416949e+03
-2.669900133915949937e+03
-3.716548690238204017e+03
3.529421990176275159e+01
2.884657328744716324e+03
4.276633668622785990e+03
4.969234609382429880e+03
5.820394528363573954e+03
6.132093925506471351e+03
5.878344227343525745e+03
5.517056771653974465e+03
5.631196652109569186e+03
5.724732247606862984e+03
5.339654096890234541e+03
4.842949544417298966e+03
3.741476393995067610e+03
2.917114498410606302e+03
3.482779707595032960e+03
3.219497786745163921e+03
3.180158536654710133e+03
3.474536798658833504e+03
4.106540953989474474e+03
4.957151649198853193e+03
5.576256400844045857e+03
6.364745623699048338e+03
7.066580112521326555e+03
7.355645664465927439e+03
7.962847182241376686e+03
8.392131758838468159e+03
9.120385030916148025e+03
9.804451524776004590e+03
9.813445055032925666e+03
8.991172929847736668e+03
8.112351105857715083e+03
7.352302546534120665e+03
6.264359813892431703e+03
5.581793674942591679e+03
5.558810525019864144e+03
5.406971482051413659e+03
4.753626863631998276e+03
3.992485330357821113e+03
5.588878030638226846e+03
6.994904876672283535e+03
7.413546421977113823e+03
7.905558942770487192e+03
8.659655632791836979e+03
9.346920875062622144e+03
9.381008748987802392e+03
9.714198398693388299e+03
9.259130776845542641e+03
8.616892680249404293e+03
8.267352189363809885e+03
7.171326922847284550e+03
6.216833462811660866e+03
4.975431242283508254e+03
3.390599656410848183e+03
1.535213421365363502e+03
-2.304084463290270151e+02
-1.244502407496728665e+03
-2.149166074813179875e+03
-2.925570621738395403e+03
-3.482946565344082501e+03
-4.039540732810055943e+03
-4.417536754718535121e+03
-4.156143025858791589e+03
-4.090534216744763853e+03
-4.304852398274978441e+03
-4.511255992025546220e+03
-5.079033377237100467e+03
-5.399592475560781168e+03
-5.866274368934824452e+03
-6.589280355670373865e+03
-6.688717686586212949e+03
-7.169870350064064951e+03
-7.936098312209503092e+03
-8.240570640261232256e+03
-8.843356709411824340e+03
-9.714560861597808980e+03
-1.016441796192471156e+04
-9.902102547482792943e+03
-9.086007214377597847e+03
-8.468239564298804908e+03
-8.039031678551355981e+03
-7.339696086945105890e+03
-6.064467877064575077e+03
-5.073547287814187257e+03
-4.374154078622716042e+03
-3.678436239583419592e+03
-3.559477985209324288e+03
-3.969274968526278826e+03
-4.279856479304521599e+03
-4.488624982210857524e+03
-4.572678441343587110e+03
-6.066285249978027423e+03
-9.405779199389464338e+03
-1.250057514799884484e+04
-1.710593084490570254e+04
-1.217510847882420603e+04
-1.489196080518840790e+04
-1.980178536400720623e+04
-1.899105518531363487e+04
-1.788233793697583314e+04
-1.681473628110034770e+04
-1.473525974630620294e+04
-1.304187317658318716e+04
-1.043521363056053451e+04
-6.479448994396479975e+03
-6.398781025025439703e+03
-6.865575375281444394e+03
-7.693948232604054283e+03
-8.759564480951299629e+03
-8.477505966565877316e+03
-1.014577209343100367e+04
-1.108154369264002344e+04
-8.385599864539952250e+03
-6.538415619938176860e+03
-5.905791663769993647e+03
-2.852581061958766441e+03
-1.630793670473272186e+03
-1.960957633861108889e+03
-8.244342333638329592e+02
7.039958285515589296e+02
2.147677001094335992e+03
2.025810914007478459e+03
3.011194806290529868e+03
5.931387097157125936e+03
8.650600535033321648e+03
9.877307455353549813e+03
1.135693791678860362e+04
1.210218539939324364e+04
1.128643042199767115e+04
1.170192974421459803e+04
1.043172015787709825e+04
6.215338179073474748e+03
3.452807898668701000e+03
3.335093098468392782e+03
4.227879446977286534e+03
1.339215564291266901e+03
4.937589956280156116e+02
1.031565470121840690e+03
1.209396101437502011e+03
1.273195859454107222e+03
1.149306290183975761e+03
1.652547682336635489e+03
4.924482957822031494e+03
8.435705634406505851e+03
8.798626572412376845e+03
7.130017704201595734e+03
7.373019765430937696e+03
9.030304932953466050e+03
1.078858416548415698e+04
1.137675627566472212e+04
1.112643591187291895e+04
1.082422680608751762e+04
9.589663661722377583e+03
8.558047419207423445e+03
7.750512856833275691e+03
7.682797495573864580e+03
8.551685276686832367e+03
8.913265102341429156e+03
8.791907839429781234e+03
8.595680401622628779e+03
8.487737101372826146e+03
8.520272747863804398e+03
8.430494092199514853e+03
8.081806381132577371e+03
8.554743523184279184e+03
8.853892805386156397e+03
5.637423419951840515e+03
5.195131700606345930e+02
-4.587347677509832465e+03
-5.466750145207060996e+03
-5.948562460774441206e+03
-6.133432650080647363e+03
-6.934321434422332459e+03
-7.610377627667015986e+03
-8.291275420687848964e+03
-9.475771251488855341e+03
-9.414709225688928200e+03
-9.794084982232561742e+03
-1.260171299097927294e+04
-1.359321348669118743e+04
-1.200635394425801678e+04
-7.249868091935833945e+03
-5.708835536704034894e+03
-7.476194480632322666e+03
-5.626732006220863695e+03
-4.445308452244555156e+03
-4.086639340100026402e+03
-3.156719631979750375e+03
-2.030533815073723190e+03
2.643079644449695934e+03
5.126142385750256835e+03
-3.563145940654393371e+02
-5.034288897088318663e+03
-6.153700340030703956e+03
-7.006512019622335174e+03
-4.780701883213204383e+03
-9.578230141427971830e+03
-1.125109972551392275e+04
-1.064634643162879911e+04
-6.666875055886396694e+03
-8.171526490346201172e+03
-1.026137590128941883e+04
-9.188463950193252458e+03
-7.302817882692467720e+03
-1.159508798013680916e+03
1.413301525568859688e+03
1.857460455387096317e+03
1.924772184948049699e+03
2.384155546355441857e+03
2.059536306616438651e+03
8.966719449650543083e+02
-7.147373240566773802e+02
-1.804956128097522878e+03
-2.494243595773204561e+03
-3.443845968818354322e+03
-4.805970602870917901e+03
-5.683915085298791382e+03
-6.273966794136097633e+03
-6.649377039002948550e+03
-6.241344726770639681e+03
-5.473105405363025966e+03
-5.141045983209818587e+03
-5.997645561623247886e+03
-6.074184978172304909e+03
-5.231903473757497522e+03
-3.649781008974187898e+03
-1.860075265838671157e+03
-8.780833755333445652e+02
-5.542138161315314164e+02
-1.541835407782688435e+03
-2.505366530790304751e+03
-4.011361809921282656e+03
-1.974136326269047231e+03
3.203067324729511711e+03
5.944988582752355796e+03
5.076675239403429259e+03
5.756098879967899848e+03
7.796918911180792747e+03
8.031730837368497305e+03
8.324604062095502741e+03
9.179271768171291114e+03
9.089662014113457190e+03
1.002034955815277863e+04
1.157377494041577120e+04
1.240506296839659990e+04
1.383553123073166716e+04
1.549174479852650256e+04
1.507624357920935108e+04
1.545539681395769185e+04
1.530733532740140254e+04
1.530104660090153266e+04
1.515126028317720557e+04
1.403668857745190144e+04
1.375784945515983418e+04
1.411532957583310963e+04
1.457829465014834568e+04
1.378199376379613750e+04
1.358568971795193283e+04
1.388728201432596506e+04
1.426739221324379832e+04
1.496091859644389842e+04
1.518478302180153514e+04
1.540074431046449899e+04
1.619862625908922382e+04
1.606931837773281950e+04
1.594868712425465856e+04
1.576653973283657433e+04
1.561667598166897369e+04
1.570097025493292131e+04
1.516128103053169252e+04
1.394656540262226190e+04
1.290767244399306219e+04
1.304636728835614122e+04
1.270361552827543164e+04
1.121538634339297278e+04
9.366631170906306579e+03
7.920314439952404427e+03
6.366477997031953237e+03
5.411166413167594328e+03
5.553351193738531947e+03
5.417143555972114882e+03
5.497689915659911094e+03
6.227109827591795693e+03
5.087650695180627736e+03
2.356522917826844150e+03
-1.108020169248586853e+03
-1.706643209692477967e+03
-2.624987282947425228e+03
-3.801658666511039428e+03
-4.541323452190434182e+03
-5.811653449533203457e+03
-7.228353050757595156e+03
-6.490061611557955075e+03
-2.025379238430162559e+03
-4.415848023216472939e+03
-1.163089204386330312e+04
-1.421331390690139233e+04
-1.477860559407226356e+04
-1.523521495526174658e+04
-1.591161921968897695e+04
-1.317829836285451529e+04
-1.026661748702912337e+04
-1.473995099143145490e+04
-1.825269192719804050e+04
-1.789317427939714617e+04
-1.778874940206257452e+04
-1.752576856298288840e+04
-1.358249155207087279e+04
-1.063224236304641090e+04
-1.057529188284473094e+04
-1.223192951702748906e+04
-1.453538674433677807e+04
-1.738288226541200856e+04
-1.966674447464508557e+04
-2.120123855835289578e+04
-2.263359325069646729e+04
-2.411908165362321597e+04
-2.521889600231200529e+04
-2.613627969211923119e+04
-2.628747557780124771e+04
-2.547463046383192705e+04
-2.414793824353470336e+04
-2.218458656816691291e+04
-2.143871855318451708e+04
-2.282054859465358459e+04
-2.442432137251922904e+04
-2.466313043593908515e+04
-2.573923857798722020e+04
-2.893785720529270839e+04
-3.161219578432141498e+04
-3.280452639669548807e+04
-3.238903731827467345e+04
-3.146792941261487795e+04
-2.989548395496925514e+04
-3.026102697779170194e+04
-2.909683295403767988e+04
-2.783811427744963657e+04
-2.701319871889409842e+04
-2.651041368945124486e+04
-2.643008569563965284e+04
-2.680550518947606906e+04
-2.726198779168073088e+04
-2.650186054392351434e+04
-2.326840649946912163e+04
-1.781195049362413556e+04
-1.406588655491616737e+04
-8.791728374869022446e+03
-2.834929695625540717e+03
2.169145100503465983e+03
4.403513017424362260e+03
6.145703319045748685e+03
7.547459882502816981e+03
1.364847696827173058e+04
1.903677542871125843e+04
2.190803610783196200e+04
1.994521350488541430e+04
1.700262089853997168e+04
1.447862813270486367e+04
1.294756699632872187e+04
1.375579388392324654e+04
1.740312901847171815e+04
2.024558189588919777e+04
1.880067067143508757e+04
1.394959803847401236e+04
9.742538365545997294e+03
6.119625800799291937e+03
1.680880682996524683e+03
-2.214475720635893140e+03
-4.434433050561991877e+03
-1.253276400157736362e+03
5.610967467530654176e+03
1.383526759301618040e+04
2.398628061252834959e+04
3.341797612791114079e+04
4.172030460790955112e+04
5.016698639929357159e+04
5.727173487045955699e+04
6.379130165833705541e+04
6.953959391902280913e+04
7.286623539782500302e+04
7.434676821160854888e+04
7.317283721906291612e+04
7.032311505993007449e+04
6.607311463148309849e+04
6.113146747762760060e+04
5.572393107897409209e+04
5.019394744113501656e+04
4.565007758863439813e+04
3.983211650680431194e+04
3.221146259413257940e+04
2.410827115336138013e+04
1.642080086275430585e+04
9.275739392940658945e+03
4.144297255847387532e+03
-9.772682948501376359e+02
-5.955677726154560332e+03
-1.072364192419357460e+04
-1.014389120862321579e+04
-8.551179622125318929e+03
-9.365569372833919260e+03
-8.552974012729773676e+03
-3.473921686861689523e+03
9.659101311495975324e+02
2.273533748929550256e+03
3.783967168565282464e+03
4.947276275920946318e+03
5.027646749443596491e+03
4.159269681773324919e+03
2.926194952807531081e+03
2.452623245618897272e+03
3.895698247349740086e+03
7.246402748303416956e+03
8.064685738412718820e+03
9.593544442787875596e+03
1.190898434118333171e+04
1.129310805368185356e+04
8.476946655513907899e+03
4.269520869360518191e+03
-1.334129028390852000e+03
-6.231941274320082812e+03
-8.717795471366587662e+03
-8.992736823019811709e+03
-1.075883735416922173e+04
-1.269863564824224704e+04
-1.215155001552465910e+04
-9.808818544656753147e+03
-7.957435252588006733e+03
-4.061192458657704265e+03
-1.306058908145665555e+03
-2.969966153238610787e+03
-3.702739296400338844e+03
-3.711311601481111211e+03
-4.230435795271188908e+03
-6.607088417524417309e+03
-9.607166506253563057e+03
-9.974291406728880247e+03
-9.018321485874468635e+03
-7.016317589177430818e+03
-6.998193458692898275e+03
-8.170743346363927230e+03
-9.049737835536556304e+03
-1.017990497753808995e+04
-9.026801286341009472e+03
-8.684029827173837475e+03
-8.884362540191244989e+03
-8.719421155286550857e+03
-9.716812235203595264e+03
-1.104831564433871426e+04
-1.349142468456149072e+04
-1.590933256534925204e+04
-1.823559040474779613e+04
-2.073967116789393913e+04
-2.331426290610297656e+04
-2.607008365657674221e+04
-2.914331149238889338e+04
-3.137721694256878254e+04
-3.093713118021107948e+04
-3.065242625743272583e+04
-3.052833031677239705e+04
-2.966901072239421774e+04
-2.745857748129286119e+04
-2.578860806652249812e+04
-2.462651887757681470e+04
-2.386323196147797353e+04
-2.254560098151209968e+04
-2.062092372356241685e+04
-1.908122498221121350e+04
-1.816445298467052271e+04
-1.768860399313077869e+04
-1.768668445245170005e+04
-1.813860080554480373e+04
-1.779516903941366036e+04
-1.846327434435434407e+04
-1.937076793618502052e+04
-2.020250253975977830e+04
-2.028529080607955621e+04
-1.953491832707702997e+04
-1.954814964076329488e+04
-2.159067482210992239e+04
-2.394506598400835719e+04
-2.654398683732546488e+04
-2.555412419462517209e+04
-2.334016079043403442e+04
-1.996670950926275327e+04
-1.733527441378401636e+04
-1.432233759109691528e+04
-1.211523107710425211e+04
-1.192044557325441383e+04
-1.043644075043566409e+04
-9.550938114212798610e+03
-9.492740424415935195e+03
-9.854155728269903193e+03
-9.049336864325843635e+03
-5.570753504115027681e+03
2.660749021132477310e+02
1.489451405155215298e+02
-4.898438205956196725e+03
-4.826438281218737757e+03
2.821690289477660826e+03
7.701587539728786396e+03
4.405932264186664725e+03
6.250527448226403976e+03
9.942087471065877253e+03
1.762029581449713442e+04
2.143807788653658281e+04
1.729716575199182626e+04
1.758134169289744023e+04
1.874835136291586241e+04
1.895600536663512685e+04
1.775317271949117639e+04
1.624057154865761913e+04
1.530693572541476169e+04
1.697097745225764811e+04
2.173155184406949047e+04
2.166937279373372803e+04
1.983820032699643707e+04
1.857386043105928911e+04
1.872106987968790418e+04
1.898462705686354457e+04
1.928130594692456725e+04
2.017481075566138679e+04
2.170997501783289408e+04
2.371054504965001252e+04
2.547729570548027550e+04
2.720493498877847378e+04
2.873814075158024207e+04
3.055665797402738463e+04
3.186519944851809851e+04
3.254141300106588460e+04
3.261486639167678004e+04
3.279220421997777885e+04
3.276408643869323350e+04
3.246911672935155002e+04
3.261482064174226252e+04
3.254582653991194093e+04
3.125164351348605487e+04
2.982166267445750418e+04
2.795445737428633220e+04
2.561346982655287502e+04
2.366099299217813314e+04
2.189858060885646410e+04
2.032792143330547333e+04
1.905281315051512502e+04
1.777642068434124303e+04
1.745418449269770281e+04
1.739350379316605904e+04
1.673666146853842656e+04
1.536898269978441022e+04
1.418301602723591350e+04
1.267551722601964866e+04
1.077084727778584602e+04
1.015454481353964547e+04
8.497764595875189116e+03
7.172427692244704303e+03
5.530429640197507069e+03
3.828061590207239078e+03
1.985145087127723173e+03
1.027346763421118794e+03
2.977906037039451803e+01
-5.112966745091725898e+02
-1.157644917212308428e+03
-1.892540829614953282e+03
-2.400024410595978225e+03
-2.739046227344508225e+03
-3.083060332067851505e+03
-3.355486028298706515e+03
-4.151356457139465419e+03
-4.952722564036104814e+03
-5.342786914917229296e+03
-6.078715106154675595e+03
-7.080802025073552613e+03
-7.967357946253854607e+03
-9.328619056075003755e+03
-1.044587631288257580e+04
-1.187650045878286801e+04
-1.314885518232377945e+04
-1.377231743948370786e+04
-1.448633403803351575e+04
-1.499033664990419675e+04
-1.507877274785231930e+04
-1.501896542931528347e+04
-1.566116424839956562e+04
-1.516472338091986967e+04
-1.459913258622068497e+04
-1.426874413640119201e+04
-1.415886756114865238e+04
-1.431701290801109099e+04
-1.436374813795361115e+04
-1.441869025811604479e+04
-1.475844323290117427e+04
-1.551760424330018213e+04
-1.593556477692107364e+04
-1.567596965140381508e+04
-1.614839817025316006e+04
-1.687739280242545283e+04
-1.728543597830927320e+04
-1.751499378954127678e+04
-1.779356752184879952e+04
-1.781664475409420629e+04
-1.738577749084342940e+04
-1.685873256345924528e+04
-1.632029210412404609e+04
-1.724291915184839308e+04
-1.885735764222702710e+04
-2.174328579123682721e+04
-2.134419959060140172e+04
-2.139244630399015659e+04
-2.071053778834955301e+04
-2.032298697105509564e+04
-1.984674017175392146e+04
-1.914031581891813403e+04
-1.884805215956113898e+04
-1.873805975546971604e+04
-1.801070358415157898e+04
-1.530032541203825531e+04
-1.075728829346035855e+04
-9.784207586559286938e+03
-9.427702908213226692e+03
-8.358173371083765232e+03
-7.460638364010696932e+03
-6.705101407921323698e+03
-6.246871402338269945e+03
-5.432211656673724974e+03
-4.630262568741636642e+03
-3.616294924187131528e+03
-2.252657710982831304e+03
-9.140336852120611866e+02
2.487598806111765626e+01
6.185408328898968193e+02
1.012408067627370315e+03
1.098126188541742977e+03
1.273361123007977085e+03
9.347315731924372813e+02
4.110545905923922874e+02
4.121118540158607289e+02
3.346975803386860093e+02
7.818032931220651562e+02
1.645489341072538764e+03
2.123993179436069113e+03
1.960487831776202029e+03
1.906090552384146122e+03
2.958974101678881652e+03
4.358286906955453560e+03
4.947174019802053408e+03
6.193722579410183243e+03
7.683186783038268004e+03
8.289876559848908073e+03
8.324039810268945075e+03
8.381874204273897703e+03
8.208557851323415889e+03
8.534147740872353097e+03
8.314759706640123113e+03
8.052536516148477858e+03
7.619683593173205736e+03
7.910913904082509362e+03
7.842261068692071603e+03
7.299066273513170927e+03
7.733326026841868952e+03
7.969786620909260819e+03
8.120604685474877442e+03
8.400155008757403266e+03
8.471626212684497659e+03
8.601241169418672143e+03
9.138305850741509857e+03
9.055106641397822386e+03
9.388901666310279325e+03
1.076882290226295299e+04
1.135899622459004786e+04
1.127747951238682981e+04
1.161159064127228521e+04
1.108546320157892478e+04
1.081022946575311835e+04
1.023236048054852108e+04
9.325318393682318856e+03
8.384520096762451431e+03
7.412423777776967654e+03
7.033346158941105386e+03
6.272437874191762603e+03
3.511917578011109526e+03
1.560140245130133280e+03
3.421417499196862536e+03
-2.010683141875256652e+01
-1.339307539733258182e+03
-7.199112156823442774e+02
-3.178858924465224050e+02
-8.859205715559616010e+02
-5.154388185821914021e+02
-8.192435902606521267e+02
-1.580977000587657244e+02
3.863349930018949294e+02
-7.057261899161071028e+01
-6.985257423401817505e+02
-4.904998892158076842e+02
-8.893178737896264465e+02
1.380155296875737804e+03
1.240256127167405339e+03
-3.101723675273068693e+03
-4.592557498946289343e+03
-4.645935550818171578e+03
-4.254827443934867915e+03
-4.556028672451054263e+03
-4.201292681135850216e+03
1.307638765546858622e+03
4.207067240206576571e+03
-6.248078822272145771e+02
-2.455665275387351357e+03
-2.206266738859793804e+03
-1.675399285609766366e+03
-6.078425872650286692e+02
2.894545869648863118e+03
-1.339010068259987520e+03
-2.791329792332116085e+03
1.726464641682345018e+02
-2.676153791563887353e+03
-6.699622000598320483e+03
-7.091659333004803557e+03
-4.443248335093278001e+03
-4.533935147052399657e+02
-1.701071469500504008e+03
-2.133206512999596271e+03
6.973087568365381230e+02
1.659491059991605198e+03
2.377358962886078189e+03
3.166006574654650194e+03
3.159510774637389204e+03
2.664905908937115328e+03
2.586211164039593314e+03
3.222478984949500500e+03
3.068695953893149635e+03
3.015956373758100654e+03
2.549272941818137042e+03
1.713579628997161080e+03
1.190646825123188819e+03
6.623370424674990318e+02
-1.060276980274680341e+02
-9.522145858212837766e+02
-1.436144643514241579e+03
-1.749767732096088366e+03
-2.111413007801603726e+03
-2.343224866637283867e+03
-2.419384148792064934e+03
-2.366952055231133727e+03
-1.306046898905189209e+03
-2.437271784233055030e+02
2.569466938418744348e+02
1.023916768678262997e+03
1.189153404496816620e+03
1.273791726439663989e+03
9.915413878271904196e+02
9.079955582748415281e+02
3.260563316881671767e+02
-1.826215491744663950e+02
-3.037690448354406954e+02
-4.550745784455755825e+02
-1.027753182190750522e+03
-1.618550793452792732e+03
-2.040043195148223049e+03
-2.125963545902554415e+03
-1.727272828369379340e+03
-1.588134453534315071e+03
-1.246029471280873622e+03
-4.848968139608939509e+02
1.280169927255323081e+01
2.767528850023574591e+02
8.240236335662392548e+02
1.463281537410197643e+03
2.033227603784133180e+03
2.742981786249320521e+03
2.825628375138927822e+03
2.481047683189046438e+03
1.563905751259905401e+03
6.790103371124411069e+02
4.743493717109765271e+02
-6.014759548224036223e+01
-6.596816891934499836e+02
-1.149330969917171842e+03
-1.652181707273750362e+03
-1.925400928169347026e+03
-2.113112186421262322e+03
-1.699458836217001135e+03
-1.216483909998383524e+03
-6.322495208883229907e+02
2.271877015615537516e+02
9.247470310601827350e+02
1.580405129209364986e+03
2.592117136230874166e+03
3.643938369040646194e+03
4.216835074756651920e+03
4.273768138744335374e+03
3.660734121239085198e+03
3.433597880796975460e+03
3.118349999466159716e+03
2.063061043301444897e+03
1.569748938521824357e+03
7.224734131744248771e+02
-1.872650218220837814e+03
-5.681662734964244009e+03
-8.982556788510373735e+03
-9.047238650023520677e+03
-9.444758218906075854e+03
-9.131056718092806477e+03
-8.167165063019927402e+03
-6.890065921350279496e+03
-5.341607669563557465e+03
5.893188668807740669e+02
3.844694265946803625e+03
8.276236741459292716e+02
-5.284755225933038673e+03
-5.415572919354473015e+03
-4.766709273410342576e+03
-5.098154836413066732e+03
-2.357813802769137510e+03
-2.596612557802440733e+03
-4.001494588018039849e+03
-3.178510271070288127e+03
-6.731613370382158791e+03
-7.394763221470602730e+03
-7.411899894110960304e+03
-6.970956509175844076e+03
-3.811837597836572513e+03
4.134731813699261238e+02
1.887030153709963770e+03
3.011903288905830777e+03
4.383272385942977053e+03
5.014214654753703144e+03
5.475682093520706985e+03
5.384775452910568674e+03
5.050637243891797880e+03
5.158339966097314573e+03
5.129002026360989476e+03
4.554642063866399440e+03
3.471330865977441590e+03
2.575082072121100282e+03
1.594943789501886613e+03
6.349177789581077604e+02
-3.193820251312158121e+01
-5.245905686212034880e+02
-1.085041267255991897e+03
-1.268096828748704183e+03
-7.917442354655180452e+02
2.880591823271572594e+02
1.018353649963063731e+03
1.289162476600190303e+03
1.658592510797898285e+03
2.170690720929410418e+03
2.216490057190625521e+03
2.181060497677680360e+03
1.976377593192001996e+03
1.793447990351272665e+03
1.249280030092356583e+03
1.489741443604297331e+02
-7.554553526270589145e+02
-1.380097711959208482e+03
-2.327974398053909226e+03
-3.147046794941608368e+03
-3.096291008833556589e+03
-3.111757382975816199e+03
-3.069462317059856105e+03
-2.757480830108509963e+03
-2.638689761052804897e+03
-2.539974182920027033e+03
-1.811665680169320012e+03
-8.378181445792964723e+02
3.512063614038781623e+01
6.967667710346008789e+02
1.006699807278553521e+03
1.408049054580858183e+03
1.856860632733784087e+03
1.795201169033847464e+03
7.160613277244542587e+02
4.321275387597447804e+01
3.205879423518746876e+02
6.103192257571858903e+00
4.508918725899438584e+01
-2.767982877252351841e+02
-4.326862589502957235e+02
-4.695447396372264279e+02
-7.850536585096581348e+02
-8.282579263292816449e+02
-5.055361399080990736e+02
-2.729532445953522597e+02
1.595004699348202450e+02
1.092726301854974281e+03
1.586657629023784239e+03
1.867328361199242863e+03
2.409816266868588173e+03
3.113050189082188353e+03
3.229964178924245971e+03
2.899374800969977514e+03
2.726289691713786851e+03
2.515677882012919326e+03
1.727430585514042605e+03
4.325149405552067492e+02
-7.651775854124049374e+02
-1.082755708602120649e+03
-9.650770735599101044e+02
-1.462196200694609388e+03
-1.633181793874971163e+03
-1.836064155999883042e+03
-1.995921960124938096e+03
-1.714704967703789407e+03
-1.192518344260141021e+03
-7.545114643080977430e+02
-3.008167612583539494e+02
3.365084661096581726e+02
1.102476733916854073e+03
2.213943445180271738e+03
2.529625320496509630e+03
2.262376842677303102e+03
2.174157919011450304e+03
1.662834678112104029e+03
1.172269753857595106e+03
9.544245812703743468e+02
3.691380238155319944e+02
-6.188778644308023331e+02
-1.328773523765476966e+03
-2.060733937986077763e+03
-2.330822974393358891e+03
-2.281042633178735286e+03
-1.771723687668423281e+03
-1.215126389833056919e+03
-6.352533417042835708e+02
-6.242138872451280349e+02
2.077502724516592707e+02
1.583508482959317917e+03
2.217006963445025121e+03
2.528079850723445361e+03
2.633614427398033058e+03
2.802396989422409661e+03
2.928178502357536672e+03
2.683214153826550046e+03
2.124366256517335842e+03
1.378154179939544292e+03
3.692964644081220058e+02
4.905405442152097066e+02
-6.024239651321808253e+01
-8.682881925673760861e+02
-1.078769111879350476e+03
-9.332456940164310026e+02
-5.730581448612291524e+02
-3.584137665667194028e+02
2.576418122778772499e+02
7.119224912784154640e+02
1.000134232825379627e+03
1.720176968375925753e+03
3.122903933822362433e+03
4.104090389012884771e+03
4.493011284579564744e+03
4.234410455131898743e+03
4.545808534694563605e+03
5.070204750922124731e+03
5.277558596075042260e+03
4.902670146140508223e+03
4.451659917493854664e+03
4.591067544796102084e+03
4.672535330277608409e+03
3.992559443665866638e+03
3.119493124301535772e+03
3.268614628108321995e+03
3.601389713896239300e+03
3.487114172176088687e+03
3.587945879025029626e+03
3.998288359489595223e+03
4.657389772599445678e+03
5.554448518820723621e+03
5.826049803167011305e+03
6.451537792841785631e+03
6.802643096199610227e+03
6.553224231904536282e+03
6.334866065771529065e+03
6.073887399644659126e+03
5.665435112904430753e+03
5.083380249132753306e+03
5.075323697358156096e+03
4.265563620856642046e+03
3.152598833342790385e+03
2.191504405919827605e+03
1.297792112447828458e+03
8.465808433898218937e+02
1.070847391163612883e+03
