7.435253580922864103e+01
-1.035275053145249302e+01
-4.345839844921302841e+01
-4.409106298247397859e+01
1.537544960805819301e+02
3.640580550097076866e+02
3.817926101242855452e+02
3.040085259322643196e+02
2.167089082804131195e+01
-5.232757433746160558e+01
-3.044903049259731986e+00
1.476468619785131580e+02
5.057589973561629790e+02
3.702899600387497117e+02
-5.317747653667657914e+02
-2.755358755692886461e+03
-3.695298442009556311e+03
-2.665828012442060754e+03
-3.658007554441648153e+03
-1.017754692478037100e+03
1.779145889617943226e+02
5.009668103024224592e+02
-9.026090800010731527e+02
-1.547748325050796211e+03
2.225477366995791613e+02
-5.818032024613052045e+02
-1.780774620377841075e+03
-4.133278686085518530e+02
4.964729819644454665e+02
3.316936233485030243e+02
1.753987620067012472e+02
-1.985127160505340385e+02
1.779527142858215427e+02
-2.619983843544353874e+01
-1.588009769565877036e+02
-1.494959087345795297e+02
3.668435417829117000e+02
5.862930216408934712e+02
3.048492251294173911e+02
5.266565122230510951e+02
4.298019865073094934e+02
1.699369100465121676e+02
3.918715521506538835e+02
8.056283166908981741e+01
-4.131104158354164611e+02
-2.422783824231932783e+02
4.929054987906566794e+02
7.525909613243632066e+02
3.819673713244213786e+02
4.962379491059542715e+02
3.616041601110656529e+02
4.311604306640755340e+02
2.377378716156048597e+02
5.924531005549208373e+01
-3.542438208596460640e+02
-4.359006863064392689e+01
5.001291463271461453e+02
3.327306749362024902e+02
2.151995212661040000e+02
4.166027849069135414e+02
2.559877809065161784e+02
-2.924393555493473968e+02
5.152232070047503498e+01
6.108494633471290172e+02
5.462998879812710129e+02
-3.493109040770456772e+02
-1.006026794291651186e+03
-7.587740591486777930e+02
-6.095567363354754207e+02
-9.582031940635674800e+02
-6.955889829689682529e+02
-2.665587882081938460e+02
-1.607196470365969390e+02
-3.899711094174731443e+02
-5.824675642214319851e+02
-3.590467337454508083e+02
1.269380838896051671e+02
1.334631906029469235e+02
-3.275165770886163159e+02
-6.580450747895818040e+02
-7.769896880593847754e+02
-1.022221224097047525e+03
-8.884472797948534151e+01
7.987707183415074041e+01
-2.570174057448835470e+02
-1.218280410770196021e+01
2.753791165663859033e+02
2.175148813782340369e+02
2.870477640098415577e+02
3.957354675505210366e+02
1.227611710227939881e+02
1.603605760831604812e+02
1.274973048816205363e+02
4.103648288681492673e+00
-8.269110862974966381e+01
-2.777269246261719005e+01
3.082662239766988321e+01
1.889930434114769469e+02
4.026456171382491220e+02
2.347137759984972263e+02
5.024092976209773553e+01
6.337760694490572888e+01
2.960803115321926953e+02
1.881642725057874372e+02
-3.832503157245677698e+02
-5.159370697520065505e+02
-8.057374637619238911e+02
-4.865111162730296996e+02
-5.342285416894384298e+01
-2.867027277934597578e+02
-7.753372356391867015e+02
-3.473692751343496070e+02
-7.080093190309493423e+01
4.222055774602494260e+00
-5.810275780559760506e+02
-8.603248363903999234e+02
-5.346337702819614606e+02
-2.980779653472703785e+02
-2.139548773632275243e+02
-5.503660810053536352e+02
-7.403150415267034532e+02
-5.597032351575214761e+02
-4.586260373894556892e+02
-8.534577728640780947e+01
4.334148448957332107e+02
6.959374046269713290e+02
6.961752273228370314e+02
7.122296298836413371e+02
5.953976191729902894e+02
7.095222488024077165e+02
6.533093111606715411e+02
1.856583022449209182e+02
2.339180311563896453e+01
2.814011322832425321e+02
4.136605933788826519e+02
3.503379558727564245e+02
4.244797521526745641e+02
4.928852636486503798e+02
3.845601272404934434e+02
7.046129066093815254e+02
7.581630946479551767e+02
5.560412528971803567e+02
-1.427565655640538296e+02
-5.698795661321020134e+01
6.524280071477700176e+02
6.724035704738764707e+02
7.470658628734032618e+02
5.941885673518762587e+02
9.136454342907364889e+02
4.190825817510793172e+02
3.306671970930389648e+02
5.087414719188988101e+02
3.743218317677453797e+02
4.144884929791575701e+02
8.673048804902152824e+02
6.879207198350359249e+02
8.319956511867893596e+02
8.974634543159304485e+02
9.625282946998034959e+02
7.295782481416747487e+02
7.545516109623438297e+02
5.934930826022667816e+02
6.226781087755439330e+02
9.091379900236346430e+02
7.028731125516688962e+02
4.952847587491908143e+02
4.942920587489638820e+02
3.950858822920788498e+02
5.107543099544906795e+02
7.937474957340619142e+01
3.859040030861631294e+02
1.088238924218521333e+03
1.122331387380983870e+03
6.057012641631864653e+02
6.090546623827659687e+02
9.921351628749247311e+02
1.129115479417900133e+03
1.117893389864712844e+03
1.446169359194953131e+03
1.319091591742161881e+03
1.576779591382676699e+03
1.390376231731648886e+03
7.685695799886650548e+02
9.002266147528100646e+02
1.576390275535930186e+03
1.297357570515285715e+03
1.051234810203163306e+03
8.318229428404844157e+02
9.838091426917522995e+02
1.894297085850483199e+03
1.846307378543813911e+03
1.793742955673595361e+03
1.577760301534275641e+03
3.915384034879082833e+02
-8.296338635383320934e+02
-3.525777579263767166e+03
-2.468270595356626472e+03
1.176626040609731035e+03
1.944584473460444315e+03
-9.404215421787138212e+02
-3.928078573293422323e+03
-3.966363099228394276e+03
-4.455463857048978753e+03
-4.365385858694889066e+03
-4.813818610226770033e+03
-4.483541904878053174e+03
-4.325739218447089115e+03
-4.769513603165953100e+03
-5.160632154142324907e+03
-5.603961777556034576e+03
-5.172513599029043689e+03
-1.794846481437758712e+03
9.250269256031822351e+02
4.133262479762394292e+01
-2.653663016035962301e+03
-3.235823217773151555e+03
-5.343340933788191251e+03
-5.741033545750740814e+03
-6.280137499009422754e+03
-6.901800053572853358e+03
-7.914869752938865531e+03
-9.066272622868029430e+03
-9.279529342157798965e+03
-9.213802119547824987e+03
-7.276972030271014773e+03
-5.964965890106891493e+03
-1.991783692350417596e+03
3.723799440774947925e+03
4.828285014512507587e+03
2.177390698529396104e+03
3.329669355463251122e+03
3.392914790419584278e+03
1.371544174487843293e+03
9.319880448659699823e+02
-1.225158267507152630e+02
8.068499060786164137e+02
6.003088403565197950e+02
1.618506297752005594e+03
2.694916974811132604e+03
3.297819645178124119e+03
4.397081989248557875e+03
5.783752191456266701e+03
6.307054076649968920e+03
6.357645588382313690e+03
6.181716558545000225e+03
6.080528043813506883e+03
6.214786211707257280e+03
5.741468976494921662e+03
5.679690189034501600e+03
5.038581435385388431e+03
4.593249092531708811e+03
3.955990534263659356e+03
4.065280162098312758e+03
4.208730762693305223e+03
3.993406199925419060e+03
3.100610177950433354e+03
2.540395578674710123e+03
2.458173564922147762e+03
3.209077042515154062e+03
3.424114354967028248e+03
3.521420960195047428e+03
3.768106926154360735e+03
3.864812393355714448e+03
4.244937015583404900e+03
4.161870907718486706e+03
3.624794703739308716e+03
2.960746624470876213e+03
2.507490299678158408e+03
1.713466915217522910e+03
1.798563420021384445e+03
1.353963475328794402e+03
9.209126219615581022e+02
1.429191380800222532e+03
1.490516949047104845e+03
1.460304419178118678e+03
2.318996519199087743e+03
2.769678730812340291e+03
2.748866202348703155e+03
2.681048136675016394e+03
3.263044699314339596e+03
3.347084235033493769e+03
2.300949423964277685e+03
1.490942747734210798e+03
8.560626340695120007e+02
-2.955752787387264675e+02
-1.153768790111821318e+03
-1.800737448811827335e+03
-4.017136079156498909e+03
-7.738543853549642336e+03
-1.316157451186128310e+04
-1.758273536937131212e+04
-1.795615494574005061e+04
-1.627584027631785648e+04
-1.485191105769078422e+04
-1.314390872758424121e+04
-7.886273992047749744e+03
-6.892307890526038818e+02
3.290368469071705022e+03
5.453203880737277359e+03
7.009100187226476010e+03
7.377336607347258905e+03
6.324041706962651915e+03
2.616188480916159733e+03
-1.987540005465946024e+03
-5.031395793671904357e+03
-6.358494912016362832e+03
-5.125807160122928508e+03
-2.395889535022027303e+03
-1.843995714538390757e+03
-1.476863348011150038e+03
3.520284949501217397e+02
2.462042263911998361e+03
3.697915100881603848e+03
3.392962655166455988e+03
2.255562440774511742e+03
7.647949489588463621e+02
-4.955533477845416996e+02
2.959752560734414715e+02
3.921816302501085829e+03
7.495888108031829688e+03
8.158770554779959639e+03
6.384485848101634474e+03
2.966238667459130738e+03
3.269571465351032202e+02
-3.246462809840129921e+03
-6.412063889591679981e+03
-9.897147237430335736e+03
-1.259832406582879958e+04
-1.252932472765718921e+04
-1.132090495531310262e+04
-9.786172880160818750e+03
-6.252596663370973147e+03
-3.930516463138765630e+03
-1.426222136287375406e+02
1.347581692632007389e+03
4.813802337346954232e+02
-4.156799277335154557e+02
1.770171234153043088e+03
4.454695092518633828e+03
3.488292909605224395e+03
2.398501122769127960e+03
4.882833861775795413e+03
7.510508039298235417e+03
8.946665239380527055e+03
9.253541498588794639e+03
6.416622768515959251e+03
4.254654954728103803e+03
4.497312162756255930e+03
3.891133246851503372e+03
2.018617728794623417e+03
1.798279193367303606e+03
2.969738346093875862e+03
4.944736742171699007e+03
6.897793594583068625e+03
7.070227303039643630e+03
5.620256410538880118e+03
4.151200519216274188e+03
3.220855197249743469e+03
1.879928746673233491e+03
-9.924597975281704976e+02
-3.248863826802003587e+03
-3.955638751195755503e+03
-3.502283398035142454e+03
-3.526324600959417239e+02
2.399739613927486516e+03
2.453042551869039926e+03
2.222834638404315228e+03
1.346982134661188184e+03
6.830350025988389007e+02
-2.519028085641001326e+03
-3.749035787027569313e+03
-1.428146575171126187e+03
2.471625720898076906e+03
5.789448357519539968e+03
6.178465943113038520e+03
5.520233974853638756e+03
4.364274869025394764e+03
4.036000740699651033e+03
2.527381412826979613e+03
-3.224107789266181499e+03
-6.162859234118725908e+03
-6.349829362205393409e+03
-7.270525289299369433e+03
-6.792772063458752200e+03
-1.662247533220882815e+03
3.561518990351503362e+03
6.291569615879935554e+03
7.916493072141234734e+03
7.415413023459024771e+03
5.132023801335230928e+03
3.028708036745215395e+03
3.515208713004590209e+03
4.176470075095922766e+03
2.491739662750320349e+03
5.232440002094236888e+02
-2.777826619567492230e+02
-2.181657942502281458e+02
-1.874090727707252427e+03
-4.145695207020546150e+03
-5.021575699810297010e+03
-5.383319068339146725e+03
-4.852915855375031242e+03
-5.227368570441145721e+02
1.647169894060925571e+03
3.960401130774433227e+02
-5.490190831138186695e+03
-1.017472514306040466e+04
-1.258748096967875426e+04
-1.324936877112024558e+04
-1.254785174309435752e+04
-9.493949020837904754e+03
-6.690222801222412272e+03
-4.897996622792839844e+03
-2.704270427319963801e+03
2.045516487098958805e+03
2.199544982420807628e+03
1.579618247338500225e+02
-5.121717627685568459e+02
1.838244494804878514e+03
5.148314658393273930e+03
6.245975146833146027e+03
4.125190016007835766e+03
1.955021489999849337e+03
5.195470492892535503e+02
4.100571109780337906e+02
1.179142429867411010e+03
4.990845081366773428e+01
-2.828850722335344472e+03
-3.550400174444323966e+03
-2.021666827086137118e+03
-1.129271236735516304e+01
1.170961050307584173e+03
3.434629135274500186e+03
3.204931226334815619e+03
-9.262708086246320249e+01
-1.212910366116975212e+02
6.906780956610278963e+02
7.734440549654970027e+02
7.189172149753727581e+02
-1.822038027861692626e+03
-3.793200704223231696e+03
-2.629055487847263976e+03
7.669603373620767570e+02
2.217093110850486482e+03
-1.949001987896747607e+02
-2.111799737744020604e+03
-3.442887057144096161e+03
-6.160564816199312190e+03
-7.378440000247326680e+03
-6.164382004997867625e+03
-6.323933621103809628e+02
6.076224897231932118e+03
9.465503459512332483e+03
1.066250278742527553e+04
7.883393441669111780e+03
3.775423761520392873e+03
2.650959347538011571e+03
2.056847217930253009e+03
-1.402522156132388318e+03
-5.733072609960707268e+03
-6.524726724255306181e+03
-4.355086144975586649e+03
-4.699312540703886953e+03
-6.728395944796979165e+03
-6.122016275277276691e+03
-2.729352782242175635e+03
1.446481621534433316e+03
-1.219551897440023595e+03
-5.618635146905715374e+03
-7.817075722853896877e+03
-6.284667041875148243e+03
-4.818210176568275529e+03
-2.958775211233143182e+03
2.672382154375622122e+03
3.822143184226565609e+03
4.056361329154055511e+03
7.815886200802842723e+03
1.041348402599118526e+04
8.699278178145741549e+03
6.132119342175065867e+03
4.138571024244502951e+03
1.523930490172252576e+03
-2.443097352496828080e+03
-3.945492852308852889e+03
1.237585765510563760e+03
3.776928977061940259e+03
2.177689707052545316e+02
-7.846169325304726954e+03
-1.215089925102768757e+04
-1.088428434725281295e+04
-5.847470448835029856e+03
-2.771241441635225783e+03
4.620138045199896624e+03
8.344474727023884043e+03
5.906592132189547556e+03
6.867430663284436378e+03
5.518889077832233852e+03
4.601759793603440812e+03
6.277902958788796241e+03
3.593491104921475653e+03
2.773362309387835467e+03
5.038494428632283416e+03
3.805909091083240128e+03
1.859212230078439916e+03
5.523255778656701978e+02
5.842023286296467859e+02
2.554746635283759133e+03
9.209781314905014369e+03
1.029130915975256357e+04
5.068258435944427220e+03
-4.143838421298221988e+02
-2.885717513622122169e+03
-6.062885751848830296e+03
-4.011100528331127862e+03
1.394593229490106125e+02
5.536776700942541538e+03
1.448581195797612781e+04
1.315134448789026465e+04
6.064157162077262001e+03
2.414116876083118768e+03
3.145162729022681560e+03
6.321157545689277867e+03
1.108104653212105768e+04
1.382599123010411313e+04
9.184936142506472606e+03
1.646575475731251117e+03
-6.188525359611623571e+03
-1.406231841231894396e+04
-1.505783616114654433e+04
-5.000349983376175260e+03
1.545096918745641005e+03
-6.386996765939278475e+02
2.082120932577026906e+03
-2.773530374764792668e+03
-1.764475121090060929e+04
-2.733569630286630854e+04
-2.154858613277837139e+04
-1.455441600697434114e+04
-1.883111636788192482e+04
-1.060274816124750396e+04
4.681613944369773890e+03
1.258184655243729503e+04
1.854776926418735457e+04
1.666928521716647447e+04
5.370487642056324148e+03
-2.785478547452374187e+03
-6.833504060021288751e+03
-1.409069810399428206e+04
-2.367035771083315922e+04
-2.265874926156870424e+04
-1.495803896339609491e+04
2.690656670784349899e+03
2.301999880459642736e+04
3.677766278972663713e+04
3.524368852011321724e+04
3.152006919347734220e+04
3.047069477834530335e+04
3.096260618933475780e+04
3.221285033325827317e+04
3.022768817596389999e+04
2.377027068516160944e+04
1.308547347102425010e+04
2.261632736539466180e+02
-1.026389285569171443e+04
-1.272786146822995761e+04
-1.246165217601925360e+04
-1.934321889006421770e+04
-2.343368783296223410e+04
-1.716017519289403936e+04
-3.973635770576101095e+03
3.266018893929724982e+03
1.402290140954647541e+04
1.062408075654430650e+04
-1.695338460738483991e+04
-3.226264287331516607e+04
-2.295592872556349175e+04
-1.675228311004133866e+04
-9.003504776614930961e+03
3.085629175294903689e+03
3.151382053332290980e+03
2.839798835166022400e+03
1.913951723604250446e+03
-4.207993756154702169e+03
-5.620701377328895433e+03
-3.059218497715255580e+03
3.746403917560245645e+03
1.080626318384605474e+04
1.329960275881314737e+04
1.225879038821543872e+04
1.326841601917297794e+03
-5.905138044269535385e+03
-1.162581153244721827e+04
-1.089395166611716922e+04
1.733492233249926358e+03
-1.946889393841908316e+02
-9.973436549936590382e+03
-5.723923083236836646e+02
4.028511221936186303e+03
-1.558694056538599943e+04
-3.893763229918243451e+04
-6.645137585332250455e+04
-6.571102405913941038e+04
-3.912820177547954518e+04
-9.862721933082922988e+03
7.100328944706623588e+03
7.165140169790307482e+03
1.770659408153038044e+02
4.941587923751191056e+02
-2.553618319143525241e+03
1.384687320200745035e+03
1.161820015157434500e+04
1.379719779392112468e+04
2.126292016900885938e+04
1.342257276859049489e+04
1.419427918489724652e+04
1.754518022153888887e+04
1.363259245715265206e+04
2.868664319077201526e+03
-3.185553565518273899e+03
6.061992880217705533e+03
1.048114834869596052e+04
4.957043681334534085e+03
5.425045724648715805e+03
3.768307819835353712e+03
-3.927958859829156154e+03
-1.433964626920000410e+04
-2.564842759711938197e+04
-2.894526885594591295e+04
-1.860630393978791471e+04
-1.689959537164848371e+04
-1.266901610318227904e+04
8.717522123632624016e+02
1.093791658040428047e+04
1.551764622571299697e+04
2.157503283542006102e+04
2.177734121672190304e+04
1.671610768517711040e+04
1.110432910969019576e+04
-3.954068932988898723e+03
-2.145392038039192630e+04
-1.014924465950433296e+04
1.116364876560339872e+04
2.493477072713626330e+04
2.177332679666416880e+04
1.887650706860546416e+04
2.556054315817958923e+04
2.555570100498015017e+04
2.155516148708312903e+04
1.513381824217572284e+04
1.034869889210016663e+04
7.176063783106294068e+03
5.946086127259494788e+03
7.067810689444201671e+03
5.124219831181435438e+03
-2.214571062849147438e+02
-2.432099306046571655e+03
1.078292794834766028e+03
6.101782668970676241e+03
5.947201390860298488e+03
4.561384878468038551e+03
5.394899952671487881e+03
5.497795803790986611e+03
1.047187237112071443e+03
-3.840764826689684469e+03
-9.303672587169452527e+03
-9.617749845314008780e+03
-1.094029431542278326e+04
-6.458264330265223180e+03
7.924940882439236702e+03
1.151159061599170673e+04
8.913779336291023355e+03
7.486218512871039820e+03
6.662801020084970332e+03
5.973222086036355904e+03
5.516248650735003139e+03
5.836352972976124875e+03
4.817337434770253822e+03
1.537633852355555973e+03
-2.780528465406750456e+03
-8.000135317894270884e+03
-1.162107830603911316e+04
-8.352531570589429975e+03
-4.199883979338833342e+03
-1.966871711744480990e+03
-3.324283025445686235e+03
-5.635257613857633260e+03
-5.033026911433612440e+03
-1.154710614398375128e+03
-3.441345585665835642e+03
-4.327103392706671002e+03
9.091633926875944098e+02
3.633873479657733242e+03
1.934575434821614408e+03
1.719780415016007282e+03
-1.278338006625550406e+03
-8.729747080437258774e+03
-1.532729558918531438e+04
-1.652516528995427507e+04
-1.176066942950399243e+04
-2.849176716816254157e+03
4.311386030919203222e+03
1.754223133514758274e+03
-5.471770472859096117e+03
-7.803690304948419907e+03
-5.823479297765805313e+03
-2.276316116256428359e+03
2.944895036508438579e+02
-1.857568374328335494e+03
-7.120779527367131777e+03
-9.619102620438252416e+03
-7.247469451488862433e+03
-3.683651531137535130e+03
1.343428768127607100e+03
4.202454591170693675e+03
1.491301222541191237e+03
-1.836871700355703069e+03
-4.732000355321019924e+03
-3.567447119683471556e+03
-3.808592448930383853e+03
-4.304340619154700107e+03
-1.105538493671004289e+03
2.463865457455437138e+02
1.081035052382892587e+02
3.633402303698172773e+02
2.023519114498239105e+03
-1.262167532716485141e+02
-3.662111790785555968e+03
-7.861530166916713824e+03
-1.231864125893441997e+04
-9.112629592454612066e+03
-4.863942942960627988e+03
-1.472387782351243459e+03
8.589441937508747742e+02
2.126666278850094898e+02
1.242657524090664765e+03
1.843144177938729172e+03
-2.898822280371949546e+03
-1.552333052140558038e+03
-3.695359093473444773e+03
-1.604813846998732970e+03
3.014068874917278663e+03
2.443609150073229557e+03
1.393833753386311855e+03
9.651639513447761374e+02
3.699674585262243198e+01
-9.189408793891662981e+02
-1.902138669408500846e+03
1.039368181397599642e+02
2.148317570538568361e+03
1.884488387356394469e+03
1.631539866487984455e+03
2.007871831617705993e+03
1.942154921176520929e+03
8.734770571820761234e+02
-6.032380581645408029e+02
6.197662090612128623e+02
6.887842028030413530e+02
1.535626188309469626e+03
4.410983869462324947e+03
4.052059206550206454e+03
3.154913134280414397e+03
3.190505305194583798e+03
2.574682322542726070e+03
7.611585969687091620e+02
-3.785680441834920202e+02
-5.581433474939681219e+02
7.069613669635726865e+02
2.096822593488610892e+03
2.513226163257633743e+03
1.778244221570323361e+03
3.374767168998498619e+02
9.886516843934606413e+02
2.515490838873892244e+03
2.903510452566265940e+03
2.183338953067704551e+03
9.197162045561493642e+02
5.325710635609742667e+02
-7.334061538967899878e+02
-2.060462006560416739e+03
2.713517542186888321e+01
3.776459329801897184e+03
5.359163815468904431e+03
3.706567020907236383e+03
3.401803299220207009e+03
4.199994858797664165e+03
4.107684114081359439e+03
4.696002607179428196e+03
4.101169238652244530e+03
4.157912339013118071e+03
4.362659482045218283e+03
4.405796288611768432e+03
3.780242133063852634e+03
2.171212575485334128e+03
1.273461209390345630e+03
1.253402909434518051e+03
1.861803636225822402e+03
3.059100584179786892e+03
3.434600722632034831e+03
2.771351248252373352e+03
1.941557640692950599e+03
1.419784594332123106e+03
1.650889933060514522e+03
1.614786934778398745e+03
1.002225368023272495e+03
1.124577214747262133e+03
1.258252065237831857e+03
4.475313439607978694e+02
-2.962083660448026308e+02
2.704228841862608235e+01
8.437219664571905469e+02
1.471030922226213079e+03
1.923085912717146812e+03
1.567106103041415963e+03
1.378058529824760853e+03
7.628858836752987145e+02
6.685285524323309119e+02
1.077226741104888788e+03
9.704715073860238590e+02
7.058877407094555565e+02
3.289045193841171226e+02
1.095829550039556608e+02
-5.195612645473388511e+02
-4.786401768163236170e+02
-9.399576563112550787e+01
-2.847278509983034951e+02
-3.406076236687543997e+02
-7.943805220679066679e+02
-1.021686144691642880e+03
-1.288944477077722013e+03
-1.163148795434465683e+03
-1.193038016188387473e+03
-1.137096662021701377e+03
-1.096127584861281548e+03
-1.324060224442252093e+03
-1.926092254258285493e+03
-2.181715198019522632e+03
-2.600113409433794914e+03
-4.868174325936977766e+03
-6.747682452277922494e+03
-6.457182342552509908e+03
-7.710072667303247727e+03
-8.241588421214069967e+03
-6.972060678230744998e+03
-1.947654311330985365e+03
-2.760039320947263150e+03
-5.244908237758047107e+03
-5.543381176751994644e+03
-4.104555970336786231e+03
-2.858143577350241230e+03
-2.200628115426125532e+03
-2.151139682742541936e+03
-1.416604266215097596e+03
-6.662492732042819625e+02
-7.575636258808782486e+02
-1.380266695557876346e+03
-1.250229543457192221e+03
-8.186678107867584231e+02
-9.327128337282663324e+02
-1.397291200484356295e+03
-1.107743707207020179e+03
-1.444785976006852707e+03
-2.051887019285376027e+03
-1.393866109237592354e+03
-1.430638819101036461e+02
7.030756115946137470e+02
5.008229141660969503e+02
6.056713948887908145e+02
1.046050427857784598e+03
1.013526937467031757e+03
1.445607826690354386e+03
1.996590078498314369e+03
1.883970180137365560e+03
1.927529974950165069e+03
2.034860005019923165e+03
2.198657746740602306e+03
2.457780115072859189e+03
2.089104493501529305e+03
1.906927715613608370e+03
2.326105157862315991e+03
2.697246588045144108e+03
3.317554290702442358e+03
3.677681731234406925e+03
3.441094402160525988e+03
3.230096339665257801e+03
3.246255871291692074e+03
3.123456452308739244e+03
3.280210681299992757e+03
3.392283385931575140e+03
3.371852713121961642e+03
3.044011669710162096e+03
2.775101113765260834e+03
2.811977287530114154e+03
2.964089720565630159e+03
3.256958506963000673e+03
3.516839001666269724e+03
3.635677433325126458e+03
3.422953621126236158e+03
3.174513851550267646e+03
3.094367467554302038e+03
2.771784844675506520e+03
2.971067038227617559e+03
2.826262796127517049e+03
2.584588414935134551e+03
3.033552412871205433e+03
3.388585243493585494e+03
3.294012710426022295e+03
2.870893126226743789e+03
2.760232308723614551e+03
3.023947486937740905e+03
2.865872389521348850e+03
2.774320868253272238e+03
2.137643994929145720e+03
1.494754751973984639e+03
1.124342145374111624e+03
-1.633855295855965096e+03
-3.339393445953794526e+03
5.647945600763729317e+02
1.873588298006986633e+03
-1.781941765587538157e+03
-4.951367161706461047e+03
-2.281538314004310905e+03
-8.012889200143858943e+02
-2.011965202525867653e+03
5.454085416325453650e+01
-2.774188408885137051e+03
-3.130124785553623497e+03
-1.275600050333884155e+03
7.698565795651359167e+02
-2.764796009486955427e+03
8.046631547218402147e+01
1.556680941515127415e+03
-4.841385900222630880e+02
-3.967026245643825860e+03
-3.840864273156635136e+03
-3.953475021634709265e+03
-4.346705888941904959e+03
-2.631342229971422967e+03
-1.282408931107185936e+03
-3.715376674690971868e+03
-4.729415936592084108e+03
-4.997484175244005201e+03
-4.869305108209594437e+03
-4.747786136068541964e+03
-4.561146744018369645e+03
-4.590662601198033371e+03
-4.624894595188537096e+03
-4.241044472596342530e+03
-7.476311488246645922e+02
1.324553913839303050e+03
-1.125181670893540513e+03
-1.424983152104238570e+03
-4.226066596701201092e+02
9.773919458477458875e+02
1.254093912597472809e+03
1.689155942800482080e+03
1.312043399907836147e+03
1.661250739050110042e+03
1.830732889338064751e+03
1.734159431124985531e+03
1.745948669362770488e+03
1.805852376876128574e+03
1.822501578362858254e+03
1.546699442213970997e+03
1.191422062022937098e+03
1.129949791019735130e+03
8.175380043625433473e+02
1.017040111533509503e+03
1.270321853091229968e+03
1.633388828241864530e+03
1.555734691678266927e+03
1.483194761648254143e+03
1.383143807029128993e+03
1.590952783226734937e+03
1.411647656956603214e+03
7.968707438224222415e+02
4.217087249498673600e+02
1.530182428845927461e+03
1.112000983542610129e+03
1.126009632738035407e+03
7.843948216746182425e+02
5.330877043411494469e+02
8.500292916873077047e+02
7.987348912649266595e+02
1.171096646934921182e+03
1.153938728629272873e+03
9.612438859833654305e+02
1.132442934206801510e+03
1.617570532650258883e+03
1.544629826313340345e+03
1.867590216639167693e+03
1.542622489553903733e+03
1.045520852338862596e+03
8.972853604526254685e+02
6.944002345842211525e+02
8.143966973427286575e+02
1.068509996553384553e+03
1.326347514050045447e+03
1.222778555625577610e+03
9.341447100702499711e+02
8.941827172170462745e+02
1.042649458118931989e+03
9.500022105031579258e+02
8.510318526024040011e+02
4.028192481597794767e+02
4.969711045735368771e+02
7.174810722428533154e+02
9.034031181273726361e+02
1.196695168240808698e+03
1.396325595631638180e+03
1.216262125610182238e+03
9.535614117059925547e+02
1.030259669938387333e+03
1.200119451201959691e+03
1.092165480277283905e+03
9.983831375044298966e+02
7.935676613734416378e+02
8.928662648745849992e+02
1.420350313828753542e+03
1.919924495917469130e+03
1.584618903428146723e+03
1.068556498757836380e+03
9.746649342712701127e+02
1.320886704242989254e+03
1.509092599431123972e+03
1.383184132343476676e+03
1.154234876613773167e+03
1.308355161749981789e+03
1.328619929423096437e+03
5.428112356281619668e+02
-1.040194755199796418e+03
-4.252334344746865099e+03
-5.210488269908144503e+03
-5.003627333528655981e+03
-4.530819106005948015e+03
-3.992949501231181330e+03
-4.120977377240466012e+03
-4.322188645609018749e+03
-3.697822153317369612e+03
-3.345767879384787648e+03
-3.527763547134567034e+03
-4.297897512767020089e+03
-5.384263227507816737e+03
-5.451822806037975170e+03
-3.791678869955253049e+03
-2.586556895569329981e+02
1.569185485619467045e+03
5.688239064695814022e+02
-1.684696350754766399e+03
8.466634813822520300e+02
3.035974836693073030e+03
6.472117615252128644e+02
-3.676673094984317686e+03
-2.672704461950228961e+03
-1.995332948846034071e+01
-1.048392644329521090e+03
2.290631682199270642e+02
1.480458475659536361e+03
2.600773907964962291e+03
3.136962774519112827e+03
2.759059805145208429e+03
2.143157366528016610e+03
1.996221146726337338e+03
1.932202019804250995e+03
1.510180978971756986e+03
1.385181926741281814e+03
1.405151624427899151e+03
1.468012295609698867e+03
1.662764888861128611e+03
1.130415903927117597e+03
1.592063695192673322e+03
2.319667148846724103e+03
2.791276580003400341e+03
2.371901879337981882e+03
1.906480034476524679e+03
2.358082320699827051e+03
2.572692216165186437e+03
2.387371526212151821e+03
1.775108879495666088e+03
1.682933281831063141e+03
1.635819819925160118e+03
1.247729163537931754e+03
1.218736842065913379e+03
6.468472511200797044e+02
9.860755004651612126e+02
1.404395354812263804e+03
1.013849036422886570e+03
8.014191816910599755e+02
4.900696703211919498e+02
4.748094542052473344e+02
-8.733391781418598043e+01
-2.813235721124600559e+02
-3.051159565920880254e+02
-8.447401202578222410e+02
-9.732177120197740123e+02
5.355885722698967584e+02
1.591863091341932432e+03
7.796335590093044630e+02
4.389532317323253778e+02
8.256521740754786833e+02
6.573664363203766925e+02
8.277720120494641378e+02
1.034337196118369093e+03
4.131856524312676697e+02
-9.967571736794650405e+02
6.272983773320237333e+02
1.709276704852070907e+03
1.573248353679525280e+03
1.560388444906772520e+03
1.556593173511433179e+03
9.629122522321309816e+02
3.343883472964072894e+02
2.409654001890370125e+02
3.955316532987262690e+02
6.340631653380851276e+02
7.826202528785128152e+02
1.521920366104938864e+02
6.470384658578537085e+01
2.002164449764925394e+02
3.677280924068454055e+02
5.231443252882060051e+02
9.264210148221088730e+02
5.585497919785015029e+02
1.495618520071543003e+02
-7.458525212284841643e+01
-7.690061645951801950e+01
-5.964285961777463854e+02
-5.621713277795232671e+02
7.484301543507051235e+01
4.806159913804930284e+02
4.961874661825877411e+02
-6.252519148146185302e+01
-7.655566381047455025e+02
-8.889075238083090653e+02
-8.705362248795192954e+02
-5.664426766736266927e+02
-5.666937121310974135e+02
-9.393173801929008278e+02
-8.483938623167883861e+02
-3.789160158894702590e+02
-1.698504970307050712e+02
2.397820859176019042e+02
5.729721977836384212e+02
8.708642726995464045e+00
-9.130713833020383845e+02
-1.420379857777085590e+03
-1.769210880261665125e+03
-2.007579290706321217e+03
-1.922456752697244156e+03
-1.781896463550348471e+03
-1.539917427062325487e+03
-5.055728838972835320e+02
9.711974970160447640e+01
-3.878269371232712501e+02
-1.189408639293650367e+03
-9.736764363870638590e+02
-7.376427980204683763e+02
1.507405302803578024e+02
6.153596261240718377e+02
4.422524381838039176e+02
2.503964192775686399e+02
3.497362561400412346e+02
1.512321277964519481e+02
2.099270585689804136e+02
3.437860044735129463e+02
2.227651161310497230e+02
-3.221508809889531335e+02
-6.479949384394858498e+02
-1.483753438783872070e+03
-1.940423269369846594e+03
-8.629886976203283666e+02
-7.985128811005160969e+02
1.190753995222205077e+02
1.459980829185253981e+02
3.848363942845507495e+02
5.717220434119857373e+02
8.088820738701056143e+02
1.011267464464661089e+03
1.164301762198491588e+03
1.009292781686909507e+03
7.522811849621710962e+02
1.174177301756202041e+03
1.362149773923870725e+03
1.491082676225139494e+03
1.321797839387284057e+03
9.131302567788249007e+02
8.047140408303507684e+02
8.770318561330267357e+02
1.024969817845363650e+03
1.371812679476342055e+03
1.723596512156231029e+03
1.388183092164097161e+03
7.326086434759369013e+02
4.927239784942694882e+02
2.915218590753071908e+02
9.691114646253570299e+02
1.514598648262598545e+03
1.648856428376134545e+03
1.949852574722252484e+03
2.120545705413316227e+03
2.284911742184532613e+03
