-1.361524542244660324e+03
-1.651790854439093891e+03
-1.967984523238760630e+03
-1.855385967830866548e+03
-1.523030937349856231e+03
-1.873922640657644024e+03
-1.548238619400646485e+03
-8.175446674606481565e+02
-6.920776094594876895e+02
-3.356348354309330375e+02
-8.134029326575446817e+01
8.767189445828488488e+02
2.473791125044910132e+03
3.306524422144148502e+03
3.155984738370741525e+03
3.227172826620607339e+03
2.713915335492169106e+03
1.600437486917355500e+03
3.618392823330433998e+02
-6.878919557615803342e+02
-1.011239082395386276e+03
-9.470011713496177208e+02
-9.682513247167638610e+02
-1.049007156135480045e+03
-1.619097063188576840e+03
-1.787827653120750028e+03
-1.694772618991172521e+03
-1.202030444628459463e+03
-2.499511868787266735e+02
4.095326617351614118e+02
7.334533582477341724e+02
1.236090854613701140e+03
1.735138280388662679e+03
1.880801707152784502e+03
2.060152767356201366e+03
1.675999547793231386e+03
1.369362521714036120e+03
7.336683349184350789e+01
-9.720510644866162693e+02
-4.839556943237203654e+02
1.595837419517826561e+02
-1.654888633312074830e+02
-9.892905350894263847e+02
-1.252826794983015134e+03
-1.666030810909673164e+03
-1.429877389743277718e+03
-1.259328839124785191e+03
-7.224085864727979924e+02
-1.140557472166634625e+02
2.516507429770915394e+02
9.907558775344759852e+02
1.476289112182750841e+03
2.343298287552745478e+03
3.404902567509821893e+03
4.186156680787248661e+03
4.087079992931526704e+03
2.115733961467307836e+03
1.479521278436606906e+02
-8.394752805459421552e+02
-1.469620963788206836e+03
-2.483430850090892818e+03
-5.734818697142490237e+03
-5.561887808318593670e+03
-4.068509892823858081e+03
-3.467740020089217523e+03
-4.406456359858959217e+02
-2.966171784214289801e+03
-3.124266731790798985e+03
9.360712489118927806e+02
2.184871272595095888e+03
2.731209598940663454e+03
1.125111568389575268e+03
9.365841139876559964e+02
2.113702815884552820e+03
-1.744101384169124742e+02
7.732691859265947869e+02
1.063736695374650253e+03
3.624006209886228589e+03
2.871060591443828798e+03
1.048788595023049993e+03
-2.377799595914739257e+03
-1.023637811097827580e+03
-3.279657843840058376e+03
-5.362906737607907417e+03
-4.576396717572663874e+03
-3.390128228350816244e+03
-5.881151788454462803e+03
-2.671391153572614257e+03
-2.417788785733105215e+03
-2.369322964734038123e+03
-6.239806750945422209e+02
6.752753802988891039e+02
2.813531632687063393e+03
3.390876790997888747e+03
2.727425339022589924e+03
1.978143973466626221e+03
1.686967809634888454e+03
1.125845780364439406e+03
9.198163771077514639e+02
1.248972059346211608e+03
7.453126640455421921e+02
6.828242384347279312e+02
8.824360608549661720e+02
7.461848251830642766e+02
-2.129553882748908507e+02
-1.081005566227055624e+03
-1.605890668369680043e+03
-1.652574040510501163e+03
-1.087035800410344109e+03
-4.562719341474833072e+02
-3.822350616786211503e+02
3.491461320553422070e+02
2.137889737686690296e+03
2.700923957897917262e+03
2.751393330603465074e+03
3.481360510307546519e+03
3.559166956577545079e+03
2.507919970169839871e+03
1.692421743856818011e+03
1.112695415122972463e+03
4.552761677615500275e+02
-2.626211322711151865e+02
-3.903744582787944069e+02
2.340662211730955846e+02
1.009069445082257289e+03
1.834158844623421203e+02
7.333943400083433062e+01
8.868013045648787056e+02
1.208433928809633244e+03
1.295712805832117056e+03
1.311778525506412507e+03
1.263764977568062704e+03
1.576152134865775224e+03
2.262315180888867417e+03
2.194485567966007693e+03
1.551162102832862729e+03
1.078320977461165967e+03
8.563937739451997686e+02
2.213654390175291837e+02
-7.239378193811505753e+02
-1.361748743455721524e+03
-1.029845718963423224e+03
-1.543682279848303835e+02
-4.055282554880780310e+01
-6.545522875663493778e+02
-1.736410280517892261e+03
-2.339113823841127669e+03
-1.851565136590303609e+03
-2.032693614374723666e+03
-1.656577276245423946e+03
3.428079995367165225e+02
1.770541735493510487e+03
1.405668150494339443e+03
9.231889690135885758e+02
9.930778731246010693e+02
1.138390080184635281e+03
7.281057213098963530e+02
1.134135429179096946e+03
1.662441046714021923e+03
1.961960278887008371e+03
1.696641073049894658e+03
8.614383998645829479e+02
-3.745849755606397480e+02
-1.732356685873024617e+03
-2.121013737918590323e+03
-9.436339006545407528e+02
-2.951220190190537664e+02
4.915437269030895777e+02
1.652250236885788581e+03
1.389882280881371571e+03
5.154225780406229660e+02
7.969198239946402964e+02
1.366479469597453772e+03
9.291517931923427795e+02
1.058973134640502394e+03
1.632909503820029158e+03
2.799904904149570939e+03
2.898921818359553072e+03
1.613940379043277744e+03
-7.741426559415268684e+02
-1.953365131235655099e+03
-1.102713177263867919e+03
-8.011886890347326471e+02
-2.831788885526123067e+03
-5.627527109284174003e+03
-9.132438547538451530e+03
-9.367516479223651913e+03
-8.594688662121618108e+03
-7.825034836809057197e+03
-7.243652575979090216e+03
-7.141420025032277408e+03
-2.723316138862733624e+03
-2.692570132222625148e+02
5.738373774750922394e+02
9.549876371956764842e+02
1.500198762831881140e+03
2.902512569787571010e+03
2.806819267114493869e+03
1.718009829420296910e+03
6.498459620200360405e+02
-3.907064558311445808e+02
-5.816676763084570894e+02
2.239904560395310966e+02
5.672614189119144612e+02
-7.248831890176097659e+02
-9.394120363939083518e+02
6.706269498670391158e+02
7.842026078694736952e+02
9.031038421287449580e+01
5.040310188181205717e+02
1.442416631462303485e+03
1.545468280239438400e+03
1.192232197819366547e+03
7.377297312030829062e+02
7.928824190758692794e+02
1.916736666738658187e+03
2.332361798124777579e+03
2.356762505975231761e+03
3.011941159642459297e+03
2.865837283319326161e+03
2.163418132078079907e+03
1.947748951272420982e+03
1.125822490539883802e+03
1.075559968794374754e+03
9.699225896167275778e+02
2.579857057771253039e+02
-9.422342587178820850e+02
-1.966210608735143808e+02
1.262872158167584075e+03
1.686206575164275364e+03
1.650322087134636831e+03
2.498195057971325241e+03
3.163828094286337091e+03
2.781290678538657630e+03
1.889638690032378690e+03
1.575939767322762009e+03
1.868282543276116485e+03
1.430683654899112526e+03
3.430631540613318293e+02
2.152342602053399219e+02
3.081447920945114447e+02
-7.125140689951403772e+01
1.579660078058646491e+02
1.301906883805062762e+03
1.370972084515687357e+03
-8.810018913432951138e+01
-9.312571113449702125e+02
-1.642600819653797316e+03
-1.855020108494581336e+03
-1.631481206969598588e+03
-4.228960156261425709e+02
7.598893858371851593e+02
1.202898483263501475e+03
2.074138119328589255e+03
2.800604419385928850e+03
-5.787452817844067567e+02
-2.995737842491502761e+03
-1.203299926023061062e+03
1.780367696169068267e+03
-1.033878765787104612e+03
-2.068010962341673803e+03
-2.868039118034225339e+03
-4.777031013295722914e+03
-5.250095121383619698e+03
-4.389255440500794975e+03
-1.404415515896149373e+03
-1.727513317156122639e+03
-1.971497629879821261e+03
-1.103379389986494971e+03
-3.055178882088513546e+03
-6.078103565083407602e+02
3.937870998067038499e+02
-7.684241676387127882e+02
8.476601595236212461e+02
3.204111433267773918e+03
2.737962026813082048e+03
-2.377620810512031255e+02
3.218954030196647409e+02
-2.075132098720564045e+03
-1.724038851852572634e+03
-3.406800733298834075e+03
-4.253123639000606090e+03
-2.563975356795544940e+03
-7.084463658416477756e+02
1.973434905117702840e+02
2.726335873587245473e+01
-2.563585415332373941e+03
-9.540867904373179726e+02
-4.002174628647346708e+02
-2.139976850146568722e+03
-1.017455620391724779e+03
-2.373712367190863915e+03
-1.211556305949966827e+03
1.261953734557459711e+03
4.959091181460415214e+02
2.631345378724966395e+03
3.416146098386228914e+03
2.837274534824413422e+03
1.686790560232522466e+03
6.226773368008035732e+02
-4.850837043618236635e+02
-1.038468655824647158e+03
-1.150625609145552289e+03
-9.585835397307042740e+02
-3.182672938480968696e+02
-2.877463722282910794e+02
-3.639979454114354667e+02
-5.789670392393602469e+02
-5.924437202202606159e+02
2.925736124472123265e+02
7.879494057572854899e+02
9.909029896008897822e+02
2.492451207471870021e+03
3.975490191036214583e+03
4.216062140556357917e+03
3.647171852978259267e+03
2.884765631958443919e+03
2.678648369140081741e+03
1.780054026903924978e+03
1.596946257443350987e+03
1.251780844186452214e+03
7.017623805901517926e+02
4.100331228106787762e+01
-3.362655383314059918e+02
-2.039322940715037191e+02
1.274562672084001065e+02
5.347433298691269101e+02
5.470745677801346574e+02
-3.815404203897475668e+02
-6.189323170597451735e+02
2.116001415064998241e+02
1.069498989091184058e+03
1.617606487200212314e+03
1.342622954732662492e+03
1.377590269766718393e+03
1.661172872546654617e+03
1.806228878550376976e+03
1.955923885223001662e+03
2.566646273175078477e+03
2.532652772650454153e+03
2.282989541473630652e+03
1.598365811632857003e+03
7.197529823677346030e+02
3.217156393037928410e+02
3.902732233865055491e+02
5.736059218468346899e+02
1.549456433818007781e+02
5.107312993618780439e+01
2.944878994496203717e+01
5.654785079017336784e+02
2.042740198341200994e+03
3.006859012321076079e+03
3.118101438453104038e+03
2.713736751695164457e+03
2.336632108400724064e+03
2.625596267204573905e+03
3.204599930467486956e+03
3.477419753610447515e+03
3.116715121199257737e+03
2.691432230458962295e+03
1.908717302585019070e+03
8.786535218054694951e+02
1.971542182909145993e+02
3.132309761279157669e+02
1.670454521785523525e+02
-2.323893318611530674e+02
-1.959312285484947438e+02
5.137402465904906421e+02
9.017093612048299747e+02
-5.742400482392148433e+02
-2.542104128799591763e+03
-5.641635190989422881e+03
-5.849663242255463956e+03
-5.073990233281113433e+03
-4.266727796209689586e+03
-4.557215034088922948e+03
-5.283897063275597247e+03
-6.106208051212731334e+03
-4.957166803526031799e+03
-8.132782197740076526e+02
-9.224789972842223733e+02
-3.944932915488162052e+03
-5.350608248826076306e+03
-6.379517505344123492e+03
-6.901746576351601107e+03
-2.980190197899643408e+03
2.452116586714635673e+02
-1.116831855736906078e+02
-4.490012265902982108e+03
-4.007642407432059827e+03
-9.344069669275960450e+02
-3.232236657226879288e+03
-3.770920638753761068e+03
-3.764324651332471149e+03
-3.586579596105585097e+03
-3.180723852150166749e+03
-2.307726920883003459e+03
2.022273422509906823e+03
4.263080046236260387e+03
4.031633092631366253e+03
2.793019268512555300e+03
2.094448506476013790e+03
1.536087432877887977e+03
1.000967418417456088e+03
8.339747303823895663e+02
3.181636725006732149e+02
1.544672148231398410e+02
4.007042991667366323e+02
1.249033953905307726e+03
2.009674013887187130e+03
1.924735870200197724e+03
2.140221864926380931e+03
3.161233929526805241e+03
3.732940024762947360e+03
4.160282101125635563e+03
4.337185448943871052e+03
3.747618504830660640e+03
2.385716877069259681e+03
1.866564522487730528e+03
2.220264969554398249e+03
1.821935799294493563e+03
8.105773149456866804e+02
4.980337506029774772e+02
6.040862731346260261e+01
-7.442659787577658790e+02
-1.163039373080799351e+03
-1.353794630137597096e+03
-1.351389642953083239e+03
-7.568662309881146939e+02
-2.121246821575643438e+01
3.837973653169244130e+02
1.044320285215827880e+03
2.384493588498707595e+03
3.018529813545182606e+03
3.198693307505488065e+03
2.616192116641150733e+03
2.013171198586294850e+03
1.126665189442672272e+03
1.745235956345252646e+02
-8.384000989482536852e+02
-1.426090116263033678e+03
-2.409697339310336702e+03
-3.418168002233464904e+03
-3.578655425685835780e+03
-4.538154274907478793e+03
-6.327563839130990345e+03
-6.668839733648304900e+03
-7.316848677702319947e+03
-7.224754076364107277e+03
-6.101320365640840464e+03
-4.766660267384740109e+03
-2.604791963020141338e+03
9.432791781358426988e+02
4.350522670478124382e+03
6.743076164641553987e+03
6.460054145219468410e+03
5.179497240726751443e+03
4.119420206054143819e+03
3.724780185922988039e+03
2.980482566702480653e+03
2.118509068121719338e+03
1.673065400194524273e+03
9.821355268335738629e+02
-9.145965466204637551e+01
-1.218578263877280506e+03
-1.454105409992038403e+03
-1.005085482548304071e+03
-7.995709335571492602e+02
-5.648357394637616125e+01
4.412428061993549022e+02
2.466743679508353182e+02
-2.651610637947208033e+02
-4.044015239311849541e+02
-7.402245938336571385e+01
5.940092248087610187e+02
4.887142961416184903e+02
-2.198391316226585275e+02
-5.456507981563922840e+02
-5.588216857482800606e+02
-1.681297365403420827e+03
-3.206179917693746575e+03
-4.185486158322463780e+03
-5.102145187018389151e+03
-4.396120430936742196e+03
-2.809592555547240863e+03
-1.561662579453782882e+03
-1.036274107959165349e+03
-9.673967179145039381e+02
-1.519086601047524027e+03
-1.588359947849152377e+03
-1.565115896020961145e+03
-8.753006753515066976e+02
1.078007776410846873e+03
3.795725936278347945e+03
6.276873466488238591e+03
6.238519638626172309e+03
5.013652395701551541e+03
2.699106538977528089e+03
-1.077197297004180427e+03
-3.870377695142322409e+03
-1.494588312996225341e+03
-1.546736375603604074e+03
-1.487740933120255704e+03
-3.195542027604484701e+03
-4.105260541817398916e+03
-4.844165897831520851e+03
-5.091402329454368555e+03
-4.094982355897874641e+03
-3.140876766421446973e+03
-2.632094278948737156e+03
-2.548780744547597351e+03
-2.347965924342961443e+03
2.906463813249778809e+02
4.161932140125554724e+03
6.053647651717113149e+03
6.126530217670755519e+03
6.970764779608552089e+03
8.114073786951038528e+03
7.689433781069827091e+03
6.180917937767450894e+03
4.348377746505685536e+03
2.665615713666617467e+03
1.560357775208746261e+03
6.748322472566638908e+02
1.679091791536172025e+02
1.374223793196714212e+02
6.565529274528504402e+02
1.005780982889164648e+03
9.511036663871411747e+02
1.495690836053055818e+03
2.147368022454575112e+03
2.817040788382166284e+03
3.808854173429185721e+03
4.969954266502550126e+03
5.809965538214250955e+03
3.848923906553103734e+03
1.470545668356102624e+03
1.963014161741057251e+03
3.345257232692556499e+03
4.027981686505615016e+03
3.634051659103509792e+03
1.871491243275929719e+03
9.122194438146420907e+02
1.068327473423599713e+03
1.878494200524037069e+03
3.032720280507829557e+03
2.837157368918175052e+03
1.757567747234112176e+03
2.454173218418598026e+03
2.445768698152004163e+03
2.388201200911015349e+03
2.773692985157932071e+03
3.253972414193066925e+03
3.719021701848191242e+03
4.185887439721700503e+03
3.849589372860923959e+03
3.682107816293031647e+03
3.619437909579489315e+03
2.149503141777781366e+03
-1.297305601544739204e+02
-1.387305147381494407e+03
-3.737374893692294336e+03
-6.545952503938629889e+03
-8.762105057052775010e+03
-8.622842034412453359e+03
-7.741165200630564868e+03
-8.042111879144113118e+03
-5.179637734785842440e+03
-2.033658138380589435e+03
-1.835322343415341265e+03
-1.410691369996455023e+03
6.132314759920767955e+01
1.549833858304457181e+03
1.308640214667184694e+02
-1.244546602523566207e+03
1.586355915609481428e+02
-4.029698062042149559e+03
-6.924464162942827897e+03
-5.457631540641737956e+03
-6.217190123227281219e+03
-2.980143907491883056e+03
-1.125498052679519787e+03
-3.185299016882489013e+03
-3.990509179081142520e+03
-7.289011903063406862e+03
-7.474569944428002600e+03
-1.017122521054107892e+04
-1.106305306570150060e+04
-1.079194287567114952e+04
-1.519985859247102235e+04
-1.705563982274595764e+04
-1.296139339580668093e+04
-1.110125164428854441e+04
-8.577159882760799519e+03
-8.819011054291637265e+03
-9.279803749979500935e+03
-9.292457200745640876e+03
-1.012188586295978166e+04
-1.047890115264916130e+04
-2.146239488056616756e+04
-2.850937683797084173e+04
-2.282386304901407129e+04
-1.184879583163048119e+04
1.855772075378667751e+03
1.219581493530439366e+04
1.895344709304911521e+04
2.074775419090348441e+04
1.670972305350681199e+04
1.567140691609023997e+04
1.926391333151965591e+04
2.214641886031097238e+04
2.398799182314450081e+04
2.722367747801261794e+04
2.778752550702717781e+04
2.452562858569302989e+04
2.038516190764729618e+04
1.731321062861479732e+04
1.392078252856576182e+04
8.493987155833227007e+03
2.172904365858355504e+03
-2.870433334052818282e+03
-8.186963310659613853e+03
-1.253263049981629774e+04
-1.380943294658750710e+04
-1.319437124014856272e+04
-1.385839351577742673e+04
-1.561536364282889554e+04
-1.465409687322828177e+04
-9.902192677658244065e+03
-1.295573613447324533e+03
6.981682325045762809e+03
1.295157236714662395e+04
1.444633007460146655e+04
9.921958101038428140e+03
3.650549941434050197e+03
3.489166390396981114e+03
5.264641099502011457e+03
5.631927376572268258e+03
4.799027427711408563e+03
4.256213375655905111e+03
3.467713310565767642e+03
3.595472184039480908e+03
4.409135996170902217e+03
3.241978648553671064e+03
-4.868926553680064444e+02
-3.059283338633971653e+03
-3.544631842695917385e+03
-4.140204975852025200e+03
-2.799229405033056082e+03
7.273450609530427755e+02
3.340524118234648995e+03
5.347400570536956366e+03
7.593949679534082861e+03
8.372144997481938844e+03
7.299816845240815383e+03
5.555178890212205260e+03
3.526201250421584064e+03
2.726863519004127284e+03
2.984169580002983821e+03
3.697053596937780640e+03
3.785554028090007705e+03
3.566648528082116627e+03
2.521368122549555210e+03
2.347014346263146081e+02
-1.049359757002516517e+03
-1.961830877577920774e+03
-2.352741350435326694e+03
-2.859019536141739991e+03
-2.512703963253298298e+03
-8.878114525152666374e+02
6.747275703727303835e+02
1.246872931468437855e+03
7.316780912921836943e+02
7.491770804284684573e+02
5.054581805424401182e+02
2.505490975550144981e+02
4.283350640915888903e+02
8.198548381588307166e+02
2.461354038663810684e+02
-1.889898398780831812e+01
-2.482715118431524104e+02
-1.304946071017636996e+03
-3.230965502664070755e+03
-5.313465818566234702e+03
-8.223474462643594961e+03
-1.222500100775905776e+04
-1.611906827345586680e+04
-1.917266133964151959e+04
-2.143180083227430077e+04
-2.122458265237803062e+04
-1.901590154361392342e+04
-1.574170195395695555e+04
-1.201992983724644000e+04
-6.607757274917636096e+03
-2.291906071503518660e+02
4.780826361559134966e+03
7.968250677180915773e+03
7.690027568580630032e+03
5.797158208689501407e+03
3.725619557951525621e+03
1.819315742831234957e+03
5.243516628623661973e+02
-1.053223765023186616e+03
-2.119548941981699954e+03
-8.026752553880190817e+02
2.658276153707073718e+03
3.634209910799150748e+03
3.795050656255336889e+03
3.772652675980883032e+03
4.104846145028182946e+03
4.591622493143902830e+03
5.160956915009400291e+03
5.795041113551256785e+03
6.178915674566050257e+03
6.494597268616658766e+03
6.429023204053869449e+03
5.412176060283733023e+03
4.816023514251649431e+03
4.547479319844332167e+03
3.612498834841942880e+03
2.796123574134878709e+03
2.192357654332566199e+03
1.780139089719669073e+03
1.093359125969355773e+03
3.839867351837112892e+02
-2.740106192078799268e+02
-5.176588570436816781e+02
6.077024119264622826e+00
-1.369166006640643829e+01
-3.050546408662102635e+02
-6.050581996406220924e+02
1.402231787265515663e+02
1.304820459230234974e+03
2.123747008033598377e+03
2.220990128613019806e+03
2.435491631796997808e+03
2.130322173286098405e+03
1.594537482620825813e+03
1.348086107582120349e+03
9.709296050038674366e+02
2.619034414784549085e+02
-6.960868514330569496e+02
-1.701077880502159132e+03
-2.700050629207993552e+03
-3.344038249463643751e+03
-4.037004441364759714e+03
-4.225984002391121066e+03
-4.042934192491713020e+03
-4.028840993555967998e+03
-4.074826880879781584e+03
-4.202018514668830903e+03
-3.787455704919905656e+03
-1.929933659526584734e+03
-1.090290692882138046e+03
-1.110519632073330513e+03
-1.540529021687150589e+03
-2.422177381793887889e+03
-2.547308214443600718e+03
-2.758989324084280270e+03
-1.030527008161534013e+03
1.460834935519845885e+02
-1.046240073270534594e+03
-3.390452680847339707e+03
-4.435542705320370260e+03
-4.184609897073381035e+03
-3.734741204087598817e+03
-3.744854652569259088e+03
-3.240870344463935908e+03
-2.428780942436676924e+03
-2.040803078369807281e+03
5.869005431393468371e+02
3.221419642399213899e+03
3.757872087016154182e+03
2.849211595213329474e+03
2.360431332633121656e+03
2.182662892911716881e+03
2.125026282775006621e+03
1.811575931720366953e+03
1.460330199201317782e+03
2.049300405159113325e+03
1.967471346995484737e+03
1.845801549201315765e+03
2.024256469855412433e+03
7.677929236557085915e+02
-1.009612219074309451e+03
-2.309966768430305819e+03
-2.315291886990826697e+03
-1.274522154950278036e+03
2.423518889569611758e+02
1.950279006629602691e+03
3.318248850521586974e+03
2.950292092535693882e+03
2.120679674902475199e+03
2.194516040325112499e+03
2.780595570547234729e+03
3.223833990312429705e+03
3.470297444239179185e+03
4.396098551032746400e+03
4.174277484338151226e+03
2.904754378433922284e+03
2.039454278809301968e+03
8.562477766304926945e+02
-4.769189367738173360e+02
-1.775923615533232805e+03
-2.351707973164582654e+03
-2.572424247797452153e+03
-2.400053163388382472e+03
-1.730539544689263948e+03
-7.318630952273962293e+02
-2.380476532914308052e+02
9.092304651798951909e+01
4.010487924184430995e+02
7.674014191774731444e+02
1.264956532699751051e+03
1.619708085771081642e+03
2.415784878476304129e+03
3.602282725083755395e+03
3.887147776219248954e+03
3.815493099460264148e+03
2.906326670623712744e+03
1.642610290939723882e+03
3.881250574498264427e+02
-4.562029981882004677e+02
-1.009301999211220163e+03
-6.204787263903103849e+02
-5.198531665907986508e+02
-8.552364408544453909e+02
-1.196686495478767938e+03
-1.040294520717140813e+03
-1.033227216763908700e+03
-8.416208365847602124e+01
5.180448754459874863e+02
1.602553635530616987e+02
4.389556908614420649e+02
6.391143876642047417e+02
4.560865110759814911e+02
1.625885372469046075e+01
-4.276257976905723126e+02
-1.775758654188644186e+03
-3.200792836824436563e+03
-4.190868075014588612e+03
-3.693949765362235212e+03
-3.573495459718081293e+03
-3.762031851661462952e+03
-2.661830092850856545e+03
-1.442739743775131956e+03
9.922926451965266779e+02
2.272335680267299722e+03
1.663921890162692762e+03
9.040157090434737484e+02
8.353878490404334798e+02
6.732080530426291034e+02
2.347488338208840730e+02
-1.562164563756514895e+02
6.706284251227687037e+02
2.067854007352935241e+03
3.281659322391790738e+03
4.286666690217670293e+03
5.784061112097606383e+03
5.377125528765900526e+03
3.881398062047635904e+03
2.809687446559711589e+03
2.489334513081000750e+03
2.334400162189003822e+03
1.745249672588964359e+03
7.707408884100757405e+02
4.775305396839930836e+02
1.060958333131011777e+01
-1.909593040739001140e+02
-2.783294678883203801e+02
-2.783180618179912358e+02
5.343864098758286900e+02
1.627989585193855646e+03
1.548556792820734017e+03
1.488135035239178706e+03
1.722895618950768494e+03
2.342022523694389747e+03
2.776541608667636410e+03
2.797571042057557406e+03
2.320113670410642499e+03
1.596997409314334163e+03
2.320149396540994360e+02
-2.838760389608287824e+03
-6.197188783425685870e+03
-7.714445398313120677e+03
-6.691950521969812144e+03
-6.244165422132246022e+03
-6.359164702124321593e+03
-5.155787156457208766e+03
-5.099785187002888051e+03
-4.855790463741534040e+03
-2.154544752313033314e+03
2.351610275176852156e+03
2.464612625699920955e+03
-1.960388630940252597e+03
-3.271296387882402087e+03
-2.274198585682977409e+03
-2.143041237669085149e+03
-2.257867348198617492e+03
1.262240761474137798e+03
3.097454202317579075e+03
2.404002951672359359e+03
-5.670961416002903661e+02
-5.448887852249109528e+03
-7.030346494762105976e+03
-7.339706874014734240e+03
-7.668150359825565829e+03
-7.025549132516558529e+03
-6.701934107341640811e+03
-6.411409723705775832e+03
-4.221791379822380804e+03
-3.788169240379712477e+01
2.038344804524056826e+03
2.705988890087996879e+03
3.648051550081240293e+03
3.594514801845720285e+03
3.708403603807814761e+03
3.625743458369148811e+03
3.280579447795636952e+03
2.797998517169749903e+03
2.388159417327169194e+03
2.361032845131685917e+03
1.925550112686025386e+03
1.454732667916785203e+03
5.606658018123021066e+02
2.013087556038435935e+02
4.416041211687127657e+02
1.165948242836572035e+02
2.772965133717920594e+02
5.583326420885042296e+01
-7.583945442268367287e+01
9.153525517362505752e+02
1.588494990799996458e+03
2.294688450333962919e+03
2.850950502209645947e+03
3.245301633107193993e+03
3.371726115559602022e+03
3.698265982911026640e+03
4.013066203735532326e+03
2.865283491870840408e+03
1.452925854209687031e+03
5.450403268828040382e+02
-3.050876291023698172e+02
-1.090341693726839367e+03
-1.649788751598897989e+03
-2.396442523083420383e+03
-2.007452200384645948e+03
-7.498413108067451276e+02
1.098185298586507770e+03
1.127358084147024783e+03
9.084140953310535451e+02
1.507721341800061282e+03
1.712345519960149431e+03
1.860921920969559551e+03
1.839488368517713070e+03
1.616433156708274510e+03
1.195178249674958579e+03
1.608710542724813649e+03
2.013965837477253444e+03
2.372000988686288565e+03
2.121773889268624771e+03
1.322127094178297739e+03
7.890727467254109797e+02
1.337751166737346011e+02
-8.728958286517901115e+02
-1.741045202982848195e+03
-1.643742307023081821e+03
-1.742089396245491571e+03
-1.384980262654276885e+03
-1.302312468140886494e+03
-6.410659114999290296e+02
2.547364914465669870e+02
1.012189749990180530e+03
1.570391529524893713e+03
1.734323036085378362e+03
1.261978595351871945e+03
9.784501947095367314e+02
6.977398756127070101e+02
6.558009856771925570e+02
2.266078762250190266e+02
-5.727817171077446119e+02
-9.504085390595522540e+02
-1.556243806868923002e+03
-2.233273627741213659e+03
-1.606596350071239158e+03
-1.459187090636022731e+03
-1.059988687550944860e+03
-7.900235173927708274e+02
-4.853533309660397208e+02
-4.190259738027162371e+02
4.701368999071787158e+01
3.798412558558730439e+02
6.813877189190243371e+02
1.304677099605351714e+03
1.877823837095615318e+03
2.115848988948875103e+03
2.097727266028166468e+03
2.293465997176672317e+03
2.280091249213236097e+03
2.190626518309824405e+03
1.334991903983784596e+03
1.351902792355813290e+02
-1.337729642377966911e+03
-2.402887943119686952e+03
-2.606308797766312637e+03
-2.747944388837371207e+03
-3.166824912909945397e+03
-3.771012187296884349e+03
-4.077555946921741452e+03
-3.679591207036557080e+03
-4.889080047053394082e+03
-7.764989073445061877e+03
-9.329309971747492455e+03
-3.190997525552657862e+03
1.358935078895905235e+03
2.899537259337514115e+03
2.715567487564283965e+03
1.801994530133308899e+03
1.242987009370094938e+03
1.116662219657741616e+03
1.027919481243005976e+03
-1.363752395921489722e+02
-7.603357162844127970e+02
-8.348475981049537040e+02
-6.969448618406757987e+02
-5.477970231782902601e+02
-4.383888986533506795e+02
-4.879891313286326522e+02
-7.436799947605176158e+02
-8.872991635474679697e+02
-6.927163273636059557e+02
-3.598979150988835158e+02
1.371648218452644699e+02
5.504634932573937931e+02
8.559974539611714590e+02
1.536694210659926512e+03
2.037429663568199203e+03
2.200203396800430710e+03
2.275035088353361971e+03
2.349916177427543971e+03
1.949908427241801519e+03
7.960604216052581705e+02
-3.606293294481933458e+02
-7.062847355645074003e+02
-9.120018162281023706e+02
-1.436895186537634345e+03
-1.881057351014609139e+03
-2.207526075942016178e+03
-2.153170823546779047e+03
-1.792933865558896741e+03
-1.440847069551019786e+03
-1.000906794902568663e+03
-1.610670219345350063e+01
1.674534933957100066e+03
2.526887056954632953e+03
2.951062207472556111e+03
3.562174782034550844e+03
3.360209615528609447e+03
3.014150589394820599e+03
2.983047025546868099e+03
2.619913862778237672e+03
1.915654289766009697e+03
6.132270197312780056e+02
-2.973902997061695714e+02
-5.842929821989740731e+02
-1.026572109546393449e+03
-1.188173362798282824e+03
-1.205001057988096591e+03
-1.007037606970703223e+03
-9.182711789921424952e+02
-7.188224137056255358e+02
-3.017137490496185137e+02
2.879845535864503177e+02
1.060226517331343075e+03
2.130225434552294246e+03
2.564038499962666265e+03
2.753652233110610723e+03
2.457097552457300480e+03
2.299329504427129450e+03
2.204287472556263765e+03
1.894906032939692977e+03
1.268108678499397683e+03
6.579314538148136080e+02
-3.495198500439063878e+02
-1.232216394915285946e+03
-4.111209110942034386e+03
-6.175468950221666091e+03
-6.859210668069712483e+03
-6.333499674982617762e+03
-5.033213020945016979e+03
-3.072343875004724396e+03
-4.905893337749022976e+03
-3.664703256349153889e+03
-5.016373275278733104e+02
3.542326509186228805e+02
2.454950406332665807e+03
4.548446554643484887e+03
4.738683554827116495e+03
1.727623094674077493e+03
1.943201115134242627e+03
2.143521800881333945e+02
1.914012051464526166e+03
-6.067881725055154902e+02
-3.831371034141362770e+02
7.000653213394123213e+02
4.258953892845347013e+02
-1.413668364197343180e+03
-3.686714844116945642e+03
-2.539236186321180867e+03
-3.521146095021824294e+03
-7.494030119296641033e+02
-2.687069700831338196e+03
-9.592379810438394543e+02
-1.980890304982485759e+03
-3.500119612555928370e+02
3.313620098753066827e+02
1.740387999757033640e+03
8.792369868649977889e+02
3.530855230458794722e+03
3.663153180456307837e+03
2.342144055837173255e+03
1.343837688753983002e+03
8.082362946093682012e+02
2.263011805821887492e+02
-4.896520810520480893e+01
-3.075780582680592943e+02
-4.855376458531200683e+02
-9.968765082834794384e+02
-8.316101739385495648e+02
4.263171951848645449e+02
1.371990096865713440e+03
1.441410454744632034e+03
1.454573074714431868e+03
1.650495553487974576e+03
1.854245320181678380e+03
1.933895882020821773e+03
2.318514663660505448e+03
1.983986730453906603e+03
1.298285649627503972e+03
9.835551486203301010e+02
1.122115691697670400e+03
4.259830011987048124e+02
-7.850978450233211561e+02
-1.310124648926351711e+03
-2.119528818592220603e+02
6.943143235787750882e+02
-2.624654499109748826e+02
-1.533318671651149771e+03
-2.369062672362132616e+03
-2.087022344267059452e+03
-1.014353184439260417e+03
1.534213207475445984e+02
2.804488566481282987e+02
5.365895411352348674e+02
9.588698717749291518e+02
9.833623644666854489e+02
9.590016386907723245e+02
3.787308391052934553e+02
-4.605264294604788589e+00
5.310995704118258800e+02
1.080968175933201564e+03
4.200529483661546237e+02
-1.385651628658032735e+02
6.030891696444905392e+02
7.809025368480673706e+02
2.385410185353709522e+01
1.439399341968572230e+02
6.349416352365443572e+02
3.390092134358658171e+01
-5.731362875876642420e+02
-7.762994531929391542e+02
-5.866786940708694829e+02
2.838337676416541626e+02
7.752385229056242224e+02
1.282542993415319870e+03
1.660789507599238277e+03
2.149020749599001647e+03
2.558309714620896102e+03
1.772712603590445269e+03
1.072196130233682197e+03
7.526884789001413765e+02
2.871747725015002857e+02
1.915775069769988761e+02
6.918325779551863661e+02
3.239179548990805984e+02
-6.194588915129207507e+00
-1.006439351216859905e+03
-2.001803861422729597e+03
-2.579345102361027784e+03
-1.816028626980695890e+03
-6.819097807628286319e+02
-4.859369556990261572e+02
-6.750603227388412506e+02
-7.682651636412361995e+02
-3.195835494979800160e+02
7.200842720945917108e+02
1.018841256898449956e+03
3.165365601796331774e+01
3.305163852984175605e+02
1.073454379914028095e+03
