3.571731271684706371e+03
2.535831952638724943e+03
1.561678415211873244e+03
7.771147147737109435e+02
2.652668438335430778e+02
1.111027935900124675e+02
3.176188059025609505e+02
8.669435766844305817e+02
1.552141488317342464e+03
1.293093893492211919e+03
4.261169522888531702e+01
-9.633164933461941928e+02
-1.770623520587964776e+03
-2.239345381294551771e+03
-2.467510072043750824e+03
-1.811165221556200777e+03
-2.001342350346845706e+03
-2.891121543994243893e+03
-3.010505984644612909e+03
-2.318341508259416969e+03
-1.650574734290538117e+03
-2.117186783678286702e+03
-2.355213308145444444e+03
-1.911794657514006076e+03
-1.629895541726751617e+03
-1.692325339907935358e+03
-1.511082757768575902e+03
-1.727275881601909532e+03
-6.619320344533125535e+02
-2.859079349904980631e+02
-6.461595351090180657e+02
-1.300761865815550891e+03
-4.316756801019933846e+03
-6.680221271931903175e+03
-5.000145860573587925e+03
-4.864359654948706520e+03
-5.176653540028349198e+03
-4.588911629522415751e+03
-3.782333375613289718e+03
-2.219838483530261783e+03
-1.967439718108623310e+03
-3.267445388860851835e+03
-2.908059546895594849e+03
-1.844716434764597125e+03
-2.229087924225912957e+03
-1.157314005976822273e+03
1.088480972958573830e+03
1.841827303168749040e+03
3.394535331077068804e+03
5.228180984797685596e+03
5.938869448249673042e+03
7.379706320049468559e+03
9.188445105051394421e+03
8.874597901454968451e+03
7.048612466169220170e+03
5.913394612623207649e+03
4.854863133071804441e+03
3.956028770988571978e+03
2.260843676938597127e+03
8.333447543405892475e+02
-4.174315874867510843e+02
-2.146533451745898674e+03
-3.168931956874896969e+03
-4.523525475172432380e+03
-5.237422290324620008e+03
-3.660629545942075310e+03
-2.510916421085625188e+03
-5.225378298856552419e+02
7.563865312808845829e+02
-3.777037043759581252e+02
-3.920143814110252151e+03
-6.396977475609082830e+03
-4.608365541865085106e+03
-2.024478703874032817e+03
1.648654543106718620e+03
5.724044501763381959e+03
5.127694636494938095e+03
4.056507548575824785e+03
2.334522568113454327e+03
-8.992073995303906031e+02
-3.445706007755173232e+03
-3.294950920283337382e+03
2.699920279416637641e+02
4.989095766682471549e+03
3.793450930435114060e+03
2.070063455736914875e+03
2.181968520548867673e+03
9.927481641514818023e+01
-2.157003344073840253e+03
-1.182916772839218538e+03
8.067050308147801161e+02
6.484987837198409579e+03
1.245278262302096664e+04
1.201997675690480537e+04
8.605457318267608571e+03
6.312213388383600432e+03
2.288318498702735724e+03
-5.434087459893225059e+03
-5.819058174546381451e+03
-2.374610020375381737e+03
3.238353620903742922e+03
7.668585726211123301e+02
-4.141434188480446892e+02
-2.758627960957013784e+03
-6.511237789281608679e-01
-3.731245576388455447e+03
-1.363365806428085079e+03
1.951016505639968273e+03
2.670915498819077129e+03
3.072458701032574027e+03
3.076706419474254517e+02
-5.274417764390816501e+02
-1.123833100881230166e+03
-5.545413979631081247e+01
-4.906338589202308867e+03
-4.122545250389279317e+03
-6.044106812889635876e+03
-7.363973034786849894e+03
-1.582112419404175625e+03
8.774730628016681067e+02
-3.752165819803983140e+03
-6.065994057310495009e+03
-3.833997665166265961e+03
3.410842244547689006e+03
5.691502708295354751e+03
4.236139295305607448e+03
-9.941846396362966516e+02
-2.746481356675049938e+03
-4.144663840968947625e+03
-6.493608302898275724e+03
-7.328311763105873069e+03
-3.584768968365638557e+03
4.239970327998150310e+02
2.990006040050915090e+03
5.408240272800653656e+03
2.454739406302546740e+03
-1.677519557220619845e+03
-3.553458893344381977e+03
-5.890183994793449529e+03
-8.568730931801490442e+03
-6.460972186700992097e+03
-3.913762360411762529e+03
-1.826018103399027041e+03
9.882454112515603128e+02
1.435021489311454616e+03
4.614067016748232390e+02
-1.071597382679296970e+03
-3.006089126170947111e+03
3.498060291841996161e+01
7.039708209792786874e+03
9.136092248632141491e+03
9.573131289268256296e+03
7.264877854787765500e+03
3.126265168421590715e+03
5.236265703491768591e+02
4.533618194939285786e+02
3.735079314677481648e+02
-2.399870992182634382e+02
-1.982210231491876357e+03
-3.242216920542287426e+03
-2.986954362684794887e+03
-4.684571682848073578e+03
-1.466046522614348987e+03
2.452759496185233729e+03
4.033940334540077401e+03
3.707484092518570833e+03
4.188431128719442313e+03
6.767824600865102184e+03
9.101803508744817009e+03
8.449797275906634241e+03
7.455893529038759880e+03
4.960523368341328023e+03
2.888863940819055188e+03
2.709703588222759663e+03
2.433846044781432283e+03
2.111882900649874273e+02
-1.804366356801940810e+03
-2.591855932128157292e+03
-3.804296619572781765e+03
-3.570595549198347271e+03
-4.491763124135964063e+03
-3.594857988215602290e+03
-1.264790010227135326e+03
-1.992416932363841624e+03
-5.541817804593790243e+03
-9.208046166654055924e+03
-9.939152711856082533e+03
-5.347153578847120116e+03
-1.256012005530451233e+03
-5.106697143522774809e+02
-1.567063243452809274e+03
1.218129995991919401e+02
4.519526169670444915e+02
-8.956695450398740377e+02
3.789600813890742756e+02
6.186387794830882569e+01
-2.141913728116824586e+03
-2.611465273986606917e+03
-3.577861838990490469e+03
-2.514048771104071875e+03
-3.700072390184370761e+02
9.791621713821513140e+02
1.436456983709574388e+03
-1.240962901257488369e+02
3.114115400562500326e+02
1.285948659278382138e+03
1.987553813536099597e+03
3.254279574890560070e+03
3.172146447379586334e+03
2.117088258869187484e+03
1.916161841764369001e+03
2.297454641826617717e+03
3.139901989742196292e+03
3.327494031377341344e+03
3.008290401304492661e+03
3.237276837915279884e+03
3.296223254332537635e+03
1.273007029868814243e+03
-2.432388235991635156e+03
-7.319883694655836734e+03
-1.153148493450825299e+04
-1.222429650658437822e+04
-9.807378123106249404e+03
-6.701738736739396700e+03
-7.383251514779507261e+02
2.789913902470899757e+03
1.907199223550341458e+03
2.252151418014419505e+03
5.364703882239648919e+03
4.038952533347357985e+03
8.639220989074373165e+02
-2.724182645282720614e+02
-1.309742556043073591e+01
1.611800723244941992e+03
3.726233547386053033e+03
3.511148661833014103e+03
2.508576989976779714e+03
1.965471003833800523e+03
1.981669495967724743e+03
9.641472245311009601e+02
8.428410076162994073e+02
1.168619066867045376e+03
8.095259853744711336e+02
7.176528516673622562e+02
2.013912337801103376e+03
2.869297331061189197e+03
2.857736597869053185e+03
2.294274402889263001e+03
1.691799476695259500e+03
9.602625183801751518e+02
5.616070621623805437e+02
1.178939962834596145e+02
-1.422853006019442546e+03
-2.589826746477662255e+03
-2.902098130710739042e+03
-3.372670858711866003e+03
-1.755526936699552834e+03
1.603582438430539696e+02
9.729637666335636368e+02
7.523181747489050508e+01
-6.667758529668002438e+02
-1.191019855301353573e+03
-8.107767849279124448e+02
1.621798519064667516e+03
4.682768319582431104e+03
6.606226387733817319e+03
6.534305309603119895e+03
6.570071022950894076e+03
6.778467867538555765e+03
6.887509603392843928e+03
6.019190045920664488e+03
4.706400503781674161e+03
4.376894734808084650e+03
4.448603436211768894e+03
3.474658759887091946e+03
2.496046657611555929e+03
1.789821090033137125e+03
1.649929112205313459e+03
9.033493706084818768e+02
9.397026355597982672e+01
-2.583462310791101686e+02
3.282860386817048379e+02
1.213873851800523425e+03
1.190458488977944626e+03
8.391056913887504152e+02
1.799752018691423473e+03
2.758441852937556632e+03
2.838214348229595998e+03
2.838054011742958664e+03
2.087197852443877764e+03
1.395660737151091837e+02
-2.877160339629837836e+03
-5.622837906749065951e+03
-6.377416041926332582e+03
-7.199023908333446343e+03
-7.706691023321750436e+03
-7.350450925601487143e+03
-6.955220826224160191e+03
-8.395927460825314483e+03
-8.529723857850392960e+03
-7.779726285326303696e+03
-4.344834709811516404e+03
-3.681706610907791628e+02
-2.988788822068243462e+03
-8.789495138980977572e+03
-8.948348497527264044e+03
-7.854539429259364624e+03
-3.462956658036240697e+03
1.142424249079579113e+03
-1.018371036664536632e+03
-2.748064832640096029e+03
-3.115492003687486886e+03
-3.181626500706654952e+03
-3.560610312689040711e+03
-4.685471285056580200e+03
-5.707197833832388824e+03
-6.509926069424660454e+03
-7.694575655589105736e+03
-8.038946608987715081e+03
-8.121982509943294644e+03
-8.641739466401262689e+03
-8.747209207753177907e+03
-6.179501148246672528e+03
-3.528633764073338170e+03
-4.884667643096126994e+03
-4.017564149601197641e+03
-1.710087082163212699e+03
4.341020425045425327e+03
7.047696707091996359e+03
7.412652086168410278e+03
7.284924821541659185e+03
7.341416145400140522e+03
7.000895866490386652e+03
6.525735486167101044e+03
5.679002345102260733e+03
5.323784805353488991e+03
4.904299893512235030e+03
4.657500394109672925e+03
3.909152173378096904e+03
2.565024668850660419e+03
1.773091132030634071e+03
7.387817028970177944e+02
4.514212982518111517e+01
-1.839438487450684931e+02
-5.411904571988829105e+01
-1.470013198445710998e+02
4.761413515670889183e+02
2.977225177852705656e+03
4.717929978652528916e+03
5.390099361349516585e+03
4.674054488616387971e+03
3.293357354019385639e+03
1.783836251540958756e+03
2.412102316056096697e+03
2.603770091770952149e+03
1.912611872807494819e+03
1.766348911278383639e+03
2.857757331804496971e+03
2.949598970713390827e+03
3.513033868637113756e+03
3.885888165425577881e+03
3.284383628858530756e+03
2.896278244129131508e+03
2.693182471172409350e+03
2.249055347980643546e+03
2.183082446695469571e+03
2.035275178262700365e+03
2.367940757401227984e+03
3.089957904186808719e+03
3.674409961484071573e+03
3.935157911611852796e+03
4.273615914231451825e+03
4.300509706814993478e+03
3.925148137987056998e+03
3.257693078061785855e+03
2.475097685869362067e+03
1.885483675013934544e+03
1.314554679190733623e+03
5.770591544549442915e+02
-4.221096422710938896e+02
-1.494293564678214125e+03
-1.920536996587163230e+03
-1.873627849576384278e+03
-1.939254499020328467e+03
-1.985605270317657187e+03
-1.067767879632280483e+03
-1.146829115767040150e+02
4.815933245653997119e+02
1.603681589346994770e+03
2.328486864174935363e+03
2.157093747702855126e+03
2.159435442715389854e+03
2.328891204615604238e+03
3.076629719931519503e+03
1.883450327798088892e+03
-3.326319619679439938e+02
-1.756545740710890641e+03
-2.164654411214420634e+03
-1.859032257113843343e+03
-1.577591616626484210e+03
-1.162392631077273109e+03
-1.692470536248962674e+02
1.430921339073143145e+03
1.592086008590214533e+03
1.310184171689879804e+03
1.106797523626065185e+03
6.875111701650190525e+02
-7.573950455973188127e+02
-2.220826340532178619e+03
-5.479600798799153381e+03
-7.756489732570549677e+03
-7.877555510071794743e+03
-7.701908031536060662e+03
-6.096527751761112086e+03
-5.517452790380531951e+03
-5.604583109569963199e+03
-4.611882827692722458e+03
-5.394543686565346434e+03
-7.340547871014708107e+03
-7.941967111129617479e+03
-7.800093623959474826e+03
-7.769805463359080932e+03
-7.133020761042598679e+03
-5.972790284820717716e+03
-2.557216964384763742e+03
-4.701420041393892461e+03
-5.958235293864639061e+03
-5.750554053910818766e+03
-5.126147123088942863e+03
-3.574850193627836234e+03
1.851056923742216668e+03
4.515410278725247736e+03
4.957397662264320388e+03
4.266018573187747279e+03
3.330263544571559578e+03
3.022350518923341497e+03
2.358111424242956218e+03
1.267512763800043786e+03
8.794247652934149073e+02
1.965653252780916773e+03
2.783388072476511752e+03
3.016951538733438611e+03
2.626515255575589435e+03
2.086926433317127703e+03
1.705685977566655311e+03
1.664773756932905826e+03
1.427410326847703800e+03
1.491810966701665848e+03
1.591692434986520993e+03
1.050047422982574062e+03
4.441796798348686934e+02
3.779727877942909799e+02
4.854622175889352889e+02
6.348021375143006253e+02
6.579998801906132257e+02
1.222100450997117605e+03
2.250952993132912525e+03
2.377460597257054815e+03
2.724574942036415450e+03
3.051368880894489848e+03
1.961065401920005115e+03
1.289524715806462609e+03
9.477256119488615695e+02
4.307689863066153748e+02
1.326493052798784618e+02
-2.375798720001649542e+02
-7.308578552452665917e+02
-5.923821338866417108e+01
5.882972365404048105e+02
6.986288291313089758e+02
1.098889521712944315e+03
1.982280089142910811e+03
1.549677020624455963e+03
9.719358199403959588e+02
1.058240411498961294e+03
1.283966877381318000e+03
1.055549864899254317e+03
-4.069561313300630445e+02
-2.240780638256406291e+03
-2.655187021822602219e+03
-2.928284158351728365e+03
-2.937237129857190666e+03
-2.629792419494581736e+03
-2.905885870060837078e+03
-2.438685415941964038e+03
-1.453444131620004327e+03
-6.077381551762817935e+02
4.096021970950382070e+02
1.618433230117529547e+03
2.407734972884773924e+03
2.375394208613741284e+03
1.848282215885618825e+03
1.701571818911906803e+03
1.967368595873539562e+03
1.552660888145258923e+03
1.524387418122640838e+03
5.346647607081716842e+02
-1.656495259437391724e+03
-3.162107282250851313e+03
-3.043086735873723683e+03
-2.447435123522740923e+03
-1.676303396603698957e+03
-1.375679146152087242e+03
-2.975183674682560309e+02
-4.577476001528226561e+02
-1.099305916848434435e+03
-1.504151581200893133e+03
-1.484205888964262158e+03
-7.315394998840552034e+02
-3.730628161149069228e+02
-6.328047518708815460e+02
-9.998650475384382617e+02
-4.191968397447395773e+02
2.241584423093885903e+02
2.061407642104080082e+02
-4.712713793211063376e+02
-5.302175312011138431e+01
1.632844579431939337e+03
4.883941454124919801e+02
-2.446433388054186707e+03
-4.443883180426789295e+03
-4.945101295247093731e+03
-4.303053459753334209e+03
-3.507651557755986232e+03
-2.996881742478942215e+03
-1.807634064246379694e+03
2.231955693064615787e+02
1.818666890305158631e+03
1.723694347381896023e+03
4.221506494632357942e+01
-8.097926529884905449e+02
-1.054337982391079322e+03
7.805109539599834534e+02
2.897767638788370277e+03
4.396321594439257751e+03
5.184267871403529170e+03
5.308661858142514575e+03
4.016426967722593417e+03
2.349386587923021125e+03
1.339473365084589659e+03
7.637501576764550464e+02
8.902368864349188016e+02
1.329727074719193070e+03
1.814179940544435112e+03
1.890574120152999967e+03
2.385841420646006100e+03
1.954194925986625094e+03
1.390029061310701991e+03
1.425450534994421787e+03
1.807993128452771316e+03
1.589810605692978243e+03
1.431080466156906141e+03
2.034259601305762317e+03
2.869756014783130013e+03
3.140253916015974482e+03
3.030971990295759497e+03
2.210871038313829104e+03
1.047565500537392609e+03
-5.262514590069703218e+02
-1.604823434700401094e+03
-1.508634875432428771e+03
-1.117246915280337362e+03
-2.753286914445876846e+03
-4.346491118991037183e+03
-5.131454748700362870e+03
-5.125361124135809405e+03
-3.511920208009833459e+03
-1.318821095541369232e+03
2.001612145376753688e+03
3.734730491215521397e+03
5.233155308028740365e+03
5.819849890407288513e+03
4.178144592448209551e+03
2.790663196081207843e+03
2.699627142460086361e+03
3.575943258108813552e+03
2.912725484401473295e+03
2.362779492040345303e+03
2.558202033050081809e+03
2.209492592166671329e+03
2.028545235512896397e+03
1.750841547552773136e+03
1.818900725604615900e+03
1.919860917790624399e+03
1.161543274812645222e+03
4.109043807717794721e+02
1.286957420471539763e+03
2.861677473792549790e+03
2.812001532982834760e+03
3.034287986383769748e+03
3.151470789579402208e+03
3.075495513772217691e+03
3.346219243221184115e+03
2.584617064719774135e+03
5.497817049023368554e+02
-1.352164392517839360e+03
-2.008189531714672057e+03
-3.175366270766728576e+03
-5.487688247934333958e+03
-8.778212635130110357e+03
-1.104197048331407132e+04
-9.621876183926602607e+03
-8.613847667409187125e+03
-7.305910267629861664e+03
-5.314222174538428590e+03
-3.333844210969462893e+03
-2.951762014690723390e+03
1.440245950277960901e+03
4.693278365390375257e+03
-9.066660987186787679e+01
-3.566790579968409475e+03
-4.514923026067061073e+03
-5.251672637759566896e+03
-5.920294497943995339e+03
-4.630918869334198462e+03
9.457323716759459842e+01
1.602154814753339451e+03
-2.193161846970962870e+03
-3.722282348138140151e+03
-4.846234773877519729e+03
-5.145951032353890696e+03
-5.357352731703615973e+03
-5.854461657678511983e+03
-6.142115308685372838e+03
-6.796288145834017996e+03
-6.493028731437364513e+03
-6.283352511647002757e+03
-7.367146525627400479e+03
-7.035370167648918141e+03
-5.353060408013579035e+03
-5.511723797144709351e+02
-8.825456639117365967e+02
-2.044101840636777979e+03
-1.599821386977497696e+03
-3.068665315432795524e+03
-1.245493205499966734e+03
3.392798584078556814e+03
4.618230632653222528e+03
5.283737450410611018e+03
5.531332922130575753e+03
6.183048816014144904e+03
5.869949222199412361e+03
4.905067100924185070e+03
4.320465660602520984e+03
3.912127029696718182e+03
3.693996724864201497e+03
4.213173311226532860e+03
4.685760636929483553e+03
4.842769689790951816e+03
5.326307955124101682e+03
4.921374954984549731e+03
3.718147635011479451e+03
2.339748051058675628e+03
8.841393154671341108e+02
-6.186899653517034494e+02
-8.487375788411079611e+02
-2.199736399753391822e+02
1.383611676915476437e+03
3.121022251250556565e+03
4.221232459175434997e+03
4.009312083986609650e+03
3.717308998388113196e+03
3.539284491410136980e+03
3.387335621215277115e+03
3.240604539027440751e+03
2.459116852769795514e+03
1.907128616954332301e+03
1.194659782115008056e+03
1.347606743390436577e+03
2.003973052653513605e+03
1.775555383505263535e+03
1.501350926740977911e+03
1.980418312610924204e+03
1.568785935319415785e+03
-9.702323696192122497e+02
7.415294191995812980e+02
7.070822535499771675e+02
7.473765002314725052e+02
1.154183679731480225e+02
-4.138959388138250688e+02
3.293365228650625909e+02
4.594828256428832702e+01
-1.054657551588770957e+03
-1.522432314151331866e+03
-1.000493953414707107e+03
1.919108013754323792e+03
3.454513842131652837e+03
2.887287805715163813e+03
2.338428596521117015e+03
1.238893607959395922e+03
6.807127554196749770e+02
2.413885822609178376e+03
3.735404029343156253e+03
3.562284824512496471e+03
3.532533592468644201e+03
2.767108281592377352e+03
1.278877331860635422e+03
1.698258076435006387e+02
-2.033826572550988754e+00
2.022972542363569346e+02
-2.311888775775899205e+02
-4.174819920658552519e+02
-6.225958880170056773e+02
4.347932523130482707e+01
-1.652390476446740308e+02
-1.966765341321889764e+03
-2.091083636034224583e+03
-1.163257684443043900e+03
-1.321392974257846390e+03
-2.015477003679284508e+03
-1.435561302973875854e+03
-1.016623177046337901e+03
-5.657374362855757681e+02
9.297698428572444129e+01
-3.954485411142853195e+02
-9.770985390406669922e+02
-1.211984330259662556e+03
-1.753044383624926240e+03
-2.242341220077729758e+03
-1.766906834349612154e+03
-6.107587999535550125e+02
-2.295021005570442796e+01
6.512420345847490744e+00
-2.983678036213557334e+02
-7.571912779283780992e+01
-1.197555687867195957e+03
-1.661891071101703801e+03
-2.777933852925456790e+02
-6.134148826222308770e+01
-2.453482454503229292e+03
-5.946252154888314180e+03
-8.149744143867885214e+03
-7.646998642340131482e+03
-7.139971332730260656e+03
-6.879614960651932051e+03
-6.887929087066270768e+03
-7.178081823916495523e+03
-5.651122255468430922e+03
-1.607031531941614503e+03
-4.019203446133702755e+02
-3.118230654451774626e+02
-5.538007471962001773e+02
2.340180265677093701e+02
6.406303274905419585e+02
4.449871428670740556e+02
1.098007669967331140e+03
1.872678265613294798e+03
1.850046711614013020e+03
1.722170453392879381e+03
1.768965660681958980e+03
1.708322969702319369e+03
1.055292336079167399e+03
3.648467167720655766e+02
2.880084169544826409e+02
3.189356176994783709e+02
6.315682157081896548e+02
1.085732474036236681e+03
1.068349823868076328e+03
8.983695999486487835e+02
3.117886949784787589e+02
-2.264899980638569730e+02
-3.723800399066097384e+02
-4.018660013978129086e+02
8.540327099517784291e+02
1.208271475583342180e+03
1.399814999107958556e+03
1.235638570402487630e+03
3.228113655859481241e+02
-4.406318055130568041e+02
5.781963094943992019e+02
1.961233369933358745e+03
2.664506898656588419e+03
2.520036577041295004e+03
1.700799724017929748e+03
1.800720466815466125e+03
2.201946686396775021e+03
2.043645459528413539e+03
1.386825484097416393e+03
6.253644834402006154e+02
-9.498980997875687535e+02
-2.553032594869407603e+03
-2.648012855444325851e+03
-1.151839183802645039e+03
6.124199921753253193e+02
1.003811137004392094e+03
1.696462356849270236e+03
2.956619951563932318e+03
3.400283701746214774e+03
2.967369426500157260e+03
2.978580044230618569e+03
2.214884905634149618e+03
2.139347762186153886e+03
2.915982156640421636e+03
3.530759170412015010e+03
3.237865116444783780e+03
2.836394210736563764e+03
2.739276365120488663e+03
2.891527593375670222e+03
2.062146463112148922e+03
1.089103479387980087e+03
-9.377623680428889656e+02
-4.271266333257957740e+03
-6.056314252302338900e+03
-3.940784076347891641e+03
-1.160578284759157214e+03
-4.537542061453904353e+03
-4.418860011195294646e+03
-1.448651448401783910e+03
-4.936871866060020693e+03
-1.942195330653165684e+03
-2.014885501314265866e+03
-5.929434245889927979e+02
2.521764529435272379e+03
2.581306541150980138e+03
2.436646488444423994e+03
9.548379211071508053e+02
-2.060908575753853711e+02
3.687936155590046496e+02
-2.021536835598168864e+03
9.171271468715385708e+02
1.124883211657637275e+03
8.217300475651563829e+02
-2.217419785240548663e+03
-1.205653652778858486e+03
-2.969979501728572359e+03
6.724498169707524085e+02
-1.452765195949036183e+02
-2.384127317307445082e+03
-1.690736202139396198e+02
-2.428897495317865832e+03
-2.399578681335502552e+03
-2.575232280595128486e+03
-4.539694657915303537e+02
-7.356391055344970482e+02
1.132828896221769810e+03
1.948391459608800247e+01
-1.740696468470451919e+03
-9.917310743863998823e+02
-4.343598109541862868e+03
-4.257314350588578236e+03
-9.799280857615698324e+02
3.206039795689287644e+02
1.353366554752385866e+02
-8.838263015127315612e+02
-2.853861799636416890e+03
-5.516260880879972319e+02
1.247855082432675545e+03
2.209583398728439079e+03
1.769616034594521125e+03
6.519678707961601276e+02
6.567054369495059518e+02
1.719913096997122466e+03
2.534611459102976369e+03
2.789680295455457326e+03
2.603046237352744811e+03
1.568931145779588633e+03
5.748249485874480058e+01
-3.743878677849492078e+02
-1.259833968150139043e+02
5.557395599665916279e+02
1.545744175529975109e+03
1.478815877276182391e+03
4.769671254194735752e+02
5.503359591674540070e+02
7.085878946120684532e+02
-2.528121640555302463e+01
-1.981816154338730257e+03
-2.759797265650267491e+03
5.357712993761531379e+02
1.163946546218854564e+03
1.222257025986057897e+03
1.666798701506535735e+03
2.048302576221025447e+03
2.192203492831427411e+03
2.145464797730352075e+03
1.271948371669477183e+03
7.557539274265507174e+02
3.416290453577528865e+02
-7.049660170222264242e+02
-3.483658590371762784e+02
5.074052707652276695e+02
9.353031442792042753e+02
7.133431060588397941e+02
1.246725116728189960e+03
2.108141064077206011e+03
1.756929478935359384e+03
8.107415081038279823e+02
8.101998254878616308e+02
9.689012505214177509e+02
8.293522884121764491e+02
4.186778977713374275e+02
9.213368249062073119e+02
1.902054174237953703e+03
2.454113398505907753e+03
2.097947866891122885e+03
1.705673634648500183e+03
9.070033337537679472e+02
1.899647093938382909e+02
3.526427618770509866e+02
1.190038813163197119e+03
1.205180619636389565e+03
6.450325917097927686e+02
5.505600682749396810e+02
3.667313634588205105e+02
-1.843927208590765758e+02
2.621421958580093587e+02
1.004314408318517849e+03
1.661201570417436415e+03
2.020937185475535898e+03
1.720554019382539536e+03
1.490166252447521174e+03
1.480830019602049333e+03
1.433361068495516065e+03
1.245609919435008123e+03
1.413443207742551749e+03
1.826652711037018207e+03
1.493177735228223810e+03
7.291033648439549779e+02
1.574972809782229604e+02
1.939515240205828661e+01
1.072171917636989491e+01
-5.294929296967569599e+02
-6.430954969086195661e+02
-5.830738465096573009e+02
-2.594399164738447894e+02
2.537173117314818285e+02
-4.645804917547715149e+02
-2.583166872427600993e+03
-5.464039190348376906e+03
-7.716333239863153722e+03
-8.313988149124725169e+03
-8.664814655636519092e+03
-8.040141527783554011e+03
-7.380682863401246323e+03
-6.707383186936704078e+03
-6.716305426001802516e+03
-7.420561996614341297e+03
-7.649289592340207491e+03
-8.307451853029058839e+03
-8.032841514304119301e+03
-7.952406822943063162e+03
-8.007294806166722083e+03
-4.610724533473342490e+03
-1.088580660668726750e+03
1.572269526411736706e+03
2.375845001122062058e+03
2.596200771455417907e+03
2.448315656341665090e+03
2.781008119702996282e+03
3.061219615562772105e+03
2.920152191731025141e+03
2.894900611671008846e+03
2.935451589196645273e+03
2.976869374923577652e+03
2.942312241180143246e+03
2.389841231312792388e+03
1.505408917709641855e+03
8.270083728930914049e+02
3.606070455545384448e+02
-6.173103252699888088e+01
2.879893353879234041e+02
9.386135687915444805e+02
1.578185063400866284e+03
1.602663329245438717e+03
9.930736455890662455e+02
1.003579231476082896e+03
7.662250474005492151e+02
1.109808977589706728e+03
1.611324981377591712e+03
1.740796163213647560e+03
1.976169149234429597e+03
1.830585518691596235e+03
2.032097034798459617e+03
1.945721143088739154e+03
1.622520888065607551e+03
1.465564279441270401e+03
1.189694821863436346e+03
7.007505529602345860e+02
3.168490081720714784e+02
1.303651678515033154e+02
-9.661023213779823493e+01
1.176591059719976471e+02
2.391830373241618588e+02
3.488884402282719748e+02
6.235663435858684807e+02
8.653266524100383776e+02
8.792500383545105933e+02
7.565502152301388605e+02
7.626465891689265391e+02
1.455466315878350088e+03
1.936988895714674300e+03
2.211190151818389950e+03
1.952327621399267628e+03
1.527119379287707488e+03
2.091268886956612732e+03
2.172647023333016023e+03
1.671757782364997638e+03
1.560669269781962612e+03
8.769206997206696315e+02
5.880611700620737565e+02
4.763610038842068093e+02
1.839101464621255104e+02
-1.095962139331273590e+02
-1.647377366454451817e+02
3.992914930354967282e+02
6.634832446009583009e+02
3.073422184033054236e+02
1.878608853280677238e+02
4.089175483549126966e+02
1.545261872962310008e+02
6.826780751829397786e+02
1.098263402697533138e+03
1.118139792496929431e+03
1.017348721345526315e+03
9.056390215455768384e+02
6.738670550416009064e+02
3.561278938090761699e+02
2.296188537943992571e+02
-1.065736107629119971e+02
-4.564625962632153460e+02
-8.962760881342057928e+02
-8.031193694469426418e+02
-1.126090881723320990e+03
-1.033012468472355749e+03
-4.419021609749997879e+02
-5.495870368867952749e+01
-7.012486754699568792e+01
-2.242799547671594667e+02
-8.933529391995618880e+02
-7.901883107251933325e+02
7.121800606604237771e+01
2.578074192197762500e+02
3.365706372630259580e+02
9.474211675694243695e+02
1.331570089379093133e+03
8.397015201662487698e+02
-4.241457402066194504e+02
-1.821071399482552806e+03
-2.645215094721884725e+03
-3.344547405180806436e+03
-3.623044967412045935e+03
-3.941289644245196996e+03
-2.953185911407606909e+03
-1.241046218804757473e+03
1.418245323840965568e+02
4.221947628259037089e+01
2.219775409719223376e+02
1.048436818706974691e+03
1.645892125593378069e+03
1.143569155963871253e+03
1.196591435699370322e+03
1.533610946222652274e+03
1.040224918653492978e+03
6.445923832928682486e+02
5.918981017474480950e+02
2.666230583508072414e+02
-2.635957186197636929e+03
-4.385770298868507780e+03
-5.042637061140798323e+03
-5.503847358745320889e+03
-5.325569986715840059e+03
-2.544761795116883150e+03
-1.531146695929972338e+03
-2.984704940520004584e+03
-4.562676374380258494e+03
-1.203692776634913116e+03
-5.893140526810520896e+02
-6.326345447300163869e+02
5.287847330582490031e+02
1.752996537854160806e+03
1.790673668441162590e+03
1.428501531112581915e+03
1.239087644405030233e+03
9.141059131948454706e+02
1.907220208001840263e+02
-4.736795462815315432e+02
-6.243909367263689774e+02
-5.432297254277744969e+02
-1.200071884034019831e+03
-1.511847632842853727e+03
-1.056167499554871711e+03
-8.654637115613818423e+02
-6.498204067611669643e+02
1.225128397677336700e+01
2.672881245962828416e+02
8.013328633732212438e+02
1.350155128664245240e+03
1.369521834513317344e+03
7.310236386524699128e+02
1.444813056860040490e+02
1.193159796048819175e+02
1.390907037073775427e+03
1.852032130847832377e+03
2.087991214484373359e+03
2.351218182645383877e+03
2.640210898563344017e+03
2.202045239842399951e+03
1.024528542796362672e+03
-7.167230857696917212e+01
-1.180194643214529833e+03
-1.254014501804098927e+03
-1.008231346764726254e+03
-8.690949695572164728e+02
-8.602342220379089213e+02
-3.344628173921740313e+02
9.001308618759123874e+02
2.151342186441115246e+03
3.087002246018148981e+03
4.147240352546641589e+03
4.808987214750278326e+03
3.755205073181420630e+03
3.872989968777334980e+03
4.316449474279241258e+03
4.049787747691530967e+03
3.470767046279537226e+03
3.409336863664261728e+03
3.634580190404144560e+03
2.189283076002556299e+03
1.215483092888047622e+03
6.305066674629242698e+02
3.717092400549644822e+02
-8.725112632286524672e+01
-3.365346252346384517e+03
-4.055284810230595667e+03
-2.665255334415116977e+03
1.233856563119169607e+02
-3.190417875071957951e+03
-3.573740691812341993e+03
-3.028445573075959601e+03
1.511657932082367552e+03
5.946017916211335432e+02
-6.616156168490900882e+02
-5.598149365879706920e+02
-3.225825432206112964e+03
3.503581475388022568e+02
-1.483537672527733378e+02
-7.962381758695196368e+02
-2.622641821678808356e+03
-3.492373457238141782e+03
-1.458251288995846380e+03
-4.751321046945734452e+03
-2.273507836419696105e+03
-2.097694319410348271e+03
-2.638994302843628248e+03
4.785683473647216601e+02
-3.733799919576920274e+03
-5.434106962698360803e+03
-3.022267059740598597e+03
1.098627228580229485e+02
-1.982012202882461906e+03
-1.154005392524473336e+03
1.449982479602004560e+03
4.098443881450592698e+02
2.196668097150339349e+02
3.126205540138438437e+02
-3.551372102090705312e+02
-4.786920922187131850e+02
-9.839762756789076548e+02
-1.907881082553920351e+03
-2.572959912300912947e+03
-2.341350633678074701e+03
-2.892525612173134505e+03
-3.380545029603369585e+03
-3.811445813207427364e+03
-3.498540913368980000e+03
-3.132964958556745387e+03
-1.405246119969101755e+03
1.276806106614907776e+03
3.374907870410898340e+03
5.089099315865111748e+03
6.957407157040284801e+03
7.109851759611979105e+03
6.224429951874847575e+03
5.046012841184072386e+03
4.416653927403936905e+03
4.245281700516159617e+03
2.936156651027024054e+03
1.667429078311579360e+03
1.428157318768236564e+03
1.367605089815606561e+03
7.393351151643055346e+02
-4.910505728454813834e+02
-1.092537312029646500e+03
-3.997140429390083796e+02
3.768307551600314014e+02
2.383252453020083976e+02
-1.045470075596246602e+02
-7.018492022048599210e+02
-1.635574471446370580e+03
-4.438064632729452796e+02
1.949552687938883764e+03
3.214581008234312321e+03
3.087252504359395971e+03
2.336077073140439552e+03
7.071039397281332413e+02
4.106873450958970011e+02
1.188910645093651965e+03
1.082637551164260003e+03
8.807611672564837590e+02
1.280134486332912502e+03
