2.173094995933777227e+03
2.193386306918140690e+03
1.840614505537752393e+03
1.778718210418372564e+03
1.161743433912870842e+03
6.287272572294788233e+02
-1.633062431198097499e+02
-6.843878751665108666e+02
-3.934605536140522872e+02
9.545389408435445375e+02
2.534720981381740785e+03
3.814086855088945413e+03
4.370647284190193204e+03
3.785510695964981096e+03
3.974635389876653790e+03
4.836081850358388692e+03
4.990944607285297025e+03
4.687191052458969352e+03
4.371871165504156124e+03
4.452018836488533452e+03
3.826626990102304262e+03
3.678719558466821127e+03
3.461434463129863161e+03
3.417153016046619541e+03
3.210991986785534209e+03
2.827995702323082241e+03
2.120981396349029637e+03
1.495755735116958476e+03
1.333673140523661232e+03
1.323813452215307734e+03
1.036213590257200394e+03
7.178626826931404139e+02
2.539495038767530843e+02
-6.867094752103485007e+02
-3.582175327985218587e+02
-6.073733144777792177e+02
-1.027079075425300744e+03
-9.893991214480846565e+02
-6.793659736238303140e+02
7.430443194264628346e+02
2.405855564040535228e+03
3.604141746638919813e+03
3.859980800646185344e+03
3.486343577199969786e+03
3.221178892369886853e+03
2.146375401465532832e+03
1.223952068827902167e+03
5.115284052031518627e+02
8.601729960804682378e+02
1.414720593691982913e+03
1.622249762805575301e+03
7.917865110228202639e+02
6.053221012320865384e+02
3.168884320019801066e+02
-6.555563643318215554e+02
-7.730506083909162953e+02
-8.861825971372377353e+01
1.537130313498676912e+02
5.938763845032783593e+02
1.354919590488877020e+03
2.104856060193899793e+03
1.937651404796561110e+03
1.339313423414157342e+03
6.728691370288728422e+02
-2.067303954906211061e+02
-5.215488866831719861e+02
-8.735724286422037039e+02
-1.093861041641309384e+03
-1.043514901195944958e+03
-3.634792521759411557e+02
3.271757958904105976e+02
-9.855787837833473759e+02
-2.946745470847642991e+03
-3.809366066895830500e+03
-3.799503531809368269e+03
-3.145236753391854563e+03
-1.179587144914708006e+03
1.189452985954379983e+03
3.002879847011968650e+03
3.390655045443247673e+03
3.648752611037324641e+03
4.155143156443239604e+03
3.481775075294427097e+03
2.836645499077534623e+03
2.738700616811621330e+03
5.538955861633080531e+02
-4.387815734559391785e+03
-6.483545248573892422e+03
-5.751293678698028089e+03
-6.921058126170039941e+03
-7.574864489328861055e+03
-9.252782355173218093e+03
-1.073685862054859717e+04
-1.131112121201864647e+04
-1.174360447820320405e+04
-1.009534875720863056e+04
-5.997448292062774271e+03
-2.597814591298871619e+03
-3.774624495583089470e+02
9.535245249714527063e+02
6.770818181272261427e+02
1.992120973066886108e+03
3.681678016703010599e+03
4.248728667362848682e+03
3.989199325012090867e+03
2.836033527962781591e+03
1.629186825723488028e+03
2.436591821293848170e+02
-7.446107454839574302e+02
-1.603622768511052072e+03
-1.273370640027810623e+03
-2.105821938018109449e+03
-4.906019637305807919e+03
-7.368073044826565820e+03
-7.093999990764470567e+03
-3.970920671018902340e+03
-3.478828829653907633e+02
2.175070596720650428e+03
4.569936181837743788e+03
6.734736027431056755e+03
7.934563695959333927e+03
5.905353409961298894e+03
2.369990891249189190e+03
-4.075249931132215693e+02
-2.290168344209518182e+03
-3.487000540903482943e+03
-3.790052546052230355e+03
-4.147335142796919172e+03
-3.276847643968855664e+03
-1.574551090373787247e+03
-2.407447213517504224e+03
-4.577609718273981343e+03
-3.022023715460637504e+03
2.689258089096155800e+03
9.020248582842232281e+03
1.148795912087262877e+04
9.612343695564115478e+03
7.653352070249892677e+03
5.684089017060073274e+03
3.291575882218607148e+03
2.897797559097271460e+03
5.081784749467262372e+03
5.051530147668624522e+03
2.159080110725458326e+03
1.084282234031906142e+02
6.486095614434840400e+02
2.754573841041566993e+03
4.743302602033172661e+03
6.010802184560115165e+03
6.126114324663135449e+03
5.007304697440489690e+03
2.574447749482406834e+03
-1.481498640867600898e+03
-2.685533481063383988e+03
-3.226702329287112207e+03
-5.280003447332538599e+03
-5.126369801566230308e+03
-2.788829843154246646e+03
-9.203783934928180770e+02
1.436100072020331254e+03
4.906631039514118129e+03
4.752311452987897610e+03
5.450770774756093715e+02
-3.921019682484459736e+03
-4.946902273413668809e+03
-5.667588722409977890e+03
-7.090025700590917950e+03
-6.825203154885630283e+03
-4.436076962581250882e+03
-2.464599909886407659e+03
1.052779176070382050e+02
1.939580869273788949e+03
2.256346266959666536e+03
3.209597524618022362e+03
3.040367966124813393e+03
2.335661930562087946e+03
1.816487682852172384e+03
4.022869377488754708e+03
1.420887420155632526e+03
-1.804376234073597743e+03
-2.161865233155579517e+03
-2.258528679152692803e+03
-1.358311834425123379e+03
-1.084260219832681059e+03
-2.026286216018298319e+03
-2.838321522429059314e+03
-3.056331540388276153e+03
-3.520336857050188883e+03
-3.409374189854480846e+03
-3.093337644588541934e+03
-2.802122890544854727e+03
-2.123713980699735203e+03
2.928975033457907671e+02
-2.680247873647331289e+03
-5.535061172057182375e+03
-6.075514755694908672e+03
-5.969652219746497394e+03
-5.240469080834745910e+03
-1.714939093681683971e+03
2.363975108015434216e+03
2.455335816766482367e+03
2.375189301348533263e+03
2.211627451940175888e+03
2.294672783719531708e+03
2.046376769416688830e+03
1.800804214037195152e+03
1.401940243274616478e+03
1.166847344960772716e+03
1.225572207987322827e+03
1.892134610100729788e+03
2.532498536931117997e+03
2.912740423493836715e+03
2.682764776110524053e+03
2.198599425538414380e+03
1.456270678132140802e+03
7.491331924727231808e+02
2.248048893527996839e+01
-7.386288563663471223e+02
-1.142418278186131829e+03
-1.264841635763708382e+03
-9.608287492857770076e+02
1.886289449011147781e+02
6.085248478682256064e+02
-1.216345933051055717e+01
-9.903907456793974688e+02
-1.850304211603473277e+03
-2.059874755194945010e+03
-1.917969977506452324e+03
-1.494482047909137009e+03
-1.412712429012186476e+03
-1.701911510829823328e+03
-1.324917587707034954e+03
-7.142971346866357862e+02
5.799464166732917647e+00
8.043094169395960762e+02
1.009226593431592846e+03
9.855160947761230545e+02
7.021818262651015630e+02
1.662016265713666598e+02
-3.945241972072508929e+01
1.332362447947572832e+02
2.002332597501117846e+02
2.025874627557113854e+02
1.774422117718847574e+02
4.712854484755857243e+02
6.288735808089488728e+02
3.336887112604789536e+02
4.198521782651266676e+02
5.621605668648765004e+02
1.062652488030857967e+03
2.274147244166123983e+03
3.070911255545147924e+03
2.375673954742375827e+03
2.102129519311808508e+03
1.868414732713127478e+03
1.111265360505766694e+03
4.907718655927408804e+02
2.035891136826486218e+03
3.688581193496279866e+03
4.013866733722628851e+03
4.448697859827372667e+03
4.955106115691346531e+03
5.201046392515465413e+03
5.084551296982910571e+03
5.071584322525432981e+03
4.858063417722948543e+03
5.194835994611077695e+03
5.063807892788003301e+03
4.735908142788368423e+03
5.209138828637321240e+03
4.986552491001578346e+03
5.004073727084097300e+03
5.198613974322761351e+03
5.273177471354693807e+03
4.912788407841791923e+03
4.412423304190373528e+03
2.939002549958554482e+03
6.975598529747481962e+02
-2.604975924639036748e+03
-4.558589691068176762e+03
-4.752305365864741361e+03
-1.989133069125692600e+03
-1.974073597438105253e+03
-6.304124828958785656e+03
-7.192317743237387731e+03
-7.980694685108187514e+03
-8.662281420204672031e+03
-9.478099094967043129e+03
-7.672241529955566875e+03
-8.098672527489741697e+03
-9.087339187459007007e+03
-9.539366392638285106e+03
-9.201692794556116496e+03
-6.247344411098081764e+03
-5.419377072938348647e+03
-8.191815391190062655e+03
-8.840812289237253935e+03
-8.834427799031716859e+03
-7.481707294656328486e+03
-6.118620315330882477e+03
-3.983073786689567441e+03
1.660915823715004763e+03
4.024443135780913963e+03
3.645502501361579561e+03
3.014076688601999649e+03
3.011086213723352103e+03
2.911500034815871004e+03
3.046290823910995186e+03
2.780507101890281774e+03
2.675124490781468921e+03
2.618171168909652806e+03
2.511684887467120916e+03
2.310620785453460485e+03
1.971949896931537296e+03
1.621692125047381523e+03
1.447795754906535421e+03
1.730257783388874032e+03
1.677022003191292924e+03
1.757187737516451080e+03
1.982793358477563743e+03
2.032871997862222543e+03
1.995483740566797451e+03
2.464571831659968666e+03
1.977178889060299980e+03
1.351305726124026933e+03
1.613952135824105426e+03
1.451045573582435281e+03
1.021597970396177629e+03
9.637954907322454119e+02
1.263698241405031467e+03
1.492293289033505971e+03
1.292508050966462861e+03
8.702903574100629385e+02
5.655557858829060933e+02
4.112700966443714492e+02
2.754489831044485868e+02
-2.881942596603104434e+01
-1.215196547898144388e+02
-2.266985615657293067e+02
5.879748684639985612e+01
2.710199388327985730e+02
3.178757995592749239e+02
7.045352876665702979e+02
8.528715479978143321e+01
-5.357649766878574837e+02
-5.177242917207547634e+02
-7.443923541759666023e+02
-1.173730496996025749e+03
-1.168733895389086456e+03
-1.271329038149428243e+03
-1.430529710170961380e+03
-1.661303883146290673e+03
-2.157810320884930661e+03
-1.872197982049222446e+03
-2.018367829405657403e+03
-1.744502143515330090e+03
-1.442649420677062153e+03
-1.783711126790280787e+03
-1.363822079907622310e+03
-8.260257916125181055e+02
-7.712140101450670500e+02
-1.070271554257741855e+03
-1.428099014209824190e+03
-1.338663343418434351e+03
-1.784903272267583134e+03
-2.489802707073059992e+03
-2.610348815200472472e+03
-1.403599539234289978e+03
-1.114979587166483981e+02
3.891677653031104569e+02
1.106468554115685492e+03
6.262033698111894182e+02
1.712961367343494956e+01
-4.198291348270028038e+02
-6.496711967110154546e+02
-4.704428088016244374e+02
2.968790793255683411e+02
6.403498273800013294e+02
2.452017730441459094e+02
4.464433651945081039e+01
4.276960222982744426e+02
8.023176012863713140e+02
1.053507594437642410e+03
1.034230840924855102e+03
6.565137797021656070e+02
5.752190936288504872e+02
7.432206043871885868e+02
5.037747736821373792e+02
2.499785798321206016e+02
1.525020231916496698e+02
8.795738596049569935e+01
4.881897587750663092e+02
5.754200757327854490e+02
4.977405909643715098e+00
-1.211078488658274068e+02
-3.507838186837816465e+02
-8.859894553913482014e+02
-7.378524435335848466e+02
-5.796338095039627660e+02
-4.741931109933188964e+02
-2.442292092505232972e+02
6.452310719352958586e+02
1.393964903495825865e+03
1.353812623461868043e+03
9.417482677060096421e+02
3.047422871361671923e+02
8.488465957274453899e+01
3.022596153539581678e+02
7.948964300742270552e+02
1.315005249134401993e+03
1.360421772147425372e+03
9.631020114118845186e+02
9.621782944633669103e+02
8.944426070008740908e+02
3.467738261237747821e+01
-6.814739550235992738e+01
-2.415055145505507994e+01
3.763994645685418732e+02
4.626912460788617523e+02
4.191888962591817744e+02
9.021889267614847085e+02
1.142464254734155020e+03
1.484002572125614279e+03
1.458799246975798042e+03
1.285756130788013024e+03
9.306464732590009135e+02
9.903576032024496953e+02
1.060761162171392016e+03
1.147827830299072957e+03
9.926570363675019735e+02
1.100162496945507655e+03
1.254412822015285428e+03
1.507637632703592317e+03
1.611440377035981328e+03
1.643405989137644156e+03
1.701221477399545847e+03
1.432979159969282364e+03
1.467443837340545997e+03
1.724501769060602101e+03
1.661020640446286052e+03
1.839063566093745294e+03
2.108723128298113807e+03
2.328986006429798181e+03
2.330759969210301279e+03
2.292993907613781175e+03
1.919672455242031219e+03
1.692777799126695982e+03
1.566447382060698146e+03
1.262290217664431111e+03
1.373951706664906851e+03
1.585977005929174084e+03
1.638450661167771841e+03
1.743237023780148775e+03
1.885252973143105010e+03
1.546613504947521733e+03
1.050080317829196019e+03
1.123160789531960063e+03
8.580257096923749032e+02
1.169661761799180340e+03
1.285044646238782661e+03
1.414173719025890023e+03
1.845042120023780626e+03
1.794662488780678132e+03
1.913072808053168046e+03
1.795266562344393151e+03
1.496175934969800210e+03
1.334682449143220765e+03
1.525754984516733884e+03
2.184145534287272312e+02
-1.850293803277543248e+03
-5.565363728019488008e+03
-6.953789005125080621e+03
-6.786515901788677184e+03
-6.066498416484263544e+03
-6.134707910845507286e+03
-6.700235520188915871e+03
-6.774054762345615018e+03
-6.379219683344597797e+03
-5.869841085736055902e+03
-5.294830451678925783e+03
-3.858088994685040689e+03
-4.258509622879095332e+03
-4.515147706539756655e+03
-4.339010183825880631e+03
-1.581093001685143463e+03
-2.238453287743057444e+03
-4.895096644143709455e+03
-5.114956156712305528e+03
-4.899064127119901059e+03
-5.039419970765824473e+03
-5.024038990226132228e+03
-4.712965887273874614e+03
-4.832111540672691262e+03
-4.711426436018243294e+03
-4.520840337632691444e+03
-4.817324933724514267e+03
-4.497927647808688562e+03
-4.343667862759095442e+03
-3.154450179612937063e+03
4.147718136285104151e+02
-1.393970448719794604e+03
-3.765679379775023335e+03
-3.342306033290805317e+03
-3.627772790964989326e+03
-3.959028570996065355e+03
-3.747063552865653946e+03
-1.775894795806453203e+03
2.585449298294526216e+03
3.709981613013316746e+03
3.899838682345377492e+03
3.877069038616706621e+03
3.789741339421032535e+03
4.035888207371266617e+03
3.907524752740718213e+03
3.503549852097978146e+03
3.337033164429229146e+03
3.134080737727950236e+03
3.081719832233650322e+03
2.762978408465752636e+03
2.834919782374074202e+03
3.015600993249793646e+03
3.461077629185072510e+03
3.777445461680012158e+03
4.031712871398065545e+03
3.913952499772159626e+03
3.740263784236833089e+03
3.467657156683299490e+03
3.320181078532683841e+03
3.238796321587533384e+03
3.015530253381336024e+03
3.004456742418456543e+03
3.004734689542096021e+03
2.712422944564349109e+03
2.395615718042975914e+03
1.816341856385352685e+03
1.596802226241764401e+03
1.556059576572361721e+03
1.562249227122757247e+03
1.693206124029245530e+03
1.781034084902816858e+03
1.751239717887323195e+03
1.917700541580070876e+03
2.315437380501831285e+03
2.562452743985348661e+03
1.765839626939328355e+03
1.362362971779614554e+03
1.233212774321934830e+03
9.525018259395928908e+02
1.198192832718439831e+03
1.181393804882460245e+03
1.137862858753708906e+03
1.407361573686611564e+03
1.347409728181960190e+03
1.410985486321936150e+03
9.780779081135142405e+02
2.275840609115484483e+02
8.848847911136950017e+01
-1.212458886851018462e+02
4.517734718901323987e+01
2.177493604676280654e+02
3.425364183074517541e+02
6.475723449341354581e+02
1.098807085755785920e+03
1.120262311702761508e+03
6.809298930663409237e+02
4.238592483776863560e+02
3.910664024132365739e+02
-1.146541891296169524e+01
-3.337873870093987989e+02
-1.409244696935796526e+02
5.116650813723452984e+01
-1.364460237886607672e+02
1.032414587038847316e+02
-2.448438599081101188e+02
-2.627336390282862340e+02
-4.143852967378852554e+02
-4.878303219824260282e+02
-2.790942644631300595e+02
-4.912033264489822386e+02
-4.042094708006772521e+02
-3.480091456016403413e+02
-1.365544959943133563e+02
-2.569514910902387328e+02
-1.921996380496143217e+02
5.670877355082630800e+01
-1.672478191420015889e+02
-7.117526087600579920e+00
-1.929558951819695949e+02
-5.707815834661226972e+02
-6.295753039951863457e+02
-3.393428376605563699e+02
-9.083463604046407625e+00
1.201937341270811288e+02
1.524403878207710363e+02
-4.253933347730211949e+02
-6.303364728730479101e+02
-6.534454491176456941e+02
-1.899714722983860838e+03
-4.123184713798093071e+03
-7.379957068196894397e+03
-8.249943244505348048e+03
-8.219155292670040581e+03
-7.851660200872645873e+03
-6.826464739746517807e+03
-7.281588335047526925e+03
-7.359083639325114746e+03
-7.230020097637686376e+03
-6.865420055030752337e+03
-6.439304062280518338e+03
-4.675683711903247968e+03
-8.615586101052623462e+02
6.190289680849131173e+02
1.053987971927074796e+03
1.092255988635484528e+03
8.389198696977866803e+02
4.468802091640567937e+02
2.720553793178580690e+02
5.244102620382224131e+02
7.689300650912509809e+02
8.585960256295689987e+02
1.002374776748058935e+03
1.263299734219927814e+03
1.418392255044544754e+03
1.824555103441995243e+03
1.565650475354150331e+03
1.346623953069655045e+03
1.529455651508674237e+03
1.467065299181590944e+03
1.459501135024150244e+03
1.778761071953876581e+03
1.730844043554597647e+03
1.413720461705917387e+03
1.588303033033063457e+03
1.847530039261149341e+03
1.596459066926132664e+03
1.628139631237440881e+03
1.732503293001655265e+03
1.522471199189506933e+03
1.490992996932587630e+03
1.698099180767124153e+03
2.185782823669208028e+03
2.288099942428622853e+03
1.919019463792786155e+03
2.470554497327737863e+03
2.672684860143138849e+03
2.316383792346177415e+03
2.071624575747693143e+03
2.044394651187043792e+03
2.175644662886573315e+03
2.304403448130582092e+03
2.259720214339232371e+03
2.405543678581062977e+03
2.424856945024294873e+03
2.543737499245957679e+03
2.197070453295848438e+03
1.725864815828168275e+03
1.965191943489487585e+03
2.265027499140741384e+03
2.308267441356149448e+03
2.416931411941523038e+03
2.873059162554631257e+03
2.904599610213322194e+03
3.374574205454026469e+03
3.887059291223129094e+03
3.183538709311985713e+03
2.798714920126307788e+03
2.660420015005145615e+03
2.664674114529204871e+03
2.852468971754929044e+03
2.651757821755735222e+03
2.454624904523672285e+03
2.239131961277036680e+03
1.779210124217916700e+03
-2.700444740476524430e+02
-3.494652238070154453e+03
-5.847628352100446136e+03
-5.810917296370200347e+03
-5.629562645318843352e+03
-5.092527552835796996e+03
-5.177813750717597941e+03
-4.538393392457926893e+03
-3.764224833744837724e+03
-3.796211220140805835e+03
-3.925374499065163036e+03
-4.287700142861178392e+03
-4.303162787074337757e+03
-4.273692652717688361e+03
-3.993274801856064641e+03
-5.659616288120519130e+02
-1.511790432290026274e+03
-5.071716798400048901e+03
-4.735760427044555399e+03
-4.121858479640693986e+03
-3.606948897044412661e+03
-3.937997909240667013e+03
-4.611053565247071674e+03
-4.658077102234133235e+03
-4.416041575287534215e+03
-3.974976704968320064e+03
-3.791874309911334876e+03
-4.249663301683393001e+03
-4.020313737179002146e+03
-3.240774419762681191e+03
3.229692821620986365e+02
2.289460002815113455e+02
-2.231817612593532431e+03
-3.249352665964550852e+03
-3.667648392444849378e+03
-3.656690540090579816e+03
-3.779479214295834936e+03
-9.789931866235349389e+02
3.427824705539826482e+03
4.077987244892507533e+03
3.870478885582949260e+03
3.556335365111517149e+03
2.984552317397343813e+03
2.813156222212986904e+03
2.374134634747606015e+03
2.191452955701157862e+03
2.500174990436239113e+03
3.145273532576692105e+03
3.528797379287485910e+03
3.302755525280872462e+03
2.909179202243271902e+03
2.729114024735352814e+03
2.623692630651989930e+03
2.300967129118326284e+03
1.591115869544438283e+03
1.364988390379655129e+03
1.578446229301240010e+03
2.070399539342346088e+03
1.639895777528878853e+03
1.741038129223944907e+03
1.597776015705547252e+03
9.460388298979170258e+02
7.558059642286041253e+02
6.660132906803650030e+02
1.388316902610862144e+03
1.266272843909435323e+03
1.477726824208382141e+03
2.079883941280241743e+03
2.283406735142747493e+03
1.982288483587273731e+03
1.934014872196787564e+03
1.965206939524113523e+03
2.203957091130467688e+03
2.364076568467723973e+03
1.953728585648058697e+03
1.901627399247649009e+03
2.003317342374267582e+03
2.484458767736430218e+03
2.755626642586025355e+03
2.301164417809078714e+03
1.458971106178115633e+03
1.272197947336538164e+03
1.215747601782356469e+03
1.118207303518801609e+03
8.928953803525054127e+02
7.470643680152194293e+02
6.575076894835350458e+02
1.184979145301586641e+03
1.587824823303386438e+03
1.828718581496700608e+03
2.244804665959248268e+03
2.229628985438752807e+03
1.935330173309921747e+03
2.005065358276510551e+03
2.470989398036367220e+03
2.191891578570049660e+03
1.376518693658763141e+03
8.158970227961788169e+02
1.072050751340975467e+03
1.074944988679905919e+03
1.038572838826226871e+03
9.349195747844213429e+02
8.460014450153594225e+02
4.627517958605296258e+02
1.651724159958482687e+02
2.053201278044994922e+02
3.081141855854473306e+02
2.824238633044682842e+02
6.982731731948349534e+02
1.618740344690737857e+03
2.057839250902475214e+03
1.583547141767499852e+03
8.948339885507343752e+02
2.788346165140195581e+02
5.705690207249525656e+02
8.249988153285559065e+02
4.380246253539779104e+02
-1.769415709207882855e+03
-4.407330078362340828e+03
-6.818759520892699584e+03
-6.899763079728731100e+03
-6.282322694038938607e+03
-7.309396224330042969e+03
-7.421013954749694676e+03
-6.785193815553114291e+03
-6.326992662569926324e+03
-6.303433463301300435e+03
-5.760513279495420647e+03
-5.821133704351846973e+03
-5.891224110162247598e+03
-5.597825790492485794e+03
-5.762947613488583556e+03
-3.851649782501314803e+03
-1.762897149128133833e+03
-4.769652756548518482e+03
-5.757968989366619098e+03
-5.741825643119089364e+03
-5.492243510905974290e+03
-5.176194857573785157e+03
-4.793637834313553867e+03
-3.632607857348297784e+03
-1.070509015076265058e+02
1.608029704262869018e+03
1.788627045933851605e+03
1.920721602355892855e+03
1.842257008720512658e+03
1.817223068470630324e+03
1.841731798871722049e+03
2.045827378231129842e+03
2.621501177525879029e+03
3.122773175482909664e+03
2.926645995168064474e+03
2.153171087141394310e+03
1.566326540573873672e+03
1.737082323371364737e+03
2.198473352624586823e+03
2.349456378021076489e+03
1.829094569629729222e+03
2.058409882171727077e+03
2.242415148499268525e+03
2.098157307630941432e+03
1.592590101096234775e+03
9.947686435879132887e+02
8.377273856359961428e+02
1.224485033422698734e+03
1.361046132906976254e+03
1.322407920210456041e+03
1.256605915931681693e+03
1.490609944946941141e+03
1.834484099183533999e+03
1.775203305853734946e+03
1.260787837698405838e+03
8.643462824570708563e+02
6.389447156840617481e+02
8.255746693244990411e+02
1.293196246427536835e+03
1.322761076739725240e+03
1.217298821602793396e+03
1.026923898563148668e+03
8.505691615911605368e+02
1.131169268740213511e+03
1.192801199781334844e+03
6.766659983306940376e+02
5.762319299984746976e+02
5.394139290771655624e+02
6.171601726781849493e+02
7.854771972585717776e+02
8.723094185139545971e+02
1.137796397023375675e+03
8.179567515309865939e+02
4.677358569166663642e+02
6.801589010592111606e+01
-5.380786765462253243e+02
5.140355514963898997e+01
2.252296196560155863e+02
1.153717374108958893e+02
-3.272192875020672318e+02
1.365585845511182299e+02
6.597631940408754190e+02
9.153503737063381323e+02
7.572682678400418581e+02
3.754103564099528398e+02
-8.609317883266713523e+01
-2.320621279806108248e+02
-1.295320481603151563e+02
3.144592587849923575e+02
4.679072522077963185e+02
7.828239708448538750e+02
1.314268931308361971e+03
1.506232630855847901e+03
1.419730687838717813e+03
1.079776695079066030e+03
6.813496195424214648e+02
5.653942645867747387e+02
4.839608376541702910e+02
-9.289856415671881962e+01
-5.972793947893665063e+02
-4.012424448968230877e+02
3.432279335264388465e+01
1.744628606270367754e+01
-1.899310358531188285e+02
-8.367715268563867994e+02
-1.033066614610778061e+03
-1.444895946937259396e+03
-1.419286092092800345e+03
-1.381114023294321441e+03
-6.553368417599159557e+02
-3.181064270037348365e+02
-2.074238562062107576e+02
-1.852589324577712944e+02
-1.956465854575413630e+02
-2.355520879249578172e+02
-4.597041888762630180e+01
1.851184359525867649e+02
2.077703285435819964e+02
-1.250849610479925786e+02
1.674997362086607211e+02
-3.894061748527258828e+02
-9.066426753475788018e+02
-5.462224060593388231e+02
-2.584506183121281992e+02
-5.263293274561876842e+02
-5.508362071688295600e+02
-8.689972980971666630e+02
-2.631845483569406952e+03
-5.150378656092902929e+03
-7.099545692793427406e+03
-2.129390706312430666e+03
2.251236563305092773e+02
8.539631609104693553e+02
1.363074502691591533e+03
1.183451504809882408e+03
4.831313763306588953e+02
5.471433163157947774e+02
2.985012339048281547e+02
-5.218219176483828505e+02
-2.197905061787567433e+02
1.296193810325625293e+02
-1.574808983351441896e+02
-9.337356721775574897e+01
-2.321679139665262710e+02
-2.972360447399203736e+02
-4.734187855287066782e+02
-9.466850603654822862e+02
-1.439300081411119208e+03
-1.235574942330895055e+03
-1.162801105019194210e+03
-1.123902440431571222e+03
-9.606892533639019121e+02
-3.111250464863375669e+02
7.487881808848075025e+02
1.148877043360815378e+03
9.937837285458487031e+02
1.028931540199517258e+03
4.158205052116097704e+02
2.797564888241990957e+02
3.014729535322603624e+02
8.342909158395215172e+02
8.131938350718206721e+02
7.159318492110903662e+02
9.816965733960342959e+02
7.614427550887323832e+02
3.122007974365710083e+02
2.599978366006426427e+02
2.858584946655549288e+02
3.357085844685012717e+02
4.095252500077845070e+02
7.150615091386923723e+02
9.715551363554988029e+02
1.039272925133176386e+03
1.203069886445530983e+03
1.241594891359183066e+03
1.138936003116631809e+03
1.170947430512786241e+03
1.254337167424665722e+03
1.032993764936050411e+03
9.074505848568564943e+02
6.647895975322367121e+02
7.747703902859525442e+02
9.783136973298469456e+02
9.510674533326854316e+02
6.828984900468526575e+02
6.359982015705074900e+02
2.394135163446890715e+02
4.405874655931508244e+01
-4.690385514859409568e+02
-6.961072832683236129e+02
-2.251896026250991945e+00
8.934438079207151304e+02
1.393121842727147623e+03
1.896976852509808168e+03
2.258143117460843769e+03
2.343586849618967335e+03
1.969094096808989889e+03
1.454541254719114477e+03
1.733171738592347310e+03
1.923939824507545836e+03
1.837684726204229719e+03
1.821429139998279652e+03
1.229164433543271798e+03
-3.207131957840633277e+03
-2.600594993474086550e+03
-3.910220555477986636e+03
-1.962043213159736752e+03
-8.509767323407373851e+02
-2.965801331951938209e+03
-1.178457380139526776e+03
-1.903958424901651824e+03
-7.743609818098805135e+02
-2.279916628532824689e+03
-1.442631597031707543e+03
-3.964367039771861073e+03
5.788889741320393796e+02
2.014208905757929642e+03
-2.004455507113405019e+03
-2.469065612413185590e+03
-3.594580469125457512e+03
-2.674953921618408913e+03
-1.246158011968585470e+03
-1.755168791866815809e+03
-3.370977728154348370e+03
-2.758569052994702815e+03
-1.810917007401644469e+03
-4.725021109178557708e+03
-3.256800131587929627e+03
-5.272073376832530812e+03
-3.113910718913683013e+03
-3.024345170848350335e+03
-3.486330390060884383e+03
-2.389729741522336553e+03
1.372525564328416976e+03
3.347445974551173094e+03
2.874047487669412021e+03
2.522291499789425416e+03
2.307998897573249906e+03
1.980123025590943371e+03
1.629708162143620029e+03
1.361799764555240699e+03
1.157507913545821339e+03
5.788666343701188453e+02
2.689717589490819023e+02
1.354880459665829676e+03
1.787604619742685145e+03
6.691719608659124106e+02
-6.183975050686349277e+02
-1.039068512525615688e+03
-1.364847377540982734e+03
-1.854708461574897228e+03
-2.714496740964383662e+03
-1.874115100351256842e+03
-9.755753755388343507e+01
1.845180166363413264e+03
2.715177638896791905e+03
2.999495650111171472e+03
3.003336666117776986e+03
2.876872736874008751e+03
2.178122335877738351e+03
1.743840697951906577e+03
2.114973860785116813e+03
2.273809471040305652e+03
2.218534466320787487e+03
1.669149810416765149e+03
1.066655272513243744e+03
3.321628799205374776e+02
-3.884768837361972942e+02
4.381136526599359371e+01
2.810994734599290155e+02
2.653429931216437581e+02
-1.233039740208304025e+01
-1.010358714487515641e+02
3.002008604726901808e+02
4.438702754164421549e+02
5.729594155249606047e+02
5.553561597588785617e+02
2.828095816246794243e+02
-4.038597292803337524e+01
-4.682613683323255600e+02
-4.220230147006760717e+02
-5.469204933596369500e+01
3.015770440137623041e+02
3.787662463961320327e+02
-1.831136661431309562e+02
-9.010185460700381554e+02
-7.359371939544425913e+02
-6.058638673518818223e+02
-6.118254139282025790e+02
-2.678456509504711676e+02
-4.378944445897612923e+02
-8.692076489848687970e+01
4.441205401183185586e+02
5.672542680605931764e+02
6.174166348099622610e+02
3.425820718094103086e+02
1.573249179914218665e+01
1.989223419793719927e+01
-1.920476705642929289e+02
4.787938566196253731e+01
-2.202999432927371970e+02
-4.895360825279183246e+02
-2.628376925065677483e+02
3.271680012574067575e+01
4.370339666665689720e+02
2.821180279951692569e+02
5.329665764469607439e+02
3.895486453998012735e+02
3.208505524206017299e+02
-3.194105745446562228e+00
-8.315965882253029804e+02
-9.213302511155133061e+02
-7.040910907603797853e+01
1.043132349041763518e+03
1.740225797247859191e+03
1.465792375608470593e+03
1.149816900817834721e+03
1.333280554962762380e+03
5.751493494865840148e+02
-1.526640800908639221e+03
-5.066155635627055744e+03
-8.711380716476412999e+03
-8.908207064751981306e+03
-8.637745721866702297e+03
-8.459128166565424181e+03
-7.987403227084686478e+03
-7.525611693917117009e+03
-6.767779025234523033e+03
-5.427918341943976884e+03
-4.503997855821586199e+03
-4.946089998598327838e+03
-3.729368869056032054e+03
-1.217521266835816505e+03
1.600336636322217146e+03
2.764123998828297317e+03
2.421770327064664343e+03
2.884288655569245748e+03
3.765583692687063376e+03
3.804600080062921279e+03
3.061299735806426270e+03
8.267015350085736145e+02
-2.932218074155326804e+02
5.855122841114869061e+02
1.109843532281493481e+03
1.247730589068896506e+03
1.126111232516124119e+03
1.350978370221530213e+03
1.620291324663947080e+03
1.652971263157918429e+03
2.244989741530748233e+03
2.827323285079013203e+03
3.213958915748850359e+03
3.221879643829060115e+03
3.499989498389129039e+03
4.186419791036269999e+03
4.144319453557060115e+03
3.291570392379537680e+03
3.172019610783786902e+03
3.703521928515738637e+03
3.588986829169524754e+03
3.591352571249761240e+03
3.873695739625266469e+03
3.356975577473674548e+03
2.716150458758051172e+03
3.350143746337098946e+03
4.242908324311546494e+03
4.275351083078787269e+03
4.051519872349814705e+03
3.583386272471512711e+03
2.541941868195281131e+03
1.961108984605804835e+03
1.534870721778596817e+03
1.376231716379842283e+03
1.882173098527914362e+03
1.820579601172004004e+03
9.284098467793501186e+02
1.024634453153894810e+03
3.058324194150392941e+03
5.390484944110084143e+03
4.853022059137490032e+03
4.440901485095278076e+03
4.160154873337428398e+03
3.679759822139605149e+03
3.227717699297302715e+03
2.430181779663957059e+03
2.906255023908006478e+03
3.254912675796781969e+03
3.020647124551216166e+03
2.605570417834916952e+03
1.680734527811513772e+03
7.290878436605390789e+02
4.816997519012018074e+02
3.466590022423569621e+02
5.309351817291027373e+02
5.055651174787170135e+02
8.435674670241829745e+02
-3.360813742430719913e+02
-2.130376206554818964e+03
-8.237282634393219269e+03
-1.518282033224737825e+04
-1.453101957235096233e+04
-1.058585331745640542e+04
-5.372242222156349271e+03
-1.279078343333206931e+03
1.576175762603595274e+02
-2.758244030091823333e+03
-5.239592053361697253e+03
-5.690414192072683363e+03
-5.074741338258148971e+03
-3.916576566635160816e+03
