1.188468032625457226e+03
1.045148891929522506e+03
9.018128804181677651e+02
7.174579160303607068e+02
8.751024732902284313e+02
6.467490864783799225e+02
6.923311174847402754e+02
6.208842020077998995e+02
8.524950204542923302e+02
1.038140503835831169e+03
9.507848256487533263e+02
6.724576783298572309e+02
4.422069504317741462e+02
6.120614039299625802e+02
9.289534218383157622e+02
9.138973974614943927e+02
6.809528793875354040e+02
5.301784362158924750e+02
4.946612576331843343e+02
5.666427398548086103e+02
5.399133136081551356e+02
4.936433975490367061e+02
1.968189264968926011e+02
5.454184576158700004e+00
1.555838474814825112e+01
-1.847356340200326201e+02
-1.433785557229856977e+03
-2.600015038006172858e+02
1.875723904496302055e+02
7.346178870634499845e+02
6.073077068345654652e+02
-6.856683526982908461e+01
-2.732073009488673961e+03
-7.531792867977901551e+02
3.811290678843015485e+02
5.857081874714730247e+02
4.667334025963577915e+02
2.370885124284698122e+02
2.747103931385303213e+02
2.527089412640264356e+02
1.280877752920116563e+02
5.195946575683417450e+02
7.913159263672826000e+02
7.753282922882809771e+02
4.643940100467092407e+02
3.824813779388990156e+02
2.695587270699415399e+02
1.516117513729261930e+02
2.726416052677118387e+02
4.045927520741756780e+02
6.464999249729281701e+02
3.973607230586227388e+02
5.781744029789829256e+02
6.389267543122322195e+02
4.776351414191132676e+02
5.062753174601860451e+02
4.678259680619940468e+02
5.632902244498685604e+02
3.816298774054118326e+02
2.648872793761845514e+02
6.130700074256576499e+02
6.771312018845441116e+02
5.900306961288541743e+02
6.877966983104226983e+02
4.703934514414467571e+02
7.288419012084480073e+02
6.571192606257412763e+02
5.182265685256094230e+02
5.611646706709844921e+02
4.518969174478135074e+02
4.824389970494167983e+02
6.787969640372778031e+02
8.259343939214797956e+02
8.048683998479948514e+02
7.706122800826121875e+02
8.771293482396466743e+02
6.244218266833530606e+02
5.174506787211500978e+02
7.021832587814448061e+02
6.296796384975189085e+02
3.089841217424797719e+02
3.740725096603252382e+02
4.158809047133025274e+02
2.724071443241774091e+02
6.665624657465784253e+01
-1.594386451534669959e+03
-3.692693607695639457e+03
-6.897293864506994396e+03
-7.526197703901480054e+03
-7.187393655422772099e+03
-5.281811512995082921e+03
-4.453064327524804753e+02
3.938924779511423253e+02
5.667571102044672671e+02
5.523338661939817484e+02
-2.224336348362051922e+03
-1.733269087670917315e+03
-2.014821404428654432e+02
3.630396513505829148e+02
3.942728513963413093e+02
4.562795969397272415e+02
2.900389509294696495e+02
3.635407762855737701e+02
2.307841716414487507e+02
5.774837306524875657e+01
3.604766940901712360e+02
5.069838121355948601e+02
3.442614890685841260e+02
2.813514390337421673e+02
4.322172011548704518e+02
4.158477400489543356e+02
4.252454221415001712e+02
1.743114428014047235e+01
1.734537991383735971e+02
4.183063902307707167e+02
4.350207043372837461e+02
3.335879687162474738e+02
3.210043099483277729e+02
3.722966557068442626e+02
5.114941721472672498e+02
5.096261202457768604e+02
2.696697372205749730e+02
3.096826859256494231e+02
6.656651239402011697e+02
4.635720708148723475e+02
3.814656268509320967e+02
2.873182271080397641e+02
2.951718212471260472e+02
1.510151356558608313e+02
-6.411162622880480910e+01
5.780544107297071577e+01
1.763487658129359925e+00
7.079118077054164360e+01
-2.890942658452438536e+02
-2.148440947654680997e+02
-1.684956526419372835e+02
-9.011905385444563876e+00
-1.953821408118101886e+02
-1.035758334439840809e+02
4.841039381770508498e+01
3.245995073894625307e+02
1.549048614677423075e+02
-1.666691052301832769e+02
-2.789313284815997918e+01
-1.267913362076040897e+02
-2.270208124665320213e+02
-1.739197557288444784e+02
-4.317548135515462491e+02
-1.080937147112600343e+02
1.910563376770736568e+02
5.660243890207737394e+01
1.915141577566261617e+02
5.180029729144413153e+01
-3.055758684887220511e+02
-2.864123100348406297e+02
-3.007930688529746703e+02
1.222380105546090618e+02
1.937448909522410361e+02
-1.482885217693072661e+02
-3.289549046284534484e+02
-2.962066365026796007e+02
-6.184345805309150279e+01
-2.938212105307570141e+02
-5.661394271710852308e+02
-4.448463114284249968e+02
-5.510403642873219496e+02
-2.776979029773292496e+02
-3.327843092556782949e+02
-3.383111629302387655e+02
3.172141153327035212e+01
-9.569204677481521060e+01
-1.124815453415695714e+02
1.033130801817489441e+02
1.477202866487714914e+02
-3.523687895828249594e+01
7.241759055431184322e+01
7.968806249940551822e+01
5.954961331669983338e+01
2.060250335536644286e+02
2.231338654439638276e+02
1.388492179140042424e+02
7.616398274903176002e+01
-2.349063299617782832e+02
-2.373816342539453501e+02
-2.662982655102898661e+02
-1.686302593320176868e+02
-1.083810143186967707e+02
-1.385039371428694324e+02
-3.510335714224782464e+02
-1.659927586874357814e+02
-9.637656074374592663e+01
-7.121790067501694921e+01
-1.294907311435862880e+02
-4.251924425664583396e+02
-2.464139314001089360e+02
-2.871189564587705831e+02
-1.553146187374296971e+02
-1.910181134917088173e+02
7.701286215897013010e-01
1.430341629491456672e+02
9.776084294593636059e+01
-4.880760632998728283e+02
-1.217497680969579733e+03
-1.244958116321049602e+02
-5.131409010874873111e+00
-2.164217675749002581e+02
6.548631958266830644e-01
3.110561451749297248e+02
1.077470866674038064e+02
2.107118824725414186e+02
2.749809591213303293e+02
2.715053186114653840e+02
7.421992579415663727e+01
4.512514861347838035e+01
2.231435035454517219e+02
6.771998125292346913e+02
5.272931847166570378e+02
6.258224829193787286e+01
3.011656648175584223e+02
-8.497755785904691095e+01
1.602545418087694316e+02
9.089877547261477275e+02
8.660172745057744805e+02
7.682583077601060495e+02
5.725090202861300668e+02
7.995675971181158275e+02
6.459729156429220893e+02
6.602783631738321901e+02
7.626385841161700228e+02
7.339791272639627095e+02
6.422660404836520911e+02
5.484847226314774389e+02
8.208230386948953310e+02
1.226129154560820325e+03
1.240528206509870188e+03
8.559608866898258839e+02
9.217610593383824380e+02
1.071455477184436859e+03
1.013766519968115631e+03
1.062612452626739469e+03
8.039767785213966818e+02
1.136121078386835734e+03
1.239025766927215500e+03
9.533518412955431813e+02
1.032279433434170187e+03
1.301792924908274017e+03
1.511114614087200607e+03
1.328161586607405752e+03
1.352939953692796053e+03
1.350073162769666396e+03
1.209459141111756935e+03
1.200065847067315190e+03
1.369887753676274315e+03
1.330914670684583825e+03
1.479086353190708451e+03
1.586371443022191215e+03
1.402757145702434627e+03
1.217238865620517117e+03
1.390822278716944083e+03
1.649458369268946853e+03
1.752147089894937835e+03
1.842860112488112918e+03
1.516611383290204685e+03
1.359353749144467429e+03
1.193078319303225499e+03
1.216755064884889634e+03
1.207369818023880043e+03
1.136961942203272656e+03
1.384510623443351278e+03
1.519986879746552631e+03
1.231387959804000957e+03
1.346685234491856363e+03
9.888950065681220849e+02
-8.399997696001915983e+02
-3.198016575248669596e+03
-4.459132597594492836e+03
-6.654365078399946469e+03
-6.445722058030622975e+03
-6.203203227763901850e+03
-6.010776438779432283e+03
-5.064438882368968734e+03
-1.731195746067065329e+03
1.535905665674474676e+03
1.124110765115763797e+03
-3.995800817744660890e+03
-6.332787628890275300e+03
-6.265866560436428699e+03
-5.807002924132770204e+03
-5.899130148764214027e+03
-5.950050895231876893e+03
-5.755131815615256528e+03
-4.595306970197967530e+03
-1.860459848311701762e+03
-4.357581509747312339e+03
-5.966650148841226837e+03
-6.041628133870264719e+03
-5.664502485678960511e+03
-5.267247801641248770e+03
-2.054888455637187690e+03
1.322599147984462206e+03
2.102237544695642100e+03
2.520096002509919344e+03
2.686209423642306319e+03
2.652590326409256704e+03
2.467275936059415017e+03
2.097268273586793384e+03
2.096584959038493253e+03
1.965260216538840496e+03
1.873358984738528306e+03
1.848879278299162252e+03
2.190880583390021457e+03
1.817373700244251950e+03
2.006357154747106051e+03
2.156922800007740989e+03
1.613094433028144749e+03
1.664941358523498593e+03
2.010462899619236623e+03
2.095684203262276242e+03
1.913637498906821747e+03
2.038381981909343722e+03
1.856945740691514402e+03
1.670388605189289137e+03
1.453731243966667989e+03
1.470033709169626945e+03
1.736318925703669720e+03
1.687573838594513973e+03
1.335881251902349277e+03
1.470283149395060718e+03
1.198808300862446231e+03
1.248483899164195918e+03
1.553362923283542159e+03
1.505479010968858574e+03
1.414857161800104450e+03
1.086587762592361969e+03
6.026833840179224353e+02
6.521759882115112532e+02
1.128119940116854877e+03
1.477557641844777891e+03
1.039519782794314096e+03
8.830508208248996880e+02
8.291776579854905549e+02
9.528947350157359324e+02
1.010296014387354830e+03
8.534554104254062850e+02
5.476873635632808828e+02
1.510920219444747090e+02
-8.534344550413240995e+02
-6.200055877180655273e+01
4.081550416494000615e+02
3.742664631767138985e+02
1.757491283925283199e+02
3.353832105562720471e+02
2.643164679481026269e+02
1.652588624075313248e+02
1.570979124943066836e+02
-1.451005534759004547e+02
9.974323684787219690e+01
2.436520750798184167e+02
1.476389256154664338e+02
2.569106765686812111e+01
-2.451460062380198508e+02
-3.848636308390898080e+02
-3.334801922655798307e+02
-2.379613906306276192e+02
1.257249897052877117e+02
2.857915103433341741e+01
-8.940197824363016821e+01
-2.652101224509132749e+02
-4.038434994269769618e+02
-4.522618383023832394e+02
-4.885078043460455888e+02
-3.025704437252351227e+02
-1.924251873031915352e+02
-3.010811244237307847e+02
-3.155890079307847600e+02
-5.489411182742767323e+02
-3.091147054931224716e+02
-3.231060503077506496e+02
-4.369139852213158406e+02
-1.475615294012524998e+02
-3.030867884358546007e+02
5.251568650256674431e+01
-1.067570031162909032e+02
-1.590807212793816916e+01
-1.499441181545132338e+02
-2.487233668550844712e+01
-2.236881215189857244e+02
-3.034512236932874885e+02
-2.471895275642168599e+02
-3.939207764003975285e+02
-2.446273442778685308e+02
-2.573561631908572735e+02
-5.145529783360396792e+00
8.601809116483306639e+01
5.613843735678651825e+01
2.701421198192614384e+02
3.379767126062716329e+02
-5.894035083893730871e+02
-2.342982976971040443e+03
-3.646731212810262150e+03
-5.400735187093428976e+03
-7.570091582672781669e+02
-3.995931194387608230e+02
-3.414507376921860214e+03
-1.885787376732180519e+03
-2.750389142778837837e+01
2.633025033346343093e+02
1.826195814789332985e+02
2.093805860929303435e+02
-3.944498143399798664e+02
8.121131850933345220e+01
2.492737658203737965e+02
3.886892454738422771e+02
6.903511480513799370e+02
8.522309979246244893e+02
-7.908608185404254982e+02
-2.528700449860953086e+03
-2.411209361565990548e+03
-1.426354289750042199e+03
3.476886745034362889e+02
9.088443507411958535e+02
8.048647783479392501e+02
6.448446919219833262e+02
6.809379645891752943e+02
8.397613982907606669e+02
6.904703773128436524e+02
4.961013600694813022e+02
7.687486025236216847e+02
6.041602618967107219e+02
8.212762655609966487e+02
1.016020477229806602e+03
1.036245442549003883e+03
1.281281005770178581e+03
1.228758662181461204e+03
1.066923197272625202e+03
1.181648595650387733e+03
1.390841510729706442e+03
1.349401361823906882e+03
1.486303462180258521e+03
1.500732305204778186e+03
1.230440096922998919e+03
9.646937153900581734e+02
6.980912900841675537e+02
9.038392593760422642e+02
1.202955758990890217e+03
1.204284617743813442e+03
1.284749910248407105e+03
1.237171010846860099e+03
1.518887616441317277e+03
1.707809780897802511e+03
1.211691198636556692e+03
1.190669463592697412e+03
1.313751002102501161e+03
1.506709041117528614e+03
1.602822097575316775e+03
1.732147336738867580e+03
1.779502408727846159e+03
1.603790399380091458e+03
1.563035464046487505e+03
2.014281083414940440e+03
1.935374796269607032e+03
1.795339059609938204e+03
1.822224603220196059e+03
1.895013058397123132e+03
1.703637467121134250e+03
1.429109963876620895e+03
1.470421889331447119e+03
1.743583052136663810e+03
1.582607809233010812e+03
1.442510879915089163e+03
3.262660632336629192e+02
-1.854161155198403549e+03
-5.159762605219877514e+03
-6.064531226265276928e+03
-5.847355079442418173e+03
-6.114336882415500440e+03
-3.377415035136068582e+03
1.563398413165344436e+03
2.125045086214268849e+03
2.136622951490978267e+03
2.067117671962075292e+03
1.765707926980553850e+02
-5.458050755936854330e+03
-6.248715878805231114e+03
-5.611418588729794465e+03
-5.686148068281023370e+03
-5.637891253441037406e+03
-5.518602091513848791e+03
-5.520240938707536770e+03
-4.469846460138619477e+03
6.095736229885653756e+02
2.132095611533587089e+03
-1.658174426519219878e+03
-3.290288764055456340e+03
-2.006234682705790647e+03
-5.107978304572186971e+03
-5.417468993867745667e+03
-5.289695439395638459e+03
-5.336656406133428391e+03
-5.602294364996261720e+03
-5.458586557182085016e+03
-5.641497564209676057e+03
-5.436036525082959997e+03
-3.871187448243023937e+03
1.014118103270786833e+03
2.333913519899730545e+03
2.913217860838168235e+03
2.875060011724008291e+03
2.883468691785779811e+03
3.056462864457161231e+03
3.046104920502970344e+03
2.795424898302544989e+03
2.577454889297646787e+03
2.548235611369199432e+03
2.702829158743672906e+03
2.431238423528245221e+03
2.263474766609504968e+03
2.286593664136367352e+03
2.326642499800838777e+03
2.214680441327487642e+03
2.030705202123241634e+03
1.936737506613552114e+03
1.815802515331749646e+03
2.126963559691781029e+03
2.121236758304087743e+03
1.821625793348759089e+03
1.986131092682806639e+03
2.148786201224762863e+03
2.378807940680903812e+03
2.235187239824018889e+03
1.906939102133857205e+03
1.985938290637712953e+03
2.011524361977974650e+03
1.850959009192470148e+03
1.626126738777069932e+03
1.464060449094089790e+03
1.320746157866321937e+03
1.224169848429038893e+03
6.910886072574193406e+01
6.944652256114359261e+02
9.415836524632070450e+02
1.186863106867947181e+03
1.400258738600366087e+03
1.337855263635788788e+03
1.330433733167227274e+03
1.278665024331388850e+03
8.504011342902139177e+02
5.711995821661976152e+02
8.397581750906317666e+02
7.177518143301806504e+02
4.408577908874745503e+02
6.400709091711256633e+02
7.352745974986960391e+02
7.904796699436134304e+02
8.176610258764459331e+02
8.296185330880572337e+02
5.335265202012552663e+02
4.151917702094107767e+02
6.005237937563580317e+02
5.695422464817114587e+02
6.352341774068951281e+02
6.106119476596344384e+02
4.616767095067874607e+02
5.154028833712432061e+02
5.258111365463868196e+02
5.298829489312653322e+02
8.396279780913157538e+02
6.479737941792216134e+02
7.995856173291717539e+01
1.145358138112552240e+02
1.597160524140629150e+02
3.905568379279294504e+02
1.829879309763941535e+02
3.209876976474372441e+02
1.715668085790399005e+02
1.267390631913366832e+02
1.444405439483800819e+02
1.136912276533451234e+02
3.724827052960722540e+02
6.838301975321242026e+02
7.556933614325306507e+02
2.849923481412845376e+02
1.427561733838154794e+02
1.570206159989705270e+02
2.557085134795549948e+02
2.108296736425067195e+02
1.903611502195383025e+02
6.724822690477761000e+01
-1.195066688495258376e+02
-2.791325497951500267e+01
-1.719697209178853825e+02
-9.664401709590140399e+01
-2.596708938759466534e+01
-1.990366333819241618e+02
-1.048729533007714423e+02
1.335911605114466170e+02
9.031038463926810778e+01
-6.897751158319114211e+02
-2.787665364563394633e+03
-6.012381049579241335e+03
-8.141981474688615890e+03
-7.531385334033366235e+03
-7.658641165359732440e+03
-7.728551427728883937e+03
-7.398422572109914654e+03
-7.699230995545819496e+03
-2.998925989288974961e+03
-7.245631754434349432e+02
4.558194879973367506e+02
7.862247858610335243e+02
7.476419724583421385e+02
5.730461524293864386e+02
7.084452524837832925e+02
9.927566644370843960e+02
1.015002806560669114e+03
8.731826823958388104e+02
8.872633578748299215e+02
7.302612731067298455e+02
6.271823361812631674e+02
7.109691108196468576e+02
7.776191878065495757e+02
8.060906926820082390e+02
9.343899999364771247e+02
9.475323347253915927e+02
9.334743140264355361e+02
9.032028732455182762e+02
7.957223668233810940e+02
9.520091177661741995e+02
1.286054722775969140e+03
1.447876373263615960e+03
1.021488151674521760e+03
7.048974046748987803e+02
8.210575988527928075e+02
9.659597367772689722e+02
9.606121886325781816e+02
1.023989265671108342e+03
1.104046356462599306e+03
8.238300620946066601e+02
6.813358694024889246e+02
5.955745268261598540e+02
6.965338840758493006e+02
7.502244886939585058e+02
9.956684559548190236e+02
1.067852889711998159e+03
8.337977139845568217e+02
7.064768728108869027e+02
5.729244615110203540e+02
4.861117188193216521e+02
1.320302403437736132e+02
3.856902135889804413e+02
7.380863347876031639e+02
8.022316317415513822e+02
6.151273814522152179e+02
3.117901293030886336e+02
6.831559928913331703e+01
3.837656563605706310e+02
4.551459560725153324e+02
5.274411247802411253e+02
4.663341312523838269e+02
7.365055715644074326e+02
6.668730810167309073e+02
7.090433193043422762e+02
7.379693392864990074e+02
6.347584321485787768e+02
3.424422613709909342e+02
-3.549792949975064289e+02
1.665062098759998435e+02
4.308214525312369574e+02
5.691865801730538124e+02
2.874972488404699220e+02
-2.812450523407124479e+02
-3.807039600373941994e+03
-4.454712462526893432e+03
-3.386206109930001730e+03
-6.886209190242907425e+02
2.399674989212375351e+02
7.814784725346084997e+02
-1.186025762673890085e+03
-2.050480473184034963e+03
1.181398113597061723e+02
-2.520180277896069583e+03
-3.069394277768099982e+03
-2.223468555301727520e+03
2.775858976522882813e+02
4.617449648595704161e+02
6.580791666975214866e+02
1.695663404404826338e+02
-2.407821164428545671e+03
-4.706883223211689682e+01
-2.016140409884943665e+03
-4.930363026329387708e+02
3.342572537521000413e+02
3.997764858109678698e+02
-6.484622379812240069e+02
-1.912439331739316685e+03
-7.191958885214204429e+02
-2.081712826056123959e+03
4.940531264996849359e+02
-1.513848381353262312e+03
-6.804519280957091496e+02
9.802284671093984798e+02
9.872022976446063467e+02
7.164728612477060778e+02
-2.036991376988186857e+03
-2.881602096607191470e+02
8.959682031526492665e+02
-1.208593549963102305e+03
-1.080791533195088732e+03
-7.626640462449864799e+02
-3.225239107199814953e+03
-2.245485125331509153e+03
3.995611368667267698e+02
1.375904892435709144e+03
1.237558885233935143e+03
9.055346989299791858e+02
9.458301760998296004e+02
1.075399868397146975e+03
7.992713520440051980e+02
9.344318368869818414e+02
1.455907819638374804e+03
1.438677080461064406e+03
1.107763275095205245e+03
9.531823841897931970e+02
9.258682713164783991e+02
1.063787103493461473e+03
1.220985844303617569e+03
1.194454420417809615e+03
8.892271519291937238e+02
9.854158899862060252e+02
5.041780181043040443e+02
9.983266747707689319e+02
8.027244766994413112e+02
6.063356809203951343e+02
7.489751976609579742e+02
6.544024615053132266e+02
1.011037836619627001e+03
9.969105923203317161e+02
1.240021338519238498e+03
1.349522642078900617e+03
1.301816384868516934e+03
1.260587841839996372e+03
1.230630912186323030e+03
9.739392304393568338e+02
9.438270915067588476e+02
1.161096706386162168e+03
1.007424416995001934e+03
6.193825627639771483e+02
5.098028387796286438e+02
1.063127477316309751e+03
1.115816785917467314e+03
1.126915294111558524e+03
1.030771994411509240e+03
1.379665974817401093e+03
1.210621665944168399e+03
1.285723188574351525e+03
1.614105923294555851e+03
1.472381314348784144e+03
1.762436421826314927e+03
1.833245074502645366e+03
1.712582868512823779e+03
1.659185733070783272e+03
1.832362107851591418e+03
1.841103028552578735e+03
1.624411650626331266e+03
1.415153499082711733e+03
1.168293359594724507e+03
1.058777936830467524e+03
1.098596186392699110e+03
1.120751464566871618e+03
9.072291817731429546e+02
9.910089146531976212e+02
1.057057069726510235e+03
9.773734011636267951e+02
1.071922418395283330e+03
1.415701653967487800e+03
1.731669071829913491e+03
1.744817747897559457e+03
1.528151844484593539e+03
1.337651162701721432e+03
1.517295835899199574e+03
1.439043383116092627e+03
1.320881823140491633e+03
6.408560642468883088e+02
-7.230828901987362087e+02
6.900650839936049579e+02
1.372295237567430604e+03
2.757541131019880254e+01
-5.251059286549157150e+03
-6.818617954982884839e+03
-7.004121628879321179e+03
-6.881577674023510554e+03
-6.499966216492978674e+03
-6.559283325600424178e+03
-6.147553233668707435e+03
-5.845761535316202753e+03
-6.320749151478189560e+03
-5.992715481679500954e+03
-6.256610900797369140e+03
-5.483445625586396091e+03
-1.035188836555364560e+03
1.864167100664344389e+03
3.162490813235181264e+01
-4.683808156047676675e+03
-2.433108661965030933e+03
-2.803260622029730712e+03
-5.840283515694331072e+03
-5.916144945863307839e+03
-5.828818295267050416e+03
-6.035315793243097687e+03
-5.661607512702551503e+03
-5.471705573097981869e+03
-4.449593741785457496e+03
6.157645363988923464e+02
1.976423151101996837e+03
2.170388972324795304e+03
2.520664800391540666e+03
2.596266524652112821e+03
2.704233980655621053e+03
2.613582984778524860e+03
2.548365433468790343e+03
2.674586105325488006e+03
2.665258398758769999e+03
2.958439271626312802e+03
2.853097351681032706e+03
2.576315899178971904e+03
2.281137523233549018e+03
2.201548265263435042e+03
2.242602518650215643e+03
2.031294634631668032e+03
2.007682751640186780e+03
2.081767834352993759e+03
2.250600154023316918e+03
2.069211261817538798e+03
1.975652304652553994e+03
1.883936711918974652e+03
2.120068713435328846e+03
2.305087146728373682e+03
1.939045149097392141e+03
1.810025521931241656e+03
2.016052912143951062e+03
1.931126784102592865e+03
1.745283150619696016e+03
1.772554365538525644e+03
1.622984745940234234e+03
1.375617617698538879e+03
1.119487204192747640e+03
7.576346086707334280e+02
7.440987024683066693e+02
1.108870691537875246e+03
1.004885256786419063e+03
8.431635933814343389e+02
1.000825583991722965e+03
1.066119755539499693e+03
6.501230711917419285e+02
6.198749393657892597e+02
5.205607789270542298e+02
-4.575949181702333703e+02
-4.845590451098033782e+02
-1.166628028897722515e+03
2.422946042500198871e+02
-1.297829526320973912e+02
-1.548263266146505828e+02
3.312383703450665280e+02
1.951013691237954504e+02
1.380410305331440952e+02
1.227826078817580395e+02
1.513812971393584803e+02
1.698720041718706852e+02
1.822430678461980733e+02
-1.525426776464149157e+02
-7.145476938291025704e+01
-1.448549739818997573e+01
-2.626017799768379746e+02
-3.527488492604675798e+02
-7.891297280782838186e+01
-1.561038266933751117e+02
-1.731199490232226523e+01
1.154676879117121899e+02
7.622234759045126395e+01
3.689421041532589243e+02
1.646506463296455252e+02
-1.416370674933839098e+02
-2.529083607869408183e+02
-6.101315969419305247e+02
-7.963056593453269443e+02
-7.134816023869999526e+02
-5.456402915756683569e+02
-3.270969451102508430e+01
-2.546777722598248488e+02
-5.261348600152530253e+01
1.454587747972681768e+02
-5.244293147488598095e+01
-4.333187521810941689e+02
-6.991861679078307361e+02
-4.730039767323972910e+02
-5.727694343289532526e+02
-6.065867313374379819e+02
-7.724629160233639595e+02
-3.863824598628546028e+02
-4.893172682880510820e+02
-2.732740088393033489e+02
-2.722803253042666256e+02
-7.036231688012654217e+01
4.347822557489883621e+01
-1.727786224414610388e+02
-4.711456266371173029e+01
-1.905833394258822295e+02
-4.212585011737697869e+02
-5.111141963498599239e+02
-6.360960236569366089e+02
-7.942401166185132979e+02
-1.582612433943617134e+03
-2.613277209836585826e+03
-5.313264292923821813e+03
-5.881563300135861027e+03
-9.001553434400885862e+02
-8.109873041611803046e+01
1.960844031065383675e+01
1.938732055272065224e+02
3.586373836288915982e+02
4.648932496462290374e+02
5.315723532841121823e+02
-2.012320767652470579e+02
-1.275673036822543281e+03
1.222606728153913735e+02
2.085054898706161168e+02
3.910777074062742145e+02
3.399620972250312434e+02
3.354202806511912627e+02
3.571714322060468021e+02
6.000302177006421971e+02
7.767836844142890413e+02
9.485521946870728698e+02
8.493310446856065710e+02
7.732488822967029591e+02
7.371951296214449485e+02
4.608802966788592812e+02
7.526563853218908662e+02
1.073356015277167671e+03
1.024849875180286517e+03
9.579381173567810492e+02
1.234738725403655735e+03
1.527219358240234442e+03
1.352404869931551275e+03
9.894456280130401638e+02
1.171928309310459781e+03
9.141756725302014956e+02
4.499121601055277324e+02
5.231311677451236619e+02
8.558170314157999883e+02
1.161025184659655451e+03
1.022779664921715153e+03
8.648645568002643813e+02
7.974558655707069192e+02
1.242224679694315455e+03
1.114517059531377527e+03
1.171097246693498164e+03
1.473848507327274547e+03
1.532869979334332129e+03
1.167143100659987567e+03
9.228745445851234308e+02
9.807180431225087887e+02
1.149705884304529945e+03
1.286045359308041725e+03
1.330555058230128679e+03
1.131162976178110284e+03
1.453103524013959486e+03
1.255169998442738006e+03
1.149172176588419234e+03
1.143176084463206962e+03
1.051245973907919506e+03
1.053419451849435973e+03
1.053665772966008944e+03
9.579711507376787267e+02
5.983552686515663481e+02
7.647794566770727442e+02
7.992259331663931334e+02
9.617162922963266283e+02
1.346280789964251198e+03
1.312918309006567597e+03
1.209664974444106292e+03
1.422462214857455820e+03
1.675336419012365695e+03
1.357275025019606119e+03
1.048325531867293193e+03
1.048426719379103361e+03
6.397391621671608846e+02
-4.898075159367681408e+02
-2.806201407476437907e+03
-4.490415889820152188e+03
-6.327448396732644142e+03
-6.521280497779447614e+03
-6.711924105605742625e+03
-6.872337289870069981e+03
-7.025534705790743828e+03
-6.510515871933975177e+03
-5.631234155535566970e+03
-5.619639192887876561e+03
-6.128718426217736123e+03
-1.679431441040442678e+03
1.656216176965301429e+03
1.475222877782684236e+03
-3.341362376985696301e+03
-6.196463081297515600e+03
-6.163078522116279601e+03
-5.477239204038074604e+03
-1.938881565531627757e+03
-3.304986301248943164e+03
-5.926525937918346244e+03
-5.928509952192656783e+03
-3.839871044270922539e+03
1.093411416573704855e+03
1.896345558598139633e+03
2.161983821119543791e+03
2.179332528069639920e+03
-2.356089948725282852e+02
-5.051792544561063551e+03
-1.585170857370611657e+03
-7.747108927038023118e+00
1.880525884404991075e+03
2.071720382168490687e+03
2.194837916682392461e+03
2.122923249897261030e+03
2.009986950071745014e+03
1.918063422656924558e+03
1.863170614431080139e+03
1.976350857007286095e+03
2.156621185240163868e+03
2.170052318140521493e+03
1.996693516710885888e+03
2.204564149540285143e+03
2.144638346154729334e+03
2.028926867168251192e+03
2.051447050884933560e+03
2.072250170576543951e+03
1.959347820511997725e+03
1.914716408117455103e+03
1.550407758482022928e+03
1.530360055266934751e+03
1.454599951543225870e+03
1.553202706162774348e+03
1.882378592540166437e+03
1.537497748713673673e+03
1.427404416224545457e+03
1.671170696351820879e+03
1.708634306649164046e+03
1.475150328648394407e+03
1.378682022665577279e+03
1.356082426281103153e+03
9.596464640752711830e+02
6.733825968559581270e+02
1.233389047753804334e+03
9.588762842159920865e+02
9.937841477784166955e+02
9.022756363351151094e+02
1.195987990833284357e+03
1.304462619485454752e+03
1.431764653781805919e+03
1.523988210987117554e+03
1.349117702602835607e+03
1.271651774325732049e+03
1.348285036110496776e+03
1.322470148664948738e+03
1.249591625684594192e+03
1.301581808967566985e+03
1.514545468387904066e+03
1.351246893952915798e+03
1.104653806795942501e+03
1.042789509205982768e+03
1.077500408179887472e+03
1.070154680822324735e+03
1.153846671267067450e+03
9.506122782465370165e+02
1.056741324553359846e+03
9.834839347768781863e+02
1.126618774931311236e+03
1.231976527987132613e+03
1.145754264052676035e+03
1.479075361067246376e+03
1.445458367492276921e+03
1.660341586121898899e+03
1.600225621324015719e+03
1.499342086048646024e+03
1.760252756503471346e+03
1.826723622622964740e+03
1.818703723361860284e+03
1.747959481758254014e+03
1.597471065162390460e+03
1.482589570754427541e+03
1.675423631426969905e+03
1.579404353955087117e+03
1.390211787957302704e+03
1.364008269010327012e+03
1.391089219761529648e+03
1.455601862555231492e+03
1.678243815648051623e+03
1.609874914706000482e+03
1.655383165873897269e+03
1.522220951933770721e+03
1.507613670072247714e+03
1.474927000439123049e+03
1.304138268522395038e+03
1.483135618064518894e+03
1.502072989703855683e+03
1.128957714045975536e+03
-8.223441075079201710e+02
-3.875729300852913639e+03
-6.328977095145082785e+03
-6.183293110956397868e+03
-5.696149591395549578e+03
-5.987623186608091601e+03
-6.098152397971032769e+03
-5.517466789587427229e+03
-4.273956194067568504e+03
-4.534184931386975222e+03
-4.623068542077097845e+03
-4.971713495880387200e+03
-4.793320878943829484e+03
-4.550401327979777307e+03
-2.739113014129642579e+03
1.673289654197234768e+03
2.300401385977219434e+03
2.876849513722504071e+03
3.469510792501197557e+03
3.602902910321910895e+03
3.315628345938962411e+03
3.376778794264461339e+03
3.075229083012153751e+03
2.737203773709180950e+03
3.054856807642921922e+03
3.258244927795957210e+03
3.225655014774039500e+03
3.376017666661969997e+03
3.508805276755706018e+03
3.334213327696499618e+03
2.986304294140936690e+03
2.673087614236598711e+03
2.369577636792128487e+03
2.066583103637191471e+03
1.976512813158575000e+03
2.150026784106311425e+03
1.879244962901015697e+03
1.679400118871511722e+03
1.775774831756756839e+03
2.122470740444163312e+03
2.072676897557088523e+03
1.788238529130615007e+03
1.617249874480116887e+03
1.580881532396836747e+03
1.433561144523530629e+03
1.541533385954328423e+03
1.972190364755898827e+03
1.195106793171109302e+03
4.824986474099892462e+02
-4.842428775966331500e+01
1.547955068457956997e+02
3.991509885836717331e+02
1.774484631452065742e+02
-1.669979784885322545e+02
-4.111180674033616924e+02
-7.107289125969986117e+02
-8.963112792731511718e+02
-9.247038410934677586e+02
-1.507903800963835238e+03
-1.807837986473703268e+03
-1.342599297584972646e+03
-1.102872056276555895e+03
-1.387328639891848070e+03
-1.648571546603549677e+03
-2.238365122650374360e+03
-2.407462050462841489e+03
-2.065850722304423471e+03
-1.623638504305954257e+03
-9.183705220645853160e+02
-7.749089881009452938e+02
-9.671317812678390737e+02
-1.000858483526803980e+03
-1.834946333154883632e+03
-1.650240743207578134e+03
-1.779324603559503430e+03
-1.433822473969895100e+03
-1.479818458253671224e+03
-1.269950859464000814e+03
-1.139815349740114698e+03
-5.673013798449187561e+02
-7.174024074195142475e+02
-1.023931383945042739e+03
-1.543758746776085673e+03
-1.358900865160585681e+03
-8.530633322306007358e+02
-8.378717253438139778e+02
-1.050122218438620393e+03
-1.355649988244013457e+03
-1.592373384136903724e+03
-1.898155297652597937e+03
-1.998811955758680142e+03
-2.126157481797461969e+03
-2.277990584442688942e+03
-2.370060583777131342e+03
-2.451137246309942384e+03
