-1.510135425751230505e+05
-1.432073524477311003e+05
-1.321858179376730113e+05
-1.252433078714462754e+05
-1.171131488852390758e+05
-1.056606705766100640e+05
-9.545317251469126495e+04
-8.975899424849440402e+04
-9.022040698988472286e+04
-9.163667649139314017e+04
-8.956308125107581145e+04
-8.382081934208652820e+04
-7.422810361207550159e+04
-6.568518158550278167e+04
-5.029422229563801375e+04
-3.467030807189455663e+04
-2.922164852680423064e+04
-2.349752130310520442e+04
-2.025624596163313618e+04
-2.091996694386985837e+04
-2.579199999722667417e+04
-2.325959951646064656e+04
-8.080006054701493667e+03
2.205555413633364878e+04
5.558677647357150272e+04
7.510539569087780546e+04
1.012710894513854437e+05
1.270554949343581538e+05
1.316043266275179049e+05
1.264572280098952906e+05
1.105198520748638548e+05
8.179879093156632734e+04
5.132357137621071161e+04
3.629872752721724828e+04
3.204677874033385160e+04
3.181820918488017924e+04
3.235444766762359723e+04
3.355588412052850617e+04
3.517089603082935355e+04
3.622871487044351670e+04
3.683456226075344603e+04
3.675876597592040343e+04
3.664154591181621072e+04
3.684901334157400561e+04
3.765621715651478735e+04
3.905118102602609724e+04
4.220983450424774492e+04
4.622521230677620770e+04
5.039118272445894399e+04
5.255648210118048883e+04
5.305695237481020740e+04
5.265431053797906497e+04
5.045423445939326484e+04
5.048243298585763114e+04
5.183052825343285076e+04
5.458503691818736115e+04
5.934643479408947314e+04
6.598307490935015085e+04
7.308227645112872415e+04
8.121243973232852295e+04
8.996679392856631603e+04
9.674355697948747547e+04
1.018628853497181699e+05
1.060448957950431941e+05
1.089645450824759173e+05
1.101927831032511021e+05
1.094966078027703334e+05
1.075119186556149507e+05
1.042325139857549511e+05
1.003331618998243357e+05
9.742955851966989576e+04
9.547827712728349434e+04
9.500900778009669739e+04
9.231637436950553092e+04
8.872580475461308379e+04
8.430283299867631285e+04
7.903288420160666283e+04
7.242631010881667316e+04
6.554833362915234466e+04
5.853119118446566426e+04
4.969519591336912708e+04
4.072555212626382854e+04
3.024543529673455851e+04
2.154499266933921535e+04
1.296224198133331083e+04
6.163111887628610930e+03
-1.000370103347431950e+03
-4.755188476716291916e+03
-9.403455119181457121e+03
-1.773036035359855669e+04
-2.674418456104594952e+04
-3.615494099139816535e+04
-3.873274759458839981e+04
-4.459680855239749508e+04
-4.983242522257259407e+04
-5.309297026655936497e+04
-5.641870445718897827e+04
-5.964583200228047644e+04
-6.200574047552028060e+04
-6.293287107156631828e+04
-6.744750903159518202e+04
-6.984803282052739814e+04
-6.867486078782247205e+04
-6.972338983899094455e+04
-6.728103258642865694e+04
-6.836514781269289961e+04
-6.785519727509007498e+04
-6.965863490272400668e+04
-7.036785947921678599e+04
-7.173821067439213220e+04
-7.329809374601922173e+04
-7.148996689968097780e+04
-7.507422052909272315e+04
-7.505128718543030845e+04
-7.757654656884682481e+04
-7.332531008751050103e+04
-6.982497853420049069e+04
-6.649394010007508041e+04
-6.341847205213462439e+04
-5.671184897542698309e+04
-5.307237513913954899e+04
-5.129525366880789079e+04
-5.095969519243107788e+04
-5.047791129290140088e+04
-4.860809709364701848e+04
-4.617139682893599092e+04
-4.385605999020394665e+04
-4.156523835049748595e+04
-3.918982221496831335e+04
-3.739671216983433987e+04
-3.584416079013525450e+04
-3.455515904084947397e+04
-3.238076685466841445e+04
-3.004056972989510177e+04
-2.834735025764016973e+04
-2.628068652877621935e+04
-2.436232286883677807e+04
-2.239606451467785519e+04
-2.012594417942957080e+04
-1.681870245892771345e+04
-1.342305625303522902e+04
-1.044439505590213594e+04
-7.404354581604990926e+03
-5.158391906003452277e+03
-3.496044509095599096e+03
-2.673398346887030129e+03
-1.141469717928189539e+03
1.311997780129422836e+03
2.892828324275993964e+03
3.277886800725989815e+03
3.804029194128771451e+03
5.349198389326480537e+03
6.268271502807167963e+03
6.536201101554090201e+03
6.287943618397821410e+03
5.100593296927572737e+03
3.767881552622034633e+03
3.231046555751822325e+03
2.574623797122531869e+03
1.575829354558441992e+03
1.266656054920009183e+03
2.448046056395299388e+02
-1.164036631516621156e+02
-1.160967450511489460e+03
-2.220149439871703180e+03
-2.125714113411338076e+03
-4.289313369422878282e+02
1.379784917757825269e+03
2.222559415621761218e+03
3.680989051418471263e+03
5.864841584127955684e+03
8.286115846335525930e+03
1.096248523375341574e+04
1.317054931250326445e+04
1.533910852005871857e+04
1.800082806174003781e+04
2.121277569731822223e+04
2.435174652047136624e+04
2.758252597780090582e+04
2.990481420343381251e+04
3.121247883842824740e+04
3.193443554429524374e+04
3.405950744979602314e+04
3.656351543509202747e+04
3.728633540883995738e+04
3.727395243947691051e+04
3.817241155974610592e+04
3.924079394121212681e+04
4.100013263301378174e+04
4.266539593049685936e+04
4.301850835504507268e+04
4.306952258712500770e+04
4.348039233363292442e+04
4.387907784981329314e+04
4.349262163956956647e+04
4.273903230212729977e+04
4.174235892173987668e+04
4.012561757913885958e+04
3.695979168449701683e+04
3.243190054380589572e+04
2.842984046638189102e+04
2.651434701172995483e+04
2.511140691991306448e+04
2.363205688616515545e+04
2.238916574112608578e+04
2.125071115518866281e+04
2.028363787143404988e+04
1.965679455255207722e+04
1.877197285981964160e+04
1.955396164156860686e+04
1.812566542199103060e+04
1.662293438465733561e+04
1.598956661593031458e+04
1.670034558463372377e+04
1.939967671373179473e+04
1.791527427716176680e+04
1.240184119176464083e+04
1.064800354380147292e+04
9.996360584099464177e+03
1.048639394024019384e+04
1.361968053054880511e+04
1.335482449757456743e+04
1.294320127901723572e+04
1.208231420748078926e+04
1.156873405874456512e+04
1.080086525900675588e+04
9.524062906034700063e+03
7.512578573636285910e+03
5.707522152269748403e+03
4.430250839525288029e+03
2.539332127229451999e+03
3.568755985237150981e+02
-1.781190097292760811e+03
-3.724910341030677046e+03
-5.984353102930450405e+03
-7.955343951706105145e+03
-9.777506513517988424e+03
-9.920855257703247844e+03
-9.073614670946322804e+03
-9.536037094661991432e+03
-1.062308341786030178e+04
-1.107749887407450842e+04
-1.057940769065278255e+04
-1.042512047760290261e+04
-1.034472768172614997e+04
-9.953249097198695381e+03
-9.343267282373086346e+03
-8.919275003082269905e+03
-8.088775791674893298e+03
-7.302393248115762617e+03
-7.090358416338953248e+03
-6.474001113075496505e+03
-5.623055853776146250e+03
-5.095665370066070864e+03
-4.667296324064081091e+03
-3.920225059775118098e+03
-3.713654139748596208e+03
-3.625934782218285818e+03
-3.834393147783429413e+03
-3.618376899487942410e+03
-3.248652703054095127e+03
-3.132350905646810133e+03
-2.675823638450509861e+03
-2.584120517216700136e+03
-2.389920874752518557e+03
-2.110815218261030623e+03
-2.552657310371948824e+03
-2.621595464191555038e+03
-2.550987264694185797e+03
-2.799203020228109835e+03
-3.174407618420068502e+03
-2.003134813753848903e+03
-1.019432013464022816e+03
-1.123785112457719379e+03
-1.280182693664165299e+03
-5.036578306840510777e+02
-6.830102456130773589e+02
-9.476720033037724988e+02
-1.645062846176956100e+03
-1.939267268085951173e+03
-2.384744108561425946e+03
-3.004169726744908075e+03
-3.725880479545978233e+03
-4.599755616597212793e+03
-4.841032183288863052e+03
-5.160108656706973306e+03
-5.729930659217344328e+03
-6.576123502472519249e+03
-6.808873491747968728e+03
-6.550098695711142682e+03
-6.665204499218206365e+03
-6.779486477688482410e+03
-7.056821497342700241e+03
-6.835805720197779920e+03
-6.738067008700966653e+03
-6.777264536327522364e+03
-6.892947404244074278e+03
-6.527628892481019648e+03
-5.784735653875520256e+03
-5.141665213637019406e+03
-4.966872993243525343e+03
-4.770812265714374007e+03
-4.694981775379545070e+03
-4.569003594780782805e+03
-4.598395540170193271e+03
-4.391554001067767786e+03
-3.678617174642780810e+03
-3.272655908644884676e+03
-3.470765802115888619e+03
-3.591988666734382150e+03
-3.093645235184468220e+03
-2.589006541091893723e+03
-1.898315013576616593e+03
-1.926839178733714107e+03
-2.025815533403164181e+03
-1.560391343987014579e+03
-2.035774755188992685e+03
-1.894061080511730097e+03
-1.439145391316400492e+03
-1.447838307394238882e+03
-1.573993746553785968e+03
-1.405386761838354232e+03
-1.580662784757351574e+03
-2.135395822695382776e+03
-2.326227033365425996e+03
-2.065637100551249659e+03
-2.114100027798860992e+03
-2.345266202602018438e+03
-2.392712220371487092e+03
-2.367124328744763716e+03
-2.870862488196646609e+03
-2.634357022861847327e+03
-2.357017409421387129e+03
-2.227166352810530952e+03
-2.350047134404124790e+03
-3.006008957296343397e+03
-3.472375807107554010e+03
-4.030281024641792555e+03
-3.843984744236471670e+03
-3.679659509312495175e+03
-3.547691109591449276e+03
-4.012214349240941374e+03
-4.309377266025233439e+03
-3.933354784514541734e+03
-3.428685662681345548e+03
-3.361586324440880617e+03
-3.981004689707594480e+03
-4.189144753354045861e+03
-4.079118886262796423e+03
-3.558744107252925915e+03
-3.270064350714168086e+03
-3.135368983651391318e+03
-2.877104664777049948e+03
-2.466587986142390037e+03
-1.997852799127565049e+03
-1.482519933879544851e+03
-8.202695077308053442e+02
-1.322716498855247664e+02
1.309093997371543594e+02
2.137035717365225196e+02
3.949969931389523481e+02
9.550687977356612919e+02
1.071823104065089638e+03
8.657304396601133476e+02
1.330535865365252448e+03
1.715776471710702253e+03
1.964068006934209279e+03
2.364982681658862930e+03
2.571768386617491615e+03
2.547376881299725483e+03
2.985089263692014356e+03
3.498699827040651144e+03
3.497167123845356400e+03
3.234607413492274191e+03
3.397595750557305109e+03
3.679757628098051555e+03
3.314815889530321783e+03
3.530153545603508974e+03
3.691223715301204720e+03
3.643569838027559854e+03
3.885475459879204209e+03
4.747198444680172543e+03
4.409051795136286273e+03
2.486346058952860858e+03
2.288309843479979918e+03
4.771159888125092039e+03
4.429230482301857592e+03
3.553799821786453776e+03
2.331571023050760232e+02
1.114674795076359999e+02
3.518943172082520050e+02
2.855638670770317731e+03
4.899814755680693452e+03
4.889534150217594288e+03
2.837916495508642129e+03
3.314038744395631511e+03
5.962923470530156010e+03
7.532681987253296029e+03
6.941378897328968378e+03
6.860046206060682380e+03
6.383823006663662454e+03
6.061723583846192923e+03
6.270865600465578609e+03
3.866263658468916674e+03
2.787859367015674707e+03
2.561633149045703249e+03
1.881668868202685189e+03
2.159883464644219657e+03
2.782119453670833536e+03
3.040393758099566185e+03
4.231741997284305398e+03
5.610128357576502822e+03
2.907563857381843718e+03
2.944007385919263925e+03
3.397276321875043323e+03
3.831241396401901511e+03
1.512817152974936562e+03
2.371796170101416919e+03
4.096037204451455182e+03
1.023337479800095934e+03
1.875562217054264011e+03
-4.847420232123318584e+01
6.398577501210265694e+01
1.283532055039363513e+03
1.029764062260739820e+03
1.048385826183643530e+03
-1.286943754693768824e+03
-1.390593114124076237e+03
-2.099056525786530756e+02
-2.582795422337142668e+02
-8.860355550524502632e+02
-2.906570055613386558e+03
-2.243080231929907313e+02
1.235281423829909727e+03
1.573739685100117867e+03
1.428637681709003346e+03
1.311662883077551896e+03
1.257489906748159456e+03
1.383798296248137831e+03
1.144131325355800300e+03
3.659729506559861534e+02
-1.750290273356649777e+02
-5.592515479813373531e+02
-4.681065925366394822e+02
-2.799904836065143741e+02
-2.984104600510443106e+02
-6.508281408156540238e+02
-8.566370649642154831e+02
-1.248221430915811652e+03
-2.250093057132653030e+03
-3.314699024316190844e+03
-4.309327514564171906e+03
-4.714322102519530745e+03
-5.107099313030852500e+03
-5.643071153251449687e+03
-5.889437143585986632e+03
-6.150472542957103542e+03
-6.561583227002317471e+03
-6.816246533355342763e+03
-7.255474827974149775e+03
-8.013692681958799767e+03
-9.034373773689245354e+03
-9.860140805241644557e+03
-1.029847587657834811e+04
-1.060875144324149005e+04
-1.154933447273356433e+04
-1.165179938438635145e+04
-1.047845317205258289e+04
-9.320656038967199493e+03
-8.423801520471904951e+03
-8.210371932376443510e+03
-8.299796381922125875e+03
-8.548864929540592129e+03
-9.415830603557136783e+03
-9.815405999875190901e+03
-9.912312117435498294e+03
-1.000477259310839872e+04
-1.019105037483526030e+04
-1.090734642722649915e+04
-1.118629260741990947e+04
-1.075030123079354780e+04
-1.056144092435162383e+04
-1.092477501658331130e+04
-1.110060202150867735e+04
-1.092326863325688646e+04
-1.096721329102631353e+04
-1.151673055312489669e+04
-1.189696067519762255e+04
-1.181705008930269832e+04
-1.198023259582237006e+04
-1.199377460499117842e+04
-1.227487240018577540e+04
-1.297871233533353916e+04
-1.350853110384335560e+04
-1.421968509104859368e+04
-1.450445313472348607e+04
-1.470289831915666582e+04
-1.454104886464727861e+04
-1.408009740346892977e+04
-1.363524764728260561e+04
-1.243861634133269763e+04
-1.004125128635726651e+04
-8.698342639680438879e+03
-8.545162957199003358e+03
-8.977805609827337321e+03
-8.733388050781593847e+03
-7.629936356491459264e+03
-6.926464496722948752e+03
-6.157114307450747219e+03
-5.056021879773181354e+03
-4.169228025481900659e+03
-3.381786276711444316e+03
-2.515750655839615774e+03
-1.345014053629992532e+03
-6.425052964395651998e+02
-3.212269833183916035e+02
-2.392728096085635343e+02
-5.458738050852695523e+01
2.739433343951811253e+02
4.363464526757679209e+02
1.321748747125278669e+03
1.060248788616647289e+03
4.378553898941931379e+02
6.024249506029052554e+02
6.388280642113762298e+01
-2.046541203711847459e+02
-2.325011263534254340e+03
-2.411028313735983374e+03
7.082034101558425618e+02
2.708728613198797120e+03
6.254770842572304900e+03
7.564573033149893490e+03
6.710113249270646520e+03
6.802394479265146401e+03
7.272882960211415593e+03
7.325708100862621905e+03
7.871972539214138123e+03
9.727749075334264489e+03
1.102920118388066476e+04
1.101745094466717637e+04
1.121460282388558153e+04
1.115875718499059440e+04
1.091406775141088110e+04
1.054268477924016952e+04
1.046380096417497771e+04
1.034351318489158439e+04
9.969933340647563455e+03
9.325242176064542946e+03
8.736594983258426510e+03
9.035219391220238322e+03
9.788246142582291213e+03
1.019578637164114480e+04
1.028098680204468837e+04
1.007304833289731141e+04
9.952034141945314332e+03
1.062513640575077079e+04
1.156152983985126411e+04
1.294510820078423421e+04
1.401094443967379630e+04
1.413829084429401883e+04
1.350639432353553639e+04
1.257048183806900852e+04
1.184464383000046655e+04
1.177201138564167377e+04
1.223977278692003529e+04
1.234806104680714088e+04
1.214398758056101542e+04
1.133363878127435601e+04
1.022512902013632447e+04
9.091548606133543217e+03
8.363131707424947308e+03
7.726108496605605978e+03
6.694532436281950140e+03
6.102640796571245119e+03
5.347612690208273307e+03
4.961520441277737518e+03
4.383566877039169412e+03
3.561891878124314644e+03
2.961553635840016796e+03
2.473754675566593505e+03
9.877009890028368773e+02
-2.005156719142938755e+02
-7.717867339172852326e+02
-1.571966619698071554e+03
-1.663884938301649299e+03
-1.804428711713835128e+03
-1.879436268412235222e+03
-2.161687585575284174e+03
-2.876071292775698112e+03
-3.406522565820584532e+03
-3.660926523677941987e+03
-4.363048565476490694e+03
-5.391752646792532687e+03
-6.445861189402098717e+03
-7.935175198655760141e+03
-1.068270396523547060e+04
-1.453935271135514631e+04
-1.788806545530291623e+04
-1.868459496556124941e+04
-1.891181929196291094e+04
-1.906467543911594112e+04
-1.900701301521845744e+04
-1.867067357702666777e+04
-1.901545936897561478e+04
-1.873222861113753243e+04
-1.876187437052855967e+04
-1.888331657880390048e+04
-1.865745524559870319e+04
-1.834916928038830520e+04
-1.805231868044735893e+04
-1.335680599854359934e+04
-1.052855018701848712e+04
-9.956368985766965125e+03
-1.083708715752498210e+04
-1.305054910456097241e+04
-1.449068357660760194e+04
-1.458731660761178500e+04
-1.508531049908291243e+04
-1.487055084099999112e+04
-1.445489640866751324e+04
-1.421815170162758113e+04
-1.343518806091244551e+04
-1.259882006821852519e+04
-1.177989791661957497e+04
-1.105637130438538770e+04
-1.028097810538221893e+04
-9.102578060110641673e+03
-6.543061790863583155e+03
-2.981271425042340525e+03
-3.358056436848282374e+03
-1.388203977908172874e+03
4.403432127556085106e+03
6.994001189262303342e+03
7.730729373260162902e+03
7.898738746381755846e+03
8.836212576960766455e+03
8.767340549071668647e+03
8.879286321778077763e+03
9.602147106590326075e+03
1.057012505154165956e+04
1.094755873713838264e+04
1.072754996394211048e+04
1.084003782358189710e+04
1.104643674463881689e+04
1.166499022131516904e+04
1.263811834613513383e+04
1.361377991469123299e+04
1.437808482899288720e+04
1.495305052275545859e+04
1.491290792577813590e+04
1.463598495600723800e+04
1.399979300715833051e+04
1.336621266952389851e+04
1.335215948671646947e+04
1.304570738023756712e+04
1.259751963233219794e+04
1.267996046059241598e+04
1.186938111051381020e+04
1.114611589879977873e+04
1.101001851799386895e+04
1.128718380580151461e+04
1.084982608612082004e+04
1.055737484078249690e+04
9.596193808780157269e+03
8.077735093284731192e+03
6.799753250299234423e+03
6.110120199277171196e+03
5.334986422594396572e+03
4.664965826470248430e+03
4.345645216774957589e+03
3.805978571238971654e+03
3.045099891760749415e+03
2.541330410497435878e+03
2.029960861044208741e+03
1.085104548176863545e+03
4.489623278975356584e+02
-1.210424972117275928e+02
-4.883833372954547940e+02
2.917638989811842407e+02
1.218434698763039478e+03
1.202722304020709089e+03
3.041100026669070076e+02
-4.861512115301335939e+02
-1.058483883771817773e+03
-1.251291480093006840e+03
-1.531623464190317691e+03
-1.518183469434644167e+03
-1.701646992307579012e+03
-1.766664994537948360e+03
-2.001545225498823129e+03
-2.854123004740046781e+03
-3.799987324675023956e+03
-4.341952420238601007e+03
-4.886002804058637594e+03
-5.029719162924096054e+03
-4.174920777482087942e+03
-3.734599089423358691e+03
-4.049579393806567623e+03
-4.836691594999749213e+03
-4.780735498375530369e+03
-4.032577075415556010e+03
-3.249058677140566942e+03
-2.522024515641870948e+03
-2.449381529344756018e+03
-2.148042518967530214e+03
-2.645853748236766933e+03
-3.592548355065447140e+03
-3.780031777117093952e+03
-3.486170130599990443e+03
-3.588895320432992776e+03
-4.707066881001816910e+03
-5.405599564805729642e+03
-6.904409062585363245e+03
-9.332382048141902487e+03
-1.184642541172112033e+04
-9.021442169010706493e+03
-5.955343937839089449e+03
-2.918041683715240197e+03
-2.238383868457722201e+03
-2.464202819997657116e+03
-2.020507886948597388e+03
-1.349275169080622163e+03
-1.078511328602621461e+03
-1.986980687208209019e+03
-3.181781948987485066e+03
-4.111940390402241974e+03
-5.214475797955706184e+03
-4.602319222303081006e+03
1.755463695046881014e+02
2.400879792008096956e+03
3.376179741424608892e+03
1.946249662363321420e+02
-7.701142555717004825e+02
2.761946771787607304e+03
5.894830089684138329e+03
5.228567922182824077e+03
2.298945235853254417e+03
2.277993414405985277e+03
5.331663791204143308e+03
8.402375613506867012e+03
1.023581948334402114e+04
9.996045407008612528e+03
9.545806068166488330e+03
9.652088199391284434e+03
1.050486847540201779e+04
1.127108891335522821e+04
1.153363050492407092e+04
1.145039892014155339e+04
1.163135476597418892e+04
1.119044199759453659e+04
1.007157498630456575e+04
8.680646016015096393e+03
7.273555514724822388e+03
6.704230028159200629e+03
6.097495317902304123e+03
5.742237262298767746e+03
5.453392027396331287e+03
6.373746154387997194e+03
7.102038121554731333e+03
6.190253925950630219e+03
5.180431929373438834e+03
4.247499380356632173e+03
4.151225509116889953e+03
4.473402638291972835e+03
4.408063481346562185e+03
3.681070447453243560e+03
2.699176476669868407e+03
1.243279914868111973e+03
-4.717754186786642663e+02
-1.307166007996728695e+03
-1.277052096072603263e+03
-1.603547899404298278e+03
-3.018735316529114243e+03
-3.997679228064136623e+03
-4.147471854548659394e+03
-3.921226106891688687e+03
-2.652122516353890205e+03
-3.847528990325647413e+01
2.922632613108999522e+03
2.970113951028827614e+03
1.350741113103345697e+03
1.003626548959073261e+02
-4.712794914639476360e+02
-3.061564407541169999e+02
-8.485062116346181256e+02
-2.182810781670133565e+03
-3.227318051640222620e+03
-2.668503414670810798e+03
-2.743302660186184312e+03
-5.530677176438647621e+03
-4.224914716021623462e+03
-3.102051707645475290e+03
-1.696361095906627952e+03
-1.002092273934698596e+03
-5.399505186084774699e+00
7.783946389762855915e+02
8.970433260241754851e+02
1.033223261348274491e+03
1.214777226151742070e+03
1.123590779003319312e+03
1.167340497368552406e+03
1.018631743287686504e+03
8.431411858361025224e+02
6.484992849080607584e+02
4.054627367089388486e+02
9.407680952948913955e+02
1.859123166079296652e+03
2.320212326298360040e+03
2.649936501122755544e+03
3.644142290533966388e+03
4.168526240489084557e+03
6.002705732917644127e+03
8.785304243032413069e+03
8.140048822516317159e+03
6.168576700799903847e+03
4.932606796849675447e+03
4.754909247196130309e+03
5.412270752916198944e+03
5.609505124411464749e+03
6.241473044749014662e+03
7.390952641054960623e+03
7.929719101857375790e+03
8.071615852484726020e+03
8.069434943958678559e+03
7.691057805942732557e+03
6.706392355504301122e+03
5.940280715767444235e+03
6.035503110431497589e+03
5.455971894771261759e+03
4.938465278723596384e+03
5.400621426526082359e+03
5.367286445591217671e+03
5.718398857268332904e+03
5.966863869755719861e+03
5.390595899176268176e+03
5.146499937174630759e+03
5.251369253214016680e+03
4.992223669277894260e+03
4.748090831757809610e+03
4.228718997714766374e+03
3.800065506856257798e+03
3.073197572915525143e+03
2.600092803067951536e+03
2.569287134878667530e+03
3.015450185772961959e+03
2.720564000222131199e+03
1.974637000263336859e+03
2.237600245153183096e+03
1.924814359775015191e+03
2.269537007438781075e+03
3.495203998916278579e+03
3.863263416373585187e+03
3.890723114881011952e+03
2.880993271885283775e+03
2.603511603150329847e+03
2.240628267005261023e+03
1.602447307024411430e+03
1.387874943197020912e+03
1.137797193921260259e+03
9.598267836916651277e+02
1.267766583433791538e+03
1.695233982579749181e+03
2.093545861919293657e+03
2.027513865633840624e+03
1.687479821750114297e+03
1.572098825934678644e+03
1.178775531117621313e+03
8.151788080767011024e+01
-4.571117689215694782e+02
-2.491798263556539155e+02
5.086225865509026676e+02
1.357015652524505072e+02
-2.356270861002484196e+01
-1.557351399145424011e+02
-2.252136717965784385e+02
-7.992237025819674727e+02
-1.231307785089545860e+03
-1.296070113851028509e+03
-8.418494946289453082e+02
-3.622159043169845631e+02
-1.013235687238956757e+03
-4.357970734590006145e+02
-1.950932614351663119e+02
-4.274257471706899025e+01
3.206719838918646133e+02
7.423549601164253886e+01
1.027505077480198565e+02
2.919647778045768405e+02
4.369149971859583275e+02
6.700112440627705155e+02
8.547027702845153954e+02
1.204961346763792790e+03
1.620631952302183663e+03
2.298359980172441738e+03
2.828446970015555507e+03
2.508174804346316705e+03
2.207566211961025601e+03
2.243423388701460226e+03
2.057897129699888865e+03
2.225967783543040696e+03
2.428131906042266564e+03
2.624570628635005505e+03
2.595271357400986290e+03
1.768195919137537658e+03
1.090305569433490973e+03
8.665353119573203458e+02
4.148055510640988928e+02
1.757282616565603121e+03
1.431192463921793205e+03
-2.684206711008607158e+02
-5.043751726148866510e+03
-6.895027585579406150e+03
-6.564062824234916661e+03
-4.608522317431335068e+03
-1.747069659329751801e+02
9.320264928596201344e+02
-2.666839628699674904e+03
-6.304953189738276706e+03
-7.038951059307933974e+03
-6.407544154786186482e+03
-9.653932962534462376e+02
-6.122140602676587662e+01
-4.152920754870046949e+03
-9.082299076361659900e+03
-8.961014692081220346e+03
-8.165760643615792105e+03
-8.188232580149268870e+03
-8.789067306786562767e+03
-7.802944494392082561e+03
-8.751609392126036255e+03
-7.930623813345943745e+03
-5.529671876775094461e+03
-4.865496680589317293e+03
-9.805681778954876791e+03
-1.037572629523617252e+04
-1.147517526178640583e+04
-1.298142382813899167e+04
-1.225162897061241165e+04
-1.018196946630561979e+04
-4.811794280699356023e+03
-4.327392849277089226e+03
-5.480941492710224338e+03
-6.511650455457639509e+03
-6.462672067926671843e+03
-5.834182634512927507e+03
-6.604466973239758772e+03
-8.474840823332693617e+03
-8.351331625894057652e+03
-8.436981797698343144e+03
-1.075776778967846076e+04
-9.920707374675122992e+03
-8.276017639883708398e+03
-8.729804872762284504e+03
-9.746155844193339362e+03
-1.066907810800592051e+04
-1.100763542106927162e+04
-1.104902852586624977e+04
-1.064855495112508652e+04
-1.000934673476313219e+04
-1.015855251619524643e+04
-1.084128406133291355e+04
-1.156974548454868636e+04
-1.123511185307412779e+04
-1.147258942568313978e+04
-1.165352258273191728e+04
-1.197129304994744416e+04
-1.190619598065199716e+04
-1.229545774989102938e+04
-1.270834995213303228e+04
-1.296987501575518036e+04
-1.345321802543032391e+04
-1.375268742292303068e+04
-1.427609974601635258e+04
-1.525190049395092501e+04
-1.585257716710972636e+04
-1.513945068228673153e+04
-1.495092968829329766e+04
-1.510457241194927337e+04
-1.704405022252476192e+04
-1.593698894822662442e+04
-1.491483213591063213e+04
-1.414721583244144676e+04
-1.389569992291231029e+04
-1.357510147336799309e+04
-1.358440494088054038e+04
-1.770157891362270311e+04
-1.681652168321552381e+04
-1.284606860119363046e+04
-1.236869514556383001e+04
-1.201549024617908981e+04
-1.133371447127800093e+04
-1.060357211952681246e+04
-1.230827223866615350e+04
-1.299073124684309551e+04
-1.451634124702181180e+04
-1.062766514765101238e+04
-9.597126310337400355e+03
-6.621966200709840450e+03
-6.084367118367108560e+03
-5.633933488224171924e+03
-4.658343785001663491e+03
-3.016235230107587540e+03
-2.122293147327480256e+03
-1.340180545334513681e+03
-3.305988928771873816e+02
5.046222873219481357e+02
1.384636212475957336e+03
1.644626961242049219e+03
2.009733112893233056e+03
2.637922545012296723e+03
2.550130409926084667e+03
2.493351609327540245e+03
2.943419844130284673e+03
2.875077772548624125e+03
2.263995052330648377e+03
2.057952190029991471e+03
2.687823086935784886e+03
3.229289756902982390e+03
2.827929131425084961e+03
2.017213977127020598e+03
2.882713605299178653e+03
3.934987652648410858e+03
4.014617754434167182e+03
4.401028998364580730e+03
4.496679256483545032e+03
4.144980401141702714e+03
3.796171660955754305e+03
3.242606314314006795e+03
2.898656857171898082e+03
3.181660273718382996e+03
4.289846330297162240e+03
6.298433472892173995e+03
8.169704890225535564e+03
9.038651491233029446e+03
9.848224928307412483e+03
1.123848123278702951e+04
1.274574944316977781e+04
1.388035634654022397e+04
1.405250077758228872e+04
1.458124265214559273e+04
1.618071051151384199e+04
1.775818506045172762e+04
1.813990162726324706e+04
1.674205598755944447e+04
1.655960863320422868e+04
1.701772652383615423e+04
1.691482588446517912e+04
1.939083744195073814e+04
2.085191147283681858e+04
2.244729673564340919e+04
2.689032992653107794e+04
3.057528943142249409e+04
3.328841221688772930e+04
3.523889549715687463e+04
3.816601353373417805e+04
4.306518844449164317e+04
4.753290023025646951e+04
5.095757942251447821e+04
5.378863531878744834e+04
5.491957880161044159e+04
5.564094587398439035e+04
5.590732017519260990e+04
5.628427780863662338e+04
5.618543441881734179e+04
5.778755268424648966e+04
6.075738736150557816e+04
6.326673554856063129e+04
6.444560697448613064e+04
6.495276905041021382e+04
6.568106473677333270e+04
6.569480247015538043e+04
6.512419685669215687e+04
6.363739094327289786e+04
6.114053365559830127e+04
5.807982689941585704e+04
5.554475411798169807e+04
5.310272668269907444e+04
5.077523277226602659e+04
4.858096628648492333e+04
4.573357981294855563e+04
4.286179307636539306e+04
4.055350689251750009e+04
3.826164980858244962e+04
3.561817771746579820e+04
3.417610084320080205e+04
3.169863094853282018e+04
2.674698091792920604e+04
2.096239054965181640e+04
1.606425086646155796e+04
1.117102559236855268e+04
6.258333970883858456e+03
1.678826547382028593e+03
-4.231865683484546935e+03
-9.978022386793092664e+03
-1.404076672332915041e+04
-1.956799649640655844e+04
-2.485863432166259736e+04
-2.709160792845364995e+04
-2.745061637843322751e+04
-3.178546385085420479e+04
-3.969681025388389389e+04
-4.805922805229461665e+04
-5.600915113665459648e+04
-6.445040998836094514e+04
-6.808450090729293879e+04
-6.696967849709602888e+04
-7.153822308600696851e+04
-8.391037832434690790e+04
-9.945218417576067441e+04
-1.134476414630095678e+05
-1.233156175447707792e+05
-1.263100511177140434e+05
-1.257937624670542427e+05
-1.240774937656753173e+05
-1.208599854269946372e+05
-1.195428904102181696e+05
-1.190288167297856853e+05
-1.207953586814555456e+05
-1.310420386897265707e+05
-1.448963211436575803e+05
-1.551485864582006179e+05
-1.563631797456304776e+05
-1.495934444206537155e+05
-1.473126468038846215e+05
-1.495079753638147085e+05
-1.531486834385260299e+05
-1.527760230296244263e+05
-1.459932170854026917e+05
-1.436503273712014779e+05
-1.452754894134327769e+05
-1.514848082282129908e+05
-1.598373768489533686e+05
-1.613792268811729155e+05
-1.554024266991947952e+05
-1.495830605564898578e+05
-1.478462295218391228e+05
-1.440470005349863495e+05
-1.350133409069103072e+05
-1.234654072547082906e+05
-1.144112512293003383e+05
-1.066589500036800164e+05
-9.076261889674905979e+04
-5.967732180873919424e+04
-2.374207570404598755e+03
5.193955693653845083e+04
8.535879405026290624e+04
1.226912868541275966e+05
1.593217974042771966e+05
1.800290357848734711e+05
1.897356804883483273e+05
1.959513516606310441e+05
1.977776578170316643e+05
1.746822272344373632e+05
1.440225808270256384e+05
1.228251604056287033e+05
1.120723968135614414e+05
1.072376191520419525e+05
1.056111193355528230e+05
1.050871316769412952e+05
1.050118472030319244e+05
1.049734467317557719e+05
1.042919763937692333e+05
1.016653825517378282e+05
1.001645905143612326e+05
1.005012786729660293e+05
1.006323183741900866e+05
9.747551190598261019e+04
8.823975947947693930e+04
7.693241347984720778e+04
6.559674798660272791e+04
5.754595762797303178e+04
5.361304456523745466e+04
5.303338669962786662e+04
5.456246472182354773e+04
5.738635506881587207e+04
6.144578437897589174e+04
6.659346381324362301e+04
7.194468242879830359e+04
7.569036347558905254e+04
7.887847166942685726e+04
8.260261328524457349e+04
8.648479754973291710e+04
9.064022075732708618e+04
9.514210279420427105e+04
9.915256504998041783e+04
1.018654558138876746e+05
1.050908068580686522e+05
1.063692695599375875e+05
1.048163824802372110e+05
1.014408515961978701e+05
9.685666650531222695e+04
9.101996014213615854e+04
8.451711477113630099e+04
7.900542164906942344e+04
7.398085758465550316e+04
6.783934410235754331e+04
6.104851657775243075e+04
5.512157936488700943e+04
4.909546725727074227e+04
4.405290989797888324e+04
