-3.589107270866909676e+04
-3.721174096603594808e+04
-3.833404952688477351e+04
-4.057511069260092336e+04
-4.138722687716889050e+04
-3.995360552928941615e+04
-3.684820545640233468e+04
-3.705935853984535061e+04
-3.266550350421965777e+04
-2.157787205622651891e+04
-1.024566167914588004e+04
1.769007268792552395e+03
1.105395219029043619e+04
1.998749429398219581e+04
2.951325170890526351e+04
3.714920179847415420e+04
4.421689428061956278e+04
4.936506357935888082e+04
5.309848865765106166e+04
5.624362529235586408e+04
6.049489248950791807e+04
6.507928001305646467e+04
6.867914941335954063e+04
7.132945959404163295e+04
7.308364873390008870e+04
7.381699967850331450e+04
7.478440691687683284e+04
7.604220939516737417e+04
7.655188547097808623e+04
7.765221849391698197e+04
7.813635977766604628e+04
7.713473816173794330e+04
7.545549906182455015e+04
7.246948201690721908e+04
6.944826412780363171e+04
6.760113984105853888e+04
6.529899836190859060e+04
6.210936163704355567e+04
5.954315791883118800e+04
5.656672848652875109e+04
5.374933178428223619e+04
5.165883681472212629e+04
5.021298951496953669e+04
4.868498576273231447e+04
4.582085054344093078e+04
4.267264391664515279e+04
4.001773547950203647e+04
3.741482061758756754e+04
3.529803016051006125e+04
3.271856383409171031e+04
2.991633314593528121e+04
2.659734795496948573e+04
2.312345054070051992e+04
1.999943610885847374e+04
1.697419971666021229e+04
1.408143472681093772e+04
1.259094896259419329e+04
1.014366065674797574e+04
6.152326960038263678e+03
3.749504087976679330e+03
2.324916351374783972e+03
8.123516140771012033e+02
-1.935286303108783159e+03
-6.010086533001411226e+03
-1.073540243967988863e+04
-1.554473642582868160e+04
-2.256062374726263442e+04
-3.112555990982087678e+04
-3.859200073517495184e+04
-4.561924671362994559e+04
-4.939272759227157076e+04
-5.023399817188487941e+04
-5.000449875250452169e+04
-5.018676353965193994e+04
-4.864039895470125339e+04
-4.655191100774311781e+04
-4.548696614784404665e+04
-4.491423446104790492e+04
-4.259616763306369103e+04
-3.854940343279692752e+04
-3.911157572682274622e+04
-4.152442386673101282e+04
-3.972270228704463079e+04
-3.730304760412848555e+04
-3.578498393419114291e+04
-3.392994788479300041e+04
-3.132242537598249328e+04
-2.926647150546135526e+04
-2.841604794167244472e+04
-2.770661838939463269e+04
-2.677980747762678948e+04
-2.558148428458400303e+04
-2.455142382513268240e+04
-2.120030195232357437e+04
-1.776974455131028662e+04
-2.018468425133093842e+04
-2.134470446702850677e+04
-2.074182944187783869e+04
-1.867691464892839213e+04
-1.422961349412551863e+04
-1.122250288946398177e+04
-1.031027222622595946e+04
-9.283647421763978855e+03
-7.125126134738422479e+03
-5.774381858454479698e+03
-4.883243539746949864e+03
-3.775359739323672784e+03
-2.466207132328940133e+03
-8.976780212870182822e+02
2.452010325107520146e+02
1.841664556676204256e+03
3.079139168049995078e+03
4.006067550531758116e+03
5.548702850054126429e+03
5.327496104199112779e+03
4.065755689993566648e+03
2.550682539878715488e+03
1.666769334512442356e+03
1.912554384581520480e+03
2.734306187710074937e+03
2.821460401848742549e+03
1.613541232374507672e+03
5.899187238287793207e+02
-6.394934404808051198e+01
1.992410314019256703e+03
5.741772172459721332e+03
7.072821519418348544e+03
7.572022742995635781e+03
6.546845720520763280e+03
7.522785228661934525e+03
9.388332666079266346e+03
8.376160186819288356e+03
8.264852691165528086e+03
8.120994885071731915e+03
7.609379247866389960e+03
6.777738499799924284e+03
6.389796271490996332e+03
5.784302268206177359e+03
3.809969770745011829e+03
2.787663937278949106e+03
2.015257598638251466e+03
1.977510357704344415e+03
3.046032611360958981e+03
2.658712387978901006e+03
1.713755361206599218e+03
-2.177350659932983206e+02
-1.654907382586503445e+03
4.732068263160448964e+02
1.794321246545928034e+03
3.141303750972060243e+03
4.749145213966186930e+03
4.462108470507806487e+03
3.637199076827461795e+03
3.813022892007730206e+03
1.971647054582011606e+03
2.110300727083937886e+02
4.202481087297342697e+02
1.277659665963647285e+03
1.862549824503983245e+03
2.050176859914885426e+03
2.908786056339336938e+03
4.764478443871996205e+03
4.788251287585429054e+03
3.920214186264193359e+03
3.236287545355378825e+03
3.141612587980138414e+03
3.934527114343847643e+03
5.648477732419104541e+03
6.058901499150137170e+03
6.004015336690930781e+03
5.385951928884608606e+03
5.416102318555393140e+03
5.566565503920147421e+03
4.850418431662223156e+03
5.684066930574434082e+03
4.597905795603530350e+03
2.425424598966433678e+03
7.969062308955338949e+02
1.220620819160742485e+03
3.081963707877123852e+03
3.543529002258952005e+03
5.029631558934363966e+03
6.581394401622236728e+03
6.297291431808156631e+03
5.069884280355260671e+03
4.498393926951976027e+03
5.318998523044121612e+03
4.905201250279669694e+03
4.183657518259463359e+03
4.991835669512625827e+03
4.559140693826845563e+03
3.582108465647117100e+03
1.736215390641413251e+03
1.337816358099330216e+02
-4.851358193739837361e+02
-8.760857261211140212e+02
-2.056509142609836545e+02
1.415328544679746528e+03
3.439322603557798629e+03
4.076700561279229532e+03
4.333923831260061888e+03
3.984534516281883953e+03
2.011886052344496420e+03
1.716015159724420982e+03
2.411985167502989498e+03
2.861494163024697627e+03
2.854033624943059294e+03
4.634077098430023398e+03
5.310779476616727152e+03
4.246523162069159298e+03
3.711751841738502208e+03
3.189939947355637742e+03
3.118453642335853147e+03
2.665518204462504855e+03
2.785377899699976751e+03
2.617140424270117364e+03
2.245018506641502427e+03
2.136183667362003234e+03
2.009500753757964731e+03
1.267251342245490150e+03
4.274561428698416421e+02
2.591998006225298354e+02
-8.138412831776190615e+01
-2.101315030900729255e+02
-7.424916275483586787e+02
-6.592305868345777071e+02
-2.001626160255900118e+02
8.574959156263874149e+01
-7.987628952990816060e+02
-1.047103582664654596e+03
8.908566800033653408e+02
2.360133268246155694e+03
2.049132513456295328e+03
8.490308357260105367e+02
-1.046073826331147302e+03
-3.795646047344062936e+03
-5.694513618058831526e+03
-5.193654202174656348e+03
-3.520249292062684617e+03
-2.316438608894839490e+03
-1.621064097210971113e+03
-1.787508757845003856e+03
-2.070188627826440552e+03
-1.782816354871580188e+03
-2.845087205264801923e+03
-4.345290690754464777e+03
-1.784990596084653134e+03
1.470845442657003332e+03
2.470113744270717689e+03
2.772921021989223391e+03
3.131039491701326824e+03
1.756233824026135380e+03
5.524148135713535339e+02
-1.478860818036311912e+03
-3.103589666787321221e+03
-3.758997480268229538e+03
-3.532067343205147608e+03
-3.608557648720246107e+03
-4.447356080560478404e+03
-4.443770393194334247e+03
-4.741644894546232536e+03
-4.768293903779474022e+03
-2.628711381437637101e+03
-1.184290523483996822e+03
-1.994916338295185142e+03
-1.554103162970443918e+03
1.214196043942854004e+02
7.403862728973684852e+02
9.914381643462583042e+02
-7.855705387166033233e+02
-3.523781046684345256e+03
-5.548568284333989141e+03
-5.511146184226866353e+03
-4.844630585649981185e+03
-2.917014004206484969e+03
-1.717214508530349349e+03
-2.539230754158798391e+03
-3.848304265299429062e+03
-5.321599978832712623e+03
-4.583163445488869911e+03
-4.010754150316917730e+03
-4.807552434696051023e+03
-5.952661917428463312e+03
-6.936117404538141272e+03
-4.982923855027878744e+03
-1.008986401781870541e+03
-1.042997670113217623e+02
-1.606808212856827140e+03
-5.953466799888235073e+03
-6.257186175068784905e+03
-3.998746235748529671e+03
-3.415064016224762781e+03
-2.289157809891592024e+03
-1.846833317204901277e+03
-2.683923058875803690e+03
-3.961439252600834607e+03
-5.402391330469827153e+03
-6.019749963430132084e+03
-5.991403904541807606e+03
-5.503331833411688422e+03
-5.245439240003872328e+03
-3.548510272793175773e+03
-3.326431594177154238e+03
-5.519173593941177387e+03
-4.590662935900829325e+03
-3.128126083059376583e+02
1.113513214126495086e+03
2.660387427786385160e+03
4.436944627895303711e+03
4.646295665593685953e+03
4.947497453821682029e+03
5.108649378625716054e+03
4.658801888712579967e+03
3.359868368530419957e+03
1.943978227592776648e+03
7.141661232697997264e+01
-1.545922866274038824e+03
-3.067042707128857728e+03
-3.208803128673030642e+03
-9.251303978543189714e+02
1.625078292353606003e+03
3.737981859998432810e+03
4.482696166493885357e+03
4.178571073913939472e+03
3.314851712853564095e+03
2.751677147143311686e+03
2.643354306398476183e+03
2.336702365867178287e+03
2.148435534112780715e+03
1.422341317695639873e+03
1.569313572975549960e+03
2.186170857568421070e+03
1.954861098272687059e+03
1.162421923119861276e+03
7.482124171218535480e+01
-7.972037284293184030e+02
-1.366887079543232630e+03
-3.162954916927299109e+03
-5.077886875751875777e+03
-5.474343524608417283e+03
-4.833814161623689870e+03
-2.490034810853759154e+03
2.204191522786245969e+03
3.151526653682577034e+03
1.153944253750953067e+03
1.683649022862202173e+03
1.864657257663301152e+03
1.275839841662714207e+03
1.135104210536819210e+03
1.324380296740432868e+03
1.264381018398914421e+03
-7.009586696845004781e+02
1.759802212309074775e+03
1.952687775296672271e+03
1.863484625825549301e+02
-2.118457991615865467e+03
-3.505828390321011284e+03
-4.644753255268097746e+03
-5.351412936330894809e+03
-4.341961290827722223e+03
-3.538597378994003975e+03
-4.844342755430561738e+03
-3.175217036715685936e+03
2.313725209630370045e+03
5.255396068400230433e+03
4.192718162204429973e+03
2.814681592244658987e+03
2.122154242813532164e+03
1.407152845780380858e+03
5.596696801836093300e+02
2.745731465604245045e+02
9.999636663554956613e+02
1.301869780543612478e+03
2.150366128069156275e+03
2.475493710684200778e+03
2.119151963958640863e+03
1.778256614663695245e+03
7.716738780327114000e+02
-8.036538209932097061e+02
-2.632812118064101924e+03
-3.834825062597469241e+03
-3.124863889983850640e+03
-1.988173292558504954e+03
-1.143709265365954934e+03
2.885575496884900417e+02
1.635693710347738261e+03
2.712523844897062190e+03
2.695961082834885929e+03
1.552290766724762079e+03
7.154522550951649009e+02
1.933289258669208493e+03
2.236721681633273420e+03
1.770876857656670381e+03
9.877355389296584462e+02
-5.170985323359365537e+01
-4.583807135965338375e+02
-1.074393846924383524e+03
-1.613863438313630922e+03
-2.120918511149617188e+03
-2.008683775886113608e+03
-9.340905082687403365e+02
6.599347249203623278e+02
1.827508485733830867e+03
1.844652012052878263e+03
2.570026657998264454e+02
-1.620396310204507699e+03
-2.489631650515209003e+03
1.203016010849810073e+03
3.335808325003994014e+03
3.848662134605124834e+02
1.199657953028580870e+01
-1.277356069407391743e+02
-9.963740477739858079e+02
-3.553143944130667933e+03
-4.868097952919206364e+03
-2.320240662121334026e+03
3.924041783717474345e+02
7.177433926504268129e+02
7.985862083693745035e+02
1.442017130070683834e+03
9.691440620058385775e+02
3.230059240458051590e+02
-3.694665321489322309e+02
1.062902796152521567e+01
2.115190835985763897e+03
3.205263457064926115e+03
3.307939193482563951e+03
3.576356268844933311e+03
2.933494436100263101e+03
1.437303575392464836e+03
5.586185197586398488e+01
-4.200372795781033801e+02
-4.873114190154778953e+02
-9.339384341351368448e+02
-4.069185689298898296e+02
9.560692555394634695e+00
-5.426242545438682328e+02
-8.063635189651980681e+02
-9.978027224681560483e+02
-3.439131788371618654e+02
1.578447177661611704e+03
1.876314347925978836e+03
8.256695636007596022e+02
9.541604734331497184e+01
9.256690062354213069e+02
2.188467746918090143e+03
2.570679005307208172e+03
2.293441033590258940e+03
1.224859018264456836e+03
6.630395688943406185e+02
-3.329653527156455652e+02
3.798096467907673741e+02
2.780371106544796021e+03
3.198581696559650936e+03
2.553344775622811085e+03
2.009609597021963282e+03
1.964999328074480331e+02
3.040505382937654417e+02
8.953678396498780785e+02
1.273672990510089448e+03
9.608218367709322365e+02
8.227921732447366594e+02
4.526251231544617895e+02
4.293417317716820207e+02
-2.341899058152959014e+02
-1.186772563835118035e+03
-9.221804432505117575e+02
1.316481295137629559e+03
2.709303356150957370e+03
2.386313413934071377e+03
1.201568398356100033e+03
1.770489393514802998e+02
-4.751850014900068686e+02
-3.998112372284695994e+03
-3.500718032215438598e+03
-1.697940053554762926e+03
8.193178427957655003e+02
6.191484960013750651e+02
-5.714449639015864477e+02
-2.958393939695191875e+03
-3.819731207907525004e+03
-5.268402219833204981e+03
-3.898319870790292043e+03
-2.749427568717735085e+03
-4.517710665096940829e+03
-1.634971219384214010e+03
-8.401761839180863944e+02
-3.685568372257111150e+03
-2.344082487968283658e+03
-5.715363921778060785e+02
-1.052799389796098467e+03
2.014299915931499754e+03
2.247873608219340440e+03
2.202928652271879855e+03
8.503192778466282107e+02
-7.240212212431251828e+02
-2.510544790018296624e+02
1.482282072051551722e+03
2.132104492160810878e+03
-1.441487923012888132e+03
-2.814545036683550279e+03
-8.229810844648800412e+02
-9.626522993011493554e+02
6.820004130178639912e+01
1.634589616674107674e+03
8.587036550844084104e+02
2.423630253944537344e+03
5.433416177069028663e+02
8.079785481831584093e+02
7.005600988101334679e+02
2.972255030946648731e+03
3.206174008878874247e+03
1.391397383100099660e+03
1.382842076121933133e+03
2.983418474244852405e+03
1.614304300279278550e+03
1.623467424565119700e+03
-5.091630964319277837e+02
8.383817216743626659e+02
7.629567142195791121e+02
3.665635536926340023e+02
-4.475587272700145149e+02
-8.994497316589544198e+02
-4.621228489306359961e+02
3.085841620662143328e+02
3.255462210623500141e+02
1.606877017088792400e+03
2.110842955158528639e+03
8.306339582713737855e+02
-2.778359941741161947e+02
-1.369710154989583771e+03
-1.349097435909175147e+03
-4.929386132026131122e+02
-1.760641281755129910e+02
-1.714101674538878797e+02
-5.010133917101072711e+02
2.646940286376179756e+03
3.826409485300549022e+03
3.088510499867431008e+03
2.136311492528971030e+03
1.429945237798724975e+03
1.196110241957125027e+03
1.715513100051463198e+03
2.522519939984663324e+03
2.178968272944204273e+03
1.556003464434006446e+03
1.446620513052065007e+03
1.215625744449697549e+03
8.751771987303779952e+02
1.755185378070671959e+03
3.117675147448587722e+03
4.148642706657903545e+03
3.627131951392257633e+03
2.262148921121328385e+03
1.785599036773457328e+03
1.234394626095343256e+03
9.024882445113279346e+02
9.829866485716833040e+02
1.048562772196082051e+03
7.869853133368004592e+02
3.255791983520433632e+02
3.911716946072574501e+02
7.836695300696786717e+02
8.541184931915535117e+02
9.820843283300505391e+02
1.168638327173655625e+03
1.268100989497179626e+03
1.686259191703078614e+03
1.895041544657669874e+03
1.519412040018352627e+03
9.463317237023541111e+02
1.386767818584491579e+03
9.977770457957385588e+02
7.793525277001699578e+02
1.819423843804352828e+03
2.026918594923479304e+03
1.115676696907419000e+03
9.248652092464909913e+01
-1.130822366863686284e+03
-1.892240613342827373e+03
-3.349692904292659478e+03
-4.226110948251767695e+03
-2.298535157863559562e+03
-4.203349755827665746e+01
1.736385034955736046e+03
2.491703256094997869e+03
1.910922699678575100e+03
1.156980080821128013e+03
1.079753047616289223e+03
1.343209387807558187e+03
1.412366733228394196e+03
5.902734743517801235e+02
-4.650946148044034203e+02
-2.053841662075120894e+03
1.523068544583955600e+03
1.734722544203152893e+03
-3.307990494942479472e+03
-5.869262395501643368e+03
-4.862258409397805735e+03
-6.487327168921256089e+03
-8.410367322052265081e+03
-8.332156050997791681e+03
-7.407824914491059644e+03
-7.095342192603759941e+03
-6.891644825372954983e+03
-6.980710869879027996e+03
-7.470452054998798303e+03
-7.423998938782188816e+03
-6.891338386772508784e+03
-4.390859162298652336e+03
-3.777475910408003983e+03
-3.876005050305747318e+03
-1.103409620761911583e+03
2.728217682475425590e+03
3.845869627062406380e+03
4.067483001914050419e+03
3.810921080273078587e+03
3.364137443885021185e+03
2.896239911818647215e+03
2.618017484947407411e+03
2.131117020874269656e+03
1.655667979329721675e+03
1.369939729467946563e+03
5.280311009515511387e+02
2.309171295375843727e+02
2.265926435922052917e+02
-1.238537222941164373e+02
-4.123807649705108815e+02
-1.278084264348784245e+03
-1.494993318422081984e+03
-2.711284939526958055e+02
1.598479187761086223e+03
4.193880752169543484e+03
5.486086477059976460e+03
5.266130532451447834e+03
4.203161834366824223e+03
3.255270254110317637e+03
3.441391848611192927e+03
3.503324031573917182e+03
2.808992739464588340e+03
2.226451234484215092e+03
1.175718625018304692e+03
5.976409980015245083e+01
-6.843681063779883971e+02
-8.552358383828365618e+01
1.198469862982919722e+03
1.025606724285838254e+03
-3.662270508289955160e+02
-3.278667469357163213e+02
3.077359747522916109e+02
1.176587390643905792e+03
2.071754373139140171e+03
2.735235816148716822e+03
2.522077749272187702e+03
1.656138008914875854e+03
7.024304691089840844e+02
-5.208830244441181776e+02
-1.308673156015123141e+03
-1.619936448094350453e+03
-1.081575688150435553e+03
-9.595736852769141478e+02
4.099922478711990337e+00
9.695883072089332018e+02
-6.361414807936737361e+02
-3.183228834314761571e+02
1.611447946876995275e+03
2.843522203308711596e+03
3.360568698496144407e+03
3.463536858629740891e+03
2.827644729940213892e+03
2.646050683184893842e+03
2.745675638562744098e+03
2.664141632126405057e+03
2.572376051149931300e+03
1.626605728170157818e+03
2.248909449328133405e+02
-7.847000312796097887e+02
-1.191023856535343384e+03
-1.844182396037888566e+03
-2.693191653774741098e+03
-3.575026219857998058e+03
-4.989823802115613034e+03
-5.728463900358821775e+03
-5.195790307895948899e+03
-3.954703912783814758e+03
-2.731113524281209266e+03
-8.869345443692697017e+02
4.329081918180576167e+02
1.285366183805580022e+03
1.130546514820356379e+03
1.121602874508569130e+03
6.512976213337088893e+02
3.225925821780768956e+02
3.396318671368835567e+02
-2.735716135038707648e+02
-1.010881655071350025e+02
2.830877713690280757e+02
-4.402764042394531430e+01
-3.284948056861582018e+02
-5.742276597927412922e+02
-6.581532844177769448e+02
-8.453704595187796258e+02
-1.442946686802710929e+03
-1.729717305673171495e+03
-1.592511578705570628e+03
-1.483250044950627171e+03
-1.039944179954713718e+03
-4.086595730976577556e+02
3.824713788241222687e+02
3.932620815109816590e+02
1.428675954044770720e+02
-2.285385058165341832e+02
-4.220423211801692105e+02
-8.424172307532854802e+02
-9.336508325487720867e+02
-4.229101180321120523e+02
-7.351240120087416017e+02
-7.122620461310362998e+02
-6.505073495688870935e+02
-1.207766538157133027e+03
-2.076145775489588686e+03
-1.732702749371869686e+03
-5.723162967082620298e+02
-8.238669170384690688e+02
-5.376074015811992695e+02
8.135316635921584805e+01
6.122323307509415145e+02
1.019237511586057167e+03
1.482225672348460876e+03
1.455102794993387988e+03
1.239268327981682205e+03
1.171336269959942911e+03
1.010139296378153404e+03
1.159584721559616810e+03
1.356890778486321096e+03
1.687129686140046260e+03
1.133391597119850758e+03
-2.743509861069433597e+01
-3.012717299803413198e+02
-3.392641039187951790e+00
-1.888571127756209762e+02
3.545366142567206680e+02
1.411317146978878554e+03
1.270627753498266202e+03
1.323843693872527638e+03
1.495716337405493050e+03
1.682195445297624701e+03
2.486368565082761052e+03
2.819854973577041619e+03
2.972797135143782725e+03
2.926296086388382719e+03
2.924388753206739239e+03
2.746076684383041993e+03
2.496218331677953302e+03
2.327624500189110222e+03
2.732339480260963228e+03
2.544788351200528268e+03
1.268857201722022182e+03
2.182915029685507307e+02
-5.006398298616334728e+02
-1.720656557764787635e+02
4.448487834505442606e+02
1.323109558917969935e+03
1.607232860120656142e+03
1.313404032213534947e+03
4.366271320161488347e+02
-2.120143117016082215e+02
-3.957174725832450690e+01
1.646277587660059908e+03
3.101533983626573900e+03
2.907816484778085851e+03
3.854881400852828847e+03
5.072108154433763048e+03
4.858518985437766787e+03
4.045185031908364181e+03
3.322913238416082550e+03
1.821176744938640695e+03
5.710137978332271587e+02
-5.816200954341464922e+02
-8.496690792666552170e+02
3.445145357280897969e+01
-1.242617016633100775e+03
-4.067044822059745911e+03
-5.856676457071296682e+03
-5.505308164224155917e+03
-4.431062674025245542e+03
-4.468947171055332547e+03
-4.412019864433694238e+03
-3.937295178446367572e+03
-3.171700144835081574e+03
-2.171226545091660228e+03
-2.037915105527697051e+03
-2.161611198691075060e+03
-2.886777275085082238e+03
-3.663599821733008412e+03
-4.281922871735426270e+03
-3.144693492207079089e+03
-2.447017505758652533e+03
-2.487825377152207693e+03
2.596818381891343961e+02
-1.234538058199774696e+03
-4.978337249528601205e+03
-5.740730294184089871e+03
-6.090718700196528516e+03
-5.428396430400664030e+03
-4.712678780823889610e+03
-3.645621946155386013e+03
-3.505247860167825365e+03
-3.132511408679542456e+03
-2.756467039754083544e+03
-2.595335528882255403e+03
-2.566001659888531776e+03
-2.136751166686306078e+03
3.617834126474908771e+02
1.267006425459161619e+03
-1.840877028706932379e+03
-3.620540004758778650e+03
-4.545801987420330988e+03
-1.926497750051166804e+03
3.111343589666628304e+02
-2.047985161827516322e+03
-2.747127180531384965e+03
1.323167422635612809e+02
1.480262962186795448e+03
2.674641487243276970e+03
3.551443426348907451e+03
3.489742778412582538e+03
3.006690984034091798e+03
2.835208088523495462e+03
2.935358226444223874e+03
2.336150244840076539e+03
2.510602033254582693e+03
4.185708994365517356e+03
4.973460983538058827e+03
4.362001286392248403e+03
3.219350826415020492e+03
2.342295832940477339e+03
2.017715174437072164e+03
1.753136027534432515e+03
1.448684229519900327e+03
1.247954589668236622e+03
1.410590102297844169e+03
1.503065347216974715e+03
2.221127457385382968e+03
2.618284413090488670e+03
2.349052468537413461e+03
2.058261180408991095e+03
2.368761975264626926e+03
2.967331615728642191e+03
2.939841583023469866e+03
2.271084242502880443e+03
2.583631352886435252e+03
3.359266303495242028e+03
3.374076467880619930e+03
3.960942694686252707e+03
3.910505466968602832e+03
2.413815601473959759e+03
7.009510013527651608e+02
-3.223761700557752761e+02
-1.031585133897834794e+03
-1.542648230928911062e+03
-1.063683851866044733e+03
1.666271982288270465e+03
3.438229246660556782e+03
3.855353183762870685e+03
4.224295129817781344e+03
4.146819223802905071e+03
4.636241809315279170e+03
4.947676382575915341e+03
4.842885695545367525e+03
4.863966676684348386e+03
4.526894068876092206e+03
4.424612883371902171e+03
3.957258823295971524e+03
2.726983639035945544e+03
1.742879892710134754e+03
9.400561460660035209e+02
3.196572118283931445e+02
-7.162237705625459512e+02
-1.253532644923643602e+03
-1.780276171594822017e+03
-2.732534512897121203e+03
-3.018307089737535534e+03
-2.284484533065753567e+03
-1.506438486372875786e+03
-1.262737610537808450e+03
-4.730950131978463560e+02
-3.763852913920214860e+02
-3.545133240624453492e+02
-3.503490214530564799e+02
-9.155712649702934414e+02
-6.128418246274603689e+02
1.811227217167691492e+02
4.095159333512389139e+02
-2.954979978411470256e+02
-1.695665344028362142e+03
-2.960701626649289210e+03
-3.532335134458945049e+03
-4.673270116755060371e+03
-5.749253742593137758e+03
-6.297040029016377048e+03
-6.290476412962682843e+03
-6.676431533817622039e+03
-6.821567560456143838e+03
-5.788441196796314216e+03
-5.042922852425113888e+03
-4.945783557492271029e+03
-4.818818165055357895e+03
-4.582824505910311927e+03
-4.417516231670739216e+03
-6.833556675867574086e+03
-1.036363607521384620e+04
-1.241044524488970274e+04
-1.239366283404566275e+04
-1.185204534263765891e+04
-1.032636672296986399e+04
-9.783446850161728435e+03
-1.127400814163950054e+04
-1.252289000864627269e+04
-1.446379952964846416e+04
-1.534921197178664988e+04
-1.203715872628091711e+04
-9.096521975827570714e+03
-8.272987492445907264e+03
-8.313372659675997056e+03
-6.679397794705118031e+03
-5.199694095454541639e+03
-4.103019565007068195e+03
-4.122113362593945567e+03
-4.734849744139333779e+03
-4.987190892450723368e+03
-5.177888603668361611e+03
-4.192801915948589340e+03
-2.574754857263841131e+03
-2.861620251565947001e+03
-4.243286873621724226e+03
-4.996547997726521317e+03
-6.179256077647645725e+03
-7.163368958711653249e+03
-7.646809365034552684e+03
-7.121721931639523973e+03
-6.746268123054848729e+03
-6.852400558574906427e+03
-6.706112360177032315e+03
-6.978360401306109452e+03
-5.850137501984272603e+03
-3.087513216155200098e+03
-2.314442446549891429e+03
-2.284774951793452601e+03
-1.668758992866949939e+03
-8.714946162711237321e+02
-1.248911030867351656e+03
-9.952532780872519425e+02
1.055340784080567573e+03
9.358766987176309158e+02
2.731981544904186521e+01
-3.295094980642779205e+02
-7.858141650289580866e+02
-1.904875497514114386e+03
-2.034933063427986781e+03
-7.581666210548191884e+02
6.502200809378372242e+02
2.364914565212071921e+03
2.632599682588243013e+03
2.705920947693276503e+03
2.220616020167411989e+03
1.788567312722932684e+03
2.298503216359988983e+03
1.400057051177193216e+03
1.554864698116717591e+03
3.709625216835836454e+03
4.551865965381529350e+03
6.466130806222539832e+03
8.512440002007115254e+03
8.510314763277618113e+03
9.472112268059254347e+03
9.436435030059386918e+03
7.645922177014328554e+03
6.482921553527911783e+03
8.000815415288003351e+03
8.873259662777916674e+03
7.956720510973263117e+03
8.149635228351366095e+03
1.024558556456298720e+04
1.073208160307243816e+04
1.019362797549006245e+04
1.153374014005778554e+04
1.183686040431657057e+04
1.172446732071938459e+04
1.179806023633352379e+04
1.245605764552940855e+04
1.314993427325364246e+04
1.361014412985282252e+04
1.399116548729073838e+04
1.482044105377319465e+04
1.528935916135675143e+04
1.537335765438437738e+04
1.524195970638465769e+04
1.384656362188785533e+04
1.251957731956543284e+04
1.205150420404219949e+04
1.257677499470676776e+04
1.371989921478836550e+04
1.434337824797465328e+04
1.423871481358203164e+04
1.368152190494126990e+04
1.438729261785552626e+04
1.437350564628047869e+04
1.393071701106390537e+04
1.371358857704170987e+04
1.268168988176713538e+04
1.135948369336634278e+04
1.087051631320319939e+04
1.059748068216338106e+04
1.072701935239025806e+04
1.299669715103013004e+04
1.584218032240769207e+04
1.844907428653409079e+04
1.970799940693315148e+04
1.735472195894619654e+04
1.335198947785612108e+04
1.073652368308766563e+04
8.462066831410673331e+03
8.094301280804535963e+03
1.071486089020121472e+04
1.183946038617617887e+04
9.789863011698986156e+03
5.918053107459750208e+03
3.391826713466786714e+03
2.087008284403495963e+03
-1.073395853182846395e+03
-3.891380433667829948e+03
-1.735042740306042560e+03
1.493640967402838214e+03
4.711733274621627061e+03
1.034114594249857146e+04
1.298278520510717135e+04
1.214172086593003405e+04
8.225219560467834526e+03
7.509389459038405221e+03
9.399252783146648653e+03
8.311809049114484878e+03
7.071114965014440713e+03
4.730465148941298139e+03
3.038085500771495390e+03
3.462113797286417594e+03
4.153737066871599382e+03
4.612150479537638603e+03
7.554755117644412167e+03
9.490005684537156412e+03
8.156428592745159222e+03
7.089267607661137845e+03
6.480807918431788494e+03
4.658317811128239555e+03
4.222252541372986343e+03
2.095291415296294872e+03
-2.754281703437872011e+02
-1.953464349072738287e+03
-4.356118335202212620e+03
-6.568819729323524371e+03
-1.058809321115054445e+04
-1.435851206902828380e+04
-1.821252565104521273e+04
-2.228756578866386189e+04
-2.660589472070583361e+04
-3.444775592006603983e+04
-4.895478442646123585e+04
-6.526545916468284122e+04
-7.613593099318342865e+04
-8.475255826209431689e+04
-8.959982676147377060e+04
-9.292292020206879533e+04
-9.285080919269601873e+04
-9.041283663527935278e+04
-8.416129574762680568e+04
-7.893059310678177280e+04
-7.334196112111557159e+04
-6.964462504960245860e+04
-7.012195440312173741e+04
-7.162020788595754129e+04
-7.372269748971897934e+04
-7.628371282671191148e+04
-7.875245134348837018e+04
-7.960402261701111274e+04
-8.022259198635311623e+04
-8.046440117980213836e+04
-7.994267095787462313e+04
-7.677255129504148499e+04
-7.276828634103585500e+04
-6.831620520761888474e+04
-5.994843753585052764e+04
-4.832206380493952747e+04
-3.498430935777248669e+04
-1.926341334950563396e+04
-4.032617040291521789e+03
7.829904012327560849e+03
1.997296826709601737e+04
3.232731128238106612e+04
4.168156982367629826e+04
5.050245056827481312e+04
5.624563449382885301e+04
5.917889256739994744e+04
6.285591076075031742e+04
6.722537791101624316e+04
7.041494093945644272e+04
7.404327517198871647e+04
7.659406279634201201e+04
8.171696364062339126e+04
8.372949995166811277e+04
8.264723449560214067e+04
8.291378507348065614e+04
8.349664852635205898e+04
8.349543220177887997e+04
8.530579797693721775e+04
8.690434237167215906e+04
8.529856487352379190e+04
8.437881591158085212e+04
8.254343727409387066e+04
8.033881235671711329e+04
7.797721637571050087e+04
7.868801157217213768e+04
7.576956639679564978e+04
7.172309640645010222e+04
6.979292754925598274e+04
6.842631554804193729e+04
6.691149173026034259e+04
6.850980970950434858e+04
6.760544883883741568e+04
6.438562694127090072e+04
6.108041652492684079e+04
5.796901433343619283e+04
5.423462550475026364e+04
5.002825534898910701e+04
4.511193683021707693e+04
3.855173399173854705e+04
2.931667517260075329e+04
1.456168580486948122e+04
-7.467316441464980926e+03
-2.341851002088670793e+04
-3.081699227295151650e+04
-3.393394639925374213e+04
-3.533054556867234351e+04
-3.530697899269479967e+04
-3.469060658051610517e+04
-3.444761208100283693e+04
-3.397726498483799514e+04
-3.290878956896973250e+04
-3.156444661336048375e+04
-3.033165999913221458e+04
-2.964482335550771677e+04
-2.880225807183930738e+04
-2.778827807257276800e+04
-2.701524580909098222e+04
-2.589361644988130502e+04
-2.472588298498914810e+04
-2.378550900421076221e+04
-2.272303469627490267e+04
-2.153402165945878369e+04
-2.097603982930960410e+04
-2.080262599775300623e+04
-1.972441498211308135e+04
-1.903709952671529390e+04
-1.804630983320000814e+04
-1.731365853130956020e+04
-1.716773564828680173e+04
-1.687320134206940565e+04
-1.654775148729035936e+04
-1.653983699748385698e+04
-1.639108720526138495e+04
-1.610825854015324876e+04
-1.592417113315133065e+04
-1.589544772614783142e+04
-1.607186697956184253e+04
-1.641805496592585405e+04
-1.715442933918372364e+04
-1.722693142197019915e+04
-1.628926554339494942e+04
-1.710826425889226812e+04
-1.775306027488759355e+04
-1.771125199520223396e+04
-1.887767070150503059e+04
-1.991920308620934520e+04
-1.992779697817336273e+04
-1.901921764260164491e+04
-1.659112013668563304e+04
-1.455618364751020817e+04
-1.402214440650154756e+04
-1.328672435249142291e+04
-1.346465841208963502e+04
-1.318881845022516791e+04
-1.248501874086964744e+04
-1.221584161717916322e+04
-1.093291072390503541e+04
-8.864970745289698243e+03
-7.800579007439820089e+03
-5.910423037534133982e+03
-5.049280556326166334e+03
-5.939968961573190427e+03
-6.578138397259479461e+03
-6.484352659263934584e+03
