2.862277330576465033e+02
9.023446494627652328e+02
1.709451254478988858e+03
2.147569387948818076e+03
2.060715423675544116e+03
1.876866384010303136e+03
1.761005969463511747e+03
1.562058052876539023e+03
1.586016607305566140e+03
1.491832590321040698e+03
1.784491550660299254e+03
1.538016918569647714e+03
9.972556593800333076e+02
1.221056286663804258e+03
1.677533236533398394e+03
1.497949753470215910e+03
1.027250386624618613e+03
6.724888515683711603e+02
2.676569019983941189e+02
2.146106657553984860e+02
4.682758639391290103e+02
7.106407645690621848e+02
6.437974389841568836e+02
1.260826985440317003e+03
1.120880387376412045e+03
1.471790435236471467e+03
1.318381824795973671e+03
9.816661850102817652e+02
1.342872685727038288e+03
1.391402558314666521e+03
8.850407010835428991e+02
7.022317767312644037e+02
3.907614991703002829e+02
1.116792640326593300e+03
1.824150429721970568e+03
1.715884225593374140e+03
1.641672609463221534e+03
1.270812278763614813e+03
1.117000228100928780e+03
1.007406764013495945e+03
9.126466682714293484e+02
1.173163508716655542e+03
1.466844034537094103e+03
1.931143395278494381e+03
1.942400350518425739e+03
2.321551871231057703e+03
2.196278258230058782e+03
1.926947644911309681e+03
1.785491789403571374e+03
1.921994581408513341e+03
1.803024096168440792e+03
1.896374800688188770e+03
1.618043398227644047e+03
1.463020250276558045e+03
1.625304851113983659e+03
1.145801931536335587e+03
6.734352101553882903e+02
2.281795845407167747e+02
1.660422325075643641e+02
2.879963649142341069e+02
4.189448343555988572e+02
5.388356013297816389e+02
6.716691538323403847e+02
1.205476981899879775e+03
2.273249078136645949e+03
2.933917610948083166e+03
2.464407172864865061e+03
2.090674430705546911e+03
1.955715780472088227e+03
1.244461083582878018e+03
7.058717694194559726e+02
1.126968008424664276e+03
1.202744402743025603e+03
1.515276713364045236e+03
1.820558189783618673e+03
2.574895122040006186e+02
-2.524934343914242618e+03
-6.157715855900728457e+03
-6.762870819509144894e+03
-6.905462666856309625e+03
-6.574519332417363330e+03
-5.946964628510495459e+03
-6.007775883958891427e+03
-5.581940928652037655e+03
-5.075435623725706137e+03
-4.672216986411125617e+03
-3.660304051205829637e+03
-4.799756102376395575e+03
-5.689291093933389675e+03
-6.500129784161187672e+03
-6.281434755589808447e+03
-3.087080049846449583e+03
-2.375023180635433619e+03
-4.775192270696503329e+03
-4.752560558660554307e+03
-4.605199262015004933e+03
-5.044081709757846511e+03
-5.693151726647168289e+03
-5.884347541370716499e+03
-5.944597531179761063e+03
-3.300938643419181062e+03
5.016100123923009164e+02
-3.408885973341883187e+02
5.366554877999632254e+02
-4.487539425865273870e+02
2.452890056429759170e+03
3.535619129816682289e+03
3.750469136292686017e+03
3.412508036845794322e+03
3.177787059550643335e+03
2.606309867276116165e+03
2.400076336223787621e+03
2.233180110629965384e+03
1.941680186372977232e+03
1.971607517172318467e+03
2.140082167053890316e+03
1.512113668582104083e+03
1.069706429225463353e+03
7.609175458381074577e+02
1.178769014322829435e+03
2.456282267871651584e+03
2.793473823528963749e+03
2.389528009031092552e+03
2.377526972807294442e+03
2.852544836498081168e+03
3.222625954368801558e+03
2.771687392977047239e+03
2.008823224395885745e+03
1.554260026616344703e+03
1.451007667463578628e+03
1.649073350126597916e+03
1.495389542944341656e+03
1.222017216533508872e+03
1.065031534724944095e+03
9.895850862097029221e+02
5.607089184271294471e+02
2.713819321274060599e+02
-9.638505951202166955e+01
-4.915684025875667089e+02
-6.652443694300163770e+02
-3.283530971671426073e+02
6.257944805123943688e+00
3.972128022177720368e+02
8.246730349875973616e+02
1.447480017773527379e+03
1.671696978666944915e+03
1.444284176202867911e+03
6.402507598379471574e+02
-2.572958754261235299e+02
-4.623192170360816817e+02
-4.856816784564252885e+02
-1.348697863529834876e+03
-5.291815543085701847e+02
2.189545236959708916e+02
3.765125555495354206e+02
7.140829438504204063e+01
-3.673122582488503554e+02
-4.146175035784441434e+02
-5.325585356289409447e+02
-3.411262845926332261e+02
1.297207005611442128e+02
4.300169886074384067e+02
8.277786001253660970e+02
1.050040635951631884e+03
1.115850059053313316e+03
1.737252858716911760e+03
1.578298551695449532e+03
1.188948678977675172e+03
4.682229826883357191e+02
5.810083760591636803e+01
-7.939401180507529432e+01
-2.873086113399881469e+02
-1.896372346610930890e+02
-4.013409074921174238e+02
-5.664273033128334873e+02
-5.968729003556131829e+02
-4.466788336081203852e+02
-5.329505506022466079e+02
-1.023683253340127067e+03
-1.185808972684513492e+03
-1.145301391432661831e+03
-1.311182878022141495e+03
-1.763465284816360736e+03
-1.863987601164031048e+03
-1.342639808879916018e+03
-1.565453111500034424e+02
1.851441789474421853e+02
1.329695445922057040e+01
-2.604816546408840594e+01
2.702272850534821487e+02
4.630049691780528178e+02
4.621324361093413131e+02
1.534814426806063921e+02
-8.997808082828122167e+01
-4.413010976987244476e+02
-7.895384925791632895e+02
-6.707169340126429233e+02
-6.068388622279834408e+02
-7.128210916907562478e+02
-8.946134215174583915e+02
-9.603193619416873617e+02
-3.771526394104687938e+02
5.976529515923409264e+01
3.153757596144727131e+02
9.057799031663922733e+02
1.062901954576188928e+03
1.232672244738552536e+03
8.700912530899233843e+02
7.162082642303364537e+02
1.324920231606375637e+03
1.670147202048521876e+03
1.987877509611927053e+03
1.740985696976358895e+03
7.534703406115082771e+02
-1.296057321039851047e+02
3.725943189953601298e+00
-2.184490882321775018e+02
-6.964512249026840891e+02
-1.300007395654945185e+03
-8.417104276694672080e+02
-3.343848569961842259e+02
-5.992402321750607825e+02
-4.163526347416951694e+02
1.531241778642392717e+02
9.405742361833845280e+02
1.914956095661764039e+03
2.307482024837397148e+03
2.593661068222691938e+03
2.408349393875046644e+03
1.956029577306361261e+03
1.683239077819710701e+03
1.169425728528011177e+03
8.182861670118554684e+02
5.769578214087017614e+02
8.361005738289219380e+02
6.889327792773383408e+02
3.036769884478666199e+02
1.165440670568425077e+02
3.637910956321735512e+02
5.430603183965024527e+02
5.225796703135544163e+01
-4.403770603761145708e+01
-1.466808118667050849e+02
1.076732644007490052e+02
5.787268211833394389e+02
1.375558057794142996e+03
1.914148502145782686e+03
2.189095365254841454e+03
2.063679626580432796e+03
1.931042503406571541e+03
2.089197718172100849e+03
1.958718744309735939e+03
1.535909064256623196e+03
1.388765713654342562e+03
1.383784064058768081e+03
1.508061440047812994e+03
1.202617074570999193e+03
6.880270368933482814e+02
6.504988528062576734e+02
1.130099031438574229e+03
1.435814103457444844e+03
1.752531888439285467e+03
2.218134188495428134e+03
2.382799684923693803e+03
2.367785923188014294e+03
2.226019842025906200e+03
2.174223744692755190e+03
1.830241165780828624e+03
-1.750244139043534233e+02
-4.041564215328287901e+03
-7.201323641403957481e+03
-7.063266243063723778e+03
-7.128273545736928099e+03
-6.725326817080900582e+03
-5.723423476782635589e+03
-6.021603353975027858e+03
-6.444884879271313366e+03
-6.889282023482767727e+03
-6.586730727425752775e+03
-5.996277765113472924e+03
-5.821104763482551789e+03
-5.510671206481003537e+03
-4.547174486100368995e+03
-1.217557013074508404e+03
-1.169596026664858073e+03
-3.458413161736700658e+03
-3.586036213294948539e+03
-3.941232567734884924e+03
-4.031851274016315529e+03
-3.985792666091032970e+03
-3.779978464390594127e+03
-3.886541932361498766e+03
-3.965549486640885334e+03
-4.034101560664203589e+03
-4.389179816855707031e+03
-4.666736631731336274e+03
-4.810572074274795341e+03
-3.242417359635019693e+03
5.127596804020669197e+02
-1.844126735091906767e+03
-4.594049285468351627e+03
-4.729969718397430370e+03
-4.780938425502638893e+03
-4.777685381867087926e+03
-3.460970815019931251e+03
1.606148488814198117e+03
4.037630710548694424e+03
3.810590348098611230e+03
3.882053054366703691e+03
3.980109269616280926e+03
4.267799708856007783e+03
4.338188344929689265e+03
3.712408734184121840e+03
3.165556254344374793e+03
3.260730477481858543e+03
3.741977697099575380e+03
3.570280184704959538e+03
3.071628398952111183e+03
2.950112381163109603e+03
3.065868524742020782e+03
3.355935883423951964e+03
3.162321909691036581e+03
3.160117961696198563e+03
3.010446159118952892e+03
3.137396347052088004e+03
3.312053600213405389e+03
2.987507638243568636e+03
2.683842765876748217e+03
2.156067222753854367e+03
2.132255369928298478e+03
2.664475869387743387e+03
2.625706790177332095e+03
2.449061297872890918e+03
2.193696972666377860e+03
2.115896780803301226e+03
1.942561830477491412e+03
1.214733380591772402e+03
5.985999440434401322e+02
2.271650551656149730e+02
-2.149832583454013601e+01
2.986790336782528925e+02
1.033691881829465046e+03
1.241472909220155998e+03
6.317433013066972762e+02
1.221813779365615119e+03
1.394156170513508869e+03
1.208822477949629047e+03
1.216562247764469021e+03
1.168847257063665438e+03
1.109719936790366773e+03
1.209528991689201121e+03
6.410678635352306856e+02
-3.666538189814675093e+02
-9.605626944222976817e+02
-7.516800300152317504e+02
1.220451942430022569e+02
5.515190674380563678e+02
9.935725705799186471e+02
9.030507232941964730e+02
1.328993408318860475e+03
1.432182314613574363e+03
1.162587453891982932e+03
1.253761688605125300e+03
1.364768146395570739e+03
1.676618844977529534e+03
1.928275789536975253e+03
2.211712412262357248e+03
1.805976309068241108e+03
1.796024344004228851e+03
1.456779461668958902e+03
1.011236865177152140e+03
1.323302163609613444e+03
1.633915272133477629e+03
1.488103831452236818e+03
1.590810349126362553e+03
1.316960428204878554e+03
2.134675132604092482e+02
-1.014772375807884259e+03
-9.907841436296894244e+02
-8.055959223268122287e+02
-4.112726875161577027e+02
-3.509062779330795934e+02
-1.261588037718378018e+03
-1.695344390431073862e+03
-1.151819300002627102e+02
1.165800621918471961e+03
2.570539641235778618e+03
2.658960940365859187e+03
1.988953053651819801e+03
1.697448364786079992e+03
2.079429212064608237e+03
2.840832073965215386e+03
3.329542903905299227e+03
2.879499738989593425e+03
2.109654277356623425e+03
1.049365344423309523e+02
-3.100739317033105635e+03
-8.564489886268233022e+03
-1.000840452023188118e+04
-9.026566952710005353e+03
-8.593018627149325766e+03
-8.007837245768218963e+03
-8.703072255653252796e+03
-9.400707614863809795e+03
-9.397760539125049036e+03
-9.100252263322317958e+03
-7.301323767149006926e+03
-7.781067662245599422e+03
-2.767366280288050802e+03
1.498580561655254087e+03
2.979729478194222793e+03
2.993066600284442757e+03
3.269557036876674829e+03
3.809170231995837185e+03
3.204822386829263905e+03
2.549503587296856495e+03
2.366132035538669243e+03
2.663622058211971307e+03
2.639923956403595639e+03
2.167996260225939750e+03
2.330838169405900317e+03
2.498422012847485803e+03
2.788653703424343803e+03
2.825549322152981858e+03
3.053111992790761633e+03
3.310412982518691024e+03
3.554540181239930462e+03
3.448455029397066028e+03
2.958131192669800384e+03
2.691480154130103983e+03
2.520536634109262650e+03
2.261257525253300173e+03
1.821584103595552051e+03
4.144835025721686748e+02
-1.279009123395471761e+03
-2.353843925571932232e+03
-3.203902332419517279e+03
-4.035098442571093983e+03
-4.532450447367834386e+03
-3.753949267534594128e+03
-1.489655171093614626e+03
4.793554731866948941e+02
1.126031600094881242e+03
6.424586954923665871e+02
1.239743734124322827e+03
3.671947373262464225e+03
5.838100144138832547e+03
6.793268271295788509e+03
6.624458385019433081e+03
5.749788807271153928e+03
3.940324995452619987e+03
2.277121603509997840e+03
8.502400248826733105e+02
-2.153445284727778528e+02
6.943125454576892253e+01
2.454644898665932033e+03
4.056442654881120689e+03
3.687908375666508164e+03
2.527026975426708304e+03
6.269239613744090320e+02
5.536386808735741170e+02
3.511511233064342150e+02
-1.249555363583698181e+03
-2.238191649150131980e+03
-1.982619597247175534e+03
-1.908706128426685609e+03
-1.794502044209153837e+03
-1.732902571199962267e+03
-2.666797214696889569e+03
-3.585085867195598894e+03
-2.680671332439419075e+03
-1.407352212060932061e+03
-1.544154460255068216e+03
-4.161952406464806700e+03
-6.335847532071927617e+02
4.721029918057409986e+02
-3.699077990157979343e+02
-6.395384651168185428e+02
-3.379647698949248479e+03
-6.409205272809450435e+03
-6.291127894221282077e+03
-3.919339749881560692e+03
-7.661794689172651488e+03
-1.032834064014346222e+04
-1.518185207135682140e+04
-1.117019666231399606e+04
-9.172236350648825464e+03
-4.892900163798208268e+03
1.639964770914945120e+03
7.911483637038587403e+03
2.589695605889542094e+03
-4.231341704019538156e+03
-6.092515853399573643e+03
-4.391736109361402669e+03
-2.663901967517717821e+03
-1.747954691829433614e+03
-6.737969958043424867e+02
-4.096257348465091127e+03
-5.625233682790266357e+03
-4.462619546181747864e+03
-5.123435702762933943e+03
-5.546537880109042362e+02
-1.765199909876280572e+03
-4.031004880834173036e+03
-3.179715597751505243e+02
2.418957863050672586e+03
-2.394154150406204280e+03
-4.897224125302392167e+03
-3.788194036729461459e+03
9.351067829488193865e+02
2.768714495424778306e+03
1.610612908689198775e+03
2.200803398249156089e+03
2.253834681606363404e+02
-1.735408372767891478e+02
1.006037289422257686e+03
2.358096508172013728e+03
2.129693587184420721e+03
1.138839379760522093e+02
3.096673651886110861e+02
4.357102937926112645e+03
8.902205940083309542e+03
1.068701598089649451e+04
1.127257227144894750e+04
1.005882916562760693e+04
8.170870439895123127e+03
7.328979657290175965e+03
7.078387782504770257e+03
7.712953266442045788e+03
8.250852049344168336e+03
8.839219407004346067e+03
8.655262646652634430e+03
8.258365615451066333e+03
7.661784418137532157e+03
7.600138462650799738e+03
6.163256572741465789e+03
2.086815306749512729e+03
3.541193092495122528e+03
2.642436084469051366e+03
1.267510766711718134e+03
1.948196262809815607e+03
1.274617837426555525e+03
-9.150426577177432819e+02
-1.674892120918341789e+03
-8.309333222012236320e+02
8.390274995573622618e+02
4.745576297397129565e+03
7.373458057732798807e+03
8.271529046555710011e+03
7.252750428339551945e+03
5.042942844643831450e+03
2.257007628962888703e+03
7.792189349015469588e+02
1.977543299957987301e+03
3.599770408866929756e+03
3.708635092103671468e+03
3.695429645982660077e+03
2.905150455696955760e+03
6.985513633899660135e+02
3.405526764023200030e+02
2.251127462156590354e+03
3.042060678444851874e+03
2.829062740007942466e+03
3.006040943520670680e+03
2.904082687672533211e+03
2.696893203570037258e+03
2.145345977552714430e+03
1.776344424519651966e+03
1.519795330786826071e+03
1.498646594402917572e+03
1.882790598979819151e+03
2.490137421711739535e+03
2.307540090839941968e+03
1.047957479268110319e+03
-1.656546755600125493e+02
-6.044251718712188222e+02
-9.594701783548524645e+02
-1.372898017962711492e+03
-1.680706840517380215e+03
-2.454961759016043743e+03
-3.047851355690983837e+03
-3.242506102029454723e+03
-3.819981219699857320e+03
-4.153352046725898617e+03
-4.192681105456284058e+03
-4.257047246413661014e+03
-3.760576287762122320e+03
-4.095412173338757839e+03
-5.919555023147489919e+03
-8.725072666587506319e+03
-1.081002724293328356e+04
-1.277353194191633338e+04
-1.489769539898890798e+04
-1.486952835722601412e+04
-1.482811363578047349e+04
-1.489953967528760222e+04
-1.380987443125833852e+04
-1.264522013881310158e+04
-1.247267738829363407e+04
-1.579734460621616381e+04
-1.834707702087845973e+04
-1.498509954400966308e+04
-1.020445897417538617e+04
-6.704159204077326649e+03
-6.072356823817823170e+03
-6.909091831936066228e+03
-6.667378972241534029e+03
-6.920278396205333593e+03
-6.828742893536465999e+03
-6.188748496204005278e+03
-5.873375045685565965e+03
-4.049761566128786853e+03
-2.635996765432672419e+03
5.808893133483035172e+02
5.213877313740135833e+03
7.410929049325329288e+03
9.547949763262786291e+03
1.029597375353812276e+04
1.002399895996687883e+04
9.738974072424618498e+03
9.383884663776463640e+03
8.366698623734648208e+03
7.366383915837321183e+03
6.968906503823142884e+03
6.855313459291499385e+03
6.323579199396015611e+03
6.140762735308628180e+03
5.654872390583575907e+03
5.162866353355776482e+03
4.805721493259286945e+03
4.425477071080778842e+03
3.776129939172315517e+03
3.428715158715490816e+03
3.626329428494077092e+03
3.631976440414796798e+03
3.326606690427356170e+03
3.338215351154708060e+03
3.623797682042822089e+03
3.662446941770857393e+03
3.385299094179761141e+03
3.416277562071963530e+03
3.212209322306873673e+03
3.383102203307412765e+03
3.937971799864820241e+03
3.688923894998503783e+03
3.240064617613130395e+03
3.544407976245833652e+03
4.145941517062462481e+03
3.847694410005177360e+03
3.682700135930848319e+03
3.650062357767013964e+03
3.508859679980668261e+03
3.303259852680454514e+03
2.993440004624898393e+03
2.423651005507977061e+03
1.653582571218479416e+03
1.218054293793367151e+03
8.782572458211304820e+02
3.434722600439837947e+02
3.118350489934023244e+02
1.254199655341521691e+02
1.171908684941221424e+02
-4.518033151784184156e+02
-1.515732538552505275e+03
-1.413435892616425235e+03
-1.482098099048125960e+03
-1.260612593346565063e+03
-9.530751090751211905e+02
-8.854744406882061867e+02
-8.048337153580808945e+02
-8.791257663592490417e+02
-5.741896189344155346e+02
-3.959947062976155507e+02
-4.195399101761523184e+02
-7.138573037466138658e+02
-9.828491021095079532e+02
-9.844224572366806569e+02
-1.104580703644017149e+03
-1.524327819765656841e+03
-2.322611493432123098e+03
-3.373358721771645833e+03
-3.990512338712873316e+03
-3.098073880890521650e+03
-2.097056380162508503e+03
-1.169367172502003996e+03
-8.239186973885842917e+02
-1.597321336975247732e+02
9.920274981944831438e+01
-3.140702405144140812e+02
-1.167491851982821800e+03
-2.127925787403800314e+03
-3.353334034301316933e+03
-3.121734384036863958e+03
-1.578074395736459792e+03
-3.703125182056944027e+02
6.035366703640364676e+02
9.553409387349805684e+02
6.749599165535549901e+02
1.394350480069718117e+02
-5.281338705740562318e+02
-9.277090138285362855e+02
-1.024345592661308501e+03
-9.112090747054772919e+02
-5.093628922219896822e+02
-8.047028242796393442e+02
-6.041877649102027590e+02
-1.847285861106625191e+02
1.198155279432607756e+02
4.524587379353276333e+02
1.162033388529691820e+02
-3.659524257562235903e+02
-1.036092591657130242e+03
-9.014493927392652495e+02
-4.470159149743774947e+02
-3.416635956977468140e+02
5.186744896325161562e+02
9.671000205122892339e+02
5.854727990768268455e+02
-1.768216919669430354e+03
-1.756852643877126866e+03
-1.635465348344546101e+03
-6.621548416289864463e+02
-5.339443448903139142e+02
-3.328398209911422327e+02
2.531446592776526643e+02
4.600400495064839674e+02
-2.881337986042655643e+02
1.255315415949438034e+02
-1.010752443932463933e+02
-4.098483792515785353e+02
-2.877318411575616892e+02
3.817689432207985192e+02
7.110641258110277931e+02
1.034122167684016404e+03
1.215018936808039598e+03
9.176752356950574949e+02
8.344321604873139222e+02
8.098424781969157493e+02
4.408378504976650447e+02
2.398325015519352235e+02
3.047513759798180786e+02
3.117444129056053725e+02
4.581420052678186039e+02
3.060290244115229257e+02
4.962101449716656134e+02
1.193244767363529490e+03
1.278241643065154221e+03
1.401738242838797532e+03
1.374265181866117928e+03
9.412966855205520460e+02
6.396479060914313095e+02
2.781591125937520133e+02
-9.406177293693731656e+01
-1.650556461779491428e+02
3.412540903153273462e+02
1.295946105680859091e+03
1.456881901379070769e+03
1.266188838131769216e+03
1.525054825124138461e+03
1.666316287185165265e+03
2.012908661064642502e+03
1.818143350031450609e+03
1.411355375290156189e+03
1.461737137266951549e+03
1.099405046524617319e+03
1.813197923122878365e+03
2.635800250565365786e+03
2.782346407301115960e+03
2.375768811676777204e+03
2.021315975111816215e+03
2.061059689124749184e+03
2.021845635644059939e+03
1.703511455008437224e+03
1.474003395697714268e+03
1.569346690629399518e+03
1.490697315696890200e+03
1.563928310212095994e+03
1.296740867475471987e+03
1.005040066705095342e+03
9.659703267419431540e+02
-4.264006041198961725e+02
-3.500916073099007463e+03
-6.533442064376562485e+03
-7.450061032581965264e+03
-7.464807213870176383e+03
-5.100716557197310067e+03
6.522307482579195721e+02
-2.534925938510197739e+03
-2.208108078338194446e+03
2.001728251769505505e+03
2.015637557018718553e+03
7.095751950864536184e+02
-4.916336741586347671e+03
-6.596739576644521549e+03
-7.436046358807072465e+03
-7.604092392820421082e+03
-7.203764636818775216e+03
-7.552179990146285490e+03
-7.764205905012699077e+03
-6.863686673820652686e+03
-5.370673791926305967e+03
4.447652355300076579e+02
2.885560193174239885e+03
3.413515431286225521e+03
2.569699308018057309e+03
1.871204246464361177e+03
-7.067775767359264592e+02
-4.911054137810370776e+03
-5.314484999400320703e+03
-5.193138173813920730e+03
-4.876170978895845110e+03
-3.954601140518536340e+03
-4.128305554325498633e+03
-4.478254905477864668e+03
-4.805377712738607443e+03
-5.109497624688187898e+03
-4.591670817484985491e+03
-4.105054254615964965e+03
-1.168548718644647352e+03
6.989665149503731527e+02
3.021481109780268980e+03
3.349018078968650570e+03
3.320621293342174340e+03
3.502364506412090122e+03
3.543278998891103129e+03
3.326396449628002301e+03
2.757737571655697138e+03
2.756298818653946000e+03
2.513099608679966423e+03
2.283240754741724231e+03
2.250843975240480631e+03
2.043926347803564340e+03
1.726540240923844976e+03
1.364654871174324853e+03
1.764248611345592053e+03
2.896364055328109771e+03
2.770055378838937941e+03
2.363381637315958869e+03
2.478372046847383444e+03
2.264043864060119631e+03
2.324396070259293083e+03
2.176447038101260205e+03
1.929224563711343308e+03
1.486678140223813898e+03
1.596871703427607144e+03
1.796963311477246862e+03
2.217007154653520956e+03
2.461035422731383278e+03
2.220971230284005287e+03
2.150073050291773598e+03
1.911404031101219744e+03
1.555962446582565008e+03
1.241737758336189927e+03
1.064623260518237657e+03
1.031546326038568623e+03
8.056909209388312831e+01
9.629633468137043337e+02
1.116758734805641552e+03
1.182479331097115391e+03
1.687945352063546352e+03
1.084181012851406877e+03
4.603732925614220335e+02
1.877929015554664716e+02
-1.180017861404469102e+02
5.791912801286299128e+01
5.847415453494575104e+02
9.864494553128098460e+02
9.540332922473824055e+02
1.129345505537476129e+03
1.160423101812007644e+03
1.583077612442209784e+03
1.493198113514910801e+03
1.064869645016571667e+03
1.128938134651150676e+03
1.095263659432574059e+03
1.012875017208416125e+03
1.041776749432170618e+03
1.158993188007811113e+03
1.075561989066786737e+03
7.635284630825394743e+02
3.848685698567556415e+02
1.158096761688184806e+01
3.765203682891314685e+01
-7.975122632597083872e+00
1.736715678016612401e+02
1.355820807191913673e+02
1.067727135733004360e+02
2.102447594512180729e+02
2.820050341802300977e+02
4.930628896148469380e+02
1.533411181559220609e+02
4.286306488798522452e+01
-1.763781354423986159e+02
-4.554512768461792120e+02
-3.541206453811937394e+01
9.747482602267192533e+02
1.185059972227339358e+03
1.052485391365912847e+03
7.140167122011944230e+02
6.455799170755068417e+02
3.911406617366139926e+02
2.007595994354996947e+02
-3.753561730433467147e+01
-2.498626940510589236e+02
-1.227954182368507041e+01
1.192578824278723744e+02
1.817470928862458948e+02
2.921956515299768853e+02
4.896207766434584414e+02
6.129945796745613507e+02
5.302398783937493754e+00
-2.348383727164569791e+03
-5.921075635673254510e+03
-8.755810095032820755e+03
-8.579633940905025156e+03
-8.455560041506305424e+03
-8.026600756468127656e+03
-7.912732864332200734e+03
-7.261053201039002488e+03
-7.485509418627670129e+03
-8.431984141709208416e+03
-6.002586289985571966e+03
-1.330322982522884558e+03
3.857334161773808319e+02
7.034977449760178843e+02
5.030052230002264650e+02
4.522864502026924356e+02
8.263518711589543955e+02
9.101669671970312265e+02
8.577014510336468902e+02
2.990034976681207013e+02
1.081453769911741034e+02
6.807642144123101957e+01
8.773401161644514445e+01
-4.429381073340533703e+02
-6.948954146317022378e+02
-7.210932715085193649e+02
-1.724846460251930012e+02
1.199304636746983874e+02
-1.249681891389403177e+02
6.478607221948354322e+01
6.131275962289284962e+02
7.171267559794321187e+02
6.287537405033243658e+02
5.950242465886185528e+02
7.349913692891146866e+02
1.186670729605146562e+03
1.215168830802176899e+03
9.915775177231562338e+02
1.183764276817881637e+03
1.586615507812188071e+03
1.880121903450095942e+03
1.644300330516681925e+03
1.273174637805810789e+03
1.551797794995116192e+03
2.120158164948386911e+03
2.013299795555926266e+03
2.208241143170898795e+03
2.491002439524493184e+03
2.221579000514601830e+03
2.402956430913562599e+03
1.991224311610863651e+03
1.736332604275695530e+03
1.962261898111546543e+03
2.097060281726869107e+03
2.132788261177549430e+03
2.245568589913884807e+03
2.667354589792339084e+03
2.703156130065461184e+03
2.658947435180834873e+03
2.529724509428125202e+03
2.328399809130331960e+03
2.399872212592166306e+03
2.393224785094385425e+03
2.242092541266672924e+03
2.095586919305661468e+03
1.989268212665274632e+03
1.947113722069716687e+03
1.655030766362522400e+03
1.537168453472847887e+03
1.427547663092522953e+03
7.601263235741972721e+02
2.288919474242458989e+02
5.989838915778897217e+02
5.163344983560599530e+02
8.530737873731239915e+02
-8.177728574703647837e+02
-2.924236105616972054e+03
-1.358356840140736722e+03
-1.665034963783031799e+03
-1.172682829956997210e+02
-2.228072500473669606e+03
-7.733486211839257294e+02
-1.926135287539153069e+03
-1.071427827264718417e+03
-6.781447906929704459e+02
-5.943267472359134445e+02
-1.479983015996335098e+03
-2.002094944271914528e+03
-2.381629168101224877e+03
-1.763507128813091867e+03
-2.857770470809188737e+03
-6.974626825811097888e+02
-2.838540275648444094e+03
-1.039971848415223803e+03
-1.739725307215114526e+03
-9.467335936455607452e+02
-1.373964453623505506e+03
-5.343680221207423529e+02
7.580727741742196031e+02
-1.650634328209427167e+03
-1.893568656756782957e+03
-9.128171504861596759e+02
5.276724865984313055e+02
-2.721083752879780150e+03
-4.730906831484407462e+02
-6.320570298700992851e+00
-2.258767713439553518e+03
-1.844033306375977759e+02
-3.479198043758621225e+03
-4.347161857638377114e+03
-3.763251820274027978e+03
-2.488546388965626647e+03
-1.065075177223967330e+03
-3.480801268350987812e+03
-9.696560932238962778e+02
2.513254665383618942e+02
1.065071901717998799e+03
1.704596189108287717e+03
2.352935185208256371e+03
1.925100804990268671e+03
1.260076974514698350e+03
7.528669493212305497e+02
6.924509659881829293e+02
9.858066908764541267e+02
1.136950661647200377e+03
1.124860310074144763e+03
1.044617356456726839e+03
1.448363906694957222e+03
1.310160159970920176e+03
8.928588099961119724e+02
6.303679894729858688e+02
3.605153290810591784e+02
5.088776711383105180e+02
7.071104246462166429e+02
9.369240661587290333e+02
1.305920807005433289e+03
1.276195334968391990e+03
8.572535331181059064e+02
1.367455412534754032e+03
1.519617862413162584e+03
1.154379078441713091e+03
1.071871038882743960e+03
1.104920785483562895e+03
1.152686391274397465e+03
9.350207834723096312e+02
6.860280602144872546e+02
8.182133732242700717e+02
8.681615567404935518e+02
1.022171530159587178e+03
1.286519725572326479e+03
1.044967595349780595e+03
8.343003753606454893e+02
1.025142718394981102e+03
1.428779567558421832e+03
1.321517438573936261e+03
1.415601478994288982e+03
1.709648913241587707e+03
1.942815061649546806e+03
2.057036760037523891e+03
1.749489857642729248e+03
1.379941204589920289e+03
1.323564643314448176e+03
1.295799882450422274e+03
1.363758453331608052e+03
1.681537865102760406e+03
1.900166083430039407e+03
1.733295817560487876e+03
1.517805041835923703e+03
1.343099126888483624e+03
1.182008836697559673e+03
1.016406175100188534e+03
8.842905072326080926e+02
7.356886775835764638e+02
7.955036714418362180e+02
1.084738719259995150e+03
1.380423760395190584e+03
1.290564593299007356e+03
2.206129724743038423e+03
2.556103679411908161e+03
2.160453064087971143e+03
1.952099080669026307e+03
1.457989724426562134e+03
1.381223375390625961e+03
1.761773175820858569e+03
1.681537413549458734e+03
1.447512341770873263e+03
1.454676931208447968e+03
1.604085571076258248e+03
1.549729545486696907e+03
1.291602362119817144e+03
1.066716436422228981e+03
-4.199918066949043691e+02
-1.931550002748217366e+03
-5.634986436129649519e+03
-7.549269216821564441e+03
-7.036412206613395938e+03
-6.429364090023396784e+03
-5.966092353150089366e+03
-5.465602784587282258e+03
-5.459923643979467670e+03
-5.461079360783551238e+03
-5.914865803706907172e+03
-6.002485045069165608e+03
-6.134918810608778585e+03
-6.001125444955906460e+03
-5.604205069342837305e+03
-4.922106666845937980e+03
-1.657750107280376824e+03
-2.671087377578032374e+03
-5.474116761380012576e+03
-5.876934458150352839e+03
-5.762570663290879565e+03
-5.840024354656383366e+03
-5.912181708792571953e+03
-5.284132191650733148e+03
-4.319859094361598181e+03
-1.728290672585514585e+03
1.292584925513681128e+03
3.696815168293966053e+03
3.761410298936752042e+03
3.333413349959453171e+03
2.908823316761307069e+03
2.707689978146456724e+03
2.208023425780482285e+03
2.125789852098745541e+03
2.342010280182766110e+03
3.062717828134936099e+03
3.442000833120893276e+03
3.618825388857319467e+03
3.224196499557101106e+03
2.649120511234664264e+03
2.414622998323732645e+03
2.241720184408730802e+03
1.908451855652659560e+03
2.072868450111868697e+03
2.019003279357912788e+03
2.377884553129872984e+03
2.618542516778219124e+03
2.517037661943536023e+03
2.204416305032977561e+03
1.972646795702888539e+03
1.998659076995639907e+03
2.073539079625576960e+03
2.041319556099642796e+03
1.612090106241328158e+03
1.373851325642449410e+03
1.353623191252185961e+03
1.671413290075826353e+03
1.460292156387520436e+03
1.074241913064195614e+03
4.902552452136197871e+02
2.537343889850212264e+01
-1.014029048899487577e+02
7.796704814931874239e+01
1.054143688650182931e+01
-2.576664071000215586e+02
2.593342517229945656e+02
5.597067835607699635e+02
8.486866734686766449e+02
7.645295257881032285e+02
3.430261975484486356e+02
3.352017920180648503e+02
6.841229842566234538e+02
1.017714864188059067e+02
-4.038859911063643722e+02
6.420428559768558330e+01
4.671756260698500682e+02
9.018369845502844555e+02
9.551951364786910972e+02
1.332460412988889402e+02
-4.620565250053989530e+02
-5.877538310695819064e+02
-6.258159130008091324e+02
-5.763736618186778742e+02
-9.065966364479729691e+02
-7.183953214760484798e+02
3.444365844605354141e+02
1.028910084435998215e+03
1.363019004921046644e+03
9.037773020152358185e+02
6.182218917005370713e+02
3.563661180589767810e+02
2.031426147310560850e+02
3.084032325800735066e+02
4.981342402830684932e+02
7.034060407405186197e+02
2.261677494661519461e+02
1.663342396552897640e+02
1.469736299813025084e+02
