-4.971387562372876346e+03
-6.118652264249732980e+03
-6.037289574751144755e+03
-5.937338147323443991e+03
-5.332766075845411251e+03
-7.326377199233972988e+02
4.398164780811119272e+03
5.199767424653752641e+03
5.023110203840610666e+03
5.159199577074081390e+03
4.872136225238276893e+03
4.819940673725819579e+03
4.689739380594266549e+03
3.996653241232794244e+03
3.631702321859549556e+03
3.809918045027089647e+03
4.262324461000736846e+03
4.195923355245108723e+03
3.970671327549478974e+03
3.968674834198093322e+03
4.010931893962911090e+03
4.173097057973805022e+03
4.171094322509379708e+03
4.417873192312044921e+03
4.388528332036899883e+03
4.391202282876967729e+03
4.387788036850780372e+03
4.232164892079109450e+03
3.993471848167112967e+03
3.706777996633140901e+03
3.159111084225886771e+03
2.340501329960558451e+03
2.004772979783859000e+03
1.816230333429369921e+03
1.310003246707085736e+03
1.482020263150524897e+03
1.556752073187098404e+03
2.131651752040129395e+03
3.067555304464647634e+03
3.353554548580085338e+03
3.401600013621186463e+03
2.968617589216045872e+03
2.654573071363086456e+03
2.884496832967659884e+03
3.076424424960950091e+03
2.871306765939139495e+03
2.942100613944858651e+03
3.200811754392579587e+03
3.558635152910549550e+03
3.356447153355171849e+03
2.774447425613692758e+03
2.356473233235861244e+03
2.173633736910269363e+03
2.184702175494290714e+03
1.929586574852234207e+03
1.943344445073343877e+03
2.141955849060366745e+03
2.014326310211219607e+03
2.670506110338735652e+03
3.169097023333412835e+03
3.090937702644863748e+03
2.962989621362105936e+03
2.647199378353731845e+03
2.299615916551643750e+03
2.629213390997054830e+03
2.802898985698232082e+03
2.277613650286907614e+03
2.176406276801023068e+03
2.281369446085577692e+03
2.088363905771629561e+03
2.044351275825239554e+03
1.602292699859352069e+03
8.651028934002956703e+02
5.757917456161882228e+02
8.514172098750511850e+02
9.758949931527824901e+02
5.301556870109163810e+02
9.951954926693459811e+02
2.024037824176320555e+03
2.395688863481239878e+03
2.273048773033057842e+03
1.706038876146442590e+03
1.317683697915570519e+03
1.071995027727487468e+03
1.009220036243780072e+02
-2.707577847669242146e+03
-7.690461641643828443e+03
-1.022570114373203796e+04
-8.945365404698966813e+03
-8.485580467718789805e+03
-8.124265801552151061e+03
-8.132405284167336504e+03
-9.317144841855908453e+03
-9.541512978782797290e+03
-9.115491299633407834e+03
-8.472106196803051716e+03
-8.810305500586662674e+03
-9.326200444944481205e+03
-9.456833268513826624e+03
-8.245043486139602464e+03
-4.201927032645178770e+03
-4.907499808075459441e+03
-9.069755999449906085e+03
-9.030710810459548156e+03
-8.438379031028038298e+03
-7.872780712684379068e+03
-7.658886763734785745e+03
-7.051739028421509829e+03
-2.850281062117884630e+03
2.955480094387583449e+03
4.144517949795250388e+03
3.956806578368014016e+03
3.882384116533661199e+03
3.410312966244735435e+03
2.816520106911424591e+03
2.142952814753749863e+03
1.922711245577543423e+03
1.663797155488178987e+03
1.642193371839422753e+03
1.537913275017638398e+03
1.556998358596038997e+03
1.616471971458076723e+03
1.784372021304854570e+03
1.562681705990241653e+03
1.872413614681941681e+03
2.243533523428006447e+03
2.712072233374123243e+03
3.120175100783203561e+03
3.259898224962211771e+03
3.327208650358385967e+03
3.257066641277186591e+03
2.505482021222848743e+03
1.611529914089003796e+03
1.153294248161076666e+03
9.467752485321860831e+02
1.367972046998190763e+03
1.340899991200399654e+03
1.194594488390375545e+03
9.551107333785156470e+02
4.594817897899934565e+02
-1.252706944818193477e+02
6.939580122881103819e+00
-1.758400779885471934e+02
5.514439686649134273e+02
1.721824209334592751e+03
1.822338153326062866e+03
1.596033415639157056e+03
1.689916187423991914e+03
1.657027631279175694e+03
1.818377247137081440e+03
1.091174864052276007e+03
4.806926061778225403e+02
2.583307503457785401e+02
-6.430899214703334792e+02
-5.895564717587591304e+02
-1.010913704252704122e+02
-1.527005325361587893e+02
-7.373572624422813533e+02
-5.408497902578969843e+02
-5.321188050429879013e+02
2.734732883331392941e+02
6.699666222869250305e+02
3.735054549572869291e+02
3.399496068954512680e+02
1.153122172672307215e+02
4.385702918703555042e+02
6.386791260241460577e+02
6.397073640593233677e+02
4.467734244000418471e+02
-1.408489645701103576e+01
-2.458153623048193310e+02
-1.923914171299720408e+02
-5.888165280515477207e+02
-3.511020047853622827e+02
-3.002165506950540816e+02
-6.521447147352178035e+02
-9.218027738383805172e+02
-1.286165432063555727e+03
-1.024216644908030503e+03
-2.259431277630511943e+02
-1.153155850212458375e+02
-4.783679588748806850e+02
-9.280545243714952903e+02
-8.483801123313586459e+02
-7.783508935491510101e+02
-2.839228628063111728e+02
-1.160775883054762261e+02
2.661744132057428374e+02
7.278909225697279908e+02
1.152091041082577703e+03
1.101729240994492102e+03
2.408353946217558246e+02
-5.425575714789385984e+02
-1.109487680904286208e+03
-1.173956976517984685e+03
-1.104987539967961311e+03
-1.031572460485931970e+03
-8.127601048261099095e+02
-3.955367824243842279e+02
-5.448359549961684252e+02
-9.777402938020654801e+02
-1.058332639039334254e+03
-1.111540428425068967e+03
-1.144387638647149743e+03
-5.189068072451891567e+02
3.068940310718107298e+02
9.930206469580512021e+02
1.124416312500199638e+03
1.189020032869804254e+03
9.188882067728765151e+02
5.639922735319438516e+02
3.282938978527962490e+02
1.477852323289340397e+01
-4.887101946859726809e+02
-3.871592150511623345e+02
-2.525887312262925946e+02
-5.041531804268973360e+02
-3.938382563768866476e+02
-2.886747368517149539e+02
4.943253101674153527e+02
9.631559149172205707e+02
8.927203776032895348e+02
2.849196012963806766e+02
-9.433181758552576923e+01
1.063941697922490903e+03
1.430740662796779134e+03
1.620354674488447017e+03
1.766151269645915363e+03
1.414884259037097308e+03
1.235467742375100215e+03
1.637773138944633047e+03
1.503757864323197055e+03
1.214295914409418856e+03
9.514241859230265845e+02
6.090129031844930978e+02
6.609510309218123894e+02
6.441743416313170201e+02
7.436365703849426154e+02
1.191302846629703026e+03
1.076365340427522597e+03
1.021151934682366573e+03
1.088304951899490334e+03
1.199628952084939101e+03
1.780858152544588393e+03
1.863919848420739527e+03
1.651711452866402169e+03
1.684139018529263012e+03
1.958140087093629290e+03
2.137638117643311034e+03
2.077682699660377693e+03
2.264168979674466755e+03
2.423037400214738227e+03
2.520168918349318119e+03
2.704533027365347607e+03
2.839237297632582340e+03
2.824489916881796944e+03
2.535234855594294913e+03
2.107157327158604403e+03
2.283088558386951263e+03
2.811898460315229386e+03
3.242518278924473634e+03
2.841942122879802355e+03
2.651089214141600678e+03
2.667298813836858244e+03
2.875670070131911416e+03
3.015173041327413102e+03
3.100738175187031175e+03
3.185334323588481311e+03
3.671922964117690753e+03
3.703436673997726757e+03
3.152910713424704682e+03
2.964319108239381876e+03
3.000582365346634106e+03
2.818622956803744728e+03
1.354299103640809676e+02
-3.310012598377526047e+03
-7.924765821982157831e+03
-8.878817127538899513e+03
-8.406175782306559995e+03
-7.902809098508699208e+03
-7.796758627692763184e+03
-6.789993530800299595e+03
-6.168538797313709438e+03
-6.583400423957500607e+03
-6.536566017086240208e+03
-6.633039517315181911e+03
-6.501819827904080739e+03
-6.013870537699890519e+03
-5.971066038281895999e+03
-4.733502041619026386e+03
-4.011686905505771961e+02
-3.644993544925573133e+03
-6.311021517930844311e+03
-6.283254260600736416e+03
-6.057709037445256399e+03
-5.360438015494069077e+03
-5.337354578063085683e+03
-5.530394813252903987e+03
-5.573493253207408088e+03
-5.325600744349635534e+03
-4.979734141159298815e+03
-4.731848124955853564e+03
-4.815859917427540495e+03
-5.093774376480934734e+03
-2.315524382259399317e+03
7.778913494438166936e+02
-3.235458644979981273e+03
-4.751451710399189324e+03
-4.706026659759608265e+03
-4.846196233373803807e+03
-5.078888580177561380e+03
-4.689994509800872038e+03
-4.316484079456516156e+03
-4.385327544192031382e+03
-5.164562268316111613e+02
4.790104114113719334e+03
5.654407392563440226e+03
5.170588875911476862e+03
5.264749499333793210e+03
5.375967533140972591e+03
5.649338537371080747e+03
5.541879475970882595e+03
5.151664485274161052e+03
5.079816637252428336e+03
5.275403804595624024e+03
5.045465462135357484e+03
5.103077065573638720e+03
5.290306164328191699e+03
5.081258138185790813e+03
4.817051759825907538e+03
4.931734417661935368e+03
4.835318767474261222e+03
3.970890017144248304e+03
3.083626323956493252e+03
2.668465422547748858e+03
2.726383718803982447e+03
2.455524055927511199e+03
1.994988033826425635e+03
2.135897361985505540e+03
2.546324401008625955e+03
2.571330464383660455e+03
2.430997189739695841e+03
2.267479029707164955e+03
2.641017392076322722e+03
2.938927864688745103e+03
2.515183761077817053e+03
2.604830472327058487e+03
2.751943875221453709e+03
2.394609109993168659e+03
2.075984067617020173e+03
1.679113358726957358e+03
9.059368664551270740e+02
6.434569298697007298e+02
4.107299668314765313e+02
-6.126581675965111273e+00
5.708759361913877228e+02
5.097996162623715577e+02
3.645710716158125706e+02
4.240315630905344619e+02
6.196168450443918800e+02
6.593220486019870350e+02
6.811171211094429054e+02
7.020021466281248195e+02
1.770672922457521281e+02
4.183203361381659420e+02
6.547906467015684484e+02
5.890297145995307346e+02
1.120162945519679454e+02
2.083764351017957850e+01
6.835291667448694852e+02
8.790681209016419189e+02
4.194927763522834994e+02
3.128207454876020392e+02
-1.149603924966193631e+02
-5.778235889537519370e+02
-5.477922121296712703e+02
-3.978461292967154463e+02
-6.820099184035403823e+02
-2.782821854156660493e+02
6.133371259747382709e+01
1.218587564419933926e+02
-5.172111361793847806e+01
-3.574324463081954946e+02
-3.202796368823970283e+02
2.036999787023414115e+02
5.064506383594643921e+02
3.229905298167963679e+02
-1.876530369543780523e+02
-1.654743616647983799e+02
-1.394690055375377540e+02
5.733977133874211773e+01
-6.407784939244429268e+01
-3.948517889772961666e+02
-3.310058834372798060e+02
-6.565835725950790902e+02
-8.245492817467272744e+02
-8.829225468037091105e+02
-7.137171252310248519e+02
-3.519891588347647939e+02
-1.957665464003782461e+02
-3.281744519083432010e+02
-2.573100320716497436e+02
-1.041470309914577115e+02
-1.216924975095907797e+02
-4.440371689131869744e+02
-2.720223251914259890e+03
-6.290303618882619048e+03
-1.042623042873488339e+04
-1.002907543671183703e+04
-9.267952455662054490e+03
-8.996791877537792971e+03
-8.773753838084676318e+03
-9.094899302123911184e+03
-1.006826463610678184e+04
-1.001387686421336002e+04
-9.262906421755609699e+03
-9.096391716961132261e+03
-3.807341922853065171e+03
1.981537819105119809e+02
1.378102840289915775e+03
2.020400617103142167e+03
2.486999933367302219e+03
2.285831928491973940e+03
2.131828466986953572e+03
2.289924371978743693e+03
2.065070781673425245e+03
2.170222983543087139e+03
2.504333983463246113e+03
2.704339008856001328e+03
2.669225664686001892e+03
2.349864891739627183e+03
1.904232458825600361e+03
2.244285326534495653e+03
2.564979889047101096e+03
2.678270011634178445e+03
2.786022928153926387e+03
2.836116182818745074e+03
2.680553656170562135e+03
2.818328975776194511e+03
2.730434140215877051e+03
2.704773095341573935e+03
2.828298742879595466e+03
2.889947105880177332e+03
2.871701830226165384e+03
2.997467170085616544e+03
3.324195481648699570e+03
3.301827828117199260e+03
3.180349280264064419e+03
3.374826014403192858e+03
3.124256298687079834e+03
3.124569263694984784e+03
3.180672104961215609e+03
3.083525809022229623e+03
2.956091491805870191e+03
2.479326963588270246e+03
2.596183349227163035e+03
2.713649103162718347e+03
2.410734308950196464e+03
2.268408683061821648e+03
2.222677183634129051e+03
2.572533463899326762e+03
2.783889182157117830e+03
3.024707324011019409e+03
3.226962997960209123e+03
2.950669405932186237e+03
2.940829982461411873e+03
3.031452023261720115e+03
3.376552551585935362e+03
3.586090631297612617e+03
2.848179758137558110e+03
3.360705374182180549e+03
3.636757558591294128e+03
3.302285466982884373e+03
2.956282451696260068e+03
2.602737097266615365e+03
2.825629851790019984e+03
3.070891444536048766e+03
3.215562632821019179e+03
3.128720885205090781e+03
2.099392830242944910e+03
-6.033999466522921011e+02
-5.081939789157585437e+03
-8.582895796867331228e+03
-9.031979411163711120e+03
-8.355412541248089838e+03
-7.599192630917089446e+03
-7.714278007077856273e+03
-7.214721634665191232e+03
-7.383433137466988228e+03
-6.866381564092966073e+03
-6.428545273687108420e+03
-7.130908148152014292e+03
-7.402441154693050521e+03
-7.401106394060248022e+03
-7.034878819474772172e+03
-2.356760828652724285e+03
-1.605710514869371764e+03
-6.152713233165000929e+03
-6.675697218323885863e+03
-6.655561268767795809e+03
-6.746362426613974094e+03
-6.634031974598006855e+03
-6.509449952954596483e+03
-6.363619831428321959e+03
-6.691515411901348671e+03
-6.161132557687958069e+03
-5.719424025492467990e+03
-5.478346418338310286e+03
-5.602861143155355421e+03
-4.520927716967984452e+03
-4.235278162173850092e+02
-1.326614335617033930e+03
-5.640137990822176107e+03
-6.389047290479845287e+03
-6.356242191293363248e+03
-6.176728642786561977e+03
-6.115522319677450469e+03
-4.653587238099612478e+03
2.224196774803810513e+03
4.256865233718242052e+03
5.011456781341035821e+03
5.205965207012964129e+03
5.442470740336227209e+03
5.410013387776702075e+03
5.618619769978940894e+03
5.347292118941154513e+03
5.284103325039327501e+03
5.548166854179007714e+03
5.798458003589551481e+03
5.842022063305862503e+03
5.614909466469685867e+03
5.238374758330845907e+03
4.406561096959994757e+03
3.869643652314429346e+03
3.463395767711632743e+03
3.475701930189037739e+03
3.385462779940958171e+03
3.587700869235163736e+03
3.626327783443566659e+03
3.657654036401266239e+03
3.723924003979500867e+03
3.602091577798500566e+03
3.294171356057619960e+03
2.938387462931119899e+03
3.716525970105103170e+03
3.568546893986980649e+03
3.453404542079506882e+03
3.712905722349757980e+03
3.895662406838758670e+03
3.779647301245152903e+03
3.754687096100871713e+03
3.261853818249358483e+03
2.962306509552863645e+03
2.877674196416844097e+03
2.671749763842800348e+03
2.670805263161406856e+03
2.518794400418983969e+03
2.463782698884378078e+03
2.577763021053338434e+03
2.340672696550596356e+03
2.650478958546139438e+03
2.608880055505892415e+03
2.244783743151695035e+03
2.299822986500566003e+03
2.560854126777357578e+03
2.115705969942261163e+03
1.995484930980241415e+03
2.287238868732525589e+03
2.538365842565089679e+03
2.686022224736778753e+03
2.644641316639483648e+03
2.283676001849981276e+03
1.670871982747310540e+03
1.314274583559000575e+03
1.274895085110271793e+03
1.102666070297778788e+03
1.146571478916601336e+03
1.211545674517553607e+03
1.257606381176657123e+03
1.236838062287019966e+03
1.556217019308254066e+03
1.737653892286645487e+03
1.671130418275849706e+03
1.650578463750327728e+03
1.577999309670849243e+03
1.648359112952305395e+03
1.729610647528865002e+03
1.600724849085721416e+03
1.508710197302070355e+03
2.250640739459872293e+03
2.283604508705185708e+03
1.789607079002520322e+03
1.647505535896239508e+03
1.365302814984842826e+03
1.118064307003801105e+03
8.716755043452758400e+02
4.800383867102933095e+02
-8.799072278774780216e+02
-4.087142489046556875e+03
-9.404759595872446880e+03
-1.099177223905132269e+04
-1.022806787135897503e+04
-1.019471217618044102e+04
-9.950930437837354475e+03
-9.655649357145117392e+03
-9.351719344031196670e+03
-8.249245905211324498e+03
-7.732230023216934569e+03
-7.390862308545215456e+03
-7.948918757534411270e+03
-7.998405691161275172e+03
-8.581389623792061684e+03
-7.377071655134580396e+03
-3.466550378946641558e+03
-6.290884819529138440e+03
-8.831919647906537648e+03
-8.556400595921626518e+03
-8.421459052735854129e+03
-8.580236143835236362e+03
-8.188690941274489887e+03
-7.399857313137054916e+03
-1.436773048308480611e+03
2.735456554011122535e+03
3.299725611563986149e+03
3.610075436975202592e+03
4.378457293258116806e+03
4.286756668193535006e+03
4.251036830692555668e+03
4.035386287920417999e+03
3.845819791036212337e+03
3.804434589484555545e+03
3.590219730615234766e+03
3.481182214446298076e+03
3.121343300339252892e+03
2.777632227779073219e+03
2.514108196371355007e+03
2.127945539240891776e+03
2.175335930723317688e+03
2.181169170416268116e+03
2.555252715972601436e+03
2.774556230134849102e+03
2.257252820058442012e+03
2.074344767274794776e+03
2.383780986183961886e+03
2.295736696422786736e+03
2.200461176439929659e+03
2.430960434370547318e+03
2.916164978561667340e+03
2.849078952738536827e+03
2.445843758970263480e+03
1.628475118520294473e+03
1.460869330833800859e+03
1.107985623256615327e+03
7.649986700418606915e+02
8.569867677323320549e+02
8.308662428003315199e+02
7.337662310660812182e+02
6.427168242996916661e+02
5.616598224837320004e+02
6.607519477996215755e+02
5.191096766028249476e+02
3.137291435442360807e+02
2.629097645295910297e+02
5.688957066744361555e+02
6.298736454983776412e+02
1.554834304595868559e+02
4.416857592774784393e+02
2.587696988816839507e+02
5.579656361365277917e+02
7.203940571545176681e+02
6.982606613137569411e+02
-1.285772273466197078e+02
-1.074292806263226339e+03
-5.144441373973219243e+02
-5.053784114946079171e+02
-2.764450346931329818e+02
-3.805799783819543904e+02
-5.777291328296473694e+02
-3.106901421523577937e+02
-1.364951689650337698e+02
-1.781935872563182954e+02
-3.165805182384174827e+02
-6.784934666131680387e+02
-8.029742157176660839e+02
-7.429736302726499844e+02
-5.435058837776330165e+02
-6.185572804096901791e+02
-3.850113148616955527e+02
-3.746906430339722078e+02
-1.615974729384422517e+02
6.541082986574359381e+01
-7.059685692954423075e+01
-4.707796381693811441e+02
-7.991919174560770216e+02
-1.135823370211431438e+03
-1.162718989136308664e+03
-1.327869622955556906e+03
-1.508179415712922037e+03
-1.415426847196810968e+03
-1.132468522153002368e+03
-1.192343787382838627e+03
-1.121064206131176206e+03
-1.199610170354072352e+03
-1.428931650580888345e+03
-1.259193778901325913e+03
-6.795447903858785139e+02
-3.979132866926498764e+02
-4.080419235547554990e+02
-3.527395301087213966e+02
-3.630316693518210514e+02
-3.491319572449980910e+02
-3.169940991820931799e+02
-6.746538230032864476e+02
-1.051988006117884879e+03
-1.336870438496042652e+03
-1.323321335711562142e+03
-1.115408134292566501e+03
-1.057345249628079955e+03
-8.623164765495995425e+02
-7.243995619091961089e+02
-7.126042695426500586e+02
-5.718554997556983608e+02
-6.031739104381080097e+02
-5.166280073459638515e+02
-9.202430485379834408e+02
7.894178206159509159e+01
-6.620098951576059108e+02
3.137396024061628736e+02
8.573218636175433858e+02
9.328294261633498081e+02
1.161057829227125922e+03
1.073952420570596587e+03
6.994172244622658354e+02
4.594206878753691967e+02
5.190773462358363304e+02
2.947203895286072850e+01
-4.398966449853172094e+02
-3.640081023992134305e+03
-3.931824238883666112e+03
-5.228814420967172509e+02
2.645012346092424877e+02
3.412892128484349996e+02
7.754263886851996403e+02
8.438706710388541978e+02
1.258486076145250763e+03
1.562151968333608238e+03
1.759731080691041825e+03
1.593181227017194033e+03
1.722515363534751032e+03
1.870591605860924801e+03
2.059317872799534143e+03
2.218815474306611122e+03
1.898030033317592597e+03
1.172974822428891684e+03
8.524429140470825814e+02
1.417172599530777006e+03
1.351897086709682526e+03
1.196579008313022086e+03
1.787106571179051798e+03
2.133310669582745959e+03
2.668147020426580184e+03
2.753588055304280260e+03
2.668430984075327615e+03
2.860591502743381625e+03
3.057952849852943473e+03
3.235578184505512581e+03
3.233361369260656375e+03
3.268372212150714859e+03
3.239951907292298984e+03
2.954470930294959089e+03
3.148583827668896447e+03
3.331304819087393753e+03
3.215596707628332751e+03
2.995279162692275349e+03
2.901083918714874017e+03
2.828695549381334786e+03
2.901060842811103157e+03
2.548788936525592362e+03
2.647806089159137628e+03
2.747045868973784764e+03
2.711507133325768336e+03
2.674128885000044647e+03
2.694857537104231596e+03
3.101617769400603265e+03
3.037260774176720588e+03
3.343708572062552321e+03
3.717857793990872779e+03
4.183660213626442783e+03
4.665102059693756928e+03
4.929212935384495722e+03
4.952887694746101261e+03
4.542119629299358166e+03
2.429818055511904731e+03
-6.450497852129865350e+02
-5.056544743788480446e+03
-6.718726990257737270e+03
-6.737635163579878281e+03
-7.257297846412946456e+03
-8.158659229644703373e+03
-5.989783760708662157e+03
-6.035673692262676013e+03
-7.308451155182743605e+03
-8.249081712508397686e+03
-8.094592754940747909e+03
-7.553915548087887146e+03
-7.611022263347273110e+03
-7.630006487489711617e+03
-6.367910768407393334e+03
-1.689641526493926449e+03
-1.713211323514292417e+03
-5.026615102760855734e+03
-5.112729951502523363e+03
-5.458562398148791544e+03
-4.628137970513105756e+03
-3.539465547674929894e+03
-3.243485273223723652e+03
-3.434215276940935382e+03
-4.047681654732602055e+03
-4.755815966062343250e+03
-4.426571648407361863e+03
-3.847912277503281075e+03
-3.773759092241001326e+03
-2.021010993829141171e+03
1.153399011946001337e+03
-2.511459690010186478e+03
-4.506513828903815011e+03
-7.767359286730194299e+02
1.502927837071685872e+03
4.175591498715400121e+03
4.561303969718018379e+03
4.144118629740796678e+03
3.622163769310971929e+03
3.172542000204606666e+03
2.278248578231379724e+03
1.378411705266251829e+03
1.473100118470686311e+03
1.968387270375509161e+03
2.052319201479551339e+03
1.834974242926150055e+03
1.288522848087010743e+03
1.222097259672270638e+03
6.138078835267273234e+02
-5.782517208933276152e+02
-1.720025129715950698e+03
-2.903335448745666781e+03
-3.968074126852876361e+03
-3.934232888696588816e+03
-3.043611358140194170e+03
-3.083064772258781886e+03
-3.076494317712650172e+03
-2.001771393032480773e+03
-1.218769246145686338e+03
-8.203824547872360426e+02
-1.140443245383485646e+03
-1.064809662920296205e+03
-1.991375984433320582e+03
-2.350857245501112629e+03
-7.471301149793322338e+02
-9.098473401741142652e+01
-1.650216957933581853e+03
-2.132751802659329314e+03
-8.104885099790209324e+02
-3.623429176668702212e+02
3.488849655257006361e+02
-1.828835818774640529e+03
-6.064097423822622659e+02
1.161401031462816036e+03
2.478640946442185395e+03
2.689458613839595728e+03
1.129859361190245636e+03
-1.656162078192545778e+03
-2.550134621837969007e+03
4.395870317848417130e+02
2.439267643809546371e+03
3.131077618672709832e+03
4.819109274406308941e+03
5.977372525022086847e+03
7.923181078711751979e+03
9.112195588657501503e+03
8.898103827477218147e+03
8.776144426331091381e+03
8.329407895148404350e+03
7.050945552040986513e+03
5.918863783143066939e+03
4.926240300537762778e+03
4.105158674170040285e+03
3.927671750215760767e+03
3.234840435137354689e+03
2.785725601113501398e+03
2.499353593487212038e+03
3.428401225212640497e+02
-1.035761896834420668e+03
-5.023923911792115859e+02
2.460012399150265537e+03
4.084426421912712613e+03
2.790855074061510550e+03
6.413020480741455458e+02
6.428252806598002280e+02
1.115214948523482121e+02
-2.352575622044309057e+03
-3.964471560146871980e+03
-2.374133541006714950e+03
-7.515521405800210459e+02
3.294845756425926364e+00
1.153724696857981940e+02
1.451713440602235323e+03
3.238351410503800253e+03
2.931325451217208411e+03
1.400601431087328820e+03
1.425198954802809340e+03
2.219100885352765090e+03
1.624237327171518018e+03
1.889597109729306794e+03
1.621192843727382069e+03
-1.169879526338912257e+02
-7.089802830781528655e+02
-7.268677666851101549e+02
-2.020649104825823315e+03
-2.742350383162848630e+03
-3.268011401201219996e+03
-3.816669982694765167e+03
-6.003369247016114059e+03
-9.648129784445729456e+03
-1.136399572013609395e+04
-1.102193371146380741e+04
-1.028411367337484808e+04
-8.059634919672960677e+03
-7.040543227539182226e+03
-8.152771208738906353e+03
-4.385311997748013709e+03
1.345613643901198657e+03
2.818012027845827561e+03
2.446753432897843595e+03
1.636741624244275499e+03
2.755932765822267811e+03
2.228229395941506482e+03
2.950165795906198696e+01
-2.242955290583871033e+02
6.267768777274802687e+02
7.226691115011235524e+02
1.164313538998953163e+03
7.286302589848021398e+02
-6.014876383805592468e+02
-1.703091322206095583e+03
-1.472281685882206830e+03
-9.901681927942121320e+02
1.181147817108716936e+03
4.248579694759507220e+03
5.349107631377375583e+03
5.397652454090459287e+03
4.846085274602606660e+03
3.299318155860568822e+03
6.802596374904384220e+02
-1.739186398070200767e+03
-1.892072364290554106e+03
-4.485377110132039320e+02
3.663098953760420500e+02
1.079405641910082977e+03
2.277644456397484191e+03
3.943944820017642087e+03
3.294278109361071984e+03
4.125494222888398781e+02
-3.011356505572779497e+03
-3.601497158723292614e+03
-1.620918936576287024e+03
2.962945470382599638e+02
-4.919607268686567636e+02
-1.346753890599803299e+03
-2.346185568431672436e+03
-1.739281195246958532e+03
5.048839367840397472e+02
3.404285574929497670e+03
6.488812785464328954e+03
8.118376325431517216e+03
7.775895109224237785e+03
6.643298921529052677e+03
5.434540073519570797e+03
4.825557274064424746e+03
4.439307930509587095e+03
3.532714251815953503e+03
2.849670236586923238e+03
1.849272057393799741e+03
8.864030418725064919e+02
-7.658938879745394388e+02
-4.957728756454558265e+02
1.180752380002738846e+03
9.336449927636519988e+02
4.378553390941451653e+02
-2.016286225991457854e+02
-5.918626633158261257e+02
1.387141623103786060e+03
5.865386950542726481e+03
3.975925220495343638e+03
-7.773367820309900935e+02
-5.309195593588007796e+03
-6.646844582430547234e+03
-8.045618099829156563e+03
-7.940341883457841504e+03
-7.185011543531227289e+03
-6.558666361215025063e+03
-5.784215063070136239e+03
-6.044739437095547146e+03
-6.313236245090192824e+03
-5.950670357935389802e+03
-5.331026351556934969e+03
-4.937271675944313756e+03
-4.146464974117781821e+03
5.603722477263768269e+02
-1.754744553780923980e+03
-6.869751450112739803e+03
-7.088553127128549932e+03
-5.972138657633089679e+03
-6.476527898089446353e+03
-6.371728918610517212e+03
-6.188745299019107733e+03
-6.932572504207631027e+03
-7.018060247350112149e+03
-6.632286166170032629e+03
-6.628275123851348326e+03
-6.339982972283575691e+03
-6.336349051839241838e+03
-4.313374645075115950e+03
-2.119833499355015078e+02
-2.880106031824420825e+03
-5.120706666800458152e+03
-5.840728145968542776e+03
-7.119124874811500376e+03
-6.346923222279943730e+03
-4.257091640081715013e+03
-2.870493056664553933e+03
-1.765052228258506602e+03
3.920184377782563388e+03
7.703223588418687541e+03
7.157110999245773201e+03
6.174888179976426727e+03
5.306590016443165041e+03
5.122291369396694790e+03
5.492045278839826096e+03
5.794873589305390851e+03
6.408805590137135368e+03
6.525871514174275944e+03
6.661163200252782190e+03
6.146669546019612426e+03
5.410458285665321455e+03
4.925677631801330790e+03
4.924308394306526679e+03
4.357210750453294168e+03
4.344394375426788429e+03
4.182832011325717758e+03
4.088158579617733722e+03
4.101672684806924735e+03
3.711603265288745206e+03
3.215910928682867052e+03
2.730477799830913682e+03
3.176328877667328015e+03
2.952663417692697294e+03
2.851070730861188167e+03
2.608782066742840925e+03
2.103995881278694924e+03
1.252680035396963376e+03
1.773788960422008813e+03
2.953392278921826801e+03
2.832719500525341573e+03
2.136324311401237992e+03
1.948152752468177596e+03
1.517067579573884132e+03
1.064416124238017119e+03
1.904489372719197036e+03
2.855100594133008144e+03
3.221308299053516293e+03
3.301063917058912011e+03
4.099305351857888127e+03
4.004112613853482344e+03
3.638483680145559902e+03
3.260452945103902493e+03
2.418067643803526153e+03
1.633386988592255648e+03
1.345433812161310698e+03
8.556149659560934424e+02
6.779895783103543181e+02
1.108672338575254116e+03
1.882181711302403528e+03
2.287475677603653821e+03
2.416185481325597721e+03
2.807698247592983535e+03
2.529466724960780539e+03
1.990435745787132873e+03
2.338542826016465369e+03
2.936796280492180358e+03
2.651180732780390372e+03
2.956723102325281161e+03
3.071446815385420450e+03
2.904343038547528522e+03
2.438391463834987007e+03
1.502601844396574052e+03
1.094935499126358991e+03
1.085407867996437972e+03
1.129900255797495220e+03
1.208420116578567331e+03
6.271432997959499289e+02
6.590416888470836057e+02
7.151101578392625697e+02
3.473985059393211827e+02
4.908449850694172483e+02
4.813266895018618357e+02
5.658239600158201483e+02
6.692481901131719724e+02
9.475495714412872985e+02
1.098737279185573470e+03
1.814811342761094693e+03
1.769810359515495065e+03
-1.242315016811521446e+03
-6.373515868653565121e+03
-9.685841828831273233e+03
-1.001047357216134151e+04
-9.824374098810247233e+03
-9.871410397412788370e+03
-9.973650196719703672e+03
-1.042422579026144558e+04
-8.567109254099515965e+03
-8.665389633194436101e+03
-9.068692905840538515e+03
-8.743319703717688753e+03
-8.745397777964304623e+03
-8.809976629388364017e+03
-8.186955796477158401e+03
-5.057194904246011902e+03
-3.061579154790319080e+03
-7.631235416486177201e+03
-8.170450963730966578e+03
-7.824219596554270538e+03
-7.688476205691663381e+03
-8.001333010025156909e+03
-4.391750740432023122e+03
1.061221015851590209e+03
1.842603728543975194e+03
1.790461126069320244e+03
1.757791270291520732e+03
2.053642516104143397e+03
2.048063244523452340e+03
2.195123456731008901e+03
2.377898257763177298e+03
2.408364275427462871e+03
2.569484989683085132e+03
2.570373401230777745e+03
2.204087571772940009e+03
2.293583055371645514e+03
2.366028615595293104e+03
2.659429570510902522e+03
3.105674034497521916e+03
3.159566629011774239e+03
2.727167298691006636e+03
2.200711532956082465e+03
1.826325630385908880e+03
1.461893420034156179e+03
1.397460853832997145e+03
1.501223241102154816e+03
1.428172469795891629e+03
1.214120156496812797e+03
1.486071371011142446e+03
1.600089621694905873e+03
1.582260992438347557e+03
1.568500023319401407e+03
1.487773894095107153e+03
1.550274897620604179e+03
1.756168003726041661e+03
1.854410396807235429e+03
1.637895931159469910e+03
1.337738372540826731e+03
1.350947041680471784e+03
1.526592478363148757e+03
1.634875005355663234e+03
1.204656870525288241e+03
8.768283929024820509e+02
4.754704710898312783e+02
8.085961720237415307e+01
7.423492526471437714e+01
-1.433464481822772996e+02
-7.177148124497525714e+02
-5.406547745467688628e+02
4.308152835256507842e+02
5.665552464173042608e+02
3.252443058062870307e+01
-6.572822816421877405e+02
-7.089261662363475125e+02
-1.372439708447994633e+02
-3.218307186962694466e+00
7.318127573521863951e+02
1.104782425208765744e+03
8.757554560754081194e+02
8.747603983869748845e+02
1.099650184777624190e+03
5.755847039086412451e+02
1.587287987107854690e+02
-2.480198337754805777e+02
-6.547311255209584715e+02
-7.763466943102380355e+02
-6.889038631623017181e+02
-7.173194686038175405e+02
-5.564546588560906457e+02
