4.172882685601561207e+03
4.336478036015846556e+03
4.256404964621558975e+03
3.177691509751160993e+03
2.121379914289381304e+03
1.350413764707527889e+03
7.697849395222223166e+02
7.114681548157074076e+02
4.284740984378530584e+02
3.108192193555990457e+02
1.713829176089180351e+02
-2.089799724839570274e+02
-8.563057426512118582e+02
-1.317454241668327995e+03
-1.350392935942797521e+03
-4.560701959344552279e+02
1.591609570211723394e+03
3.020397541060818639e+03
3.802108754708536253e+03
4.316018402172509013e+03
4.705285187838305319e+03
4.619914209959791151e+03
3.487793210821567754e+03
2.478100754163628153e+03
2.640009082041659894e+03
2.876387204014092731e+03
2.276177836797181499e+03
1.419392717888299558e+03
3.279310064986784141e+02
-1.857240128648643577e+03
-3.529309193838095780e+03
-2.924135000140490774e+03
-2.701780077796332989e+03
-3.533252064319916826e+03
-4.970878139180635117e+03
-5.569346508758962955e+03
-4.747467933902720688e+03
-2.668225061947347058e+03
-3.006837394955188643e+02
9.331687325812958989e+02
1.523296575075321016e+03
1.238792919614408447e+03
1.940732338279541409e+03
3.625040388295127286e+03
3.831686483912187668e+03
2.290691022060249907e+03
1.120760073569110205e+02
-2.320057769192725573e+03
-4.178787785785419146e+03
-4.733094482365810109e+03
-5.234902950175347542e+03
-5.044085080459414712e+03
-3.596584683251400293e+03
-1.194371803046043397e+03
6.085375958710963005e+02
-1.419847386765829924e+03
-2.909452420595324384e+03
-2.032222035400902087e+03
-6.860525569977369287e+02
-1.313837978041475935e+03
-4.683506999502163126e+03
-6.519986202023512305e+03
-3.736239319730349052e+03
1.387956920615398246e+02
1.023154162805256419e+03
-1.788167101185451202e+03
-3.438163011672548691e+03
-3.824813148775896934e+03
-3.421959844842628172e+03
-4.185548576101008621e+03
-4.719627501145229871e+03
-3.829101036905814453e+03
-4.468895158567213912e+03
-4.814987807646814872e+03
-3.345211522067947953e+03
-3.788551015244628161e+03
-6.052961122727138900e+03
-5.730281585732848725e+03
-2.264883400355832350e+02
5.076394209244974263e+03
5.465444899543016618e+03
2.467757434696456585e+03
-1.774485646657269399e+03
-6.295140531777058641e+03
-8.764156568656488162e+03
-7.612593983571436183e+03
-6.271373520259471661e+03
-6.654419751499841368e+03
-6.714716458721490199e+03
-4.248284563339541819e+03
-4.340998466444814881e+02
4.424985237601597873e+03
5.678951275070660813e+03
1.616836495158753735e+02
-7.213850016879528994e+03
-1.219721149546269044e+04
-1.320239454810927236e+04
-1.317438491234741014e+04
-1.059411079324537423e+04
-3.471461233882414035e+03
5.796628182540687703e+03
1.607221692921630711e+04
2.148641516887153193e+04
2.174215858935325377e+04
1.792546542308540302e+04
1.137534591326499321e+04
7.504901943202425173e+03
5.969207267897503698e+03
2.430283599969481656e+03
-6.139392541802309324e+02
2.076512292761055960e+03
5.975718606679393815e+03
1.055880071373504143e+04
1.737573766002497359e+04
1.868350580077986524e+04
1.358117435098122587e+04
8.918826504985554493e+03
5.461559542493832851e+03
1.433437825779918512e+03
-1.449519219900524604e+03
-2.577288932640374242e+03
1.475264047138971137e+03
8.332309709021568779e+03
1.361478587357484503e+04
1.424149651763189831e+04
1.256542064135635883e+04
9.912561539778216684e+03
5.536906119320280595e+03
9.151020475231126738e+01
-2.960590810238589711e+03
-4.769463990290198126e+03
-5.415139051199484129e+03
-1.666540527461947249e+03
9.563436489801728158e+02
-1.778556765360494182e+03
-3.464234477177815279e+03
-4.326631920978508788e+03
-2.003733884843321221e+03
-6.114844837422095907e+02
-3.239884169375114652e+03
-6.819912175562877565e+03
-7.990602226198291646e+03
-3.006961949764254769e+03
-6.895809333165800581e+01
-3.139641834665268561e+03
-2.609020638686672100e+03
-1.394177141576818485e+03
-9.251589641986014385e+02
3.880660971400731114e+02
-9.175689896664654270e+02
-4.952151692133826145e+03
-6.632680319063051684e+03
-4.818163574798501031e+03
-5.232643288397029210e+03
-3.917168452013361275e+03
3.992449115808229863e+02
-2.964069407611708584e+02
-1.541461696548284408e+02
2.000074309395821217e+02
-6.519330764948260821e+02
1.739048971702712379e+03
4.196938839126501989e+03
5.989619850916870746e+03
2.821115055380744707e+03
-4.825643704607290601e+03
-1.029475708477855733e+04
-1.402336489002197231e+04
-1.683337864540250666e+04
-9.083727490231216507e+03
2.473986488600000655e+02
5.438870636878380083e+02
-6.852864992469440040e+02
-3.116150119886544871e+03
-4.824818595455202740e+03
-5.555379911374599033e+03
-4.739829936806599108e+03
-2.017120066727030235e+03
9.966814086452831134e+02
-3.740467457632762489e+03
-7.978627935145293122e+03
-6.623850569276170063e+03
-2.681097584911522063e+03
-3.802435901533680408e+03
-5.010919844480021311e+03
-2.481573093330611755e+03
2.606503510958342304e+03
7.459203779248559840e+03
4.598466547016304503e+03
1.895284163464648600e+03
-1.215430599005881959e+03
-3.555767633102853324e+03
-3.119844097421992501e+03
-2.073699153023782401e+03
1.060634800068735558e+03
1.705082823095411868e+03
2.342595621446277164e+03
2.499208827084662516e+03
8.839021897130322714e+02
3.966445315786158972e+02
2.551353779433602085e+03
7.099949169859955873e+03
1.077047016599323797e+04
9.880906669160429374e+03
6.726193097787258012e+03
3.744242177990394339e+03
8.840222650635838590e+02
-8.735489381788322589e+02
-2.395457102390462580e+02
1.618015079363813811e+03
2.411062780331378690e+03
1.855525033450989440e+03
1.044290863474396247e+03
8.713702101095379930e+02
5.169734997017317824e+01
-1.857463271938042908e+02
2.131460224378191413e+02
4.235580333427352571e+02
-4.616359314516161021e+02
2.434234011565847311e+02
2.610687184223800159e+03
3.341207289620117990e+03
1.992947875425167240e+03
-6.721168054764223143e+01
2.457145922299330039e+02
4.518250909006417260e+02
5.160667124760346951e+02
-1.165867089935322838e+02
-1.241055968618176593e+02
8.914590472876855074e+02
1.521983286875678687e+03
1.472332919590984659e+02
-1.207524039887279741e+03
-2.411245820772743173e+03
-2.279092658367239437e+03
-4.911380609799443846e+02
6.404355583692262144e+02
3.594822700002087572e+02
-5.703971377497813364e+02
-3.134197567868980059e+02
7.330151322378130772e+02
8.359888930732685139e+02
-2.003470833096725414e+02
-1.188988907312249466e+03
-1.104949921101490645e+03
1.330710446807191374e+03
1.500971332639808452e+03
-2.023064390128455159e+02
-5.531870924326369732e+02
1.289339727894934413e+03
3.769293445558535950e+03
4.826668331250187293e+03
4.594517480119757238e+03
2.883867791428840519e+03
2.377628663325053367e+03
1.890808661238062996e+03
1.737362505827850782e+03
1.596338408630123013e+03
1.395794367723899086e+03
1.156749133290210239e+03
6.722764797653222786e+02
4.705318212934854500e+02
2.965048386379432941e+02
-1.267922422570239576e+02
-5.743722796484325954e+02
1.074825821817892546e+01
1.442517594475596525e+03
1.599811759378236047e+03
-1.473014025087542507e+02
-2.888737192945871357e+03
-3.803409319581731779e+03
-3.473317030433588116e+03
-2.296580880959008937e+03
1.018757421783629752e+03
2.135587731914355572e+03
-2.420390534518257653e+02
-1.692065745175493703e+03
-2.714461455422162544e+03
-4.643217837918209625e+03
-6.057288343191174135e+03
-5.707523222822645039e+03
-3.374838710092141810e+03
-2.433234594319775169e+03
-2.042761162566157736e+03
-1.210317722745639003e+03
-9.938200991649213165e+02
-5.992249331835727162e+02
-2.416392749578696112e+03
-3.192382643788802852e+03
-1.228372916902845191e+03
2.960725551680307532e+01
-3.088389113555848780e+03
-3.797179733848134219e+03
-2.414789798648456781e+03
3.766790709512933404e+02
1.515165416085417064e+03
1.937728945628841302e+03
2.000455804539652945e+03
2.108388932238397956e+03
2.454596906267910981e+03
2.871061981823512724e+03
3.158674570310573472e+03
3.579507505752604629e+03
3.237774095283847601e+03
2.854691442376293708e+03
1.798326519063405158e+03
7.655661220886486262e+02
-5.977270974458657804e+01
-4.646960333382722297e+02
-1.790599766127094483e+02
2.241616785686665878e+02
3.278537830729782740e+02
-2.970143651108961080e+02
-9.080946276045360719e+02
-1.624424435431584925e+03
-1.471187367811659669e+03
-1.059305029742933129e+03
-4.086262274162531298e+02
2.700568892271890604e+02
8.667092883294178591e+02
1.902091878397088522e+03
2.880103107002857996e+03
3.207827289189539897e+03
2.945647735152880614e+03
2.147549022191024051e+03
1.814496649264128791e+03
1.388430764200390968e+03
2.524348228894616852e+02
-8.765159287823881868e+02
-1.402436748861215847e+03
-1.826073336628590823e+03
-1.928542051356954516e+03
-2.170166869446077726e+03
-1.277732031375118368e+03
-1.179852348747314892e+02
-2.612464138235516771e+02
-1.013961455912119050e+03
-1.601064503955891269e+03
-2.364028729921848480e+03
-2.356597505079296297e+03
-1.457804803493818781e+03
1.149403938779621193e+01
1.694201909124985548e+02
3.828123872220199928e+02
8.033890742263838547e+02
1.210153851982968035e+03
1.013523843286523402e+03
7.805745213357450893e+02
1.137866622506097656e+03
1.476304538944340038e+03
-2.187802159418612860e+02
-3.540073157770681519e+03
-2.732559332863247164e+03
-2.715307936633341797e+03
-3.101556057480883283e+03
-2.826193737193144443e+03
-1.947490555214915958e+03
-1.067001356511523682e+03
-9.991122356773516344e+01
1.527710180538934992e+03
2.361273992380035907e+03
2.246996655178642868e+03
1.901109677864146079e+03
1.949932311309510169e+03
2.153357774429263827e+03
2.801202078140995127e+03
2.907469347332443249e+03
1.531434523087117213e+03
2.849639579327005094e+02
-1.942718992581149280e+02
-1.168623454272815025e+03
-2.079401217135729894e+03
-2.534996020961692466e+03
-3.035708471804723104e+03
-3.164203543622013513e+03
-3.114567229276080980e+03
-3.159937635455125019e+03
-2.922387856731540523e+03
-2.044897529186575866e+03
2.608800495076663424e+02
2.609516011196051750e+03
3.422067006886708441e+03
3.042870410417099720e+03
2.345195157994245619e+03
2.035473541470322743e+03
1.968838250059770871e+03
2.106391680362749867e+03
1.473887981838474161e+03
2.021071594558254674e+02
-2.128488236894102386e+02
-4.362841889285429033e+02
-9.292899168459426846e+02
-1.366409557729020889e+03
-1.587575495801111401e+03
-1.880860125417902736e+03
-1.781571431075879900e+03
-1.549713143480196095e+03
-8.170325021204198492e+02
-1.403529792937881950e+02
3.581824590237781081e+02
1.060060552000799589e+03
1.310428802184911547e+03
1.446900658574107183e+03
1.551297460191198070e+03
1.628425922539661087e+03
1.594185884685784458e+03
1.097446084894417481e+03
4.622906266141948208e+02
-1.371149009953278721e+02
-7.478965140715056350e+02
-1.227336811837028336e+03
-1.831329318067462737e+03
-2.389034907816406303e+03
-2.077561800363203929e+03
-1.930639172586190170e+03
-2.205574748494459527e+03
-1.850172372946088899e+03
-1.355279696439021336e+03
-5.303237720279850009e+02
-1.014620214966767442e+01
6.951204904825142421e+02
1.231013419342564021e+03
1.162636572414668308e+03
-5.998987252016102047e+02
-7.956195112837110628e+02
6.731929365750722809e+02
8.108920211132819986e+02
3.888559655592194417e+02
9.278506376996467964e+01
-1.137982093677104878e+01
-2.544311029068986159e+02
-9.502432830970842588e+02
-1.682990189215096507e+03
-1.454007779697746628e+03
-1.319089603304818866e+03
-1.289667033718185621e+03
-1.088149671544130570e+03
-8.634387589379847441e+02
-2.720046038075332149e+02
1.579351712250202695e+02
7.166144582145838058e+02
1.348178174385988768e+03
1.757404691002298932e+03
1.937772794272511646e+03
2.212034977685109425e+03
2.370740430013937839e+03
2.105108535376151849e+03
1.828092308680176529e+03
1.053729794043259517e+03
3.647805129197953988e+02
-1.989869571217859345e+02
-5.728895168527984652e+02
-1.276894721737931604e+03
-1.743017680488361066e+03
-1.308250868549753477e+03
-3.523521907752555649e+02
-1.433778480798424226e+01
-3.273220005545076106e+02
-9.559496174269682456e+01
9.016249227192101898e+02
1.556574659237881178e+03
1.905496431551106298e+03
2.454411746018250597e+03
2.839267167032317957e+03
2.906990114851560065e+03
2.977476637245857091e+03
2.700544174014886266e+03
2.673115655010845785e+03
2.096373178506889872e+03
1.447328909723719789e+03
8.038301847470221446e+02
1.099436502822856454e+02
-4.393111284794653102e+02
-5.210245119431933745e+02
-5.792382568784075829e+02
-9.128915744268265371e+02
-9.430879275391699821e+02
-7.879719911289009815e+02
-8.264587375365572370e+02
-1.354460778677470671e+03
-2.560819128052793531e+03
-2.331585492699192400e+03
-2.361814598464380651e+03
-2.725501903807580220e+03
-2.620579861206336318e+03
-2.586134412559908014e+03
-2.639377802765605338e+03
-3.403239834373030135e+03
-4.060454312845368349e+03
-4.070036851843385193e+03
-4.547092840261156198e+03
-5.027767981562729801e+03
-5.164198185590900721e+03
-5.676360263950322405e+03
-2.906091481101056615e+03
-9.593118175573856661e+02
-1.681107373090665760e+03
-2.720534646281680125e+03
-1.548509664399152143e+03
-9.088170349606082254e+01
1.830399178139180549e+03
3.666243162053046490e+03
5.126462615474424638e+03
5.171235492099881412e+03
4.427733719110477068e+03
3.812885800506687701e+03
3.418474033936265187e+03
2.898454581141121253e+03
2.545925633423665204e+03
2.394974056212868618e+03
1.888746494148755119e+03
1.250171731639002928e+03
-1.977177457157769425e+02
-1.363910552319144017e+03
-1.567364571649026630e+03
-2.064008585299352944e+03
-2.004801654506648674e+03
-1.078714887572174803e+03
-4.477376215472334025e+02
4.862041764090215565e+02
1.410178567386900568e+03
2.761290674010423572e+03
3.331556277495821178e+03
2.247826073763103068e+03
1.640172704902853638e+03
1.597830430696660869e+03
2.202984399575931548e+03
2.894564955843735333e+03
2.271460637493313698e+03
1.870605272049952646e+03
1.301779141327742764e+03
9.121215064326750053e+02
6.000142731775429183e+02
2.775370992742475096e+02
-3.043112351694442168e+02
-1.169477126947016814e+03
-1.778954642898415841e+03
-1.830804798619983558e+03
-9.869090448802290894e+02
-7.980927564729167898e+02
-3.962530434591689641e+02
5.425813355153253497e+02
1.536440793335942317e+03
2.848273926748775466e+03
3.416409108960926460e+03
3.718084393174529396e+03
3.101135704228383020e+03
1.500344293540334547e+03
7.870024531926400186e+02
-1.440559540705819188e+02
-1.485107787496870742e+03
-2.565058346871527647e+03
-2.415874477345123523e+03
-2.059452101691598273e+03
-1.790664163980941339e+03
-1.759502295230380469e+03
-1.157942889795110204e+03
-8.828795956642225065e+02
-1.252270729057777544e+03
-1.189129991817719656e+03
4.216393070054598979e+02
2.160926156190553229e+03
2.429927716960890848e+03
8.910051410058345027e+02
-1.626851762741455332e+03
-2.362710296469058903e+03
-1.578621674239706181e+03
-9.246231519738522593e+02
-9.387228323464851201e+02
-6.187923968769525800e+02
-1.031776324548381353e+03
-2.010662667762391948e+03
-1.609435849857577068e+03
-1.379075814433732830e+03
-2.127539097573752315e+03
-2.991784090660124093e+03
-2.527809316034651147e+03
-1.501613511394845091e+03
-2.000189744634859380e+03
-1.894448757972652174e+03
-1.680332928963026916e+03
-1.101769665990368367e+03
-6.457322839155924612e+02
-5.311323088360101110e+02
-9.918488048131207506e+02
-4.288864650648107499e+02
2.049714445307435653e+03
3.470030712408329691e+03
2.521079619887528224e+03
2.159842818838932089e+03
2.647234386991279280e+03
9.721443613046093333e+02
-1.233351639035093058e+03
-2.041169750448334071e+03
-4.452395803353844599e+02
7.825019265159573933e+02
-9.839607325982213979e+02
-3.101668912548106164e+03
-3.044712822335992314e+03
-1.638958146386436511e+03
-3.622401999318655726e+03
-8.259070044726286142e+03
-8.103952737505094774e+03
-3.779993436117885267e+03
-2.399162380017869054e+03
2.424644756508937746e+02
5.104843664402153991e+03
7.414201426108619671e+03
6.360699676754954453e+03
4.706952947486088306e+03
2.613034583360993565e+03
2.464951317878626469e+03
1.527618745857118711e+03
-1.320046098890555186e+03
-2.993041233206900870e+03
-2.338401918675733214e+03
1.058864308244176527e+03
3.257751356200880764e+03
3.975277992159256883e+03
4.605473704305624778e+03
5.092374539120095505e+03
4.654896104478713823e+03
8.680379563648097019e+02
-6.171286778357310823e+02
1.849418714385411249e+03
2.415622960078966116e+03
-1.455709036526207569e+02
-4.019217993859181206e+03
-5.464339754431361143e+03
-5.274897482198860416e+03
-1.322918411305595555e+03
2.506463380340820095e+03
3.524218618413095555e+03
3.956331933075717188e+03
6.196704438966112320e+03
5.844318815838879345e+03
3.892085062861065126e+03
2.132813942021500225e+03
2.385056881029420595e+02
-1.210736170896884232e+03
1.385147950797896101e+03
3.597108915125096246e+03
5.252121151467750678e+03
5.277115798059609915e+03
2.827080480971514589e+03
2.209069847678461883e+03
2.540000456389023384e+03
1.395799672956495897e+03
5.654477558212433905e+02
1.129825275091702679e+03
1.494905317866513315e+03
1.461702459186219357e+03
1.018132350742922654e+03
-4.739184106121288096e+02
-1.664488776998883395e+03
-3.072617128419525670e+03
-4.624311140239090491e+03
-5.420565768907783422e+03
-4.129349894165538899e+03
-1.110717785113441096e+03
1.272238741961786900e+03
2.572420431322793320e+03
3.863839606997776627e+03
4.088488548377894858e+03
3.210353440426299585e+03
2.403470024544813441e+03
1.591758590512836008e+03
1.331579732152470115e+02
-1.649377811335999695e+03
-9.018836774645319565e+02
-7.894887578884629420e+02
-3.972210511936370949e+03
-4.557053505143261646e+03
-4.186123683562887891e+03
-5.709474935889911649e+03
-4.195132568778402856e+03
-3.969109713576046488e+03
-1.301494096841361170e+03
-2.703302822180887688e+03
-1.925493151341923976e+03
-1.988834875574709997e+02
-1.492631041185753929e+03
7.360966960589163364e+02
-6.026243573848807955e+02
-4.327968718754518704e+02
-2.520490264450536415e+03
-3.641679919687008351e+03
-2.559391536339667255e+03
-2.460664154455266726e+03
-5.000585172360523757e+03
-2.014155267689009406e+03
-2.803388419533154774e+03
-3.792382619267609698e+03
-3.903189697490065555e+03
-4.474819242489365934e+03
-4.125279438219613439e+03
-5.097522140334946016e+03
-4.162555033984946022e+03
-1.193478989610554208e+03
-4.103123773289507312e+02
-1.322009936691145185e+03
-2.505535042277733282e+03
-1.009903933319143221e+03
-6.281204287851983281e+02
1.001802300375130471e+03
3.010897059746745981e+03
3.679161035034034740e+03
3.435579071748942624e+03
1.814121665767877857e+03
1.428068638128650605e+02
-1.905398733233144640e+03
-2.821558487342741046e+03
-2.849736926483416937e+03
-8.589112478804025841e+02
1.631974473526716338e+03
2.272879038710848818e+03
2.147747986708870030e+03
2.697611769951265160e+03
3.363528821977808093e+03
3.074469216478838007e+03
2.583432941927165757e+03
3.382404385804113645e+03
3.894376355662836886e+03
2.961379835947563606e+03
3.266563229605585093e+03
3.675037550011325493e+03
2.857940395386547607e+03
2.195259708881535516e+03
2.429996047929842007e+03
2.443083020463115645e+03
1.988510095478420908e+03
1.184244054601949756e+03
6.432626239854541836e+02
3.886608489252566301e+02
8.154043497312508748e+01
-1.360275324698298164e+03
-2.086702463428591273e+03
-1.200413853394234138e+03
-7.768134536984707665e+02
-1.689038039543401624e+02
8.365836475077536534e+02
1.593710975649990360e+03
8.524354852597537047e+02
7.907194302600291849e+02
2.270671373922160456e+03
3.618329437948053965e+03
3.643688252510090933e+03
2.930766793486340703e+03
2.200536589878954601e+03
1.257996950762073084e+03
8.871951728232406822e+02
5.809026320098663518e+02
7.932822903084793609e+01
-4.176688317178479792e+02
-8.751435199268194083e+02
-8.561743654866465931e+02
-5.176657852184021067e+02
-4.897226116037170414e+02
-3.394125267761823466e+02
5.229937161351583086e+01
4.745570982791599590e+02
9.634379100206487010e+02
8.699804746398319821e+02
1.202203628975209540e+03
1.668134586440293788e+03
1.856762977281716985e+03
1.916086443030485952e+03
1.621156942255393460e+03
1.208975268515496282e+03
7.306387338390837840e+02
2.861695614636244045e+02
2.095052238258242596e+02
1.586236961028359076e+02
-3.324575325466842628e+02
-1.068810520208229946e+03
-1.449422303567617291e+03
-1.822325408398609170e+03
-1.429492276214684580e+03
4.061043076599543333e+00
4.133688765183886176e+02
2.496202575449029837e+02
5.108092888314971560e+02
1.209920553502305211e+03
2.095883787016673523e+03
2.408732919701946230e+03
2.496615563023988670e+03
1.937548465561718785e+03
8.115528104668063634e+02
1.555851289923349441e+02
3.376542976775430702e+02
4.978158809536972740e+01
-1.649065074046355221e+03
-4.322857215114762766e+03
-7.490565084163757092e+03
-7.846206194366314776e+03
-7.522850649562441504e+03
-6.713393561988318652e+03
-6.093861310195478836e+03
-6.093300315026604039e+03
-7.269621722693316769e+03
-7.423750500583383655e+03
-3.998706817384113947e+03
7.015121929726594772e+02
2.616973309718787732e+03
3.482703252800314658e+03
3.727675870451346782e+03
1.847958701278444096e+03
2.431595375607380447e+03
1.732624275705215496e+03
1.115934019674282126e+03
1.186508970019390517e+03
8.132786832733956999e+02
3.511982236715884937e+02
8.512180922823404217e+02
1.413399008664526946e+03
1.543801372222362261e+03
1.622381709646340596e+03
-7.330064097464777433e+02
-2.539312232918355676e+03
-4.893813434498308652e+02
1.364004496031605868e+03
2.486019596972134877e+03
3.394500477336337099e+03
3.708317619025688600e+03
3.178481972444577423e+03
2.925113509981257266e+03
2.711204885456260854e+03
1.764863353690722988e+03
1.166199095971006273e+03
5.610094311478768532e+02
3.511882490044212659e+02
4.328711269932526307e+02
1.720435024596969242e+02
1.215546998284576716e+02
-7.967433617060554241e+01
-4.350259317495712708e+01
-2.759587775586333578e+02
-7.320277993857531555e+02
-1.000673834960747399e+03
-6.778920695775376544e+02
8.732166135370339077e+01
3.170546521328994345e+02
1.283272805677465556e+02
6.809494052898611471e+02
1.660915263043875257e+03
2.194412821884503046e+03
2.785385491131541585e+03
2.323731831599591260e+03
1.278644441685866013e+03
1.122448031831282691e+02
-5.726955589290444095e+02
-1.116372598818762526e+03
-1.439697077995303744e+03
-1.449197828304247423e+03
-1.909643818160099045e+03
-1.905773206448794099e+03
-1.845334830182390306e+03
-1.902259287610014553e+03
-1.800477042675272514e+03
-1.551519052757901363e+03
-9.319011331308975059e+02
-5.646710227390466343e+02
-6.410741279831868269e+02
8.555880477064614809e+01
8.555467425222641396e+02
6.258826734785355939e+02
7.517139660426694263e+02
6.366176884683433173e+02
1.419380062464865944e+02
-6.894244471216192096e+02
-1.296642699457422850e+03
-2.047928607947986848e+03
-1.797101376780324472e+03
-1.908872876632253337e+03
-2.560262021063773773e+03
-3.100679388013819789e+03
-2.638308757732977483e+03
-2.828125774989020556e+03
-2.185283442107152950e+03
-5.272485337502049560e+02
3.670424558047525352e+02
7.665080718458631281e+02
1.453398838022782456e+03
1.123916655707799464e+03
5.655535578567000812e+02
1.146867203549389387e+03
1.742198293105907169e+03
1.321691623484698766e+03
1.001528024426271145e+03
7.258309224937453337e+02
-2.572787564455817915e+02
-3.995268953511588848e+02
7.043567290508145788e+02
5.887009493349499962e+02
-3.670871913843134848e+02
-9.128774040563841936e+02
-7.930900410257020212e+02
-5.797281625745847577e+02
4.582093251446366367e+01
6.023714441359679768e+02
7.080667129454909627e+02
1.168219226823608096e+03
1.818948214991054328e+03
2.286728170606464573e+03
2.767488011114735855e+03
2.139420897772414264e+03
1.664850852162046067e+03
1.695837587523320735e+03
1.507472877730030632e+03
3.821465477329824694e+02
-3.497453389706717530e+02
-1.145891353592991891e+03
-1.758807714943371820e+03
-1.508830590155149821e+03
-5.416877196091876385e+02
4.017071844111676455e+02
8.341108921556093492e+02
4.866400404893312270e+02
6.535796941485037905e+02
7.012395152465651336e+02
7.857695579370258656e+02
1.841225219602016978e+03
2.409454241148233450e+03
2.805460259133647014e+03
2.910626333517663170e+03
2.985809036840326371e+03
2.710092954307724540e+03
2.538340926479013888e+03
2.299270760665812304e+03
1.704910051855383244e+03
9.549444046045045980e+02
6.994072164025106986e+02
5.243535362907425679e+02
-1.213907012583949125e+02
-7.608708138693225465e+02
-1.141977896301606052e+03
-7.445339142990967503e+02
-6.130660667252832354e+02
-3.826780313883667759e+02
1.671247689554381566e+02
5.614704139682497726e+02
4.812476998261268477e+02
1.293311686250690173e+03
2.145591407919289850e+03
2.397218031360579516e+03
1.547785603600517561e+03
1.827253163323353419e+03
2.285005914157182360e+03
1.674907331832547470e+03
6.666651229838273593e+02
-3.993016668131642746e+02
-1.087818815718380620e+03
-1.048900936561120488e+03
-5.762340472859272040e+02
-9.691349914951642859e+02
-1.652264725482189078e+03
-1.868090700423712633e+03
-1.267605081196618585e+03
-6.419591475150208453e+02
-2.488324087848580746e+02
1.020510800923496646e+02
4.337354311392471686e+02
8.164480958902239536e+02
1.156506329804913776e+03
1.344936680155318527e+03
1.411786293573777357e+03
1.190444142817548709e+03
1.075037570013741060e+03
8.415109782539963135e+02
3.987630479508886765e+02
-7.735023920685165422e+01
-6.908523334202886872e+02
-1.245428072983146876e+03
-1.700765527361142176e+03
-1.690834050184145326e+03
-1.833371480289953752e+03
-2.163252578056751645e+03
-3.237658126293651549e+03
-4.859586882458482251e+03
-7.110934403433808257e+03
-7.794421201839952118e+03
-7.967996551094238384e+03
-6.631748469797362304e+03
-5.457729024187894538e+03
-4.371852745415966638e+03
-4.147986352844418434e+03
-3.754874645704969680e+03
-3.917617526276458193e+03
-5.034093122886493802e+03
-4.995385637891967235e+03
-3.416471574586897077e+03
-4.391100633150609610e+03
-5.288288852800411405e+03
-2.879218908852657478e+03
-4.428007408897497953e+03
-6.977575042092330477e+03
-7.009726611492163102e+03
-5.875407266984363559e+03
-5.327755374866971579e+03
-5.513705362352486191e+03
-5.328068850264783578e+03
-4.846917349303889750e+03
-3.878418961874697743e+03
-3.162389449027918545e+03
-3.007545508589532801e+03
-2.714777401452678987e+03
-2.360908319718629173e+03
-1.355979239106552086e+03
2.619821739302078186e+03
2.638163522925687630e+03
1.022915172953543561e+03
1.231224077722849017e+02
8.838146042718522040e+02
1.148791519816282289e+03
7.270757141043907268e+02
5.059661497749568753e+02
6.775232676317414189e+02
7.557482388766262602e+02
1.100172114443719693e+03
1.663621052751907655e+03
2.260190670506443894e+03
2.694855724327102962e+03
3.138593737530709859e+03
3.739465072386749398e+03
3.977402476140288854e+03
4.257352779194940013e+03
4.669286941859461876e+03
4.984132352786215051e+03
4.432707020862557329e+03
4.355822677931846556e+03
4.144425554861112687e+03
3.758537359608935731e+03
3.152140076281567872e+03
2.821279902039397257e+03
2.759888461201269365e+03
2.339795134134245018e+03
2.361782252700725167e+03
2.352592308905138452e+03
2.429246985692517228e+03
2.085410601748006229e+03
2.197850648647215621e+03
2.787393061576094169e+03
3.673947897804979675e+03
4.585553311735134230e+03
4.986187987043140311e+03
5.426720413856721279e+03
6.019839404719951744e+03
5.701738990269164788e+03
4.986511571902055948e+03
4.392201085174086984e+03
3.728854098695894663e+03
2.802976526687436490e+03
2.368207037464022051e+03
1.556376618731006374e+03
4.353606435507152810e+02
4.389926972644821603e+02
2.060274815852229040e+03
3.096122883876975266e+03
4.111178722423082036e+03
5.123252456218832776e+03
5.187664032901605424e+03
5.388040140085739040e+03
5.995201656411883960e+03
6.477329244957506489e+03
7.486943403848456001e+03
8.325935902107516085e+03
9.413206884143393836e+03
9.697639898615418133e+03
9.092102217898049275e+03
8.235412819328128535e+03
7.679416815919335022e+03
6.991016785630157756e+03
5.796094567532383735e+03
3.990445551852521476e+03
2.908369932288290784e+03
2.240044123059157755e+03
2.163102985583592726e+03
2.751383850464236730e+03
2.528379138561413583e+03
1.960950981091757285e+03
1.332347629472430981e+03
1.493501733306060942e+03
1.905224323474467838e+03
3.059532400091479303e+03
5.238470248409714259e+03
6.508925388238716550e+03
6.434939479822854082e+03
7.087418626329385006e+03
7.302205649676075154e+03
6.787389655815169135e+03
5.783878603082516747e+03
4.842665645721590408e+03
3.776811730138027542e+03
2.729446383697140845e+03
2.374635783423791509e+03
1.935206833045492203e+03
1.049244774475827626e+03
4.006142328026335804e+02
9.833106395765873913e+02
1.530317522122918263e+03
1.458472420565275797e+03
1.411735361172945431e+03
9.162843995490186444e+02
-3.068269909001787141e+02
-1.795487263291376394e+03
-3.208580106862829325e+03
-7.349035093552942271e+03
-1.284689517990789500e+04
-1.881807269774821179e+04
-2.332752653017566990e+04
-2.696727157912838084e+04
-2.582113888607102490e+04
-1.897397310089900202e+04
-1.309274803321438048e+04
-8.461378377942561201e+03
-5.372789998355910029e+03
-3.383770934689676324e+03
-3.899301801055762553e+03
-6.033387873287727416e+03
-9.937759820709199630e+03
-1.212526566630922753e+04
-1.877397559222919881e+04
-2.640872990281143211e+04
-2.896140250006924543e+04
-2.534271658983459201e+04
-2.317648069125734401e+04
-2.565765901948468672e+04
-3.131397502353566233e+04
-3.343423668789470685e+04
-2.809340861545472944e+04
-2.183844482834644805e+04
-2.088319449471382904e+04
-2.208942024081218187e+04
-2.312303243841059520e+04
-2.761980347630347387e+04
-2.991163724928898955e+04
-2.990849574325851427e+04
-2.616819544541213691e+04
-1.901949493764363433e+04
-1.024716579475034268e+04
6.482014291977742687e+03
2.440224649122576375e+04
2.569452611537118719e+04
2.051190230680471723e+04
1.826181971218787294e+04
1.539251997358303197e+04
1.369520039830291716e+04
1.873209663784414079e+04
2.733328762621569695e+04
2.719179184238153539e+04
1.866277523003563329e+04
9.490425863594284237e+03
6.799892069618839741e+03
8.743312394067865171e+03
6.477861468951239658e+03
1.324569064657619947e+03
-4.345463072414543603e+03
-9.832017052907145626e+03
-1.310992628693035294e+04
-8.849069351912285128e+03
-5.689266681296876413e+03
1.873597445696211025e+03
1.869876590677515196e+04
2.732039672165395314e+04
2.544461809640999854e+04
2.896358106998311632e+04
3.867254202521820844e+04
4.187563245257679228e+04
3.857102376017100323e+04
2.943087678444762059e+04
2.274208795854626078e+04
1.838449638485212927e+04
1.227145450340850221e+04
6.547187194833814829e+03
2.956726782926515625e+03
3.518964454649683830e+03
5.714983631005400639e+03
8.253904016215305091e+03
9.352719837738253773e+03
1.079350122136224854e+04
1.746035878798324484e+04
2.339335710541520166e+04
2.056559315508339205e+04
1.442816780707343241e+04
1.290513451591381454e+04
1.382349362051835851e+04
1.147830385881760049e+04
6.547650312879099147e+03
4.357535928211606915e+03
-2.442951714248840744e+03
-8.969644949245823227e+03
-5.871621926881311083e+03
2.890952511329704976e+03
7.670925735835916385e+03
8.637250712654100425e+03
6.261868144294330705e+03
6.716178084224120539e+02
-7.203538487432757393e+03
-8.276615678761781965e+03
-1.072165988315614413e+04
-1.008972216470575586e+04
