1.945469444104194736e+03
1.794981395171491613e+03
2.344336958543269702e+03
2.231455165578696324e+03
1.668256397737342468e+03
1.524829707140708251e+03
1.534167039249744676e+03
1.597100630837701601e+03
1.661513039490259189e+03
1.322317834391882116e+03
1.414461180420534447e+03
1.217891026603663022e+03
1.442467925588474372e+03
1.330210141791630576e+03
3.680864863098099136e+02
-1.709664518692873401e+02
3.660232377220972921e+02
1.253026061770546221e+03
1.584922149934833442e+03
1.304631607551294792e+03
4.011113158910109746e+02
-1.144642159773074582e+03
-4.180688862246161989e+03
-4.715132209058835542e+03
-5.213125076999559496e+03
-5.429781909649981571e+03
-5.297262083518876352e+03
-5.721609738463514077e+03
-5.473938681254586299e+03
-6.965428562864499327e+03
-7.819057925311612053e+03
-3.872921766671996011e+03
-2.926106072465426223e+03
-3.244723233646813696e+03
-2.991836876149579894e+03
-7.425454235588543952e+02
2.151001343644771623e+03
3.364769381762746434e+03
2.908695746989430063e+03
2.641620914302834080e+03
2.731419110356992860e+03
3.629100452096476147e+03
4.280544157262641420e+03
3.994427053307463666e+03
2.673666704167826992e+03
1.840201055784713162e+03
1.307915029507197460e+03
6.796955333833305986e+02
3.184863306341995894e+02
2.331254323998515758e+02
-3.434894951995775045e+02
-3.114891447328069489e+02
-9.788425804630155369e+01
-5.679542068520152753e+01
-8.940523417094186698e+01
-1.957976408201620586e+02
-2.830238791201543904e+02
5.557466897454706896e+02
1.446373222674003046e+03
2.050806393563465917e+03
2.192948146215706402e+03
2.392690926286837566e+03
2.491976086248599131e+03
1.754695453937002412e+03
1.039816060138416333e+03
2.226933088643295022e+01
-6.702097747926051170e+02
-8.828283126881439102e+02
-1.097760874094504061e+03
-1.472179669536580832e+03
-9.273124779174632977e+02
-3.693412599528325586e+02
5.471456432879093512e+01
-3.512213229330401276e+01
-3.408339477305889886e+02
-1.105547074344363665e+02
-5.238049341741947984e+01
-4.624029091320962834e+02
-4.277525312214890505e+02
-2.235788741654017997e+02
1.703400676414307213e+01
-5.706709165584049970e+01
-7.377712271264534820e+02
-9.800860172618773731e+02
-1.230096212520743848e+03
-1.117167083628824912e+03
-8.463784346523111708e+02
-7.686885396254615443e+02
-3.542743072116590497e+02
-2.971853221967335799e+02
-8.684815804416778064e+02
-3.102665913642358646e+02
4.323635165795920443e+02
-1.299639733459256604e+03
-1.704035555126911504e+03
1.119913540602705524e+02
6.863175754088215399e+02
5.587803199880617910e+01
-2.128363151550020120e+03
-5.684626742326553313e+02
-1.260427615170930721e+03
8.576774580421631526e+02
-8.402043080733322995e+02
-2.795087657852338452e+03
-4.006044400612214758e+03
-3.125103406735875524e+03
-3.893313199945780070e+03
-5.289722883883177019e+03
-2.787424506425215895e+03
-3.549408179474643021e+03
-1.592634508627305877e+03
-2.414115352987789265e+03
-1.259828950658980148e+03
-7.038030033046925382e+02
-3.201579215612759555e+01
-2.754728088204352616e+02
2.399847909532126778e+03
1.422919766284622256e+03
7.056754116903861132e+02
1.091096899026264055e+03
2.654344516136352013e+03
5.074713649729757208e+02
1.113292481703088697e+03
8.973196538044750525e+01
5.338629753222361387e+02
9.137504291531616900e+02
-6.565826172611970151e+02
3.648261119441215783e+02
-2.289186527851711617e+02
1.469198580105394058e+03
-2.658657393205560311e+02
-8.441315767423526495e+02
1.192577547243799927e+03
2.082307946016047481e+03
1.627971444119936450e+03
1.323534782463874080e+03
-1.185060600656001498e+03
-8.957278798853765238e+02
8.016038057217457435e+02
1.266904256209173582e+03
7.151930637039945395e+02
1.456500511585614504e+03
2.321833300782762763e+03
2.868285359719127882e+03
3.379814198686544842e+03
3.257445914288284712e+03
2.831195482849335349e+03
2.129138522932189062e+03
9.003322734598640409e+02
1.359775807291792376e+02
2.001834504197283948e+01
1.650960083492837427e+01
-7.753862235722256457e+01
2.838187790793309659e+02
1.187655930018341678e+03
2.018007462500394695e+03
2.703868056863282618e+03
3.207183959779854831e+03
3.373123423474511128e+03
3.366913946939833295e+03
3.717477368804924481e+03
3.857924938993208343e+03
3.543306006376043570e+03
3.253970211285167807e+03
2.409129171214694452e+03
1.523075098321062796e+03
6.499216108402980581e+02
-3.473459587503051580e+02
-8.619413145950597936e+02
-6.267398805343719914e+02
9.575845550351671065e+00
7.337260412565489105e+02
1.471879863041633371e+03
2.255065252461900855e+03
2.098171745788090902e+03
1.866010762985331667e+03
1.902084598682216438e+03
1.794294706542048061e+03
2.090408031503268830e+03
3.202458647812873096e+03
3.285416432055599671e+03
2.826356750401120735e+03
2.713435224957679566e+03
2.508836556304554961e+03
2.028382572404978873e+03
1.832666913210587836e+03
1.088688731569042602e+03
1.142656918279274805e+03
1.258792173745558557e+03
6.198440610476502570e+02
-3.622165495043164469e+02
-6.582946539654477647e+02
-1.603838832712765168e+02
7.185495095297700345e+02
8.135559412165966933e+02
1.232646887461403139e+03
1.893884726963959793e+03
2.457235704673762484e+03
2.307717656956107930e+03
1.518149527986514613e+03
7.184165988000769403e+02
8.575415612643564600e+02
1.380584731111619703e+03
1.216534305420637793e+03
9.913790003251581311e+02
9.061558781430317140e+02
7.148123667299761337e+02
2.243372788573941534e+02
-5.282250317559442010e+02
-1.788973534719478039e+03
-3.670864898758387426e+03
-4.358768444682503286e+03
-4.351644144127660184e+03
-4.243441151386914498e+03
-3.740277776053821071e+03
-3.764145548563259581e+03
-3.599931055062400901e+03
-3.825559298485666204e+03
-3.806161693142299100e+03
-3.552759084220788282e+03
-2.677248066564809960e+03
-2.839595794983225915e+03
-3.089714055690975783e+03
-3.070615036617252372e+03
-1.116532318853713150e+03
8.916312640331672128e+02
-3.522081962794072183e+02
-3.632146069937839911e+03
-6.760926173464731619e+03
-7.368367901542756954e+03
-7.210524499783121428e+03
-6.711348537830176610e+03
-6.245847538740873460e+03
-5.316099436678574421e+03
-4.671059762764831248e+03
-3.409586093140297635e+03
-9.766340166198284578e+02
3.758677508669491999e+03
4.563441941350391062e+03
4.161697282715005713e+03
3.595415725138213929e+03
3.429777364275757918e+03
3.123709766463159667e+03
2.987047015008085509e+03
2.717888192236509894e+03
1.302386765669735951e+03
3.457436995094410292e+01
-1.043719611735040871e+03
-1.244491498787822820e+03
-1.163807646576368370e+03
-8.165373078696370612e+02
-8.216189282073598861e+02
-7.998730080143731129e+02
-5.211862273379575754e+02
-2.655749872507770988e+02
-3.829418732170885846e+02
-4.261729315712266271e+02
-5.212751910739847290e+02
-4.502401201966774806e+02
-3.000080578312652619e+02
-4.005684492427079704e+02
7.009951797178588322e+02
1.922670033489259140e+03
1.696655649677378506e+03
1.138998917191465125e+03
5.246527096263894236e+02
-3.184282708625788132e+02
-5.503525944716187723e+02
-1.271993727656566762e+03
-1.655057831871116377e+03
-1.614575184508908933e+03
-1.257417247812216374e+03
-9.825994128762367836e+02
-7.632665920356115521e+02
-5.574954996033121688e+02
-2.011532813906188153e+02
-5.086370386996442505e+01
1.648641359129445334e+02
8.412230149049728425e+02
1.225253782429171224e+03
7.757337576607828851e+02
3.805460442499604028e+02
-9.312142875647909079e+01
-3.169274555170266012e+02
-5.837195175690910673e+02
-1.478263311170429915e+03
-1.847195276379321967e+03
-2.309825719116214714e+03
-2.638183961343384453e+03
-2.619348144255443913e+03
-2.107054110033884626e+03
-1.446761514364849518e+03
-1.181948014608768972e+03
-6.882520400444144570e+02
-5.227531499548034333e+01
7.095812822892547445e+01
-4.964304717363082631e+01
5.109286423119178835e+02
1.065542696797929011e+03
1.204083818089438637e+03
1.093578827447522144e+03
5.660815600846519828e+02
1.965307002870299868e+02
-2.477216064903888366e+02
-8.694096108171622745e+02
-1.321598064583075029e+03
-1.558024281290329327e+03
-2.122678826320060580e+03
-1.968936666329492482e+03
-1.623072551404866999e+03
-1.671022421763723059e+03
-1.350237545132559490e+03
-8.426302337664509423e+02
-4.966209910376548464e+02
-3.397170137349802985e+02
7.607632249421320125e+01
4.521265471541416332e+02
2.603732836229296481e+02
4.058090796741105777e+01
-1.120511975471315367e+02
5.641139512077387508e+01
1.001418421264433618e+03
1.483893459542653090e+03
1.236028032929218853e+03
1.083912213870702317e+03
6.385426306563304024e+02
-2.303040193068060262e+02
-7.286405226973082563e+02
-9.762990726351939657e+02
-1.311356291438790549e+03
-9.848626549152411371e+02
-2.998554770103127112e+02
3.475932032296107650e+02
9.200943927565348304e+02
1.630498159186720386e+03
2.234996539885216407e+03
2.479905286476939636e+03
1.479463538210717388e+03
2.266825294062697594e+03
3.055924712943309714e+03
3.111533216015587641e+03
2.747622449236240300e+03
3.041408566506349871e+03
3.247045571327043035e+03
2.920796882142694813e+03
2.580789527594175979e+03
2.107969892519523000e+03
1.547322068560333264e+03
7.035918381849976413e+02
-9.063159720928475735e+02
7.685399719725561454e+02
1.705999867827428034e+03
2.019956816979982477e+03
2.324220214334686261e+03
2.713665100063932641e+03
2.831748841746774360e+03
3.501064617267986250e+03
3.544418526183842914e+03
3.426266529095370970e+03
3.472944474052364058e+03
3.202890817991493350e+03
3.339367836613327654e+03
3.117988817690004453e+03
2.820551595434950286e+03
1.862550887982538370e+03
8.373792354767365396e+02
-7.276734781950041508e+01
-9.055742742007488459e+02
-1.107216605632765322e+03
-1.468031545544069559e+03
-1.470269309426269956e+03
-1.340253864721232048e+03
-3.134016902648789937e+02
7.237999081383233033e+02
7.914853590086742088e+02
4.082256287369914389e+02
8.491344951859864523e+02
1.319552098654428619e+03
1.121653314099728050e+03
8.080475633769831347e+02
6.585609952057631062e+02
1.694042444223254620e+02
-5.027095599586075423e+02
-1.522828151375207426e+03
-2.066110992413162421e+03
-2.409602854726064379e+03
-2.669353443053695628e+03
-3.158357584089433203e+03
-2.871541191886428351e+03
-2.327889119191093869e+03
-2.144359998179183094e+03
-1.753094219525900371e+03
-1.539210868293710519e+03
-1.097466577067223398e+03
-4.830576494071899560e+02
-9.892924708966303626e+01
2.689662002151360412e+02
4.626764363884172440e+02
8.181722573351628398e+02
9.685384843596010569e+02
4.647939268410196973e+02
7.003978793743740994e+01
-5.146138787569702089e+01
-2.585222782517377595e+02
-1.132907131391229314e+03
-1.996221197010061815e+03
-3.005153852317154360e+03
-3.074470957393031767e+03
-3.252917805646511624e+03
-3.732331761588598965e+03
-4.016428039042826640e+03
-4.465868031077149681e+03
-5.147358427966231829e+03
-6.844676577717194050e+03
-6.923626641280548029e+03
-5.407872116867218210e+03
-5.957072378372939966e+03
-5.197042570204878757e+03
-2.884608765848623534e+03
-4.814552662696906737e+03
-4.948602053944841828e+03
-3.414501792720605408e+03
-2.858020605139361578e+03
-3.247903642653038332e+03
-5.496867719497317012e+03
-7.300681242927018502e+03
-5.799123152795005808e+03
-8.111997705467815649e+03
-8.299116432234048261e+03
-7.294266199633887481e+03
-7.097238639585397323e+03
-9.435730574538072688e+03
-6.486433567369840603e+03
-5.193127420887996777e+03
-6.195575754582460831e+03
-6.261583831399237170e+03
-4.595910213248596847e+03
-5.145224621332557945e+03
-6.268317116761781108e+03
-4.117964776754077320e+03
-2.866935998780578757e+03
-2.388934739785585407e+03
-2.563703619473798426e+03
-4.413938544795566486e+03
-3.740419854242742076e+03
-3.057928143878767060e+03
-3.569150146480375042e+03
-4.190783880137827509e+03
-4.390655598089383602e+03
-3.984689675955212806e+03
-3.698793371015864977e+03
-2.961740992386750349e+03
-2.061316209409970270e+03
-1.595271905365376597e+03
-2.395354401777481996e+02
1.037115450509743368e+03
1.669864131448089438e+03
1.958882613412391720e+03
2.172645163446783954e+03
2.118457731924604559e+03
1.746452639163236881e+03
1.557780142964119932e+03
1.381447688488073709e+03
1.034308179522353157e+03
5.282676557908440600e+02
-5.954794136870982584e+02
-9.986869739389077267e+02
-6.591920428339244609e+02
6.891061022395079760e+01
1.221837338919647436e+03
1.031719361542700881e+03
5.225626672115971587e+02
8.213299156262240786e+02
1.481085464003303741e+03
1.475982993428719965e+03
2.409218340678939512e+03
3.340394684906541443e+03
2.969091665524032578e+03
2.391464249694594855e+03
2.144579178146162121e+03
2.023300225675388219e+03
1.803367864759883105e+03
7.146240814248430979e+02
-1.488800372904009237e+03
-1.887814739699326083e+03
-4.958711643883783609e+02
1.116639718815536355e+02
5.596100892156051714e+02
2.036619661227816209e+02
-1.281419843584278624e+03
-2.428003076757468079e+03
-1.258308364365260559e+03
1.557307107384168148e+03
3.012394591673557898e+03
3.508667687858652698e+03
4.027047950008668067e+03
3.928018610813884152e+03
6.160223933493587538e+03
8.148202661221400376e+03
7.619544808342468968e+03
7.539856309438794597e+03
9.034768695625143664e+03
1.064307372637252956e+04
1.061940330534896748e+04
1.042431670297134224e+04
8.246330113999547393e+03
6.528937353213769711e+03
4.867624827205126167e+03
4.456059652069594449e+03
4.051809626707925872e+03
3.800384019468857787e+03
4.876311445704066500e+03
6.673143094043280144e+03
7.747571671302397590e+03
8.639161831802919551e+03
1.087027454572321767e+04
1.256541655811878263e+04
1.224911092842301878e+04
1.135276938842435993e+04
1.262102901737614593e+04
1.437459161890998257e+04
1.532692768730041826e+04
1.473848391352287217e+04
1.216374921215192262e+04
9.656235832833657696e+03
1.054157855704149006e+04
1.019328763312376213e+04
9.822888153279727703e+03
8.700906836976257182e+03
5.659886193934292351e+03
4.863359050923120321e+02
-5.474099140992318098e+03
-9.131860025745365419e+03
-8.294301475662630764e+03
-6.194838185888536827e+03
-5.953911938185721738e+03
-7.243823350170174308e+03
-1.139687894085610606e+04
-1.443542400816611371e+04
-1.356378973899975244e+04
-1.142730813204819970e+04
-4.937251332706804533e+03
6.298218182802726005e+03
1.643669973954710076e+04
2.022094635506300256e+04
2.114161960620053651e+04
2.477942265845397560e+04
2.329103098111244981e+04
1.689022304748164606e+04
1.533293104004594534e+04
1.779589478723278080e+04
1.877684816189513003e+04
1.878173840177309830e+04
1.928752926774422303e+04
1.912904235850099212e+04
1.722009298933972241e+04
1.416667050930782898e+04
9.614819361947735160e+03
3.073539768593468580e+03
-3.520884053208573761e+01
-3.574284765249203701e+02
-1.462975733214730099e+03
1.395201344319051032e+03
4.815113473573813280e+03
4.620889112918478531e+03
8.616266887848895522e+02
-2.923552183577999131e+03
5.355277420681833291e+02
6.653959746932204325e+03
8.890994455063806527e+03
6.021957472241507276e+03
3.084021686927128030e+03
5.170358083888333567e+03
7.195369731985893850e+03
7.128384746866196110e+03
1.063161509181600559e+04
1.393345264566505102e+04
1.071022790116017677e+04
5.596281824175727706e+03
2.716191653651378147e+03
1.561304645853197826e+03
8.129075182103533734e+02
-2.847536906779085257e+03
-5.820502102820744767e+03
-6.115486284586428155e+03
-6.707057357941000191e+03
-7.812737066528541618e+03
-9.141033994857600192e+03
-1.033951268694547252e+04
-1.681763957953328645e+04
-2.710487972684846318e+04
-3.629367612777597969e+04
-4.248248679271450237e+04
-4.603569965926925215e+04
-4.785761015781569586e+04
-5.114072795173754275e+04
-5.755505106385622639e+04
-6.555001951732017915e+04
-7.152604882468689175e+04
-7.595957632646292041e+04
-7.716597480955685023e+04
-7.552254678040272847e+04
-7.359357613383591524e+04
-7.114039336529704451e+04
-6.937432102188013960e+04
-6.698657714360507089e+04
-6.661140594889031490e+04
-6.610634088354153209e+04
-6.303564151918064454e+04
-6.165862880919227609e+04
-6.181360198742856301e+04
-5.611689524132567021e+04
-4.907682661333415308e+04
-4.373773094205545931e+04
-3.982686908619630412e+04
-3.248056134220870081e+04
-3.040213493247256338e+04
-2.170083818438863091e+04
-1.191298495773051945e+04
-2.136963637666731302e+03
4.036787574759533982e+03
9.761998165684317428e+03
1.867939924235071521e+04
2.555263007306009604e+04
3.100124382025977320e+04
3.755979103833637055e+04
4.410793925694478094e+04
5.030224216560454806e+04
5.334620300127840164e+04
5.592229579307937820e+04
5.936714012430360162e+04
5.954338530315436219e+04
6.462547820234816027e+04
6.502469998441236385e+04
6.558963462399094715e+04
6.521786574925004970e+04
6.186271607514259085e+04
6.375253069012338528e+04
6.346777970786172227e+04
6.130686026395781664e+04
6.026316628096665227e+04
5.755602703167837171e+04
5.708378245205123676e+04
5.343973773024009279e+04
5.149110264589239523e+04
5.300896642149928812e+04
5.520556940987014241e+04
5.487216082464876672e+04
5.296891312124683463e+04
5.122995850157609675e+04
4.891439992192350473e+04
4.846327147542517923e+04
4.717367042237749411e+04
4.455070583466428070e+04
4.160046619935429771e+04
3.862094009747588279e+04
3.391812877719266544e+04
2.828606886749441037e+04
2.286070263450154744e+04
1.665195289855455849e+04
9.907698763540256550e+03
4.237869615938223433e+03
-3.037107998931342081e+02
-4.275139655679099633e+03
-7.845663181600672033e+03
-1.263145938651990582e+04
-1.665264012187406843e+04
-1.876548245406540445e+04
-1.982425830900889559e+04
-2.078436471410953527e+04
-2.221505165458980264e+04
-2.253683891230750305e+04
-2.132811680728491410e+04
-1.986794953635040656e+04
-1.894290377685454951e+04
-1.851054931571034831e+04
-1.749698315560022820e+04
-1.678473019852747530e+04
-1.636840878555979361e+04
-1.597747824030717311e+04
-1.541638343154980066e+04
-1.467948139754771728e+04
-1.340625084657993648e+04
-1.206532604280905070e+04
-1.105808682765452977e+04
-1.021762538852762191e+04
-9.644736503057569280e+03
-9.306498905312348143e+03
-8.364422595681417079e+03
-7.518768183054316978e+03
-7.010981727822187167e+03
-6.883454455588271230e+03
-5.891848459447514870e+03
-4.600967786819519461e+03
-4.355254472526808968e+03
-4.257303565357631669e+03
-4.658016498832968864e+03
-4.987047313597974608e+03
-5.104976348609402521e+03
-5.205756607077055378e+03
-4.888133322507777848e+03
-4.682674361199133273e+03
-4.211117867064933307e+03
-3.171117258292659244e+03
-1.959386562831521587e+03
-1.533654279031041142e+03
-2.088714707911402456e+03
-3.273268762091776352e+03
-4.123027445972787973e+03
-3.992684471096257312e+03
-5.436948992950131469e+03
-7.449614147498951752e+03
-1.079832255577399519e+04
-1.532661378338721079e+04
-1.557013149449175762e+04
-1.302056611961419003e+04
-1.052152260445903266e+04
-7.043535396084073000e+03
-3.980166751928080885e+03
-3.847982476575664805e+03
-6.875611695323696040e+03
-9.647670721951051746e+03
-1.157066884153369574e+04
-1.375418812831735704e+04
-1.774979299989226638e+04
-1.962602673876394692e+04
-2.039350169589057987e+04
-2.097666313769760382e+04
-2.286294619969179621e+04
-2.398981173002839932e+04
-2.331077306769263305e+04
-1.873224885917685606e+04
-1.756178821223850537e+04
-2.040289358268157230e+04
-2.174660620582232150e+04
-2.132917204638603289e+04
-2.097706664911988992e+04
-2.007667639962644898e+04
-1.862320095938009399e+04
-1.626186437112969725e+04
-1.248181729968676336e+04
-1.241449092722886417e+04
-1.255310535056398112e+04
-1.152183436722036276e+04
-1.092894700530803311e+04
-1.012152304653603824e+04
-1.010358942171615308e+04
-9.587282977512471916e+03
-9.173903508371564385e+03
-9.166710675783217084e+03
-5.288684455127991896e+03
-5.387321855786442484e+02
1.399137444909218857e+03
3.229939982630833583e+03
4.218432897110066733e+03
4.445620705512742461e+03
4.427767405634342140e+03
4.268921382850452574e+03
5.076013451358308885e+03
6.258152051197976107e+03
7.095620377636114426e+03
7.932577379249741170e+03
8.045349048526601109e+03
7.272212696066990247e+03
7.384436488130207181e+03
7.654168436690998533e+03
7.651638570995223745e+03
7.364046092149187643e+03
6.635552281614966887e+03
7.953395165838986941e+03
9.959859152593873659e+03
1.016822596581697144e+04
1.016259618522173878e+04
9.734269451953063253e+03
8.932781324024423157e+03
9.932588906370338009e+03
1.222781983918367405e+04
1.380284291907636907e+04
1.433706826741519399e+04
1.387505656463510604e+04
1.344737832282458658e+04
1.358049486565759980e+04
1.347559288202281095e+04
1.342818881077465630e+04
1.339074650559333531e+04
1.308579274776639795e+04
1.185303257941591801e+04
1.133612781021086994e+04
1.056651482809181653e+04
1.019547943040534847e+04
9.608188988172059908e+03
8.723974752982310747e+03
8.542397797724590419e+03
8.231975680024501344e+03
7.917409862734878516e+03
7.476195693336217118e+03
7.079453191201776463e+03
7.131385372093604929e+03
8.425193507554511598e+03
8.930788671608868754e+03
9.836584288280912006e+03
9.970209076900455329e+03
9.810280483952887153e+03
8.917925953910254975e+03
8.048012490577141762e+03
8.567384794137646168e+03
8.489193236563754908e+03
7.236394406165054534e+03
6.527452821784033404e+03
6.693901954826682413e+03
6.756006019641831699e+03
5.619156633205991966e+03
4.668840393791606402e+03
4.577507296057984604e+03
4.368697380387540761e+03
3.737037939943689253e+03
2.574736249933419913e+03
2.419862311746849628e+03
2.328775733277399013e+03
1.525480640160817302e+03
5.920623212160987805e+02
6.959459194424963080e+00
-5.522307729643190441e+02
-1.295159646409462766e+03
-2.926185107790671736e+03
-3.821455766872767072e+03
-3.349494346815224162e+03
-3.738609138008634091e+03
-5.051664044677481797e+03
-4.744027998702778859e+03
-4.424605898732345850e+03
-5.564118617305358384e+03
-6.112843911915172612e+03
-6.731753588391808080e+03
-6.874189144396513257e+03
-4.546829893872210050e+03
-3.150773758683906635e+03
-3.261013376459341089e+03
-3.457430873205706121e+03
-3.327767567942473306e+03
-2.468118976677065803e+03
-1.959746104643119907e+03
-1.813593684974533971e+03
-1.213560707551611813e+03
-1.259689897929003791e+03
-1.316137229016749416e+03
-1.632553387455063785e+03
-1.906539487203691806e+03
-2.818039506929882464e+03
-4.075233750112219695e+03
-5.857409109336500478e+03
-8.090828418167606287e+03
-5.277468712124433296e+03
-3.517088053374490300e+03
-2.695584074363285254e+03
-2.255139438242777487e+03
-2.234976665601036530e+03
-2.427541038289778953e+03
-2.195425257571339444e+03
-2.333029498257997602e+03
-2.880762871940093191e+03
-2.748923550577427250e+03
-2.870772567893862288e+03
-2.582454842310928598e+03
-1.973309335215946021e+03
-1.945766496870565788e+03
-1.744990930015712820e+03
-1.704206076426856725e+03
-2.052251362752756449e+03
-2.134701465467737307e+03
-2.099780638622467450e+03
-2.319795012960673830e+03
-2.530446050378106975e+03
-2.055621438052688518e+03
-7.132329820213747098e+02
-1.039060406727626003e+02
-8.101600838925738799e+02
-1.407144118902272567e+03
-1.123180019169608613e+03
-6.758664745007409920e+02
-1.135435058485930085e+03
-1.897257090467782064e+03
-1.979723490479078009e+03
-2.044155689981263549e+03
-2.818833072657557750e+03
-3.711848829194203518e+03
-3.277458992467454209e+03
-1.720849969734338401e+03
-1.071908207894588259e+03
-2.286244742723927175e+03
-1.981707806555749130e+03
-3.405851482820687011e+02
-2.405744141432885286e+01
-4.910721492586434920e+02
-4.510246190829632837e+02
-4.348234273880025853e+02
-4.644307898191680124e+02
-2.299967757429748190e+02
6.085550720742550084e+02
1.954940518041972382e+03
2.499330386947161969e+03
1.782545534074201669e+03
1.542224805643916625e+03
1.654220822651181379e+03
2.053707241596802305e+03
2.130772167750847530e+03
2.167397239288383844e+03
1.466608916483032772e+03
6.012509368988626193e+02
2.414716510487278924e+02
3.665403300236089876e+02
3.744628752813294454e+02
3.332634044780783142e+02
4.511074811131754245e+02
5.251597000861545439e+02
8.515998062855659327e+02
8.226955333402568158e+02
6.356785551837240291e+02
-2.974227301034842981e+02
-8.936130449891809349e+02
-1.550836070956484946e+03
-2.029016394928396494e+03
-1.247916178982205793e+03
-3.834302405986867370e+02
5.854207095206849090e+02
2.373980578836144062e+01
-1.135418761185610492e+03
-3.640898306725013754e+03
-5.239648435211141077e+03
-4.836727772220649967e+03
-5.210133668860834405e+03
-5.654852749701337416e+03
-6.014837513960576871e+03
-5.750055247795417017e+03
-5.413345997198411169e+03
-5.326489345085565219e+03
-5.371288376674200663e+03
-5.528651686770894230e+03
-4.956458933360673655e+03
-1.635572930023188974e+03
9.870828249629473703e+02
-1.048374290117839564e+03
-5.148771655983104210e+03
-3.428970353561670436e+03
-2.835793452808987695e+03
-5.236133207161923565e+03
-6.801771494547558177e+03
-7.693487904316167260e+03
-8.082086902270680184e+03
-8.485412636392402419e+03
-8.071321600342826059e+03
-7.294636235790480896e+03
-5.648201515915555319e+03
-3.575804124036435041e+03
1.017675179850772764e+02
3.367243672982405087e+02
-2.334719161522518334e+03
-1.181374672203613727e+03
-5.898392159129215173e+01
7.177118299880602308e+02
1.192892109273653887e+03
1.707637357511315940e+03
1.639100781240205606e+03
1.384500013399843738e+03
1.386117757142872506e+03
1.668152209259789061e+03
1.273784538006126922e+03
2.504054084832057185e+02
-4.717027310807636127e+02
-1.582828590005055673e+02
3.499504086550292214e+01
-5.080503440525923793e+02
-1.163443535322178604e+03
-1.219030514300230152e+03
-5.017010549174354992e+02
8.466743921115803460e+02
1.682510675382983891e+03
1.830246899855825404e+03
1.835317938537675673e+03
1.941988827163977703e+03
2.489536594563109247e+03
3.478176985731879995e+03
3.962859290935174613e+03
3.856596050010698036e+03
3.820561689820262927e+03
4.630013720605131311e+03
5.183035667313790327e+03
5.322826024457064705e+03
4.617119895461794840e+03
2.280801367350024975e+03
2.668239287801202863e+03
4.338638186335413593e+03
4.656055371341493810e+03
4.088674104494886251e+03
4.596273781917441738e+03
4.829926563906992669e+03
4.931714998562449182e+03
3.896607602336499440e+03
4.747999521576183724e+03
5.636950871820929933e+03
5.445365808196630496e+03
5.462320426805816169e+03
5.573784441806140421e+03
5.466814216129247143e+03
5.055390642994326299e+03
4.367540881016079766e+03
3.726300737278845190e+03
4.023418166924492652e+03
4.736803073329123436e+03
5.239339788919293824e+03
5.015866033857075308e+03
4.558500708875770215e+03
4.306394260477564785e+03
3.950409661897677779e+03
3.045472737977474935e+03
2.345551310810745690e+03
1.980564217746279155e+03
1.355499413319206724e+03
1.972814651613186072e+02
-3.310572772901768701e+01
1.973228964556510334e+02
6.034384412845940915e+02
9.961727900956990425e+02
8.924937015896542789e+02
9.453692946358056588e+02
1.739762049439680823e+03
2.317423629001306381e+03
2.858223772324965466e+03
2.404253831053716567e+03
1.365487397502618478e+03
7.807814438241658763e+02
7.129686199111854421e+02
-3.131564052803498726e+02
-7.077999417738221837e+02
-1.352030304311770806e+03
-1.439882662912448268e+03
-1.823339749796092292e+03
-2.231523685030897013e+03
-2.470612880353187393e+03
-2.698662422529081141e+03
-2.569749311376854166e+03
-2.069026307716718293e+03
-2.406203893386703783e+02
1.801423255050729040e+03
1.897881273800889403e+03
1.028685172658869533e+03
7.047263191501533584e+02
6.508944818792712113e+02
6.470311866836829040e+02
-7.902784907406839920e+01
-1.210351164303877340e+03
-1.568014566657945352e+03
-2.447207077340108754e+03
-5.013080683742988185e+03
-5.384754761986628182e+03
-5.367370702888515552e+03
-3.602128676712554807e+03
-3.567204191548420113e+03
-3.306492258647648669e+03
-3.546240089369647194e+03
-2.821532353672905629e+03
-2.347406719718849217e+03
-1.117187937819333456e+03
-1.244073061524294872e+03
-1.468106536905812618e+03
-4.804107436598702066e+02
-1.461617552518484047e+02
-1.346713413971125917e+01
-2.163366519372334267e+02
-9.878819670277480327e+02
-1.809314060869428886e+03
-2.312787092068028869e+03
-1.953413049980524647e+03
-2.104265138305219807e+03
-2.258528033585341291e+03
-1.553294538528421981e+03
-1.591546300110411494e+03
-2.482380569923409894e+03
-2.994907883600600144e+03
-2.955277391080256166e+03
-2.979560966478791215e+03
-3.589739889742880223e+03
-3.263941496270616426e+03
-1.139342335310317139e+03
3.400030710265459106e+02
3.420589393503407791e+02
3.786345120244430404e+02
7.026582395767633216e+02
8.815583311722018323e+01
-8.819419522787553660e+02
-1.116700216204254275e+03
-1.128263023873169459e+03
-2.016910715744843174e+03
-2.256698259788971427e+03
-1.000580696848643356e+03
3.014189785569290621e+02
4.492318386421887908e+02
-3.412697831806418662e+02
-5.430663938677072338e+02
5.168346853714195959e+02
1.514318475939113114e+03
1.340352193194432857e+03
3.008961649593967991e+02
-6.050527747491850050e+02
-9.315070119927527230e+02
-9.464374532187785007e+02
-1.476808642977354566e+03
-2.509621692190313297e+03
-3.428809097115054101e+03
-3.401743993657209103e+03
-2.938393680812053844e+03
-1.702753974663602094e+03
1.462306771911659666e+02
2.347538164921935731e+03
3.470200515727622587e+03
3.681226355911560859e+03
3.065703310718959983e+03
1.674740618964536225e+03
1.390277507458044511e+03
1.090311956339539620e+03
1.467808009211896945e+02
2.847508762649548544e+02
1.044350920472066719e+03
1.487615370149522732e+03
1.598546996990070056e+03
1.100108585524607179e+03
1.411256785425025555e+03
1.379908358992438025e+03
9.260819337512886023e+02
1.627917294185631590e+03
2.534431289526348792e+03
2.677524267901916119e+03
2.191290430816722619e+03
1.575932273964455817e+03
1.147522520011342067e+03
1.372065661768387599e+03
1.911618178597541373e+03
8.592886409901607294e+02
1.901555743384514017e+02
-2.047302306123587243e+02
-2.063095672311982867e+02
-8.254414564490140265e+02
-2.248066872315319870e+03
-2.211264095487595114e+03
-1.078103005943318522e+03
3.104682656876894384e+02
2.201663829594238450e+03
3.028439254554879426e+03
2.557737802494114021e+03
7.837229647247296498e+02
3.884617415347214546e+02
7.989411516856414437e+02
1.078274059395274890e+03
1.633512920943976269e+03
2.515730772190468088e+03
2.959985177235715582e+03
3.097292770665734224e+03
2.932823802181486371e+03
2.393689726296877325e+03
1.815882069754548866e+03
1.822394793905965116e+03
1.679275011665023840e+03
1.433573780734541742e+03
6.893015347590554711e+02
-5.194478358347671474e+02
-9.025693233953960544e+02
5.689661757515417548e+02
1.370107725380548345e+03
1.765939377031119193e+03
1.420487263492336069e+03
5.217930614256814579e+02
2.489362707637497181e+02
7.998755352352704904e+02
1.921668110592554058e+03
2.667395966430406133e+03
2.777216725363099613e+03
2.514143560114948741e+03
1.930195141313304021e+03
1.276435608915820239e+03
7.128275964177308879e+02
5.836467767805915230e+01
5.099823577354183612e+02
6.747879614363301926e+02
1.192785964378248082e+03
2.440195438562360778e+03
3.836158174941580000e+03
5.047535972322556518e+03
5.139397338550088534e+03
4.076769556159229069e+03
2.442619524224796805e+03
8.729414378128595899e+02
1.017289817308943327e+02
1.999165102964266509e+02
3.754384425588773411e+01
-5.434556765231972264e+01
6.431953967792278490e+02
9.500122329099826857e+02
7.762750635775156525e+02
8.391850886239943748e+02
4.617883177650298308e+02
