-2.435356895246187833e+03
-2.518527787674467163e+03
-1.351901324290465482e+03
-3.741140710457693075e+01
7.169361009145401340e+02
1.235146128505182105e+03
1.492267118850880479e+03
1.363328722947851702e+03
9.423310689125412409e+02
8.192662813041968093e+02
8.981792182481547115e+02
4.159227360322773848e+02
4.514307338362198720e+02
8.457696063935561597e+02
1.331973129700943218e+03
8.710283709615609951e+02
-6.149900472045279685e+02
-1.344043655388770958e+03
-1.867186597289238534e+03
-1.932481315316489145e+03
-2.029006802576481959e+03
-2.208702499873435045e+03
-1.825620048679219281e+03
-1.064740710687009823e+03
2.819430632423884617e+02
1.363420763687684484e+03
1.534799766194225867e+03
8.381681227076795722e+02
1.024661417617638648e+02
-5.939466675392645101e+01
4.415474069626074538e+02
3.791631340068982468e+02
1.614810521653709827e+02
4.762584731203597954e+01
1.776485878053764793e+02
1.273330094038598190e+02
-9.034046495020096472e+02
-1.593541135418392969e+03
-1.309181433206225392e+03
-6.710988669946868868e+02
-4.444702003800640000e+02
-1.369442409222768674e+03
-1.966976067498315615e+03
-1.155968965039742216e+03
7.356053738209872961e+01
1.520555409803208022e+03
1.974082192155089388e+03
1.895175331700302195e+03
1.714763564564504122e+03
1.553772434505817046e+03
1.367118958645071871e+03
1.710815371562431665e+03
1.858802550812311893e+03
1.927394622465823431e+03
3.036333017771598861e+03
2.709515945881174048e+03
8.540747331226868937e+02
-2.822897101445205976e+02
-8.884084899730654570e+02
-1.252668805062309275e+03
-1.821664646037334023e+03
-1.300859358278907848e+03
-8.531584203844179228e+02
-5.396131244123348552e+02
8.161784091167467068e+02
1.635996530117714428e+03
2.217428438207863564e+03
2.686949707387909712e+03
2.890337689633357058e+03
2.534909271506475307e+03
1.561227595822862668e+03
7.361010040673252206e+02
7.989402391231035381e+02
8.195922085922296674e+02
4.771033799286894350e+02
1.374133338818007246e+02
-9.745837532419980107e+02
-1.715823012704667462e+03
-1.467476336827954128e+03
-3.556283922397824995e+02
-1.715018204074578705e+02
-4.681593273766502534e+02
-7.491190832246783948e+00
1.214360495143417438e+03
2.314632889740824339e+03
2.667090910309582341e+03
2.300896189478838551e+03
2.357042928034974011e+03
2.586717870142078027e+03
2.420863397467282994e+03
1.981052708729867845e+03
1.521519778076265993e+03
1.530196398809725906e+03
2.173104465565954797e+03
2.992259440372208701e+03
3.292578434147405915e+03
2.577055419548817554e+03
1.629720314316172789e+03
1.045522977647947755e+03
9.233655991955497484e+02
1.971476780311304822e+02
-6.082630327165312565e+02
-8.407589252305292575e+02
-7.632765396159173861e+02
-1.550845724465909825e+03
-1.892382824018557812e+03
-3.144850365663049161e+03
-3.609296476504694056e+03
-3.830708040033920952e+03
-3.674088353437030037e+03
-3.145526188634536993e+03
-2.760013299330012160e+03
-2.305482895426409414e+03
-1.549887901558279964e+03
-1.751229505658687913e+03
-2.339486473164920881e+03
-3.048581444443707824e+03
-3.822609658266156657e+03
-3.664670657667936666e+03
-2.341722152666891361e+03
-3.361805193687734572e+03
-5.629945417906685179e+03
-4.924088241516968992e+03
-3.898164068434313322e+03
-2.787059536968099565e+03
-2.181743289526981243e+03
-2.675208462559433883e+03
-4.119441345825553981e+03
-4.981406913269281176e+03
-3.977083254862594003e+03
-2.546493998728034512e+03
-1.454657125725337210e+03
-4.854784953841638639e+02
5.680966956295136470e+02
3.748087018414950307e+03
5.083577568232361955e+03
3.619540346984646021e+03
3.202937121611493865e+01
-3.584057148010052970e+03
-5.698742742248382456e+03
-6.309023342307827079e+03
-5.559976705091215081e+03
-3.018549234769509894e+03
5.513930602331417958e+02
1.962977436009663961e+03
2.742241196676829986e+03
2.610233146639920506e+03
1.999978023284943220e+03
1.670562481224497787e+03
1.774080805225697532e+03
2.176493485706877436e+03
2.844755403371408192e+03
2.843951896475825379e+03
2.746136917523628199e+03
2.680328451759455675e+03
3.004620844030819626e+03
2.906991882964752222e+03
2.125477045582567371e+03
1.340088274525617180e+03
1.710806245331991249e+03
1.537700312854736694e+03
7.787574063238394046e+02
1.104904023738017713e+03
2.150166065146187520e+03
2.881663301693153699e+03
2.642403992078282045e+03
2.163344768236749132e+03
1.977643390224387076e+03
1.737359585058771472e+03
1.047552287449504092e+03
6.153733303322844677e+02
1.059722481441511491e+03
2.532556974837838879e+03
3.156946153422611587e+03
3.218087406682537221e+03
2.847008555702564990e+03
1.809729709050098563e+03
1.463099290228949769e+02
-9.402869716410392584e+02
-1.431024369038987970e+03
-1.097039056712736510e+03
-8.513899676117092667e+02
-1.220273334379569405e+02
1.326165017058606281e+03
1.758112994240613489e+03
1.792441012242399665e+03
1.247365373318200227e+03
1.417316418293102515e+03
1.619469177342284411e+03
1.582525749836553587e+03
1.732388060775420172e+03
1.321237724271851903e+03
6.840854358727415274e+02
5.838986994386607421e+02
6.775793459157143843e+02
6.361745807438799147e+02
4.125096723313368443e+02
-1.094471208628270915e+03
-2.463792992685708214e+03
-3.367490401013570136e+03
-3.216565536235912532e+03
-2.073121838822077279e+03
-9.311554567818481019e+02
-2.015507199487889238e+02
5.836895272387580462e+02
9.185312483877892191e+02
1.477978603549338004e+03
1.707067357406423071e+03
1.047842542939300074e+03
3.125213576419713135e+01
7.174095872509008132e+02
2.088263063225454061e+03
2.208811066974591995e+03
2.192143137133264645e+03
2.175282556372750150e+03
1.129170625301579548e+03
9.407335919638541100e+02
4.879251246935115773e+02
2.776582540260749852e+02
-2.311283231023585216e+01
-9.423975942590052455e+02
-1.724266385566343388e+03
-1.631770026247444548e+03
-1.306858673229537999e+03
-5.564748615029488974e+02
6.092880367416139507e+02
1.723422880916564054e+03
2.035934760051044350e+03
2.003888130587328305e+03
1.494294944107879473e+03
1.004045172917942295e+03
8.430079887132940257e+02
8.070397847133117466e+02
7.881043617043112590e+02
1.254256220464213129e+03
2.835106658552477938e+02
-2.302168180760860650e+03
-5.753793958149253740e+03
-7.170360936657603816e+03
-7.745864305242723276e+03
-7.736193710568146344e+03
-7.858386371321255865e+03
-8.221687089723171084e+03
-7.818139478693381534e+03
-6.638682910741176784e+03
-3.086014840099881440e+03
-6.451100116275410983e+02
1.497905885049319068e+03
2.224168387236575654e+03
2.109589916229898790e+03
1.955006265467988214e+03
1.321023247960545859e+03
1.283569532189603251e+03
1.279584517925037062e+03
8.401731261937659383e+02
1.074445185680004670e+03
8.764513316178105242e+02
8.822268057488614090e+01
4.669748035538327180e+00
-3.546518542415532949e+01
-8.082674520527212962e+02
-1.144635030425016112e+03
-7.206024022481580005e+02
-2.191456251362592980e+02
1.636808123665857124e+02
8.598207090341095409e+02
2.243240858309785835e+03
2.612833624347890691e+03
2.685673184845866672e+03
2.479781719117361718e+03
2.070056499327122765e+03
1.358593859601418671e+03
1.063524214850085627e+03
1.288909207859133630e+03
1.226561605703696614e+03
1.050518799960536853e+03
1.202957316599300611e+03
1.805844327912644303e+03
1.712067775670677065e+03
9.004530747129173278e+02
2.987600882944672520e+01
-1.168660437427547549e+03
-1.277999971031799760e+03
-2.659244931705358681e+02
7.096043114433058463e+02
1.742526538036304373e+03
2.366930570597987753e+03
2.123820126791194980e+03
1.741234165808286662e+03
2.034094319372856944e+03
2.766363044894942959e+03
2.474739245427834248e+03
2.058194090362186671e+03
1.750890326739511238e+03
-9.742572752429335026e+01
1.445401303205432214e+03
1.223777071661705349e+03
-3.661215324166477671e+02
-1.452287676350758147e+03
-2.029771277308527715e+03
-2.940615839578261784e+03
-3.599785740966915455e+03
-3.225313193230743309e+03
-1.787195310134429292e+03
-6.762865869267795915e+02
4.144431683835728677e+02
1.149770375593203198e+03
1.345613857364183104e+03
-5.273231355272363885e+01
8.097003221087234124e+02
4.205155411349757628e+02
3.325642910627367428e+02
1.823137832820397080e+03
7.403120990135460033e+02
1.262964984971454896e+03
-6.319079197810801816e+02
1.152555861109603939e+03
6.563508644066034776e+02
-2.255229406051863407e+03
-2.885643202487046437e+03
-1.910707291600374219e+03
-1.908487498119444126e+03
-4.513711956097521579e+03
-4.510525709826269122e+03
-3.497395931536330863e+03
8.474039914260288242e+01
-1.384773225924740927e+03
-2.784791501457249979e+03
-1.754874001078954961e+03
-2.895297587123769745e+02
-6.347665564415352719e+02
6.617702781425796275e+02
-8.588016322827014619e+02
-4.127204569389392645e+02
6.488748823956278784e+02
3.282078149950716579e+03
3.227605507201052205e+03
2.666362519271716337e+03
1.175864757901463918e+03
-1.132787518644990996e+03
-1.657182961288554907e+03
-3.126894211593816635e+03
-4.266992679358375426e+03
-4.033736958532815152e+03
-2.277628989399041529e+03
2.367806649839728550e+02
-4.855644592495636402e+02
7.005056484420690595e+02
-1.273922115241075517e+03
-3.197541849972071759e+02
6.820870929308390487e+02
1.010626641062155500e+03
1.254884714768767253e+03
1.829977147258345894e+03
2.656962503175467191e+03
3.308858320776274468e+03
3.273699533943981805e+03
1.970587681456069276e+03
1.062568902888579714e+03
5.146665266338020501e+02
-4.181406293114166601e+02
-7.017983717761131857e+02
-3.483307275761732171e+02
3.842151815779984503e+01
7.795192014546279324e+02
1.518049218858180211e+03
1.656998406965384675e+03
1.826724470207821014e+03
1.946349821462525824e+03
1.836634261261635629e+03
1.574373811182185818e+03
1.608493294257709977e+03
2.181798372569850017e+03
2.448488408225646708e+03
1.695720759483663187e+03
1.192371312168852455e+03
8.024841552198937507e+02
-5.782931549393956772e+01
-9.303045557054707615e+02
-1.650423522323712632e+03
-1.709012670715806507e+03
-1.612211345102133237e+03
-1.150095092510264521e+03
-5.765426718649520126e+02
-5.918321411780018337e+01
6.401584927661439224e+02
1.272063485123599321e+03
1.027606966745796626e+03
1.021887247208430722e+03
9.168234890610966659e+02
6.813624258408659671e+02
1.444182468302806910e+03
1.952475844540290382e+03
2.822367180730517248e+03
2.669253458348248387e+03
2.227221212109691351e+03
1.835027678941574550e+03
4.816244458311528547e+02
-1.107721169778742478e+03
-2.269357962981245691e+03
-2.641455198544747873e+03
-3.030879000515366897e+03
-3.087793771726693649e+03
-3.053974692271097410e+03
-2.335448214818937231e+03
-9.262501484760560970e+02
2.256012086536197501e+02
4.250878677931311245e+02
3.631727405163658773e+02
7.589589538789759615e+01
-1.787692170629950681e+02
2.011588161806733126e+02
-1.063778138511631965e+02
-2.603748200178924321e+02
-4.547906839312642546e+02
-4.495990180443628219e+02
8.661518774321926912e+02
2.154496762735388984e+03
1.889474227505857016e+03
1.502997321248794151e+03
1.744014737198859621e+03
1.216536342548109815e+03
2.235907129063800483e+02
2.571673514327963517e+02
3.343113505030061106e+02
7.260410566903932477e+02
8.034234781364431228e+02
-7.656863043422097803e+01
-1.974022180954652185e+03
-4.252010280221739777e+03
-4.425502347100819861e+03
-4.489526756374239994e+03
-4.493095499002346514e+03
-3.837156821412931095e+03
-3.459693419550159433e+03
-2.991675186130037673e+03
-2.661176426698120395e+03
-2.870267540779708725e+03
-3.058915686563736926e+03
-2.591188162048977119e+03
-1.920304473648594978e+01
-2.369985019564958748e+03
-5.778529090928697769e+03
-5.613730287631117790e+03
-3.296597722340598011e+03
-2.550069075017751402e+03
-3.475193123439852570e+03
-3.209011231204785418e+03
-3.086433807743498164e+03
-3.137488196660727226e+03
-1.442545690256792739e+02
3.809228341704625564e+03
4.490855593080626932e+03
4.075520465102089474e+03
3.872255731497444231e+03
3.742012449499231025e+03
3.486788173510892193e+03
2.748511632892515991e+03
1.859044656611737764e+03
1.686290782720008792e+03
1.009258480043951295e+03
-3.608899059223414696e+01
-1.285837054930807881e+03
-1.986130119065636109e+03
-2.044019226628519618e+03
-2.544388130606153936e+03
-1.767251629799358170e+03
-1.178766026961227908e+03
-1.381001436713822841e+03
-8.509040408492984398e+02
2.265148666313490651e+02
1.017184829235835764e+03
1.636123441827089437e+03
1.760199239419254809e+03
1.340398662653719612e+03
7.077063441189950481e+02
7.340575185185948612e+02
8.104642322518952824e+02
4.288843637309445285e+02
9.672145866891985406e+02
1.303342195299427203e+03
2.902141719923496339e+02
-1.062271922125377870e+02
-1.907597933133569512e+01
1.380741613970074241e+03
4.201371244155409840e+03
6.784878674070296256e+03
7.979273367527400296e+03
6.994515217790116367e+03
5.189640722391696727e+03
3.769655910441970263e+03
2.648457634452463935e+03
1.118011475112099333e+03
-1.077566383556812752e+03
-2.774133419833630342e+03
-4.034726121944465831e+03
-3.422247401946070113e+03
-2.233804358696652343e+03
-3.554459767361336617e+03
-6.190142251472958378e+03
-8.901841230174703014e+03
-7.560600292727878696e+03
-4.559611172002414605e+03
-2.973000745860146708e+03
-1.023949316718169030e+03
3.038671222773161844e+03
6.548025645713417362e+03
7.735121346916841503e+03
6.694075659440956770e+03
3.827934225325048374e+03
1.634683424293551525e+03
1.300373896129884088e+03
1.963921682129988767e+03
3.244252612078362290e+03
4.419429869886937013e+03
4.121450093977119650e+03
3.381369875545802188e+03
3.939296505370803516e+03
4.405243811944683330e+03
5.502160396855661020e+03
6.011023193349885332e+03
5.724865430412412024e+03
5.411620477544207461e+03
3.909239792032361493e+03
2.592861801115821891e+03
1.964554625921748766e+03
3.123847676399740294e+02
9.428659817830720158e+00
6.258203686941420756e+02
1.026623149517631418e+03
-5.321693637579897995e+02
-1.822570961788263730e+03
-3.245023706336581881e+02
1.208196799386366138e+03
1.533471345496049025e+03
1.632610398431940837e+02
-2.770384617499739761e+03
-5.514450556088720987e+03
-6.714861112970807881e+03
-5.937665801627061228e+03
-5.477981709114837940e+03
-6.075887122056591579e+03
-5.075354892516480504e+03
-2.955287579451937745e+03
-2.466057465426022475e+02
1.860771150198919031e+03
4.086866392637920399e+03
2.776683350259032977e+03
3.873834979078086462e+02
-1.698937951952262210e+03
-8.167178313106696805e+03
-1.341123366979464845e+04
-1.391144755807400179e+04
-1.252277548046809898e+04
-1.228108436264579359e+04
-1.279634757554503813e+04
-1.269855669310183475e+04
-1.149961592126558207e+04
-1.001053114466091210e+04
-9.141400822006715316e+03
-6.668299594291628637e+03
-3.397238824968284916e+03
-2.701273785533134742e+03
-3.304373349132677959e+03
6.755556886612748713e+02
5.043664012610490317e+03
4.625834836948058182e+03
3.056182107120297587e+03
3.574728080335917184e+03
3.063366594189197258e+03
7.412899849896328988e+02
-2.239635068619920276e+03
-8.294236753942115683e+03
-1.696085157936417090e+04
-2.303935059672490388e+04
-2.329249026546567620e+04
-2.136638059329248426e+04
-1.877917143477024729e+04
-1.204182092400252077e+04
-5.795119636864400491e+03
-4.827247762815978604e+03
-3.108314218292732676e+03
3.305390505828876485e+03
1.271724090127095769e+04
1.648028032897088997e+04
1.466736645329252497e+04
1.205535814049235705e+04
1.332435885918870918e+04
1.651930247069942197e+04
1.596440356199684538e+04
1.324655049275366400e+04
1.206170889377249659e+04
7.396641588140042586e+03
-1.123596264398680205e+03
-5.394077926856090926e+03
-8.843716210554968711e+03
-6.396409395828484776e+03
3.080690615225787042e+03
1.355066615568978159e+04
2.243449168436085165e+04
2.698200252894161531e+04
2.498501680483561358e+04
2.106534602952354180e+04
1.799919851425440720e+04
1.503443756387452413e+04
1.290729867823858876e+04
1.197553508789200350e+04
1.140106672823969166e+04
1.035598680498094109e+04
9.294327832310180384e+03
8.068991647798289705e+03
6.722908451392226198e+03
5.709988760767307213e+03
4.862195440017029796e+03
3.907551367260162351e+03
3.301038698269487213e+03
2.317626393778303282e+03
5.143340598376954631e+02
-2.079883125012308938e+03
-4.638121366095039775e+03
-6.677483392110341811e+03
-8.132046483314201396e+03
-1.006289787697931206e+04
-7.014018040622784611e+03
-1.488393693322124591e+03
2.169983220374123448e+03
4.284138697847993171e+03
4.759025656860461822e+03
1.785647120892510884e+03
3.669517494673746114e+02
3.878529478011419087e+02
-5.973224431483630497e+02
1.842578212720310376e+02
4.747343644978328570e+01
1.711304270682435799e+03
-1.872397767355600422e+02
4.208477400570841382e+02
-5.514951843517768566e+02
-3.398277562672377826e+03
-6.723534832241342883e+03
-7.128320512318609872e+03
-4.898643080969128278e+03
-6.162610774724391376e+03
-5.973254144365715547e+03
-4.415415520202063817e+03
-3.541041916105713881e+03
-2.911035775518183073e+03
-3.889387679682010003e+03
-3.904184280990715251e+03
-5.480399729910336646e+03
-5.019142725651988258e+03
-4.378287538149294960e+03
-6.357849411235049956e+03
-8.399824677857592178e+03
-5.568152699454361027e+03
-4.511813376592912391e+03
-3.560778888532635392e+03
-2.107067351903362578e+03
-3.083595342879183590e+03
-2.019364997999817888e+03
-1.716345642603212355e+03
-1.685573643207510258e+03
-1.455106494556620646e+03
-9.929549056054381708e+02
-4.550013557319792881e+02
1.948590400497246549e+02
5.577178682223863007e+02
8.146543619499237820e+02
8.386863038601483140e+02
5.449325405001546869e+02
-7.549762465520667831e+01
-6.585575353441449806e+02
-7.782488469934306750e+02
-9.216866967581104291e+02
-1.250819933743519641e+03
-1.670475567075909112e+03
-1.822560528088401043e+03
-1.847052587852905162e+03
-2.377814054371682687e+03
-3.484734654691438664e+03
-3.891795616929148764e+03
-4.138920806462148903e+03
-3.977185735946648947e+03
-3.877538696589189840e+03
-3.842761805289987478e+03
-3.214471218485521604e+03
-2.405436165563317900e+03
-2.111702922002207288e+03
-2.237177604893756325e+03
-2.389709152781723787e+03
-3.223247734754166231e+03
-3.359654173167542467e+03
-3.916998754985625965e+03
-4.475241387132738055e+03
-4.439218959139723665e+03
-4.385822692463652857e+03
-4.605035310101317918e+03
-5.843889389170414688e+03
-7.479770657119272073e+03
-8.513658617160965150e+03
-8.937866510198457036e+03
-8.174613169608543103e+03
-7.839726883206760249e+03
-7.457796986524216663e+03
-5.978775139071591184e+03
-4.512534483185851968e+03
-2.893969846349491036e+03
-7.232017409367672371e+02
8.399525530568790828e+02
1.500644884667728547e+03
1.573944941705105748e+03
1.148894437446695747e+03
1.246515880140250829e+03
1.928860796100753760e+03
2.630971449759938878e+03
2.982981261787117091e+03
3.893948969252603547e+03
5.351045000466170677e+03
6.160350990472968078e+03
5.994963285684312723e+03
5.278920043128367070e+03
5.487243210934213494e+03
5.383032439047091430e+03
5.354228348523188288e+03
5.883882859847446525e+03
6.653150025024749084e+03
7.839080249548080246e+03
8.830666706480878929e+03
9.532970861794292432e+03
9.800090868546305501e+03
1.004113741267414844e+04
1.079817026429912403e+04
1.113225074121604848e+04
1.133130674808938784e+04
1.134534614905784838e+04
1.120741861932276333e+04
1.014549602077558484e+04
9.060620000308364979e+03
7.962925955443759449e+03
5.791438527730071655e+03
3.672132662226075809e+03
3.002883037153992063e+03
2.740537169955160607e+03
2.663041031876993202e+03
2.489492799057338289e+03
3.146085713734611545e+03
4.320944528080470263e+03
5.161079955661904933e+03
4.209490941812866367e+03
2.466284704203479578e+03
5.555711845543484060e+02
-7.116822041085264345e+02
-1.075148470923421087e+02
-1.741433737098213044e+02
-1.231713597484000275e+03
-1.797044550340758633e+03
-1.397000714796677812e+03
-3.105833637767539699e+02
1.776923321300891075e+03
2.279274833861925345e+03
6.074620058723575085e+02
-9.276214568274480143e+02
-1.459294651551951574e+03
-2.250676075215702895e+03
-2.357667827981906612e+03
-1.390122079832735608e+03
-4.608779138964862341e+02
7.610109192057794871e+02
1.678401571158955676e+03
1.094195576820387032e+03
2.302582726724079123e+02
-4.935172199223551388e+02
-8.130988842858790804e+02
-8.695985211030058508e+02
-6.762283486625758542e+02
-5.780842248971313211e+02
-8.593125866653343792e+02
-1.051890919608443937e+03
-2.100847532609912378e+03
-3.442312069194852484e+03
-4.435260012337677836e+03
-5.412782047227322437e+03
-6.480000902646465875e+03
-7.519976370673919519e+03
-7.871885280996302754e+03
-7.534869418337319985e+03
-7.068981642156642010e+03
-7.443152526761037734e+03
-7.399469726255981186e+03
-5.065212547064170394e+03
-2.665503195090531790e+03
-1.601358017937672912e+03
-8.836863540520688503e+02
-4.764802645976889721e+02
6.611598028068543442e+01
6.918485795644668315e+02
8.044872390086338783e+02
-3.520261622870353904e+02
-1.504739370834029614e+03
-2.215869089651474496e+03
-3.349647708739601967e+03
-4.336307007566148059e+03
-4.958964790982107843e+03
-5.504820886432856241e+03
-5.381716170044841419e+03
-4.495605486012845176e+03
-2.214533680225300941e+03
-1.821416598951971935e+02
8.944945507960889017e+02
7.949484652955073898e+02
4.649987280955380697e+02
3.027514846959796841e+02
2.702514991816390761e+02
7.781313167692974275e+02
1.170106758616995421e+03
1.158041550668131322e+03
1.338840226242820563e+03
1.224226098374837875e+03
3.780229218009657757e+02
-5.846959063342384297e+02
-1.124904914296697825e+03
-1.792086733724987198e+03
-2.026442435663267588e+03
-2.155813793382655604e+03
-1.843152835785104116e+03
-1.078624764439734690e+03
-2.181622557315917561e+02
6.383477596097220612e+02
1.279957310026280311e+03
1.356957995121251315e+03
9.546636723384507377e+02
7.749814952226390687e+02
1.072387328971526586e+03
1.242602826799931563e+03
1.230428693400280281e+03
1.055338890926199838e+03
9.372014967342443015e+02
6.812955409195712946e+02
-9.749847610951837851e+01
-8.696676696021354473e+02
-1.381609028860211538e+03
-1.180038456686683048e+03
-1.877566585132409955e+03
-2.916151253752911543e+03
-2.952072890872783319e+03
-2.824558861630914180e+03
-1.909257516186149587e+03
4.000898335181756238e+01
1.788154626285078393e+03
2.541550267048457044e+03
2.137646548085452650e+03
1.912267290024177555e+03
2.020396634521047872e+03
1.978542982977014844e+03
2.214959946571091677e+03
2.615349517533206836e+03
2.652672671674551566e+03
2.585171284978361200e+03
1.745395536181251146e+03
7.845531764213458246e+02
2.777235069316314480e+02
-1.530739288790192063e+02
-6.408590176537176148e+02
-1.601679468150595540e+03
-1.546539598030678007e+03
-5.012962752596856717e+02
4.221438714609391241e+02
1.609884265098476590e+03
2.373016119682966291e+03
2.636589411656906123e+03
2.170678517049001584e+03
1.935389691703474682e+03
1.881712109346475017e+03
1.953709787860815140e+03
2.468477031839138363e+03
2.981132935482366975e+03
2.793794258960124353e+03
2.485526590658050281e+03
1.494341876994737277e+03
3.903599754589777717e+02
-3.377794068433421444e+02
-7.703094635575313305e+02
-8.181464757332703357e+02
-1.432263130988136027e+03
-1.520639014654905850e+03
-1.338789410390274497e+03
-2.287483050542353340e+03
3.723257044164184890e+02
1.755434939095395521e+03
2.070977340607568294e+03
1.737072892668763643e+03
1.437501321393456465e+03
1.325768022774389237e+03
1.135581443402285004e+03
1.146146076386640971e+03
1.322628452318054315e+03
1.199165278926648170e+03
1.134747554773849970e+03
-7.288209429960527075e+01
-1.933692493579446591e+03
-2.979287394808062800e+03
-3.362970962477055309e+03
-2.621566058765228263e+03
-1.813193668071791535e+03
-9.307570245126821646e+02
3.579378501699977733e+02
8.809259032583206590e+02
2.151030510432541632e+03
2.928597875009097606e+03
3.674687400624247402e+03
3.896455591729219577e+03
3.463642631849852023e+03
3.061247344602711109e+03
2.592458604743294018e+03
2.696885877561271627e+03
2.701886345502247877e+03
2.816397142211040773e+03
2.848424701594489306e+03
2.636000632193944512e+03
1.724161008664258361e+03
7.648667429952794237e+02
1.231207502785668453e+02
-3.731183476065747868e+02
-6.298523685106089260e+02
-7.230122534675714405e+02
-6.705468190825974943e+02
2.896543570610052143e+02
1.276691416361068605e+03
1.861598678414966798e+03
1.722402546877997793e+03
1.717109095995420603e+03
1.653808938500078057e+03
1.695487287588781328e+03
1.738139021760420746e+03
1.835722143526016907e+03
1.737261241635282659e+03
1.811812639385516150e+03
1.969403693602559315e+03
3.280242411800294349e+02
-2.538366883150082685e+03
-5.518748210712711625e+03
-6.592116806462652676e+03
-6.937512160677871179e+03
-7.315949009335638038e+03
-7.633382502122188271e+03
-7.066787655807287592e+03
-6.054189877811138103e+03
-4.162513491681723281e+03
-3.831738329240280564e+03
-4.178690027278464186e+03
-4.163371374407975054e+03
-3.918794580430414953e+03
-3.897006040456543360e+03
-2.822032091093641611e+03
6.852040254669241222e+02
2.144711318964888051e+03
1.741431828123962077e+03
-4.586275400732893672e+02
-3.444491849917757008e+03
-4.547158656590358987e+03
-5.337636996522401205e+03
-5.934052176016211888e+03
-6.677458817316853128e+03
-6.808922482884702731e+03
-3.444536240341295525e+03
-1.197287167905282104e+03
2.399068276895896190e+02
1.609131262077658903e+03
2.517455186858667730e+03
3.044909155039377765e+03
2.457381387766324224e+03
2.074863312329448945e+03
1.964372679648753774e+03
2.515851893009653850e+03
2.672189063568702750e+03
2.669371922708020975e+03
2.555543361620208088e+03
2.379786442664975311e+03
2.086013729568361214e+03
1.421276254999681669e+03
4.215471599466536077e+02
-3.222499097727672961e+02
-4.931648573104520779e+02
-7.532870978328242018e+02
-1.011571660914698100e+03
-6.309244102673716270e+02
3.327536031345269407e+02
1.133506161596739730e+03
2.061234915669778729e+03
2.301967002513263651e+03
2.282830826579639051e+03
1.938854367085884405e+03
1.717997210663965916e+03
1.547317956949259724e+03
1.314787755273159519e+03
1.563469779059536222e+03
1.768488763523918806e+03
1.704916151044513754e+03
1.462644580491997885e+03
7.376260598937778923e+02
8.302830625108809670e+01
-4.940691286475374113e+02
-8.289053833217657257e+02
-1.158579842545985002e+03
-1.594226541127952942e+03
-1.339549431918810569e+03
-5.382927354563685185e+02
2.515636032542877842e+02
1.066199313436553211e+03
1.357599491992125195e+03
9.414888741160541485e+02
6.358336199258505985e+02
6.489298389660825706e+02
3.337190165393178063e+02
8.250848507032183079e+02
1.111914919095939922e+03
1.142575519057385463e+03
1.316306461975163757e+03
9.418120711639880938e+02
-3.104606465549560657e+00
-9.564598994139300885e+02
-1.745286734743183843e+03
-2.238711740449222816e+03
-2.770791427102069974e+03
-2.869561377870369597e+03
-2.260040209329205936e+03
-1.419080765892068939e+03
-5.855790559208954846e+02
5.134751313864423992e+02
7.651497550162912376e+02
5.965396246597614436e+02
2.126591879889926417e+02
-2.655789690026182939e+02
2.567538666991276273e+02
9.074891421934727305e+02
1.014788405600747978e+03
1.203865013841473001e+03
1.258711379763966534e+03
1.408194731614885768e+03
6.182250002021937689e+02
-3.232803870655826586e+02
-1.078417166344163888e+03
-1.465159644077647954e+03
-1.888383826021846744e+03
-2.356085392511681221e+03
-2.334344610872582962e+03
-2.085322123315428598e+03
-1.578998758059025249e+03
-1.433257238389520296e+02
9.637215492450171723e+02
1.234113043531280027e+03
6.427767490672675876e+02
3.227594417807110858e+02
5.141168018904411383e+02
4.629432542102327375e+02
7.352108049673718142e+02
1.050820518824654528e+03
1.060787734492504569e+03
9.601893596679000211e+02
2.260882148144035000e+02
-7.776080085854860044e+02
-1.707066232157207878e+03
-2.401349049047154040e+03
-2.816591083621149210e+03
-3.307995588202393719e+03
-4.104637212748583806e+03
-4.548333009166360171e+03
-3.085910297716653986e+03
1.065975984833887509e+02
1.009149287392188512e+03
9.696809946003320420e+02
1.141218408326591089e+03
1.059810444485649214e+03
6.384659061063481431e+02
6.501576864016826676e+02
7.169746902071671002e+02
9.879156597049825450e+02
1.239869384108081476e+03
1.504777623497761169e+03
4.146843020555071462e+02
-8.404507852558585910e+02
-1.631750091793416004e+03
-1.846211190457188650e+03
-1.996842769101552221e+03
-2.037594791576189891e+03
-1.743467787266682308e+03
-9.985392069619792892e+02
3.341950688845451509e+02
1.077801517910981374e+03
1.695295774323658179e+03
1.959725219167728710e+03
1.613149197772515436e+03
1.429536546850587229e+03
1.063784446575086804e+03
7.509441996146686051e+02
3.680356462491741354e+02
3.480196428262630093e+02
4.138470603772244090e+02
4.464728340817524668e+02
-2.160332427522833427e+02
-7.386017912836416599e+02
-1.718298212547475032e+03
-1.601170188058536951e+03
-1.744341519645787912e+03
-2.000889605464640681e+03
-1.732815278972205988e+03
-1.145067801704602743e+03
-1.595636230128099520e+00
1.079653474197422383e+03
1.898783816859018543e+03
1.824847456052405505e+03
1.389812122342531666e+03
1.133640931902247303e+03
1.089217878218032183e+03
1.612527820220455396e+03
1.811674644179255665e+03
2.715715810903463534e+03
2.930712082745169027e+03
2.646620427633954932e+03
2.005418594584290304e+03
7.861899092767470165e+02
-4.175281075817202314e+00
-5.488153813764085953e+02
-8.407267611178851894e+02
-9.928473279585907676e+02
-1.030154646062428128e+03
-6.846143543047061257e+02
3.208146616317948769e+02
1.010164263472613129e+03
1.552425478609980019e+03
1.656593652752668504e+03
1.346639710746173023e+03
1.306552365845109307e+03
1.511373629139346804e+03
1.494142180606332204e+03
1.586911421584675509e+03
1.682675079621863915e+03
1.890396558280923500e+03
1.982038974700302333e+03
8.985754548443762815e+02
-2.450869954316301119e+03
-4.766311712636865195e+03
-4.014768664584797534e+03
-1.674149010029844931e+03
-3.668762405003625190e+03
-3.051397596312764563e+03
-2.178919163358254082e+03
-2.745371588197245728e+03
-8.858339423767092740e+02
-8.202467704426494493e+02
-3.035575582729131838e+02
-6.108126129610405997e+02
-1.158962342897185181e+03
1.369688540025686621e+02
6.938967430079320593e+02
-2.631056532170604896e+03
-2.217554474071374955e+02
-3.631543808431111415e+02
1.044719368037251115e+03
4.277036773277466750e+02
-1.456281228328592078e+03
-6.822207759715359998e+02
-1.783174540670960823e+03
-4.235129895652963569e+03
-2.505195971872131395e+03
-3.151345100984871806e+03
-2.893517838997597210e+03
-1.177627909852359608e+03
-9.056293105437431450e+02
1.947491019048703038e+03
3.597613934650011629e+02
3.861956737522609728e+02
1.399872011141466828e+03
1.708742897076110694e+03
1.889652559587154201e+03
2.516551629888940624e+03
2.728512072057942078e+03
2.899615115949481606e+03
2.438869288434054397e+03
1.256278108496064078e+03
3.308305093435918138e+02
-7.204239823390885249e+02
-1.235512644060207322e+03
-1.301560384910601215e+03
-1.365679379446539770e+03
-9.598919246819724549e+02
-7.191039721023502125e+02
3.587662894138698562e+02
1.056755301899464712e+03
1.863889190129570125e+03
2.185163731788228688e+03
2.086560012693605586e+03
1.680052351619540104e+03
1.948534639777441498e+03
2.066911530781333568e+03
1.917447325936239849e+03
1.866403774176516663e+03
1.654876707133814989e+03
1.450780094346335090e+03
1.268069862741356701e+03
