4.751840498787628349e+03
3.518422862986025848e+03
2.759704075417580952e+03
1.950649860974316425e+03
1.385200157749254913e+03
4.993994174408365438e+02
-8.216880205875442016e+02
-2.282103389699221225e+03
-3.483860624030028248e+03
-3.398981980799166195e+03
-1.536545840551407537e+03
-2.045443965526950478e+02
6.031121578827171561e+02
2.442463722966355817e+03
4.710528345388793241e+03
5.236305025985516295e+03
5.005846807515721594e+03
4.447197381081827189e+03
3.750401802859572854e+03
2.603447834007538404e+03
1.907295184881082832e+03
1.765899245031308737e+03
8.221811185652398990e+02
-2.078451520849152132e+02
3.087833853336245511e+02
7.130557152929416134e+02
4.493061840292715914e+01
-5.916117824668094727e+02
-1.135543521081991457e+03
-1.369911670573214451e+03
-1.810754540528288089e+03
-1.561081193714110668e+03
-1.277834686773119302e+03
-9.218548958861032361e+02
-4.311200317203347367e+02
-1.406651090739455867e+02
3.375214484900662910e+02
7.946015511732404093e+02
5.966645243348193617e+02
5.292397577256897421e+02
2.951622501615009355e+02
8.162679366311549245e+01
4.550448927227989202e+02
3.513146272822783089e+01
-5.584331086071772461e+02
-9.966083551844267276e+02
-1.693415425466376973e+03
-1.815899158334513231e+03
-1.652066205502101411e+03
-1.776922324849749884e+03
-1.657547058267021612e+03
-1.489999164507001979e+03
-1.507188231685393475e+03
-8.141422076479454972e+02
4.071057966785342046e+02
9.495965025213897661e+02
7.923829182803193589e+02
9.874823844292794774e+02
1.427851943066133344e+03
1.857457527512678780e+03
1.858287895769259876e+03
1.257299552778524458e+03
9.104430060187017943e+02
4.526620844765545826e+02
-2.250649184839244299e+02
-8.167492084643171211e+02
-1.596438278527773491e+03
-2.512198269645692108e+03
-2.243096676327480054e+03
-1.939124320382418318e+03
-2.200275828366352016e+03
-2.273545751044804547e+03
-2.407025486308355539e+03
-1.427715516934182233e+03
6.684684868745333688e+02
2.029571876860585235e+03
2.400569256141363894e+03
2.014448201516261406e+03
1.487127573166000957e+03
1.666577308539137221e+03
1.665818277840319752e+03
1.063846187218534169e+03
-2.134069807253524687e+02
-7.750018298718759979e+02
-9.410076366574749045e+02
-7.494339722122240346e+02
-1.034359605704896239e+03
-1.369834507576833175e+03
-1.617908666959321408e+03
-1.708543614231155971e+03
-1.153749605607030844e+03
-9.145975539804221626e+02
-2.441273542051515619e+02
2.968906004185834036e+01
8.818636684496239013e+02
1.561408293297477030e+03
1.930344835044993715e+03
2.176666788628256654e+03
2.493397578524640721e+03
2.749483485456760263e+03
2.663894527071990069e+03
1.896582250745491137e+03
1.095578486880986247e+03
2.777662581710856671e+02
-3.448895636717625734e+02
-1.274179534846890647e+02
-4.728221970367375775e+02
-1.233209617233403151e+03
-1.525627511524465945e+03
-1.451093627021364455e+03
-1.059572198665251108e+03
-5.139414343791530655e+02
-1.890855911373938625e+02
7.199283145014648255e+01
1.207283189607230725e+03
1.700774649562149534e+03
1.784418778683160781e+03
1.768231390550040032e+03
1.513231256827518109e+03
1.567395989266201468e+03
2.033693521092130140e+03
1.489102844689490894e+03
6.115865482941102300e+02
-2.179210133845787709e+02
-7.583638916265490479e+02
-5.700526727092374131e+02
-6.581599172218739113e+02
-1.149336613617532976e+03
-9.337073700489901285e+02
-5.671924887576927858e+02
-1.070878176584489665e+03
-9.737553701558168768e+02
-7.828177019098465053e+02
-2.010981915265132258e+01
8.693149325215752015e+02
1.797416286414475053e+03
2.331219439146527748e+03
2.207811775858545843e+03
3.021126424078482160e+03
3.190237418950223855e+03
2.701806099478737451e+03
1.482518251172546115e+03
3.248184912059746239e+02
-7.182836605059281965e+02
-1.091003630138476865e+03
-9.184312873266819679e+02
-9.205079725750846364e+02
-4.433109886564563453e+02
-3.439339080640612565e+02
-5.473645606601734244e+02
1.464074420855390599e+02
9.414790609642742538e+02
1.372897510545094747e+03
1.238612555160320653e+03
-7.324753654690708800e+02
-7.473827750701486821e+02
1.046818617613852211e+03
8.081127535669329518e+02
3.236554501196746969e+03
1.809216268148159543e+03
-1.140834380479747551e+03
2.097384320433925495e+03
-5.509864428582014284e+01
8.167405722664109362e+02
2.937889422622751567e+02
-2.552065593233416166e+03
-3.614879246303483342e+03
-2.520643827233703632e+03
-1.735348316968923882e+03
-3.032999942847704006e+03
-3.244683111994027968e+03
-2.828308404112486642e+03
-6.897347362038127585e+02
7.710100322515015705e+02
-2.114119399073636941e+03
-2.581087648972162697e+03
1.761673702367578187e+02
4.347211651117272595e+02
9.206842092288110280e+02
1.848161220725287421e+03
1.114051812148137742e+03
2.202365089552438349e+03
-1.253966395442620069e+03
-2.069103107984540657e+03
-2.263124738458898719e+03
-6.329610960543270721e+02
-1.999560493391439195e+03
-4.121876756850751917e+03
-1.925841188662401464e+03
-3.887491207619231318e+03
-6.659337448169818572e+02
-1.216088374752961727e+03
-1.290932112706492262e+03
6.885674500499036412e+02
1.003445602208168680e+03
1.640668599990457096e+03
2.360203207184864368e+03
1.245075569405715669e+03
8.413517689479058390e+02
2.606190566430152558e+03
2.837728261341743291e+03
1.325992659693022006e+03
-1.432946403587111035e+03
-1.198048074916104952e+03
7.886829507030120112e+02
4.462224555221101241e+02
7.651556322363201446e+01
-6.973453388692286126e+02
-7.182472817453575544e+02
-1.902018796331370822e+02
2.496449219507370003e+02
1.422014080759092849e+02
-3.441961709662597180e+00
6.135325072704365539e+02
9.180953449583298607e+02
1.788592777626985935e+03
2.568184640214407409e+03
2.665042936118972193e+03
2.174201499064277414e+03
2.172470399287330565e+03
2.260865827902548972e+03
1.927530118777865027e+03
1.251409528908845459e+03
8.143361879287817828e+02
5.983256426454026951e+02
-1.183704428352491931e+02
-7.016883469048070765e+02
-1.419520751777657551e+03
-1.512839869055282861e+03
-1.561737580590980087e+03
-1.660425602895707470e+03
-1.547763046695005414e+03
-1.236511717490721139e+03
-8.346244839453596569e+02
-4.025621047819792864e+01
4.635447248909769087e+02
7.587626619901041067e+02
9.476214921031527183e+02
1.294078082511796765e+03
1.736215395453399879e+03
2.091168061109602604e+03
2.100872259748457509e+03
1.842365925489770007e+03
6.858785847935498623e+02
-7.762047198725321095e+01
-4.317832053632334919e+02
-7.424917343987373215e+02
-1.250017777329750970e+03
-1.717282457541821486e+03
-1.657041237399539114e+03
-1.501028653840395691e+03
-1.288517790251883071e+03
-1.082000842597435621e+03
-3.173893536765991144e+02
7.343923511873130110e+02
1.483395514207725228e+03
2.032744667066662714e+03
2.483547271961861043e+03
2.349736393688047428e+03
1.983333990734399777e+03
1.055470183251337630e+03
4.991422652212244770e+02
4.702598677206249249e+02
2.297512196510007527e+02
-4.163244095518887775e+02
-7.649130240949745030e+02
-1.300117483966622331e+03
-2.306094558960000541e+03
-2.706761600035206357e+03
-2.965843280594762291e+03
-2.742233571869434400e+03
-2.798075191007535977e+03
-2.296613626727692917e+03
-1.618443907457509795e+03
-5.122401840604165955e+02
5.205771748288694880e+02
1.686875840553749867e+03
2.380689029896167085e+03
2.264219104314350261e+03
2.117659053788422170e+03
2.059677002049793828e+03
1.486719090730736298e+03
7.476267340522625773e+02
1.876551557629947524e+02
2.710317512379076987e+01
-3.728649890208426427e+02
-1.178428845481722647e+03
-1.767549501926612265e+03
-2.363334966934356089e+03
-2.523123357600324653e+03
-3.925868745630941248e+03
-6.245409390845914459e+03
-6.806809010244257479e+03
-6.233051257938924209e+03
-2.245010323409632747e+03
-7.656009631266104520e+01
-2.367623377061297560e+03
-2.961214590071684597e+03
1.320726224066382656e+03
1.700398222481078392e+03
1.833834781160609509e+03
1.924949736202299846e+03
1.439140439027415368e+03
8.511562550579714070e+02
5.174197821474717784e+02
5.063683502719589455e+02
-1.188186585742657684e+02
-9.024703823301956618e+02
-9.103780525341802559e+02
-1.005837031791770414e+03
-1.137708837760780852e+03
-1.035145027983277259e+03
-6.622867294726607952e+02
2.130184709975842168e+02
8.981015794905285929e+02
1.523994048775507054e+03
2.052061994190800760e+03
2.483854101810113661e+03
3.035927420873650590e+03
2.760164244571060863e+03
2.438456013896102377e+03
2.217546291849218505e+03
2.135353407761094786e+03
1.624775497554887352e+03
6.178641935139795578e+02
1.955584821809299356e+01
-3.738851126317648550e+02
-3.200797103350768680e+02
-8.223529638256036378e+02
-1.492713319740654015e+03
-1.601648503660221877e+03
-4.885123558692877168e+02
1.099524788624699028e+02
5.563301995153185544e+02
1.020570773852221691e+03
1.215737115786753975e+03
1.894137321590102147e+03
2.803120657585686786e+03
3.019108086203578750e+03
3.596536525706086195e+03
3.650937104089847253e+03
3.452059651179276898e+03
3.051248170545707580e+03
2.400563478335550371e+03
1.370151107377739436e+03
8.126563886598358977e+02
4.910808296704474856e+02
-3.845590221774311317e+02
-1.257895628945423141e+03
-1.266309773493242574e+03
-6.183983445339850959e+02
-1.573123537355684931e+01
2.350044158578132283e+02
3.691262991176292729e+01
7.933175399294699446e+02
1.835126884009669766e+03
2.167517984293067457e+03
2.538288505873594659e+03
3.361941395420789831e+03
3.403026348397509082e+03
3.348838351232044715e+03
2.962815068693054400e+03
2.939440322570728767e+03
2.251408084777107433e+03
9.568446021548957106e+02
-7.508325276857755171e+02
-3.111541074014742208e+03
-6.293647500397687509e+03
-7.140717353901196475e+03
-6.980648253177978404e+03
-6.630260327795682315e+03
-5.900313499693961603e+03
-5.529824417657455342e+03
-4.960601427695043640e+03
-4.200829597368212490e+03
-3.846036812874150201e+03
-3.125878586510587866e+03
-2.866014925767913610e+03
-2.715087028435011689e+03
-2.387818180239036337e+03
-3.452061467439422699e+02
8.845598776638136087e+02
-2.196745878395422551e+03
-3.712879139950711306e+03
-4.292479742563651598e+03
-4.652606695842730915e+03
-5.073456610337746497e+03
-5.210121849989378461e+03
-5.212359212465637029e+03
-5.225138133700449544e+03
-5.231456923816313065e+03
-5.205021623231799822e+03
-5.127194599772670699e+03
-4.454258609596711722e+03
-4.046865583177911049e+03
-1.209880813770859504e+03
-4.925214703526550579e+02
-2.306825435384720549e+03
3.463910222891693138e+02
2.736221413731504981e+03
3.226762252375967364e+03
2.967000367816840026e+03
2.745953397826852779e+03
2.276643907333309926e+03
1.591761509362405604e+03
8.344010299367032530e+02
5.765120959846181137e+01
1.464213199073657847e+02
9.277010437057226682e+02
1.928620667093335669e+03
2.101478185908821615e+03
1.865229314554396524e+03
1.977444606905298997e+03
2.016235388201237356e+03
2.039002033716445339e+03
2.651157114339931468e+03
3.507093172430797495e+03
4.022335239569602436e+03
4.371472501180175641e+03
4.978107284599422201e+03
4.905511020835761883e+03
4.629736351587947865e+03
4.045910932917340688e+03
3.444026327586356274e+03
2.839064109900379208e+03
2.014799523181013683e+03
1.374314978000294104e+03
5.325265654653720730e+02
3.963751126798932773e+02
5.564922217001414992e+02
5.309717051139359683e+02
3.175561361311170003e+02
1.598401013222107565e+02
6.553239978187598354e+02
1.351290273125913473e+03
2.413776499825438805e+03
2.880240010731179154e+03
3.131050415316790350e+03
3.122164986313714962e+03
3.670979384508265866e+03
3.525507340409720200e+03
3.650532692397504889e+03
3.628556993981114829e+03
3.331839535041890031e+03
3.092544948856925657e+03
2.925703289087323810e+03
2.234622184614021990e+03
1.755282111974998088e+03
9.587109502739806430e+02
3.810821331451236915e+02
-9.502250753314142173e+01
-7.405142592331608284e+02
-2.096027540172779595e+02
5.884845615074662817e+01
-5.506738904358056885e+01
1.303949220816397201e+02
4.638860527302430796e+02
3.338417099991241344e+02
4.443758501806613026e+02
7.713907986179942782e+02
1.212625694474530292e+03
1.508927356118326770e+03
8.133426064171301277e+02
2.998182526415366169e+02
5.934587293018576020e+02
9.251053332148222808e+02
1.371674494498182639e+03
1.126215814960751686e+03
1.366785187110815514e+03
6.422745054483165177e+02
-1.548543255293770699e+03
-1.719706743924895818e+03
-1.332279781184489821e+03
-1.112183072593329371e+03
4.660806193913228590e+00
6.891544682266224982e+02
1.032056159929999467e+03
1.850290137744387266e+03
2.319842016986241561e+03
1.084792415439010483e+03
-5.957800816747496810e+02
-1.197923333626294607e+03
-2.138639549630792771e+03
-1.868048088632015606e+03
-2.202263483708983131e+03
-1.673217042646746222e+03
-2.469790200948636993e+03
-4.368912033014295957e+03
-4.552780010888945981e+03
-3.820553307422507260e+03
-4.756270982193002965e+03
-5.429909644781568204e+03
-6.407428009322912658e+03
-7.424744604122347482e+03
-7.179873984772901167e+03
-6.984858160778352612e+03
-4.510599496708015067e+03
-3.296091650725919408e+03
-4.359315564769890443e+03
8.729414188048358483e+02
5.452721562748155520e+03
5.111684744102940385e+03
6.647116853052389160e+03
4.679226301013267403e+03
2.681913201019954158e+03
3.052964689937898584e+03
5.904315691303347194e+03
7.506059290767042512e+03
6.789333526918348070e+03
6.003211900127987064e+03
5.182741036606935268e+03
4.717918486579851560e+03
5.024869004106001739e+03
5.307538805897227576e+03
4.501682778928643529e+03
4.016392845586131443e+03
5.025011224176508222e+03
6.403755006181624594e+03
6.326629473076931390e+03
4.391669003129104567e+03
2.232856417346817125e+03
1.832143358538015434e+02
-2.629204424698850289e+03
-6.218333095495907401e+03
-9.773022572731702894e+03
-1.060713119788623408e+04
-8.534532597377035927e+03
-6.819205571829209475e+03
-9.793144214088399167e+03
-8.497334835589155773e+03
-2.451716631420300473e+03
-1.069211776814839823e+03
-1.920788562269978684e+03
-2.181340736394040050e+03
1.126286176447501020e+03
7.388347297454101863e+03
1.047394316613500632e+04
8.264163596992564635e+03
3.298284869398222781e+03
-4.506684383444926425e+02
-8.706804335463619964e+02
1.154300698841009762e+03
1.608485000959117087e+03
2.687140024040199478e+03
3.526189115866708562e+03
-4.428772888110198980e-01
-3.491688858651956252e+03
-5.142368293123367948e+03
-8.146084565356268286e+03
-1.130475192897027773e+04
-1.328141271512127423e+04
-1.455912440741895080e+04
-1.482659207632630387e+04
-1.547778393818773839e+04
-1.532879234946830729e+04
-1.131351210702683420e+04
-6.296572795906034116e+03
-1.127796499498918138e+03
-2.998272486945376841e+03
-9.333965683721009555e+03
-1.054085988813228869e+04
-5.039909868200691562e+03
4.774012058857295415e+03
1.336294520953267966e+04
1.338294714546682371e+04
9.284033247961207962e+03
7.321257304329296858e+03
3.793647916806667126e+03
-3.080747751302493270e+03
-1.026782430588050192e+04
-1.411453021860658191e+04
-1.811486770779739891e+04
-1.764474477537743951e+04
-9.177194911470562147e+03
-5.275130527539630748e+03
-1.534461762773205237e+03
1.763917158944596395e+03
2.141035002801019345e+03
1.634966890225236511e+03
-6.602697027080955650e+02
-3.020555462175519096e+03
-5.511802753993194528e+03
-4.471997303010456562e+03
2.105887612029612228e+03
6.324782260762697661e+03
1.192584452891308865e+04
1.376823808484985420e+04
1.303186066802910864e+04
1.588731992404612902e+04
1.287959064809684787e+04
7.605619497802138540e+03
1.566347897292747348e+03
-8.291244325539490774e+02
1.166269735315317575e+03
-5.486547817441110055e+03
-8.690670159814508224e+03
-4.412192048506011815e+03
-2.132049366399229712e+03
6.440762585358618708e+03
1.810324111529537913e+04
2.070936884246001136e+04
1.908512746595224235e+04
1.731341281682504268e+04
1.622413487163086575e+04
2.014530042601024979e+04
2.038881937827734873e+04
1.165055428401554855e+04
7.487366143397643100e+03
6.690134383401526975e+03
6.922767674662509307e+03
1.189827666686639532e+04
1.711947999044790777e+04
1.169124956150535763e+04
1.116564229345837475e+03
-6.362662294849135833e+03
-8.542575782161373354e+03
-7.599242026759809050e+03
-1.867353381541570059e+02
2.468898759298887398e+03
4.676334229124533408e+02
-1.201710827985426477e+03
2.892810771136428230e+03
9.569063816876983765e+03
1.304495967871954781e+04
9.284726508207490042e+03
5.500174122027289741e+03
2.923047292685388129e+03
3.984135065372528970e+03
4.259299837808801385e+03
6.694375870820672390e+03
6.645243745744412990e+03
-1.958247911589233809e+03
-8.216243176769843558e+03
-1.131086291076392808e+04
-1.176319577803893299e+04
-9.410335874686792522e+03
-7.048366219044398349e+03
-7.160574390096544448e+03
-1.037935997382056121e+04
-1.179247453572945960e+04
-9.386915580761160527e+03
-6.864896254605480863e+03
-6.719584930643394728e+03
-9.413082854652009701e+03
-9.189617850044560328e+03
-8.785352413880653330e+03
-7.911434095515522131e+03
-2.483007528861219271e+03
-8.811978094296160862e+02
-3.632182927526882395e+03
-3.184145941727197169e+03
1.668531004781332001e+02
3.375954043257848980e+02
-1.185224256555010925e+03
-1.922421580377611008e+03
-2.146257065811763368e+03
-1.545775417211550348e+03
-7.081685888963485240e+02
9.634734258174920569e+02
3.051986310983399562e+03
1.576282774796407011e+03
4.903054547847045228e+02
-1.881065228676528989e+02
-1.511059504827489945e+03
-3.245669349281196446e+03
-4.009052138641877264e+03
-1.380415533278097200e+03
-1.192880430708613858e+03
-5.479429036769223785e+03
-7.188130557337631217e+03
-5.711106846880576086e+03
-9.186445068958119009e+03
-1.230621622475774348e+04
-1.111647740709442223e+04
-8.531301341454318390e+03
-2.289707734037338014e+03
-1.595772298014900571e+03
-1.368463695942830100e+03
-2.242811480150010539e+03
-1.882782470319510139e+03
1.010595254210741587e+03
1.628289003752263397e+03
1.448312225918431523e+03
1.292600496950639808e+03
1.294199566825402599e+03
-1.449018259841823465e+03
-3.539083224121795865e+03
-1.479809181300177556e+02
9.362590578646326094e+02
-5.623776501706304316e+02
-3.239029957412835756e+02
1.363676163238831350e+03
-3.290635149282615203e+03
-5.318798291486432390e+03
-5.989719565145407614e+03
-6.130355528280054386e+03
-3.206754038593981022e+03
-1.473829201970359463e+03
-3.689567882883510265e+03
-5.561845449931895018e+03
-6.366606294015670755e+03
-1.353798892286717091e+03
5.668587243308114012e+03
6.628657858282498637e+03
5.109511130536813653e+03
6.909185818385361017e+03
6.490689364735127128e+03
6.461076656848275888e+03
4.599453535409015785e+03
5.252825607026728903e+03
6.074314204947056169e+03
4.732024834751291564e+03
1.274993988363873996e+03
2.497315953360723142e+03
4.318164621696588256e+03
3.921646535879324801e+03
3.381783916499666248e+03
3.536650211105691596e+03
2.755407342066337151e+03
1.552331407668496468e+03
1.624466509817260430e+03
8.417647837403209223e+02
7.345783223730896871e+00
3.972488200680068076e+02
1.841595497186500552e+03
2.726420252515220000e+03
2.144943045988274207e+03
1.250463973288500483e+03
5.979881768106944264e+02
1.670538613931648115e+03
4.150199276988805650e+03
5.786938458522943620e+03
5.402876304724280999e+03
4.447245008543850417e+03
2.982184350562962663e+03
2.201830701480407242e+03
2.913394218183862449e+03
3.727928437450858382e+03
4.460581589996522780e+03
4.005592709435334655e+03
1.734059109615220677e+03
7.172330672041396156e+02
1.473257373049621265e+03
3.702388089446096728e+03
4.182734819928768957e+03
2.965120958525072638e+03
1.185598763014199676e+03
-3.250205049963171433e+01
-1.077296684687745028e+03
-1.330655568998782883e+03
-1.948407727129213754e+03
-3.181488126694657240e+03
-3.228752844042199285e+03
-3.335328121119441676e+03
-3.736359075386821132e+03
-1.694404629989845944e+03
8.322749635338772123e+01
-2.763349831254191031e+03
-2.267631589025968879e+03
1.056183696542173948e+03
3.187461551610330389e+03
2.317144759029748002e+03
3.270957216645584822e+02
-1.236835572369666579e+03
-1.652403663736504768e+03
-1.634438087837239436e+03
-7.548946134175699854e+02
3.001738673258504377e+02
2.751682520645142631e+03
4.393774083317733130e+03
2.180661690055053441e+03
-7.876156189445677001e+02
-8.072846095884921169e+02
6.308035847562017580e+02
1.859064141016018311e+03
3.542587106848699477e+03
4.231309430927604808e+03
3.868193219942918404e+03
3.343315940078710810e+03
2.239763561787984145e+03
1.139643721327147205e+03
1.164152740967384716e+03
1.984064933631825397e+03
2.751050025958327751e+03
2.353302842044485260e+03
1.530185983495048049e+03
4.882187696993930786e+02
-2.429985597570368725e+02
-1.813183429896409734e+03
-3.166221083682489734e+03
-4.310130004877319152e+03
-4.305080164903967670e+03
-4.338413510250115905e+03
-4.447070402679774816e+03
-2.657640107096519841e+03
-1.817702944247322421e+03
-1.941248792639552676e+03
-2.450498431535109830e+03
-1.834691304009866371e+03
8.191499773746047595e+02
1.739932532825641374e+03
2.085626955435228069e+02
-1.841549715374135303e+03
-4.955467284751399347e+03
-6.212551741317191954e+03
-6.429551492476229214e+03
-7.451296369468964258e+03
-6.426823536685566978e+03
-3.300337576916521812e+03
-5.314123848932881629e+03
-9.185251620223985810e+03
-7.889689740433092084e+03
-5.886660521961511222e+03
-2.200262214475891142e+03
-3.764170462002230266e+01
1.314537849269496519e+03
1.814521403032856369e+03
2.103054455240117022e+03
3.539486045824060511e+03
4.080248379540721999e+03
4.172135928697867712e+03
4.265611067284456112e+03
4.078011822739133549e+03
3.225335925514849805e+03
2.154764829229866791e+03
1.812518910588320296e+03
2.041707144286909852e+03
1.504286664090798467e+03
1.510465005804493103e+03
3.327218457712903614e+02
-5.919764032625666914e+02
-8.635312777474292716e+02
-1.206057173219778178e+03
-1.967488508974524620e+03
-2.362418208908940414e+03
-3.003735112196434784e+03
-3.104511823138519048e+03
-3.131935051185949305e+03
-3.058998216810137819e+03
-2.749947836405009184e+03
-3.123223878599724685e+03
-2.126736782870934803e+03
1.151255799287539503e+03
4.453799275839154689e+03
4.603965163566393130e+03
4.244539266364058676e+03
3.169050426835956387e+03
1.301690175835778064e+03
4.195180258954295027e+02
1.289304672054560797e+03
2.163734547365730123e+03
1.747536540928774912e+03
8.375205467372718431e+02
6.400455823339854078e+02
7.382910872271892231e+02
1.160827227666190311e+03
1.727200141481262108e+03
2.289915670045280876e+03
2.640269561925394555e+03
2.821239564852582589e+03
3.317783505786415390e+03
3.409499448375260272e+03
3.458674527127916917e+03
3.475132281252836947e+03
3.051613925589750579e+03
2.113914192820573135e+03
1.822916083564304017e+03
1.266245217899291902e+03
6.068171781757943108e+02
2.214733779825388353e+02
2.476653326427552315e+01
-2.193050567629126419e+02
-7.820495728941754123e+02
-1.195709421993297610e+03
-1.291852002467892817e+03
1.488104535669255597e+02
1.477311724205056862e+02
2.093623160820300200e+01
-1.337007067049936950e+03
-4.028317449196194048e+03
-4.148826636394992420e+03
-3.196940847035724346e+03
-2.787491004515684835e+03
-3.159545405137216221e+03
-3.140459715718455755e+03
-3.861315759809046995e+03
-4.231259757844931300e+03
-4.556984294947438684e+03
-5.427728318946370564e+03
-5.780556865421259317e+03
-5.943636712945001818e+03
-5.616101300039969829e+03
-4.136106883494257090e+03
-2.110649388859822466e+03
-3.809632284427119885e+03
-5.589848752213225453e+03
-4.763268253920246025e+03
-4.061063596337477975e+03
-3.500303240117200403e+03
-2.424898786804394604e+03
-2.120561848494179230e+03
-1.969441214880922871e+03
-1.956514749204643977e+03
-2.076849316784791426e+03
-2.063979278403889566e+03
-2.646724065984849858e+03
-3.382650412267714728e+03
-3.470008157121233580e+03
-1.660068879271104151e+03
-3.888652610489007202e+03
-5.361677480093418126e+03
-4.116145808910951928e+03
-9.750778858764607548e+02
2.094733873703341658e+02
1.241512744440542747e+03
1.742989590479567369e+03
2.296856916842862574e+03
3.296361828114820582e+03
3.431470951265186613e+03
3.256260803835712977e+03
3.641822816064226117e+03
4.748103756629822783e+03
4.981944280005530345e+03
4.005073900848173707e+03
3.737672094465436658e+03
3.915088029246553106e+03
3.392124402182822450e+03
2.460462087364889157e+03
1.956493598700681332e+03
1.878228666171909026e+03
1.367300154102904571e+03
1.134566051417731842e+03
8.695856800952990397e+02
9.406717412004148855e+02
9.008277103913210340e+02
1.389158102388572161e+03
1.889572245065004836e+03
2.298847739330165950e+03
2.938041413279474455e+03
3.131091939627504871e+03
3.875810266042719832e+03
3.840413171804563717e+03
3.854372950467804912e+03
3.993349099577121251e+03
3.521011553328569789e+03
2.674264458428952366e+03
2.105196315820735435e+03
1.512464454580843949e+03
1.271940006675603854e+03
7.762404821046412735e+02
1.011059115611434095e+03
1.271430543828777218e+03
1.141095404759458233e+03
9.589707004070456833e+02
6.198875422127206321e+02
1.210059672146323010e+03
1.727561614892785428e+03
2.392291145864217469e+03
2.631804470505864629e+03
2.924542833862473344e+03
3.934875846674529839e+03
4.338312123615417477e+03
4.049114351189628451e+03
3.430679617018711269e+03
2.769755615558595309e+03
2.227340857436474835e+03
1.987175996300079987e+03
1.625074778582397812e+03
8.122591746668841779e+02
1.178932548280787245e+02
-3.831938802848746661e+01
2.513873494138314015e+02
-1.168881876086870051e+02
-6.871669153623620332e+02
-5.485657949089790009e+02
1.032004983275116729e+03
2.274581875036915790e+03
2.573001851879962032e+03
3.344278630378281377e+03
3.636402229614522639e+03
3.485227237509857332e+03
2.770568034544731745e+03
2.304438866637094179e+03
2.391936892937491393e+03
2.934020450670588161e+03
3.039614190693966975e+03
2.693423518075964694e+03
1.366219700735335664e+03
-4.738861052787214589e+02
-1.357780907030109574e+03
-1.414511134051938370e+03
-1.379035598634791768e+03
-2.005437645122987988e+03
-4.687782281859010254e+03
-6.796206818268301504e+03
-8.330679981740320727e+03
-9.292004186372852928e+03
-9.201037330127423047e+03
-7.609869935128420366e+03
-4.945664337737541246e+03
-3.119604528714598473e+03
-3.241526623968352851e+03
-3.005334578027767748e+03
-1.257072046809563062e+03
-2.081807530172767201e+03
-3.265443466835045001e+03
-4.025050130824132339e+03
-4.084602827291832455e+03
-3.358077912782682233e+03
-2.554572948714851464e+03
-5.836067325541284845e+03
-7.466500584077531130e+03
-7.532102461703745576e+03
-6.468825681431922021e+03
-3.875275600744237181e+03
-2.297636001343381849e+03
-8.713538991459782324e+01
2.112782330564050710e+02
-1.122643879705796044e+00
-1.621574897926691392e+02
1.515232521356673260e+03
2.740973056501504743e+03
3.786031399123225583e+03
3.232360950928737566e+03
6.580439104726585811e+02
-5.020740675043176111e+02
4.540146219831594863e+02
2.396266884932356049e+02
-3.894069870626483407e+03
-5.927139950109751226e+03
-2.258609922940549950e+03
1.818506676004451037e+03
3.265118389234343795e+03
3.288412719416096479e+03
3.593613849719082282e+03
3.350759667445023751e+03
2.527987697779696646e+03
3.153359719679080627e+03
3.000855622552981913e+03
1.403586503825259797e+03
2.353676448836689360e+03
3.391219221034645670e+03
2.363316489281793565e+03
1.791052393108536080e+03
1.087512743831072385e+03
-5.121168286963801393e+02
-2.223769372387315798e+03
-2.240348485471493859e+03
-2.302852373153214103e+03
-3.586157310603280621e+03
-4.993243161808024524e+03
-4.694226434174875067e+03
-3.826932493615793646e+03
-2.446184824466760801e+03
-7.637938191244704740e+02
6.123829611659260763e+01
1.139819221387958351e+03
1.626145732655193797e+03
3.375529846097543668e+03
4.241189886149255472e+03
1.939315652001035005e+03
1.015817726673280731e+03
1.872737022386739454e+03
3.729285081202850506e+03
4.188516665045341142e+03
2.277555825739168085e+03
-1.027284321337950132e+03
-3.238989116689488128e+03
-3.544718766263556063e+03
-2.103434064048171876e+03
7.265455759897722032e+01
1.030641235911788044e+03
2.756567732290453137e+02
1.083852656779380368e+03
1.696382187626297764e+03
2.170224290166468109e+03
1.847548445967531507e+03
3.585071683745712789e+02
-1.325823761846840171e+03
-1.395363511245427617e+03
-7.989557883515642516e+02
-1.530425463151563690e+03
-2.663750497624709169e+03
-1.855962700096363733e+03
1.697079156802226635e+03
4.077396599875103675e+03
3.286205822610526411e+03
1.113575061952690703e+03
-1.731536477616113643e+03
-3.269109372627198809e+03
-1.458019906589964194e+03
2.095811043858757330e+03
3.761495957871100927e+03
2.988112663956879260e+03
1.788720119485262785e+03
1.008355987007727322e+03
1.566039563897975540e+03
3.040855927411879293e+03
4.674737182625724017e+03
4.666527822692823975e+03
3.252270844950476203e+03
2.996186312630930843e+03
3.982325420615205985e+03
4.494825361238466030e+03
3.719776098758431999e+03
2.518152170206751180e+03
1.552806564334355471e+03
6.717094695517140508e+02
-5.640326898005721432e+02
-2.641326650542880998e+03
-3.805223808343190740e+03
-2.659740884251206353e+03
-1.202898266715116506e+03
-1.176768503454821939e+02
8.579129533568858506e+02
1.002934919386420461e+03
7.964019836478521484e+02
6.302853168261834753e+02
8.746007145931514515e+02
1.546422503050128171e+03
1.721801378569065946e+03
1.878719983246055790e+03
1.289121849592053650e+03
1.039954004125204392e+03
1.054266548934776438e+03
9.461038381983736372e+02
3.524228931500504700e+02
1.530314697621597020e+02
-2.080977856355262929e+02
-1.019900397330951932e+03
-1.946443983330560513e+03
-3.086762697675741492e+03
-3.413168859193161097e+03
-3.920539661812446866e+03
-4.278935339915677105e+03
-3.704207915318581399e+03
-2.984089931609204086e+03
-2.033768803731109529e+03
1.516534568254062378e+02
2.073205706856571396e+03
2.961851758467569653e+03
1.899506691082558291e+03
9.271618505926660418e+02
1.373731405652938520e+03
1.729183626283136618e+03
1.398547660594206036e+03
5.015949075346698578e+02
-3.277420163478934114e+02
-3.824344811140366573e+02
1.492668954857207950e+02
-4.261441244058683537e+02
-2.383272853600567942e+03
-3.274976579680733266e+03
-2.598518196264598373e+03
-1.994020116969940091e+03
-2.376545695194020482e+03
-2.398159184831922175e+03
-1.753910904449078316e+03
-3.648989899500870706e+02
1.131853796043913917e+03
1.326338818622736198e+03
8.543881945684184984e+02
1.406032127406534755e+03
1.726356688894380795e+03
2.027112799590294571e+03
1.940745821210781742e+03
8.776629680851210651e+02
2.981443360590962044e+01
-9.021093048184286545e+02
-1.852368292711734739e+03
-2.478639800015067067e+03
-2.644242948401388730e+03
-2.440593908124785230e+03
-2.453517053758348084e+03
-2.806095117424331420e+03
-1.800392981995451009e+03
-1.243996813238842591e+01
8.056546634702929168e+02
5.067455910438692968e+02
5.838858913869838716e+02
1.254062576449738572e+03
1.845226939949265898e+03
2.125273919208587358e+03
1.812121189552999112e+03
1.646737380839882235e+03
1.461078625744548617e+03
9.740356314218336138e+02
9.576001857591138560e+02
5.006618220788790836e+02
-2.808610795998670255e+02
-1.129059213376023308e+03
-1.523929132902805350e+03
-1.486491983555327124e+03
-7.498472288169476769e+02
-4.580381628767004258e+02
-1.250160695346067996e+03
-4.510261361906193088e+03
-4.794081640386371873e+03
-1.123744911612346641e+03
-6.863790730198226129e+02
