3.506869614536307836e+03
3.213524236390375336e+03
2.779458949333661167e+03
2.084645730387579533e+03
7.150819732292618482e+02
-5.009254903962775643e+03
-5.971427225922890102e+03
-4.902324383633894286e+03
-3.114903289695260355e+03
-3.639100579897796706e+03
3.922413769034474740e+02
-2.090808042239348651e+03
-2.267416151686196827e+03
-3.262543105140132411e+03
-2.443241454660266754e+03
1.137470415754910846e+03
1.963647293575243566e+03
-4.316612309797781677e+02
3.276191835834556514e+02
7.805255388372089556e+02
3.102046649947502374e+03
2.920606264812826112e+02
-3.335375125649995880e+03
-1.048142185427391496e+03
1.622714367770377748e+03
1.214088570694275177e+03
5.669017026338535743e+02
-3.477935561312804566e+03
-4.666624841974654373e+03
-2.552139824073720320e+03
-4.286387415084156601e+03
-3.615209975916317944e+03
-3.096467132189651238e+03
-1.700051096689014003e+03
-2.162765680807856825e+03
-1.508413113124158826e+03
4.531199566266609509e+02
2.519123961109321044e+03
3.309501531927837277e+03
3.705679671856536061e+03
4.438329584528590203e+03
4.071386411280140237e+03
2.905569866392721906e+03
1.445734308561481839e+03
2.231099946279169615e+02
-1.815277259492852835e+01
-6.970053133305210622e+02
-1.274508830636914354e+03
-1.564628753731684810e+03
-1.744488940278893324e+03
-2.300205921683542329e+03
-2.440694475318991408e+03
-1.901910696568038020e+03
-5.400666164818303514e+02
9.779746608580458087e+02
2.121408824080980139e+03
2.865251154415356268e+03
2.528380686600133686e+03
2.521785093993782539e+03
2.650660068122225766e+03
2.078357515981735105e+03
3.070748799563574266e+03
3.529911264674652102e+03
2.148878569723505279e+03
8.465920523452934958e+02
4.719920304036419907e+02
1.839529102188730576e+02
-6.175259857522460152e+02
-1.508392353098580088e+03
-1.656952752554922654e+03
-8.950981923808985812e+02
-1.015768304248203663e+03
-1.045005106703833007e+03
-1.097102118989601252e+02
6.156818559836375471e+02
1.019229732138924987e+03
1.518481206952495768e+03
1.528946518716237279e+03
1.957506958325522874e+03
1.441953148714572990e+03
5.624001431566894098e+02
8.958963425306313866e+02
9.766106867040540465e+02
3.547900873363812480e+02
-1.474592793262874466e+03
-1.855759915004486629e+03
-2.017756737392370724e+03
-2.180543453871177917e+03
-2.632176038980361682e+03
-2.511498365897663007e+03
-2.622651329928518862e+03
-4.160695424479791654e+03
-4.916781739466863655e+03
-3.334167689766569765e+03
-9.007401856915969347e+02
7.216600273942417516e+02
1.305871050246958021e+03
1.580008260750203817e+03
1.061214450323834399e+03
1.538602823797561541e+03
1.977105607453738230e+03
2.390463497854016168e+03
1.533633217963195193e+03
3.397050455514288387e+02
-1.133242543645010528e+03
-2.334106221859168727e+03
-2.146847877294010232e+03
-2.479670283313785148e+03
-2.648530562473107693e+03
-2.154401017571336979e+03
-2.418305115372515502e+03
-2.603158609664885716e+03
-2.001185295100244502e+03
-1.884491643687271107e+03
-1.444893992437850329e+03
-8.322216327305371806e+02
1.036424881798432693e+02
1.110663547285638742e+03
1.731836198733147739e+03
1.520211743028034107e+03
1.350825542651965861e+03
5.795980187282436873e+02
1.834605905006111470e+02
7.637948512136070178e+01
-3.955479780274944233e+02
-1.504101983266468551e+03
-2.288267768008156963e+03
-3.570058816268377541e+03
-3.361469170091532760e+03
-4.704370712714259753e+03
-7.324817256181660923e+03
-1.023908009197654974e+04
-1.059316587011913180e+04
-9.851969306085773496e+03
-8.535396017223234594e+03
-7.280481107761546809e+03
-6.148167825213980905e+03
-4.997423320138204872e+03
-1.213234300482205981e+03
2.051719525891602188e+03
2.612423162292452616e+03
2.830717950119917532e+03
2.108607833220480188e+03
1.210032612920561178e+03
1.379141811326968252e+02
-3.945587851203824243e+02
2.208013686606868475e+02
-8.297214862434968552e+01
-7.016715566768648387e+02
-7.503798032106021765e+02
-5.213150834373436737e+02
-6.135559842357599791e+02
-4.750841072638223181e+02
4.150281787314150392e+02
1.336745534566596234e+03
1.889216335844039804e+03
2.514523143214461470e+03
2.628703393227202014e+03
3.086762014375194667e+03
3.230797348125344342e+03
2.519875888808920990e+03
1.982039293561386557e+03
2.026296347253221484e+03
2.065602479852550914e+03
8.430842841740815174e+02
-5.952187779700175270e+02
-1.295386608655491955e+03
-1.946552594220911033e+03
-2.514639926468057638e+03
-2.384607521271001588e+03
-1.519687738086092850e+03
-1.248836406817664511e+03
-1.138910935664960107e+03
-8.837609865776723836e+02
-2.340664331857456659e+01
4.651693314836067543e+02
1.253224568187474915e+03
2.257647741864832369e+03
2.961299631810799838e+03
3.650327599901279882e+03
4.126740553384796840e+03
4.174362053034660676e+03
3.478233386123625223e+03
2.765602062277332152e+03
1.634502479013231778e+03
6.562526747466930601e+02
3.579897912574040930e+01
-5.874191303318575592e+02
-8.316837482089148352e+02
-1.288894945978938267e+03
-1.376034380380303446e+03
-1.311594263690326443e+03
-1.036674792180582017e+03
-4.636044610393653329e+02
4.462327274556567431e+02
1.526748174243169387e+03
1.645145533524301527e+03
2.482656176504841824e+03
2.983305666467732408e+03
3.771452030748841935e+03
4.089659736721896934e+03
8.284677965176384760e+02
-3.121475091316211092e+03
-2.727207459630230005e+03
-2.713774927507639859e+03
-3.763553874606088357e+03
-5.239715508993141157e+03
-3.753339926548105268e+03
-3.175224832609558234e+03
-2.833148935480699947e+03
-1.476444115788863428e+03
-3.620100813976815971e+03
-8.053505327452171514e+02
-2.676001334208316621e+03
-5.471766538725466944e+02
3.102533549886977084e+02
-6.974085913352554371e+02
3.802213392336335485e+00
2.240183293463398059e+03
3.097583213683095892e+03
-1.947374419098111389e+02
-1.460555097048893458e+03
2.376180194504229803e+03
3.680498970220148749e+03
-2.818017709046303594e+02
-8.654018820055881633e+01
-2.005836728738247302e+03
9.551271459346266965e+02
-7.301599589349249300e+02
-4.423976128071019957e+03
1.939031941901255323e+02
1.562094249376094695e+03
3.213356768488073953e+02
-6.571979957776712808e+02
1.750802585141417467e+03
-2.931677515742031233e+02
3.915264450465101618e+02
3.476869172056043226e+03
3.483259821959690726e+03
2.377894761673791436e+03
3.569190713538771888e+03
1.628221827725990124e+03
3.956601042825630884e+03
3.195034027649699965e+03
1.802433962382907794e+03
5.796650958223325460e+02
-6.336742021771524378e+02
-2.035830568237387297e+03
-3.280592674589677245e+03
-4.120951673180097714e+03
-4.501493094475969883e+03
-4.819856458123626908e+03
-4.260622462929173707e+03
-3.450825336018140661e+03
-3.464899598088255971e+03
-3.230423158314199100e+03
-8.410410941230462640e+02
2.125812769793571078e+03
2.864331026516551447e+03
3.209662248618032208e+03
2.679209170409094895e+03
8.600218749373048013e+02
-1.467690177263430769e+03
-3.249358503951038983e+03
-4.767998252965046049e+03
-5.573000861899100528e+03
-4.480824685058505565e+03
-2.389073314970686170e+03
-1.723519333735358032e+03
-7.834506180249351246e+02
-8.067616956631363792e+02
-1.544622777068319920e+03
-1.550809748632777882e+03
-1.403423746238142257e+03
-7.820207361337165821e+02
7.276565804583315185e+02
1.758016063101005557e+03
1.522738618830562018e+03
1.805353549141221265e+03
3.820007408947697513e+03
5.517164236815236109e+03
5.449356512248639774e+03
4.789994696732381271e+03
4.108089540583525377e+03
6.689396070312101301e+02
-3.751066946053625543e+03
-8.909651346133339757e+03
-1.263946447286904549e+04
-1.540960023896051462e+04
-1.774868298088337906e+04
-1.828782155864712695e+04
-1.581782067490678128e+04
-1.138330970684136082e+04
-2.735129278053332655e+03
7.105536048117271093e+03
1.215096369724867873e+04
1.464876083826254762e+04
1.688470650637653671e+04
1.500165031766136053e+04
1.095714243755644929e+04
8.711778128239640864e+03
7.838780224137284677e+03
8.442967397282813181e+03
8.959676116694905431e+03
9.406909331981121795e+03
8.398348837409645057e+03
6.448972027270551735e+03
5.332599140012185671e+03
4.451080534519739558e+03
2.665115253986505195e+03
1.140258845355421499e+03
9.079619519072316507e+02
1.857675867520391876e+03
1.301352449765085794e+03
-1.662559207677730456e+03
-4.254211815662012668e+03
-5.296089674046214895e+03
-6.755469787234497744e+03
-6.402547943197964742e+03
-5.459297136597588178e+03
-4.423649434271757855e+03
-3.266086201033567249e+03
-3.210245467995294803e+03
-4.073217180225486572e+03
-3.683606927784756408e+03
-4.871063774074113098e+03
-5.636758129675029522e+03
-6.166818878944194694e+03
-6.249368303299610488e+03
-4.033023297345046558e+03
-5.327058078075847334e+03
-8.556341891512140137e+03
-8.325198700613165784e+03
-6.473638509301257727e+03
-6.162220835429519866e+03
-2.284207521178688694e+03
2.305161631108713664e+03
-1.350830327629944350e+03
-3.687209681162250490e+03
-3.567121738468049443e+03
-2.749099772762508564e+03
-3.588120386973571385e+03
-6.790247709532012777e+03
-8.257197000783202384e+03
-4.179877167637638195e+03
8.149843840304986031e+01
2.064721370803484206e+03
4.587801958278506390e+03
5.690981088934174295e+03
3.582806486791866064e+03
2.273806319339744732e+03
2.561917236691310791e+03
1.072295125902668360e+03
5.344702986518299213e+02
1.929455559227460299e+03
5.071126897394908156e+03
7.440331048299191025e+03
5.743561786173582732e+03
3.797215666100331418e+03
2.914477314423479129e+03
2.017342867447506251e+03
2.366374852269449093e+03
3.484293065800179647e+03
3.521285839414117163e+03
3.389099749568808875e+03
3.384872326534084095e+03
3.222601853781833597e+03
4.309049297288307571e+03
3.774072448809503840e+03
1.161537435904738686e+03
-8.415286409866318991e+02
-1.369638499298653869e+03
1.998977445340604504e+02
1.464174940416829031e+03
2.228743439084172678e+03
3.058064737298184355e+03
3.894449008058903928e+03
3.913968822714997714e+03
2.616454481260278499e+03
2.527361166685937519e+02
-1.755886090456687270e+03
-1.479346572774209335e+03
-1.191544010602647404e+03
-7.883295994271743439e+02
-3.256297223939846504e+02
2.308965783007087794e+03
4.875390444210376700e+03
4.069746241700645896e+03
2.751929910818616008e+03
1.847497961161212515e+03
1.614390175069286897e+03
1.552639832064232451e+03
1.456627665919479341e+03
6.590595799038229643e+02
-8.169875880588722339e+02
1.225611395966563350e+03
3.768854244579968963e+03
3.772735970630135398e+03
3.160862603501191188e+03
1.917441229311899860e+03
-6.955694091900553531e+02
-2.767799318158651204e+03
-3.273794839574279649e+03
-2.614832900371019150e+03
5.707684003342191090e+02
3.788119006472669753e+03
4.757356781217881689e+03
4.854643847071551136e+03
4.957950344606062572e+03
4.275063236014713766e+03
2.802555672342810340e+03
2.119843061645936359e+03
1.928594979906116350e+03
1.790144414964118369e+03
1.246185806414318222e+03
9.707318632868443729e+02
8.980575686475000339e+02
1.215599875679603429e+03
1.364115985995467099e+03
1.163062385699852484e+03
2.348149214294453941e+03
3.912512051980546858e+03
4.267218048436622666e+03
2.681084711815675746e+03
2.022938397563069657e+03
2.134821877063484862e+03
-1.128311119386002702e+03
-3.752813583787322386e+03
-3.963760898951685249e+03
-3.664819831810698361e+03
-4.269750636279651189e+03
-4.824609312627960207e+03
-2.344771476711439846e+03
-2.253973470858595078e+02
-7.402978846581301013e+02
-2.265627173991975951e+02
-4.819522517512350390e+00
-2.518179870409647719e+03
-4.537658189353924172e+03
-3.902755607073847386e+03
-2.789933756075974088e+03
3.251329091566502939e+03
8.975779445085519910e+03
8.333392064082889192e+03
-2.506239730887055259e+02
-5.917394389469280213e+03
-5.807164477772454120e+03
-5.300496885928898791e+02
4.586017721945599988e+03
6.295995660953558399e+03
2.996079028295015178e+03
-2.480546318764052103e+03
-6.878852160018539507e+03
-9.230048996253226505e+03
-1.133091791479241692e+04
-1.211141259929381340e+04
-6.666107167385001048e+03
6.039503679601771182e+02
3.708675903587614812e+03
6.654331617134738735e+03
9.727754476380496271e+03
8.424745086358625485e+03
5.310559960092768051e+03
2.370423413489132258e+02
-2.853015144614429573e+03
-2.864875322734895235e+03
-6.823747730126847273e+03
-1.111469786142958219e+04
-5.456724875829405391e+03
5.275165749422358203e+03
1.811686079444278948e+04
2.219794893462403707e+04
1.791547139792441521e+04
1.245328856752523461e+04
9.689215867876502671e+03
3.731191916769550971e+03
6.338397238271612650e+02
1.289784053608399574e+02
5.182208347441749083e+02
1.296868309921090486e+03
5.271548926536133877e+02
2.822682146356669364e+03
4.984474522665872428e+03
6.023871230030875267e+03
3.803211158919444301e+02
-1.099888505560472731e+04
-2.147337273609120166e+04
-2.479409095964848893e+04
-1.727188133024753552e+04
-4.451170231594436700e+03
2.335095223938365052e+03
4.334747892555323233e+03
1.288539263035611157e+03
-2.289659549000240077e+03
-1.191123724513038496e+03
2.630388515433349767e+03
-9.127025680623419248e+02
-4.241293278064078550e+03
-1.322746487079569988e+02
2.838988784237222717e+03
7.255896576122956503e+03
1.122079315676358965e+04
1.088772707928077034e+04
7.426666869003926877e+03
6.746718399355067959e+03
5.842996358240438894e+03
-3.027439798098155734e+03
-7.523597139392138160e+03
-6.839309385564971308e+03
-6.857518331751038204e+03
-1.276320459032617509e+04
-1.338122582745121872e+04
-8.469507645708747077e+03
-9.691152677573534675e+03
-8.158169231320119252e+03
-4.044231507182885707e+03
-7.810081386407079663e+03
-1.291535135092979363e+04
-7.617085063100550542e+03
-2.448403588644908268e+03
6.656880078139587567e+03
1.427124308028926680e+04
1.523801327956708155e+04
1.361721320198260764e+04
7.820544119128549028e+03
-1.605223498863279701e+03
-1.340702006861733753e+04
-2.932869014755277385e+04
-2.830100169821909367e+04
-1.637183575257746998e+04
-1.318106757815311721e+04
-1.956828659149341775e+03
1.850165861580750789e+04
2.826952410504337968e+04
2.814295716016650840e+04
2.831812327601087964e+04
1.244905591686529806e+04
7.407603813734490359e+02
2.941390356690305453e+03
5.283181655801132365e+03
7.883169763522542780e+03
4.461496380701045382e+03
7.809329505060412885e+03
1.269389366209099171e+04
2.002428957190067376e+04
2.009563368954916950e+04
4.762059484655387678e+03
-1.479859748458804643e+04
-1.930267984209212955e+04
-6.766440783113825091e+03
6.959738006402057181e+03
1.255764931451948178e+04
1.321552002768620150e+04
1.078357374269088905e+04
3.538750575239958835e+03
3.823706666535557588e+02
3.605826176434789886e+03
1.024805889312035288e+04
1.644010911008020776e+04
1.336382667300002868e+04
8.607279075922424454e+03
1.194854821806752989e+04
1.526851467970550038e+04
1.563393524095720022e+04
1.349300812512662378e+04
6.267408540538167472e+03
5.427211567986739283e+03
1.070716439496216299e+04
8.508942812816565493e+03
3.785162349977536905e+03
2.070746931715150367e+03
1.168014073334474961e+04
1.621745730324387478e+04
1.337627458915352008e+03
-2.023029483518201596e+04
-1.999542838557835785e+04
-7.413077404632129401e+03
3.478364644805370176e+02
6.953243306183798040e+02
-1.310676624738784312e+03
2.671018910435461535e+01
5.496502352587429414e+03
9.733843693325467029e+03
-1.382324127327153747e+03
-1.976047301949282337e+04
-2.441928407380239150e+04
-1.978894872878677415e+04
-1.305972334748090543e+04
4.357708182699807367e+03
1.130112372763732856e+04
1.059026752996351752e+04
5.343915761278472928e+03
-7.185367370189525900e+03
-2.107995858551755009e+04
-2.464697399715334541e+04
-1.805366838286050552e+04
-4.541377271019446198e+03
-4.150915611584731778e+03
-1.904667572819236011e+04
-3.513131246614921110e+04
-4.112188523557892040e+04
-2.400110781926361597e+04
-5.104144317582693475e+03
3.836004232058005982e+03
1.681034179892422344e+03
6.916896976868519232e+03
9.020676344913785215e+03
-2.935761635308759651e+03
-1.714560349461233636e+04
-1.453682932084567983e+04
3.033318497467674661e+03
7.874594195837110419e+03
-2.158234718922053617e+03
-8.257252114728900779e+03
-1.067423395217470897e+04
-1.304622401646486469e+04
-2.453382086044136031e+03
1.874223986796195095e+04
2.729145511477830223e+04
2.794707099807652412e+04
2.455704817536913833e+04
2.243130182691711161e+04
2.060773895390071266e+04
1.401827731197367393e+04
3.487696191794147580e+03
3.678024908084691560e+03
4.023308944878458078e+03
-2.494520447862564197e+03
-2.366107344768235521e+02
4.945727890665532868e+03
5.707431381866904303e+03
-1.159567877882961284e+03
-6.114381631675085373e+03
-1.121409115402132738e+04
-2.092869401495480633e+04
-2.076814650597594664e+04
-1.553341397554752984e+04
-7.834533648730297500e+03
-1.158772115475272039e+04
-2.850606073159320658e+04
-3.510563635424659151e+04
-3.564051969885801373e+04
-2.396500417166910847e+04
-8.653241139878207832e+03
9.449015684516793044e+03
1.515282367752421123e+04
9.317084176383863451e+03
4.281654905949807471e+03
4.769415691367450563e+03
1.721831579861176579e+04
2.136840332661044158e+04
1.887165511726086334e+04
1.730380862333134064e+04
1.387380156080887900e+04
4.478751582496814990e+03
-4.731328439672964123e+03
-1.887382319605797420e+03
7.950691852663862846e+03
1.430188745409754301e+04
2.112911877377729616e+04
2.567922646051486299e+04
1.931994576260769099e+04
1.499121806304926577e+04
1.343120740610296707e+04
1.192390511439069996e+04
8.376243722417095341e+03
-2.907066664521361758e+02
-3.930844616948922521e+03
2.208736527355473299e+03
1.782035126306119537e+03
-2.604958057076336445e+03
-6.522211703682838561e+03
-6.731725515310518858e+03
-5.104681451360025335e+02
5.144533935910375476e+03
6.223325623064861247e+03
4.498929476571942359e+03
3.756237834232618752e+03
4.245228732334815504e+03
3.813018480906753666e+03
1.617807748260001745e+03
3.585476290741408434e+02
-2.007866822783160785e+02
-4.166907922691892963e+03
-1.003480931451417200e+04
-1.201266562313325812e+04
-9.992537408248761494e+03
-6.509337111225200715e+03
-6.956044375440666045e+03
-8.609869416461098808e+03
-6.722828955707152090e+03
-4.982760798070387864e+03
-1.116368693571399672e+04
-2.037752535801533668e+04
-1.772606725321158592e+04
-7.363273676940652877e+03
-4.102995696303408977e+02
1.343789795534634322e+03
2.514658087167625524e+02
-8.943298937330637273e+02
9.639020285461763251e+02
2.253127973827557071e+03
3.393401750049437737e+02
-3.186904886771817928e+03
-6.342854302675662439e+03
-1.059161931176913095e+04
-1.264938449108587156e+04
-1.190177795969367253e+04
-9.987604041300401150e+03
-1.155474287382440707e+04
-9.447306377901082669e+03
-6.295344007451826656e+03
-1.029793185412984894e+04
-1.681563622176853823e+04
-1.660970258282311624e+04
-1.465992896671496783e+04
-1.037438383228785824e+04
-8.426126444043919037e+03
-3.789841138824832797e+03
-1.263331671119968632e+03
2.045620487787860384e+03
1.378931597892848004e+03
-3.138648930999707318e+03
-9.065874615834103679e+03
-6.689690195154716093e+03
1.558039339283963955e+03
4.802649087587102258e+03
7.000697958188875418e+03
8.852642288796838329e+03
6.374054588306456026e+03
1.618075108319404762e+03
-4.073428844059426410e+03
-4.267177470447690212e+03
1.542616933260832411e+03
4.119696701778847455e+03
2.482971846963578628e+03
7.013187590211559836e+02
-2.171961925025775599e+02
2.110095525397133770e+03
6.415086940479850455e+03
8.591694031292990985e+03
9.505333803595161953e+03
1.203058401701347975e+04
9.892576141992785779e+03
5.463803688431406954e+03
3.972250331732950144e+03
1.506069539728702921e+03
-1.376617180527142636e+03
-4.316526949965871722e+02
4.602185557851062185e+02
-5.020023481466272415e+02
-2.684773168053285190e+03
-2.220483827612636105e+03
1.108371097598065262e+03
1.872715515508013596e+03
9.738840782269900274e+02
9.037777520352050260e+02
3.358043366117848109e+03
5.591521973022905513e+03
6.213368581470256686e+03
6.523759069459292732e+03
6.961410275369879855e+03
7.126170195111085377e+03
6.150636856890946547e+03
5.874467941872158008e+03
5.990125278206266557e+03
5.488504142725768361e+03
4.672939159304094574e+03
3.583918895672688450e+03
2.067807404730537655e+03
-3.211401415226173128e+01
-1.456206649203132883e+03
-1.296855623983209398e+03
1.814393905322542423e+03
1.912521683006007379e+03
-2.418461952925461446e+03
-6.736679613409001831e+03
-6.936427357691086399e+03
-3.273927944905723507e+03
2.723126896419555123e+03
6.472903460215266023e+03
5.492625603281315307e+03
4.572608955520283416e+03
3.482108398699147074e+03
3.353533296536887974e+03
4.500649476398559273e+03
6.902333914863684186e+03
7.651943097628055511e+03
5.609610429446951457e+03
3.635311618814723261e+03
1.467162401175804916e+03
6.506380308771152841e+02
1.405862665482773536e+03
1.675184401983033695e+03
1.548548104606079278e+03
3.148914577434651619e+03
4.647173948890293104e+03
4.067214540208070048e+03
2.705675335965167505e+03
1.244820903308682773e+03
4.928717255924004235e+02
7.934987262644943939e+02
2.397538843995132083e+03
3.282299521057477705e+03
2.770484696160409840e+03
1.336050694624042762e+03
3.177280935963974571e+02
-2.639681919390014855e+02
-1.329866488050299495e+03
-1.617740939202428535e+03
-2.875309284638602094e+03
-4.861156160517578428e+03
-5.391426785256529001e+03
-6.125556573531445792e+03
-5.614919037659937203e+03
-5.693591858145344304e+03
-4.860803485920927415e+03
-2.579299332114186200e+03
-3.166634082024646887e+03
-9.059807057057329075e+03
-1.328455308827362205e+04
-8.755541494649080050e+03
-3.028246939672163080e+03
7.519536965972970393e+02
2.447699658806335265e+03
8.416057079925111566e+02
-3.620973780910524965e+03
-5.715150910509286405e+03
-6.680789033966342686e+03
-7.173512073944688382e+03
-7.260612498392863017e+03
-6.540021143600786672e+03
-8.514095641108180644e+03
-8.778790481532654667e+03
-7.709727400399950966e+03
-7.513222756865652627e+03
-9.408930155480409667e+03
-9.356891162456668098e+03
-8.162317705990848481e+03
-6.289034733302266432e+03
-9.718557900135505406e+03
-7.967860971169186996e+03
-4.427584688241318872e+03
-6.351224101921836336e+03
-5.896888249672792881e+03
-3.813502713906705594e+03
-1.398299351035238033e+03
-1.670509877996076739e+03
-2.377544096591927428e+03
-5.425405509487147356e+03
-4.331469608746139784e+03
-4.704121120508347303e+03
-6.265927534127045874e+03
-3.192327655254930505e+03
-5.458198159136851245e+03
-5.164943112995310003e+03
-2.860858362734671118e+03
-2.097261068692757362e+03
-5.077805359292739809e+02
1.410367182998213593e+03
2.257940520845154424e+03
3.095015001330365521e+03
3.110256617834768804e+03
3.098129087371356945e+03
3.570098440936320458e+03
3.822901455587046257e+03
2.926643289653652573e+03
2.043194814811304468e+03
1.699605234513502182e+03
1.479378155288881317e+03
1.425660193216963535e+03
1.358596586703469939e+03
1.196557592407855054e+03
1.421753558277872798e+03
1.789362209379744172e+03
2.002403194015557347e+03
2.089750216921904212e+03
2.184073042148839249e+03
2.487670925769758014e+03
2.874902474638480726e+03
3.090540443727527418e+03
3.401377113412274412e+03
2.969948899025872379e+03
2.743606408922687024e+03
2.926245275902856065e+03
2.471478378265589072e+03
2.300280247644532665e+03
2.062174517165286034e+03
1.632074757996076414e+03
1.309247752796290342e+03
1.256925449198374736e+03
1.238862171527673354e+03
1.035803459092545381e+03
1.041871554511453951e+03
1.287036744510363178e+03
1.495385063010437534e+03
1.769427146683861793e+03
2.238844821583472822e+03
2.413495126014709967e+03
1.993564964937311515e+03
2.305659741383162782e+03
3.446664073455679954e+03
4.393571920001297258e+03
4.884952598424000826e+03
4.632993471924965888e+03
4.187819869595728051e+03
4.035645399756305778e+03
2.996293051349211055e+03
2.487207988117756031e+03
2.721412130242566946e+03
2.727656467724127651e+03
2.582450398231125291e+03
2.642994115147222146e+03
2.469585451954176733e+03
2.441727089833416812e+03
2.919681194080521436e+03
2.896393494690512398e+03
2.751079349881743383e+03
2.963841115248952065e+03
3.925677117592442301e+03
4.379528828698257712e+03
4.149570369111293076e+03
4.004088006577520446e+03
4.165657696674234103e+03
3.642093523273289975e+03
3.409622766867721566e+03
2.996700933646149679e+03
2.341687592024893547e+03
1.641572027467021826e+03
1.313119235661981293e+03
8.938318976802751195e+02
7.786842355172384487e+02
4.219901152837261975e+02
-4.207763665329424185e+01
-2.956512389540376375e+02
-2.107282760939953334e+02
2.288439354652783777e+02
5.842426972913950749e+02
1.262303899418335959e+03
1.813875188643598676e+03
2.271200557468792795e+03
2.443479580996935965e+03
2.189385430974882183e+03
1.879566968904176974e+03
1.469772789922721358e+03
1.420063164552601620e+03
1.187420176039650187e+03
2.754471165511848767e+02
-2.799287380051648597e+02
-2.381758200560596777e+02
-8.071602724725660210e+02
-1.291959774608202679e+03
-1.551428128992498614e+03
-2.210607093370720122e+03
-4.314298080542655953e+03
-6.719446376346877514e+03
-9.287135508229319385e+03
-9.132725833355249051e+03
-8.040372621236679151e+03
-7.486027229719477873e+03
-3.720728316970471496e+03
8.884524668042184885e+02
1.246428187885458556e+03
1.194847808721776346e+03
2.153320381216396413e+02
5.505737166441313093e+02
8.275816205757952275e+02
2.908256287393183470e+02
-1.820499623598077790e+02
-1.001691288714829284e+03
-1.372110097575086684e+03
-1.807063934367324691e+03
-2.377863115254645891e+03
-2.657867225910844809e+03
-2.825110537053044027e+03
-2.559202324429995770e+03
-2.075297943458435839e+03
-1.156758130998048046e+03
-3.543524156206021303e+01
5.527814319801842657e+02
1.203875245276695978e+03
1.681029871045456730e+03
1.575460063892310473e+03
1.662224201708750797e+03
1.708087034302562415e+03
1.272721193952343128e+03
6.893260272645901523e+02
6.459367040324287927e+02
6.295167134330409908e+02
3.653768858998927840e+02
-3.042290854116798755e+02
-3.942224012345348001e+02
-5.695564569723206887e+02
-4.094732259982261553e+02
-1.151221996641135945e+02
4.739779156994167124e+02
4.863791541486770029e+02
-3.828234481875772417e+02
-7.366687363111918785e+02
1.235489300564962889e+01
1.308456158171329662e+03
2.836717685968707883e+03
3.253837497951951718e+03
3.348762213527123549e+03
3.317414654712091306e+03
2.797301668690202405e+03
2.267149167483402380e+03
1.607910577179849952e+03
6.805584645026053749e+02
3.458058896617244500e+02
-1.477702165089419850e+02
-5.022987990016238058e+01
2.944725395614900094e+02
2.142065168521263558e+02
4.076823891732342418e+02
4.457662679637318206e+02
8.244367702823758464e+02
1.638646178473204600e+03
1.920271869381175975e+03
2.486261331467985201e+03
3.232633284772939987e+03
3.749223003805320332e+03
4.308870423843673052e+03
4.474574574922172360e+03
4.412289590634825799e+03
4.140969991085041329e+03
3.631630748816655341e+03
3.004226972825258144e+03
2.457595513247125382e+03
1.568657091171296770e+03
-6.760021158213597801e+02
-4.149252582290887403e+03
-7.017642872179487313e+03
-6.490040390968153588e+03
-6.420818396346962800e+03
-6.345370540313833772e+03
-5.136994230509242698e+03
-4.465587012089130440e+03
-3.670771554539568115e+03
-3.034532096763172376e+03
-3.239846296228427036e+03
-2.593705140090671648e+03
-1.942220224328606946e+03
-1.763610668012461474e+03
-1.200782219916670556e+03
1.404473564120966330e+03
2.022044755486266467e+02
-3.012625809228882190e+03
-3.868117669854955238e+03
-4.793372231061449384e+03
-5.099270089313592507e+03
-5.173814577815091980e+03
-4.958143319400724067e+03
-4.277182181847654647e+03
-4.770549011233919856e+01
3.265384453271130951e+03
-1.088340347656340725e+02
-4.016281684439224136e+03
-3.407025394693644557e+03
-2.842123150152613562e+03
-1.348476241655870126e+03
-5.989273249846357885e+02
2.984639840570304841e+03
6.268272975617833254e+03
6.935981607173223892e+03
6.541892276921980738e+03
6.405010751768347291e+03
5.314371668262441744e+03
4.767119099573215863e+03
4.790176791370886349e+03
4.438607405109964020e+03
3.827370584546791633e+03
3.679602279745332453e+03
3.464287570488481833e+03
3.338315375457542359e+03
3.318970153817972459e+03
3.401779701696039865e+03
4.169797467000308643e+03
4.513401426796182022e+03
4.294383113448199765e+03
5.089962435570009802e+03
5.671459265457454421e+03
6.214008550148338145e+03
6.180637681445908129e+03
5.930391124976418723e+03
5.666644352837000952e+03
4.734447698446138929e+03
4.161716996436547561e+03
3.268299791289887253e+03
2.155462754175875489e+03
1.690190988419810765e+03
1.584394794114446313e+03
1.186169102285823783e+03
1.286819869808582553e+03
1.458239178662355016e+03
1.588298796766468740e+03
2.164967305449915784e+03
2.411931121905437067e+03
2.728613951445461680e+03
3.667679430280289125e+03
4.490779167396772209e+03
4.763800876380566478e+03
4.872682454833804513e+03
5.111342857614063178e+03
4.537158232313557164e+03
3.924261162053324824e+03
3.268295100854081738e+03
2.464644292541884170e+03
1.650862802253681821e+03
1.480234892297017950e+03
1.110297190957955536e+03
5.975232683619318550e+02
4.607635582561738943e+02
1.048208113429789279e+02
6.207365925640314686e+01
4.214059096895322227e+02
7.915336265854676867e+02
1.235483649216939511e+03
1.570182214083968120e+03
2.037687768601605740e+03
2.280043501813339844e+03
2.589256065655985367e+03
3.065336378078794951e+03
2.946354761432374744e+03
2.631298332835687233e+03
2.049127021110993155e+03
1.042817267952350221e+03
3.613174651172173526e+02
-1.764265887998333540e+02
-8.583591158877909493e+02
-1.440554781626209433e+03
-1.854074753936610477e+03
-1.953885539039048354e+03
-2.069013509460440673e+03
-1.979366274702682858e+03
-1.586925738237120868e+03
-1.145755902753522832e+03
-6.538350940491201300e+02
-6.871635334299123770e+02
1.853413658584077837e+02
1.251671988598167673e+03
1.946793624932578268e+03
2.591776336467555211e+03
2.628554202641945722e+03
2.159118299026198201e+03
1.654470992593046731e+03
-1.424409572494772419e+03
-5.913577531683915367e+03
-9.605071136246253445e+03
-9.879872111227581627e+03
-9.784012513632975242e+03
-1.004654166495698155e+04
-1.010048415484629004e+04
-1.016877884037948570e+04
-9.914458008765403065e+03
-9.215507677035418965e+03
-9.190860519121488323e+03
-5.937526974829947903e+03
-1.017574867043119525e+03
-2.810997389528408348e+03
-6.330730305709254026e+03
-6.510707932450194676e+03
-5.685915609866203340e+03
-2.457399215189736879e+03
-1.989059382635272414e+03
-3.423900943636275315e+03
2.209788356362145976e+02
1.149542068530002780e+03
3.437404846299716610e+02
-3.894187045281514656e+02
-8.299225266198598092e+02
-1.135776836149072778e+03
-1.799978146925468764e+03
-2.330472047252152606e+03
-1.414166193862647333e+03
-1.262123457561603118e+03
-1.214404231262045869e+03
-4.179254201610155519e+02
4.433887603008357701e+02
1.205549094701294280e+03
2.412594170213018060e+03
3.393611399662692293e+03
4.039620900601695666e+03
4.352639785270536777e+03
3.470657123037664405e+03
2.218762515040407834e+03
1.390954899494809524e+03
1.008233684642543267e+03
9.095088257683427173e+02
1.138254840574302165e+02
-1.908761103858550086e+03
-2.801234692664922477e+03
-2.316608159468906706e+03
-9.248607316392890425e+02
-2.860146221203458481e+02
-3.470465324015485180e+02
-4.679158253179679150e+02
-2.565644026222086609e+02
-2.819028761791363422e+02
4.791364802823455875e+02
