1.558177904180861105e+03
2.117159481653794501e+03
2.323090123719844996e+03
2.378021433421502024e+03
2.145874553694438873e+03
2.027607204626568546e+03
2.710287617151499489e+03
3.587963029424848628e+03
3.418541560456042589e+03
3.130984392263752397e+03
1.584305785428691252e+03
-1.890442290072589913e+03
-6.911217215572770328e+03
-7.292009464298509556e+03
-7.430816343462535770e+03
-8.563607917883544360e+03
-9.553420845338350773e+03
-9.664253054864277146e+03
-9.934204730609402759e+03
-9.341275775093059565e+03
-7.383329682562668495e+03
-6.030276535139885709e+03
-5.434165314356481758e+03
-5.585991413141432531e+03
-5.097513414836595075e+03
-3.711795716928935690e+03
-1.569743571410816230e+03
-5.750331223202822002e+03
-7.500622120307556543e+03
-6.417612362945180394e+03
-5.246263935106187091e+03
-4.733452631333746467e+03
-4.224069571059837472e+03
-4.811088190994704746e+03
-5.408461729392497546e+03
-5.638122767470826147e+03
-5.783098069517233853e+03
-5.104364236127986260e+03
-5.763865409634969183e+03
-6.767572451286357136e+03
-2.983411466537171236e+03
5.697394753541136652e+02
-3.415073937488295542e+03
-4.732789959221364370e+03
-2.436365650858498611e+03
1.021284747820098914e+03
4.530251921632731865e+03
5.227543105401494358e+03
5.305228751026696955e+03
5.928369076217617476e+03
6.100097057801969640e+03
6.193454182628691342e+03
6.285481333345517669e+03
6.157233469118900757e+03
5.153765497432003031e+03
4.101070220948873612e+03
3.444259952834031537e+03
3.318403746037380188e+03
2.661574934553940238e+03
2.560737300391767349e+03
2.499940741204034566e+03
2.735350278159507980e+03
3.018961841140085198e+03
3.407832309495065601e+03
3.680058954951324722e+03
4.242793064816451988e+03
3.931100304386839071e+03
3.390093320908923033e+03
3.174933771854567112e+03
3.657522100786738065e+03
3.373822844812710173e+03
3.318945468048955263e+03
3.488936554830661862e+03
3.607855821860572178e+03
3.637706897162192035e+03
3.097460042379682363e+03
2.587000692561326559e+03
1.872446360839454883e+03
1.567252421095008685e+03
1.292726755355000705e+03
8.450437586604364242e+02
9.640956858617007583e+02
1.041973784479964024e+03
1.020706563779158387e+03
9.243299348399382325e+02
1.374886987149792503e+03
1.701260264246294128e+03
1.158477483394643286e+03
-2.189380541191273096e+03
1.626396370988573779e+02
1.857621130848300481e+03
1.551921808788229100e+03
1.235210865070312593e+03
1.515112160135742215e+03
1.427713833310129303e+03
1.098640897915083997e+03
4.117888836516213473e+02
1.369838908096978969e+02
-2.431726596996999490e+02
-4.648506572631530389e+02
-7.040290416101788651e+02
-5.556541767722221721e+02
-6.476336436027055470e+02
-2.539688570210041973e+02
1.331602388247661395e+01
3.311924311810811332e+02
3.377205052322647703e+02
1.098807743566938022e+01
-2.041173311044518925e+02
2.954009786218268232e+02
7.245972698714126636e+02
2.884466118869543152e+02
5.699461275598233669e+02
5.910612032623580490e+02
8.036955044399022654e+02
8.485704138811037467e+01
-7.394684668069661484e+02
-1.431267294192766713e+03
-1.393609811004046605e+03
-1.450619826222533447e+03
-2.189366207685817699e+03
-2.562788250599305229e+03
-1.911841998291211894e+03
-1.175518119228585647e+03
-1.092903615420012102e+03
-1.425038890954904673e+03
-7.788870270187846927e+02
-7.350984190582769884e+01
3.690788442817827786e+02
7.037919725595854743e+02
3.065402573731964821e+02
-8.066440726294662511e+01
-3.598221816900270937e+02
-3.329435947985182906e+02
-3.380487080415331889e+02
-8.971556351181499167e+02
-1.285401956017564544e+03
-1.463864784262929334e+03
-1.821492301163114007e+03
-1.378343772062105018e+03
-1.125463639048242840e+03
-7.398750492689628118e+02
-5.586770214861775230e+02
-3.709961105180829691e+03
-8.091716372499519821e+03
-1.144193090858204778e+04
-1.067764383306698801e+04
-7.180920299514476028e+03
-3.417895205602579267e+02
7.617040243258644523e+02
6.146009051665481593e+02
-3.709600735104388747e+01
3.376762739680503245e+01
6.292212654344203884e+02
8.246679396232557337e+02
9.221077156421239351e+02
1.856709454562930830e+02
-1.006780389595042493e+03
-1.186461627495439870e+03
-1.061421779129484776e+03
-8.736144893373428886e+02
-4.370557522028380504e+02
9.829869749314651983e+01
9.853569496786135460e+02
9.941503397942523179e+02
8.626676347973076417e+02
1.038779167777599923e+03
1.421436663805868875e+03
1.653797380819377622e+03
1.582783979329159138e+03
1.458305041470668584e+03
1.423267035206348282e+03
1.530661831042401900e+03
1.400449546975800331e+03
1.534642169653627207e+03
1.114218458858228360e+03
6.110790691638439966e+02
5.102173418203459505e+02
8.546484677420194203e+02
7.002999378940049837e+02
5.430826952286782898e+02
5.640859983987663782e+02
3.952861925221197907e+02
4.616586819199575871e+02
6.992327112601052477e+02
9.239745630020688623e+02
1.099890372270816442e+03
1.108000298264461208e+03
1.581276396079799952e+03
1.789606272029797083e+03
2.212982455365519854e+03
2.434472361093093241e+03
2.513153485091751463e+03
2.456023411735397531e+03
2.298021472597433331e+03
1.410164503143043703e+03
6.585289169805389520e+02
4.111127761967526340e+02
1.238351267302238483e+02
1.657029038064414124e+02
2.976680384876316339e+02
2.526971400388793541e+02
-3.051996736672731458e+02
-2.739443975613023667e+02
6.833668148854684432e+02
-1.231092883075887556e+02
-2.654357855871030551e+02
9.184234753617107572e+02
1.298529946810886258e+03
1.957909115093888204e+03
2.263534062854782860e+03
2.259393425648367156e+03
2.268559806995353028e+03
2.314038870398793733e+03
1.892834279969153840e+03
-1.469591300744370415e+02
-6.170321137881595860e+03
-5.467254835430474486e+03
-4.516689314178395762e+03
-6.026730418603835915e+02
-2.600259500591221695e+03
-8.538462266137108600e+03
-4.629149093817300127e+03
3.187316310479996559e+02
-2.399838070412889920e+03
-3.761804280392870623e+03
-5.430431924248107407e+02
4.733652924980954708e+02
-2.572563620905512380e+03
-5.527654031032661806e+02
-3.012301620223853661e+03
-1.459086883156819795e+03
2.254018133675399440e+03
-7.860127526074916204e+02
-4.041740801263360368e+02
-3.759445511564936169e+03
-3.054815244116120994e+03
-1.819271411481126961e+03
-3.572840361496884725e+03
-3.510497326323113157e+03
-4.379199449168879255e+03
-5.181834939444447627e+03
-2.010432612375385361e+03
-2.835001563826642268e+03
2.664931141189802588e+02
-1.544857985161293072e+03
-3.240817412936495998e+02
-2.562115841771712894e+03
-1.835890812852434010e+03
2.298548630537218287e+03
1.222792897067200926e+02
-1.555652450622070319e+03
1.454713142759198035e+03
2.203352794839812759e+03
2.310265928687311316e+03
1.679575879250694925e+03
1.525245823624940613e+03
1.077206758930076830e+03
1.235445604779077485e+03
1.512004521960824832e+03
1.231857922865914588e+03
9.700651948426434501e+02
1.221651634025274234e+03
2.049589383976508088e+03
2.405876417316832431e+03
2.321582639196879882e+03
2.053730731868623025e+03
1.937421811058479989e+03
2.000739936816453337e+03
2.086846489513336110e+03
2.169418598379583273e+03
2.798889860726023016e+03
3.173348810783535100e+03
3.121755020768201121e+03
3.082052967298566273e+03
2.484323339522454262e+03
1.633407176113965534e+03
1.614148763066695892e+03
9.146128858529901891e+02
-7.671640953017196125e+02
-1.203550310821891713e+02
3.629275176487951171e+02
8.387287487888906981e+02
1.178991496192616069e+03
1.457427689858175881e+03
1.639333284218841982e+03
1.629540226065628303e+03
1.651245861849137782e+03
1.261427186972690379e+03
1.318998894355579978e+03
1.818065874215747726e+03
2.547650305137810392e+03
2.702686233367141085e+03
2.511108964103235849e+03
2.000819653921315648e+03
1.534884095622812765e+03
8.622832750762769365e+02
6.575870067404192696e+02
2.941091147352532520e+00
7.858362879966563241e+00
4.055607895681539503e+02
7.861277501684417075e+02
1.334828859730101613e+03
1.586259712824537473e+03
1.615242081730601740e+03
1.523902347335057812e+03
2.016060999249689985e+03
1.872781415965667065e+03
1.827993219136071730e+03
2.206625413727297200e+03
2.690701728747113521e+03
2.644235768355124492e+03
2.335196156163084652e+03
2.211568443628393652e+03
2.286296351406467238e+03
2.411363897553344941e+03
1.728705543792393883e+03
1.391303098073390402e+03
9.621322700835429487e+02
4.561769882290961391e+02
-3.066350561729050810e+02
-3.673009535041730373e+02
-2.483266903122088110e+01
5.988460518965260917e+02
1.611725873170665864e+03
1.912845209152602138e+03
1.732095019281422310e+03
1.800535812462795320e+03
2.053232318345477779e+03
2.601160001111467864e+03
2.816182345039261691e+03
2.026225348106785304e+03
-1.106513646889300162e+03
-5.830948773451245870e+03
-8.505152803329583548e+03
-9.028276174413078479e+03
-9.845569111508544665e+03
-9.811036075478532439e+03
-9.642562473474172293e+03
-9.135127035738702034e+03
-9.099712113217630758e+03
-8.803103139588893100e+03
-8.464404876797912948e+03
-7.867736463635618748e+03
-6.866991152714773307e+03
-7.090228919797255912e+03
-7.672187904552771215e+03
-3.962786714063465752e+03
-3.698720817926722702e+03
-6.953795498860961743e+03
-6.853272397101231036e+03
-6.170552983152715569e+03
-5.732810261308073677e+03
-1.909066239677344356e+03
3.193747775392768744e+03
3.833566122793335580e+03
3.800273477115205878e+03
3.488173278895164913e+03
3.314456538520609229e+03
3.468087282865027191e+03
3.267748719420324051e+03
2.854471679737224349e+03
2.446352312781945784e+03
2.662487707212876558e+03
2.615017232790643448e+03
2.480731571637433262e+03
2.610268590662071801e+03
2.893684395818992471e+03
3.021103504860583143e+03
3.052667471649654999e+03
3.107514018303351349e+03
2.906617262575806308e+03
2.948145485968368121e+03
3.181223499750845349e+03
3.236868986114920517e+03
2.778998485292370788e+03
1.956016923482541642e+03
1.422513534155817297e+03
1.089668452687739318e+03
8.918382738245084056e+02
7.755605685073252289e+02
6.127609601196410267e+02
8.476357402651915436e+02
8.032245033900742328e+02
1.132530398897014265e+03
1.099340954282394705e+03
9.475480814729943404e+02
8.474303869100574502e+02
1.113236130986441594e+03
1.447657227802664920e+03
1.493434514978776633e+03
1.544079526959542136e+03
1.558053815092401919e+03
1.458304840128301976e+03
1.627529780300039420e+03
1.622976572521692106e+03
1.028981653409031878e+03
1.352729547652374436e+02
-1.686319124204299840e+02
-4.676913342091963273e+02
-6.953892666974137455e+02
-8.711292680003072064e+02
-1.053757597378958508e+03
-7.357899641962548003e+02
-2.697891835308223563e+02
-7.249509302813124805e+02
-8.016745157945466644e+02
-4.550971393025102998e+02
5.042584919380050223e+02
4.674111472017020787e+02
7.371231292893560294e+02
7.717474519681791207e+02
5.892817992459504239e+02
4.586001697175921663e+02
1.516721211535741816e+02
6.759660857173545878e+01
-5.046754974369593327e+01
-8.103771045755700015e+02
-1.232739231440684989e+03
-1.751352391660830108e+03
-1.894621455731250535e+03
-1.572797156049904288e+03
-1.352794432928468495e+03
-1.242591795613278691e+03
4.614580882480410651e+01
4.903757569012125828e+02
1.590387018338945211e+02
-1.747756651327775046e+02
-1.120467211930838403e+02
-2.150061320174258981e+02
1.822347814595106570e+02
5.290417229221267235e+02
7.800503553498131737e+01
-3.116199558110606560e+01
1.353076750639199588e+02
-1.194508433610924811e+02
-1.066447946772954538e+03
-8.836243128316773436e+02
-1.067022105117699539e+03
-1.466698974323720904e+03
-1.508461605732375574e+03
-1.616071864034916644e+03
-1.302708003380571881e+03
-9.256435979917564509e+02
-4.166386029920710712e+02
-3.677392832149778314e+02
-5.470675088000166397e+02
-3.906136156826452748e+02
-7.925785902311818631e+01
-2.160906902962754828e+02
-4.791034539918285873e+02
-7.051671524845260137e+02
-1.381312654880834430e+02
1.192075488288459262e+01
-3.694521263143694227e+02
-7.890070372231731426e+02
-1.164505434090830249e+03
-1.375279935247231606e+03
-1.263429604485268783e+03
-1.489799385826567004e+03
-2.573086117232178822e+03
-1.533177915415520374e+03
-9.746864104051085178e+02
-6.819651228915711272e+02
-5.294299330322832020e+02
-5.702811301680098950e+02
-3.267114913115026411e+02
-1.052270161692863439e+02
1.682357569061700246e+02
2.922921697442232585e+02
-9.017891253377580085e+01
7.084988972183651867e+01
-1.585332420247310097e+02
1.067789469024770312e+02
7.021926950997659560e+02
3.397956925748520121e+02
-2.336318525270346242e+02
-7.407237845080002216e+02
-9.588090613620812519e+02
-9.485960799333140585e+02
-9.214971227044312627e+02
-7.795865107087424803e+02
-8.863527996776376483e+01
1.349020367848716262e+02
4.563470897757590592e+02
1.186971345673995529e+03
1.165594163463822042e+03
1.159483588367927723e+03
1.602496474676028811e+03
1.866948986065503277e+03
1.821916848821595977e+03
2.174340828023421636e+03
2.151649881538627596e+03
2.238579384138896330e+03
1.972818848892620736e+03
1.613809049346436495e+03
1.188522105954150902e+03
1.104781785862382094e+03
8.206319032112204468e+02
6.547902636110917456e+02
6.315292730992260886e+02
1.031147371568661811e+03
1.037754077766736373e+03
1.319249693690665936e+03
1.751487630972100078e+03
2.093141844882260557e+03
2.539265776206832015e+03
2.902652899273190542e+03
2.885866737942993495e+03
3.230196203626778242e+03
3.259575297502471130e+03
3.829008373241346362e+03
4.080395007815989175e+03
4.166651616003558047e+03
4.051606652339233278e+03
4.049194861527257217e+03
3.356266399795882535e+03
2.807829245602865740e+03
2.390017388958116499e+03
2.297690851234289767e+03
2.475520312605820436e+03
2.521556455876226664e+03
2.604857112653145123e+03
2.394346593003130693e+03
3.169252804683971476e+02
-3.110547461491468766e+03
-7.853057799674103080e+03
-7.423606862188334162e+03
-6.878244609135194878e+03
-6.879107186733045637e+03
-6.782314665758802221e+03
-5.598858545755056184e+03
-5.234688705751525049e+03
-4.953844509504816415e+03
-3.657388578879216311e+03
-1.821302003903891318e+03
-2.576556386656382983e+03
-4.223407571547711996e+03
-4.161830773227782629e+03
-3.293885021623610555e+03
1.039299449806497705e+03
-1.539316251397247015e+03
-3.906678377074699711e+03
-3.305734083165689754e+03
-3.038447419085443926e+03
-3.464895054660467849e+03
-3.395125230006809943e+03
-2.803179062821868683e+03
-2.324166131126098207e+03
-2.212118073221618033e+03
-2.080903483167768172e+03
-2.044510104291753805e+03
-2.484957169240359690e+03
-3.042174683296481817e+03
-3.193106537621370080e+02
2.525615433324633614e+03
-2.547395201300440931e+03
-3.203256906478104611e+03
2.613007292865790532e+03
5.802370676241339424e+03
5.197880072388269582e+03
6.154632443899065038e+03
5.946727083323292391e+03
6.680109875917699355e+03
7.007659536061591098e+03
6.871463887199643978e+03
7.243670171876385211e+03
7.206162951360072839e+03
6.779959691563019987e+03
6.663090204838702448e+03
6.624557098099918221e+03
6.056449242012278773e+03
5.311876454900606404e+03
4.522912078441542690e+03
3.917637444233620499e+03
3.425125409338206737e+03
2.318368019513245599e+03
1.246379708996195859e+03
4.732146264803886311e+02
-5.403690909917637697e+01
-9.683558164339333416e+02
-1.038734890867255444e+03
-1.621085608045269737e+03
-2.073282768859847693e+03
-1.241278099778051683e+03
1.890290269391106781e+00
-1.757346205386221243e+02
-1.360976849422864916e+03
-5.126947349787157009e+02
1.942244474796839995e+03
3.854111544997326746e+03
4.648905236996421081e+03
2.127911389417473856e+03
-1.365752719638077679e+03
-3.491058354461798899e+03
-5.870962723193557395e+03
-8.761394300352118080e+03
-9.433241954311926747e+03
-1.117942824310919059e+04
-1.528276737696435885e+04
-2.017140487488200233e+04
-1.655735955538795315e+04
-1.646140869665015634e+04
-1.538038902737127501e+04
-1.167348270582166697e+04
-4.160248516595834190e+03
2.390157115577466357e+03
4.569784973073761648e+03
4.488800202910326334e+03
3.457375228033432450e+03
3.406566649512139975e+03
2.075799659028919450e+03
-1.375716652676283275e+03
-1.604918798449499263e+03
1.210347984427513666e+03
3.935172607672959657e+03
3.254553912274815048e+03
2.611574608250777601e+03
3.154361977886216209e+03
4.785963520910896477e+03
8.338420367944860118e+03
9.715814955350542732e+03
6.801246112802227799e+03
3.637752489736513780e+03
5.644292996998914447e+01
-2.059622866647006504e+03
-3.414369662568658896e+03
-5.720756681651560939e+03
-7.830728960524848844e+03
-9.561225525644038498e+03
-1.212822425837324954e+04
-1.649568430120178164e+04
-1.686344848155673390e+04
-1.008042942023993965e+04
1.178416403700430010e+03
7.116108554015816480e+03
7.914751762874451742e+03
6.814330678274243837e+03
7.341831218432923379e+03
9.354251522879156255e+03
1.186174194464604443e+04
1.141426343885346250e+04
8.759831055039558123e+03
8.078518763775678053e+03
1.025236039719082328e+04
8.035340848818117593e+03
1.076542186299479681e+03
-1.048963955739341372e+03
1.674805738138624292e+03
3.894922198934349126e+03
1.860393017639419895e+03
1.981165783726318750e+03
7.451241170011156100e+03
9.858688928349009075e+03
5.521559375083144005e+03
-2.872080916428733985e+02
-5.175557111040980999e+03
-5.959501491729307418e+03
-5.349073644523552503e+03
-8.480251902080710352e+03
-2.928125018651110622e+03
6.215238336562496443e+03
6.214964509385202291e+03
2.263003915264437182e+03
2.833305474419282746e+03
3.958926342240584745e+03
1.974866319316872250e+03
3.634080560615317154e+03
5.061605376296613940e+03
3.374431208388523828e+03
-7.255601434340796914e+02
-4.295363633445961568e+03
-6.921017025906015988e+03
-8.782563069454312426e+03
-5.687006925319367838e+03
9.536039344496725789e+02
3.643268496933679216e+03
1.990932190046671622e+03
3.465008086801925060e+02
-1.691111191999100811e+03
3.680665787019040067e+02
1.792926722896826504e+03
1.919516943659623166e+03
2.812872517787352990e+03
3.874959510520484400e+03
1.532714955304519663e+03
-3.924835535785712182e+03
-5.813730635995401826e+03
-6.971623221225860334e+02
1.057858514985402508e+03
-1.307891851234135174e+02
4.908140809309820725e+02
2.416775016217291068e+02
4.058297952532016097e+02
-1.379001450511065343e+02
-2.244549017569847365e+03
-2.163132151347484523e+03
1.451292592453169618e+03
3.360682876064231550e+03
1.615979637357751244e+03
2.562146094756769344e+03
3.576984441812235218e+03
2.776461819901738181e+03
2.119581661668948072e+03
2.820304425685129900e+03
2.216576416168835749e+03
1.365329128041610375e+03
1.999507305445502652e+03
4.072111332491607754e+03
5.506969614670026203e+03
1.367092364174946169e+03
-4.614898550969422217e+02
1.145121320655105364e+03
-1.414152087940168940e+03
-6.261367031829277948e+03
-1.082861312692164211e+04
-1.155492623391341658e+04
-9.463347431279184093e+03
-2.778018426231836202e+03
1.615006646493453673e+03
3.223758021948678561e+03
2.053178020486726837e+03
-1.452822649783571023e+03
1.436816893766074600e+03
6.281105311913299374e+03
7.417894985360865576e+03
7.694159178658853307e+03
8.430904990623626873e+03
9.057048278864183885e+03
6.285609809605635746e+03
1.487516396645735540e+03
-2.267355369508542481e+03
-5.619936395576373798e+03
-1.046723066407286206e+04
-1.197127468128688088e+04
-1.272913219228451817e+04
-1.662287004403845640e+04
-1.584454887449343551e+04
-9.817221858544506176e+03
-2.373957107171353073e+03
-3.801732537611110729e+03
-5.810610973949779691e+03
-4.585695776553138785e+03
-3.378916380412953913e+03
1.467758273181008008e+03
1.891279998038715348e+03
-3.171360638853285309e+03
-6.181144378109631361e+03
-7.578078715094557083e+03
-8.096127767273409518e+03
-1.150935189098730552e+04
-1.200677508968139955e+04
-1.026938305291558208e+04
-1.081911979345736290e+04
-1.005400511749880388e+04
-7.263981609606144957e+03
-2.780089160530770187e+03
-1.367339187901206742e+03
-2.269772150968377900e+03
-4.153648754493618185e+02
-3.195190291826095290e+03
-7.360254381743664453e+03
-6.253558140624175394e+03
1.050824288791162417e+03
5.230908656728744063e+03
6.926752733302618253e+03
7.300346925439019287e+03
8.407726098954673944e+03
8.597896326310841687e+03
9.198939873893297772e+03
8.167780516376695232e+03
7.653462440782175690e+03
6.089015997743129446e+03
4.623559094579753037e+03
5.715111344399663722e+03
6.726592182839459383e+03
5.052931366909592725e+03
4.285082443659841374e+03
4.675065620006484096e+03
4.780932903833973796e+03
4.525697170356511378e+03
3.251385129600746495e+03
2.757164275363466913e+03
3.005598368187561846e+03
4.193662202681492090e+03
4.429386062698244132e+03
3.332865002261815789e+03
2.812035760723669682e+03
2.888717920566757130e+03
2.622894954500563472e+03
2.880536035384462593e+03
3.285522700598012307e+03
3.401695079424160667e+03
2.929279058583265396e+03
3.272444503798458300e+03
3.557124898256544384e+03
2.505388194133131037e+03
1.073520383827136584e+03
4.101061364820025688e+02
5.424297110588574924e+02
1.662266373707027242e+03
1.805530363574292778e+03
2.061319253272974038e+03
2.664549963156433023e+03
2.529207064083089335e+03
1.562376962452211728e+03
2.006051449956872375e+03
2.421280721524769888e+03
2.679088841741056513e+03
3.710492772941133353e+03
3.310719993274457920e+03
1.855477692313778789e+03
5.951218031936847410e+02
6.495559213034835011e+02
3.516402667119330658e+02
-2.680516356915886149e+02
-8.182405746530349688e+02
-5.701292894636331994e+02
7.849924034918401503e+02
2.166243555928176647e+03
1.142634407251257016e+03
8.041678824309664151e+02
2.657786702808506561e+03
3.164522909785941465e+03
3.052450506749213218e+03
2.467607019643747208e+03
1.328881613731935886e+03
7.782224218912639344e+02
1.134677853915306059e+03
9.982630063953652098e+02
1.567996010475483672e+03
2.444895256930656615e+03
2.494981275140018624e+03
1.514303606481466659e+03
9.198758028772441548e+02
1.157717901812606669e+03
1.359807275421197801e+03
1.535212757422879804e+03
1.530841892538474895e+03
1.890725706591212884e+03
2.370865281052125283e+03
1.696194339370432544e+03
8.876427586641912058e+02
1.115291947209111868e+03
1.186187975407821796e+03
-1.145785264017802319e+03
-4.311713092149143449e+03
-8.337640189985922916e+03
-8.490483895133964324e+03
-8.630961554897639871e+03
-8.665978782534457423e+03
-9.039597591271205602e+03
-9.130670802294365785e+03
-9.230035993878807858e+03
-9.032954538391959431e+03
-7.050333730544180980e+03
-7.348099952982535797e+03
-8.480678142523785937e+03
-9.139725058265867119e+03
-9.309194836153214055e+03
-8.001317569959932371e+03
-4.318331219040890574e+03
-7.522511367883391358e+03
-8.735931637428540853e+03
-8.252362367178973727e+03
-6.340595526612760295e+03
4.024603394245394838e+02
2.395702810577074160e+03
2.701253735162818430e+03
2.231389486746281364e+03
2.416924222456666485e+03
2.952564242402148466e+03
2.913313674946489755e+03
2.589517295133186963e+03
2.643225881136207590e+03
2.242294615197083658e+03
1.977609856267921259e+03
1.547109014215673142e+03
1.307949809668350554e+03
8.744967737530270142e+02
1.180828353682677061e+03
1.386055428810713920e+03
1.742112252600187048e+03
1.933990751259867238e+03
1.788921507414542475e+03
1.888974492083258383e+03
1.764185282905471240e+03
1.222713135750640731e+03
1.391836335301302825e+03
1.520387263174532336e+03
1.721732708411178692e+03
1.668286312224185849e+03
2.554334857685030329e+03
2.895306675174807424e+03
2.435395805832641145e+03
1.704542783520920239e+03
2.139662761458401292e+03
2.087734020572305326e+03
1.384962994014666492e+03
9.415701483638680429e+02
4.565222174863685609e+02
-3.543572079157136727e+02
-3.996853860370277971e+02
-1.487200840207486685e+01
-4.912328913749071546e+01
6.492203057968558824e+02
1.291163607737048778e+03
1.474101188508079986e+03
1.382997445742432546e+03
1.395461974056575627e+03
1.491650965602275846e+03
1.162973620591182680e+03
1.465657576871049741e+03
1.676931558788901157e+03
1.524945033114121088e+03
1.672698120542079778e+03
1.268512567624136182e+03
1.587651863502986771e+02
-3.095367873571846644e+02
-1.105276557873898128e+03
-2.151270389477201206e+03
-1.522683134182639378e+03
-1.445596505478059953e+03
-1.323734782930962183e+03
-5.253118944128611929e+02
4.617278318136625330e+02
4.046415412202039192e+02
5.596912590094026427e+02
8.530014825788209691e+02
1.013670181978432083e+03
7.816658023981370889e+02
5.185792832967955519e+02
4.650269367579716686e+02
5.033131034729952376e+02
3.288173629316230517e+02
-5.764594293006515500e+02
-1.636455042022152384e+03
-2.396465554840767254e+03
-2.742460265064420128e+03
-2.889346499482330728e+03
-3.013172607461724510e+03
-3.000007599657328228e+03
-2.090554227405097663e+03
-1.234178302154658553e+02
4.081842572302196004e+02
7.746375746336117345e+02
5.521877931059080993e+02
1.900782815295862918e+02
1.551683012490687759e+02
3.645122722638762980e+02
1.100905561202743854e+02
-3.600310234354629415e+02
-7.077552412299014577e+02
-8.392711951908662513e+02
-8.998739118397290895e+02
-4.974781771285518062e+02
5.051492453719959599e+02
1.476967625134358997e+01
-7.176991093548722347e+02
-1.073144917728759310e+03
-9.115679193755008782e+02
-4.221139905582260212e+02
-4.667844198175840802e+02
-7.325860543347989733e+02
-2.926662345101365759e+02
-4.871950478737768435e+02
-1.621006084493969013e+02
8.610428143243445902e+02
1.317043711006810781e+03
1.476608609747116361e+03
1.727028080263634138e+03
1.860460043107752426e+03
1.862947248275687798e+03
8.251676564569578431e+02
5.507952409209026428e+02
-2.046555621293729814e+02
-2.261856576856967820e+02
-5.287064250018036091e+02
-1.798048478833647778e+03
-1.561014336308606289e+03
-4.631656786830915280e+02
-4.808458632130473234e+02
-4.259561536493228004e+02
-3.035952821508935813e+02
-2.451617660661617890e+02
2.158223687735535350e+02
8.320316896884010021e+02
8.261910204355216365e+02
1.260965401708040872e+03
1.856810918953346800e+03
2.467468557753925325e+03
2.992667362203135326e+03
3.356485005589623142e+03
3.379089909535344304e+03
3.178193229807956868e+03
3.040748593148921373e+03
3.138788734648836453e+03
2.858758800210517165e+03
1.893783121539072226e+03
1.190373983408869208e+03
9.876714442093403932e+02
8.108580721195130536e+02
5.376321600748591436e+02
3.148569439628137729e+02
5.687219779650092732e+02
1.181031220080794128e+03
1.337661553926909164e+03
8.518359536764899076e+02
3.061339306880854565e+02
2.885190358302951381e+02
3.342276397684040603e+02
9.895222609388864612e+02
1.343430715313698101e+03
1.782594914594190413e+03
2.301403557334003835e+03
2.918884224870900653e+03
2.980601775427749089e+03
3.216854555728483774e+03
3.471103043736021846e+03
2.874378351264030243e+03
2.265470502354901782e+03
1.830025188556544208e+03
1.458526652883464749e+03
1.040804308796899022e+03
1.140571977150536668e+03
2.078335123912920608e+03
1.855616549818393196e+03
1.796444829711129614e+03
2.086237632023412971e+03
3.111811472508325551e+03
4.525173792104483255e+03
4.992994240672787782e+03
4.675226550872453117e+03
3.705104587693208487e+03
2.415518964174681969e+03
1.345395783583599268e+03
-4.532964171337355310e+02
-5.156592686472908099e+03
-1.147938246700163654e+04
-1.442270816169309182e+04
-1.361063428800719521e+04
-1.208317306464829380e+04
-9.473290619691895699e+03
-7.096972612249674057e+03
-5.417263268270529807e+03
-4.359133723988109523e+03
-3.601484778558667131e+03
-3.117402806966733806e+03
-3.916829479706635084e+03
-4.603692544030387580e+03
-4.539935597475996474e+03
-3.861653744409021328e+03
-1.027852063555990071e+03
-3.246369840247084085e+03
-5.318125807252597951e+03
-4.458156681886281149e+03
-3.627466360378772606e+03
-4.165097348539675295e+03
-4.336968488908847576e+03
-5.360072026358500807e+03
-6.304423838061404240e+03
-6.306917051112011904e+03
-6.844442544859743975e+03
-6.817054618591324470e+03
-6.573688160237968987e+03
-6.669274332063597285e+03
-3.744804564861378367e+03
-1.631261991461269929e+02
-4.042075445041367857e+03
-5.192569007861825412e+03
-4.543628253752916862e+03
-1.750165132679557928e+03
4.398876669958157436e+03
5.479551295953418048e+03
4.501867698418209329e+03
3.811784131118818550e+03
4.274320231501304988e+03
4.662749040842162685e+03
3.864031406857108777e+03
3.965090953651209020e+03
4.820126929510626724e+03
6.029308661345218752e+03
6.305652622607275589e+03
6.036262695478583737e+03
5.771231532428552782e+03
5.318554697353415577e+03
4.786318710051914422e+03
4.439641165506791367e+03
4.331562782339767182e+03
4.053147106878917839e+03
3.683521525085875510e+03
3.650757671582776311e+03
3.450876136609772402e+03
3.639901565238475087e+03
3.437882094271790265e+03
3.041936326498218477e+03
2.628102460363998034e+03
2.733449458035798671e+03
2.701125973400170551e+03
2.456137196746798054e+03
1.507380211880336901e+03
8.898999635379096844e+02
1.206230690381108843e+03
1.002737591889643909e+03
1.068631110046558433e+03
1.226729999936648710e+03
7.691760796444825701e+02
-3.909023598891661777e+01
1.009888146278917560e+02
1.305543297689835299e+03
1.040619638179733556e+03
4.862437766378204174e+02
-2.731695834409294093e+03
-6.520655038009875852e+02
1.992303329636238914e+03
2.690682275424745512e+03
1.549646653118715449e+03
3.019253558971491316e+02
6.426786815773878061e+02
9.154271481348303041e+02
7.870857165632529586e+02
1.194535139983890303e+03
1.574674466306780232e+03
1.263382577270969250e+03
7.058702641998660283e+02
6.189069394746653643e+02
6.215121666179736621e+02
-1.253397291621779317e+02
-6.416842192255929831e+02
-2.024468803027500883e+02
5.644487892813594954e+02
3.579770383086487868e+02
-4.468247393844754356e+02
1.030540006473836740e+02
8.856305356783784646e+02
1.588890453842790748e+03
1.919862876267542788e+03
1.960464168235055240e+03
1.343709357380985693e+03
2.495756042267337591e+02
5.802917183448365535e+01
-1.279067424425006436e+02
-5.152709735208710526e+02
-8.020978888101612938e+02
-6.963584036687841490e+02
3.519237633391000486e+02
1.055770895989464407e+03
6.340850440218055155e+02
1.699479456816837626e+02
2.953161994455628019e+02
3.521836767924668834e+02
5.765348507053107596e+02
9.374089322645735365e+02
1.547642945054913525e+03
1.489235046027249382e+03
8.322326395275241566e+02
4.165843509892052339e+02
-6.171066885989014139e+01
-9.386665237135836151e+02
-1.048387940037769567e+03
-8.749263431716680088e+02
-8.103192184882936999e+02
-1.292673102768349054e+03
-1.777071511075195531e+03
-1.567543315919211182e+03
-8.890042274402333078e+02
-8.704572213081260088e+02
-3.716992778015656768e+03
-8.157616974558616675e+03
-1.197043028923039674e+04
-1.168246774852969247e+04
-1.051976410563442914e+04
-9.699370694459807055e+03
-8.226311383084381305e+03
-5.575602739280496962e+02
1.299769881686726421e+03
5.797119153437861314e+02
1.217390727797951513e+03
1.079504384891837844e+03
6.258151935140207343e+02
3.876163508530419222e+02
4.889634396086703987e+02
1.975091251594819823e+02
-5.367757506451162044e+02
-7.349351418677829315e+02
1.280265935740296754e+02
5.620765457384668480e+02
5.851682457354853568e+02
1.192934347964787349e+02
4.913970973561707751e+02
1.363426750402644984e+03
1.666380928901055768e+03
1.660274634695801524e+03
1.718064906069452036e+03
1.796674321148770787e+03
1.779102949273101785e+03
1.869276402543721360e+03
1.269167662218488886e+03
6.077188378290649098e+02
6.948392314948747526e+02
