1.977288804974253480e+03
2.371454422604580031e+03
4.388077791097023692e+03
3.853086674477372981e+03
1.944651130981999927e+02
-1.044866926874147566e+03
-1.230987769030316713e+03
1.492017194301213749e+03
1.124102024789836150e+03
-1.543774863206466307e+03
-1.571708710905839553e+03
-4.603761527405910783e+03
-1.186974194984323958e+03
1.652866321869650079e+01
-4.538131364081563390e+01
-2.163749633775589700e+03
-4.606360489872832886e+02
-1.217128616918186026e+03
-7.762744610849586024e+02
-1.536119289773492710e+03
-6.977704936065068750e+02
2.989726957945350932e+03
1.917366644932504414e+03
1.939056170953428136e+03
2.812631286863414971e+03
1.335974050418057232e+03
3.211962014059317880e+03
6.986264723497392879e+02
2.989707700956274039e+03
2.781024372675688483e+03
2.096556071694420098e+03
1.797151993118569180e+03
1.592739489522896065e+03
1.538167135931200391e+03
2.044326141806718852e+03
1.971076555854764138e+03
2.055389152674300476e+03
2.603228448882889097e+03
2.756356693807202646e+03
2.690612590502441435e+03
3.358903214823666076e+03
3.518197532537195912e+03
3.315411984223592299e+03
3.879357351198265860e+03
4.064981243180100137e+03
3.750268499959783185e+03
3.241095912277256502e+03
2.511419567961228040e+03
1.637023175859835192e+03
1.095782054355971923e+03
2.764228246568620193e+02
-5.547831614307250447e+02
-4.054712689730733928e+03
-2.797654780521323119e+03
-1.175961714165686544e+03
-3.640434144387497781e+02
5.482515601545902655e+02
1.255980580411755000e+03
2.072343105410732733e+03
3.324137904833308312e+03
4.277946659342448584e+03
4.503426363585927902e+03
4.559458541085709840e+03
4.853908209937983884e+03
4.246369188021178161e+03
3.458707560225633188e+03
3.010040085451717005e+03
2.211781109317710616e+03
1.365298949987057767e+03
3.786984045135276347e+02
-2.833201105679003717e+02
-1.113572613469226553e+03
-1.330693879096586215e+03
-1.192339963018987191e+03
-9.134433772434211960e+02
-5.233316388585769801e+02
-8.073571417471542588e+01
-2.252900873794930021e+02
4.427645101204072375e+02
1.679536746622053442e+03
2.852140430474554250e+03
3.351260993243955909e+03
3.556049097885702849e+03
3.599613151858923175e+03
3.371997025156260861e+03
2.958081056630284365e+03
2.093788658946179112e+03
1.216167447565673911e+03
-1.317352447238556010e+02
-1.119949402856198049e+03
-2.067476470262055500e+03
-2.714298956531847125e+03
-2.681366368095889356e+03
-2.894591093712943803e+03
-2.745889326000773508e+03
-2.269144742666432194e+03
-1.404265186209548119e+03
-7.211056837872610004e+02
-1.424341682584066859e+02
1.257026798757215147e+03
2.191322551220506739e+03
2.472413252920734521e+03
2.474562035170030413e+03
2.287907642117492287e+03
1.973716820832072017e+03
9.820965453372651837e+02
-1.992841727066605927e+03
-6.112989832824655423e+03
-8.513102656120194297e+03
-9.392943410005331316e+03
-9.979408233827683944e+03
-9.972146587178749542e+03
-1.033186525036075000e+04
-9.564722984011514200e+03
-8.892351728336212545e+03
-7.680365518961851194e+03
-1.912963625895151154e+03
-1.738579353779712164e+02
-4.375977778616830619e+03
-5.958215299612766103e+03
-5.000244228385558017e+03
-4.020913431277676864e+03
-2.835110191938169010e+03
-2.715504120754470023e+03
9.312738162343654267e+02
-4.756134494082842252e+02
-3.442928868317405886e+03
-4.024377989470363445e+03
-4.322663256010189798e+03
-4.851536778520028747e+03
-2.710836800360135385e+03
1.625025019483090034e+02
1.657704940589940179e+03
1.538244782607565639e+03
2.077263840941180661e+03
2.511933708666912480e+03
2.447439592149229611e+03
2.477168253703476694e+03
3.306496320704913160e+03
4.023675911071951759e+03
4.843966466118853532e+03
5.411714396163867605e+03
6.075118482729565585e+03
6.402506212342420440e+03
6.321072308582561163e+03
6.328941246897737074e+03
5.869454307614978461e+03
4.940784975639978256e+03
4.108228281102360597e+03
3.175200582892970033e+03
1.934940610926830232e+03
1.086745037869986163e+03
2.627782764969587106e+02
-3.019003172023804495e+02
-6.621554373286613782e+01
6.391562202897720226e+02
1.174494728953461390e+03
1.889161474614678127e+03
2.703320757913993475e+03
3.274114292039714655e+03
3.958874698104646086e+03
3.521788952620630880e+03
3.506120188648480053e+03
3.839226968779847994e+03
3.723249144879104733e+03
2.943313304855952993e+03
2.243527939805723690e+03
1.320086930672378685e+03
2.191955619477641051e+02
-8.089973613374720571e+02
-1.952385053918094854e+03
-3.140863093243649018e+03
-3.739870306298048035e+03
-3.888642134930214070e+03
-3.942078377374760294e+03
-3.773895096250718780e+03
-3.686864499318570779e+03
-3.887969575333188004e+03
-3.344279934652442989e+03
-2.132595728071319627e+03
-1.624778658172151836e+03
-5.448102499135076187e+02
1.921216717172443964e+02
4.024413936719363392e+02
-1.149560622844724804e+02
-3.973393033039271813e+02
-1.182844290082346788e+03
-1.969473999167233842e+03
-2.449382090002117820e+03
-3.447549641695763057e+03
-4.344958120899063942e+03
-4.342616076851506477e+03
-4.365620780994787310e+03
-4.970136945105941777e+03
-4.886147399078606213e+03
-4.720717582979550571e+03
-4.197979178247042910e+03
-3.065050308502035023e+03
-1.582884437312047794e+03
-5.675495869209486273e+02
5.317481477957336438e+02
9.318510336234284068e+02
6.856918611473189458e+02
6.830755594955087417e+02
6.738581108927501191e+02
7.918674956687218582e+02
5.749859059644844592e+02
1.600019027543618222e+02
-2.093382869789251686e+02
-9.223149405438541635e+02
-1.434185889138051607e+03
-1.621205611034786898e+03
-1.832598588987470293e+03
-1.572612452569766674e+03
-1.257572213296647533e+03
-1.099746097856958613e+03
4.267331762431579278e+01
9.973967134029227282e+02
1.964226617865625940e+03
2.484809419928577427e+03
2.796908970390750710e+03
3.013244674510951427e+03
3.771544186642044679e+03
4.351591494220070672e+03
4.247041107810875474e+03
3.688488373739290182e+03
2.818593186236483689e+03
3.261099097705515760e+03
2.973671775315111972e+03
1.551024556125912795e+03
-4.322476214539386206e+02
-3.315488394898036859e+03
-6.486013616847996673e+03
-1.567204556763049823e+03
2.371666583984137560e+03
3.344288563650126434e+03
4.401137347213973044e+03
5.151810529770662470e+03
6.349044850705378849e+03
7.745442533103365349e+03
8.133776908096445368e+03
6.327671922986067329e+03
4.302740450526427594e+03
7.040635724331403253e+03
7.222994353732270611e+03
6.528478303472656989e+03
6.065888519883294066e+03
6.097494294159556375e+03
6.827003842419875582e+03
7.705303467162647394e+03
7.492887838253216614e+03
6.651847592709103083e+03
6.340392450349524552e+03
5.493847204554858763e+03
4.378324218964879037e+03
3.881242894366507699e+03
3.519883627003358924e+03
3.589333047445737520e+03
3.895442077016790336e+03
3.820776679517598950e+03
3.954974385394060391e+03
3.635889133152921659e+03
3.143851262018318266e+03
2.241937385977754730e+03
1.058339680116876707e+03
3.650689034877780159e+02
-4.120024550640333700e+02
-1.530177112413131908e+03
-1.919881742255838162e+03
-2.122776463571261502e+03
-2.934639768877915230e+03
-3.403848702083009812e+03
-3.835725288094379721e+03
-4.550953983845110088e+03
-4.785277828356392092e+03
-4.330925125069852584e+03
-4.197368999211551454e+03
-3.966761289082058283e+03
-2.949290886572354793e+03
-1.907931069213957016e+03
-1.613065713543572201e+03
-1.643806955539133241e+03
-1.874349537548669787e+03
-8.728472506239850190e+02
-1.242110527572863703e+03
-2.566716137067047384e+03
-3.210956386560103510e+03
-3.709455311329612414e+03
-3.290433890697148399e+03
-3.868113162755745179e+03
-4.820636984486775873e+03
-5.610121924721704090e+03
-4.861598482069200145e+03
-3.372130023739358876e+03
-2.969810027186294974e+03
-2.627591095884106380e+03
-2.746459328899085904e+03
-2.776374031736771485e+03
-2.633225498221339421e+03
-3.159000528218584805e+03
-3.312796468472134620e+03
-2.934621109669855286e+03
-2.756356284456318463e+03
-2.096847192452145464e+03
-2.136888222153002516e+03
-2.691239576129172747e+03
-6.168744471101508680e+03
-8.645362968724242819e+03
-6.367922295853082687e+03
-2.375004998950532809e+03
-3.220838806865359857e+03
-6.604471440891572456e+03
-1.168275754252590195e+04
-1.089458985731906978e+04
-8.419880603376508589e+03
-7.105391984572503134e+03
-1.170097037004398771e+04
-1.048742778000635553e+04
-8.658403041714569554e+03
-6.959697737486562801e+03
-4.880259718321908622e+03
-6.144831995565972647e+03
-6.725103190026414268e+03
-3.960039155198841854e+03
-4.034464749720362761e+03
-4.456059012532409724e+03
-5.870451313137352372e+03
-8.303227580971919451e+03
-3.223533059899223645e+03
-5.591170890177107140e+03
-5.178667815472701477e+03
-9.666799413096172430e+03
-8.174847245173249576e+03
-7.376417562425831420e+03
-9.456777286493750580e+03
-8.229886106657933851e+03
-3.971966789301970039e+03
-2.733334975453959942e+03
-1.225796822262155047e+03
1.208359435153455479e+03
4.216503760472428439e+03
5.971334565119163926e+03
6.363458551083324892e+03
6.902311014682264613e+03
8.143537573840089863e+03
7.959888380055814196e+03
7.325568681032613313e+03
6.701147737023144145e+03
5.888366772729183140e+03
5.056791547506582901e+03
3.905086025859362053e+03
2.711712979650122179e+03
1.424131351759270046e+03
-1.914757448212763435e+01
-3.386887382838449412e+02
1.379983681782998019e+03
2.475312611753929104e+03
1.070855006780733902e+03
8.931056868973405471e+02
4.313376752255808810e+02
1.054033093715325094e+03
8.630885717343757051e+02
-3.126774106893391263e+02
-2.374395501957564647e+03
-4.020197193075262021e+03
-4.510625966847128439e+03
-5.668297269886326831e+03
-4.959932510768372595e+03
-2.758246036532377275e+03
-4.061419233451345008e+03
-2.412441974715211018e+03
1.677475205434581767e+03
3.083236999130318509e+03
5.716563652487080617e+03
6.675697588742017615e+03
6.491937411778490969e+03
7.113201687227522598e+03
7.362097585391414214e+03
5.870394852190109305e+03
4.861038258546825091e+03
5.191439510682444052e+03
3.850510093836195210e+03
2.820719655680894903e+03
2.887923505576826756e+03
3.632451782187111803e+03
4.817698795093640001e+03
5.437931629102403349e+03
3.981288408050265389e+03
2.126304463264577862e+03
2.473119888277968585e+03
2.225992580649865431e+03
9.181103201957813553e+02
-8.353604689368002028e+02
-1.740112063326284897e+03
-1.823918762412744627e+03
-1.908658844839525045e+03
-1.926181978482795330e+03
-9.562927164175667940e+02
-4.168043744625791192e+02
7.684133792590807843e+02
1.237463148710888390e+03
-1.935656652744446262e+02
-1.110730453238224300e+03
-3.112933418723067007e+03
-5.208095281361723210e+03
-4.704280506402266838e+03
-4.252524157733276297e+03
-2.422831543714481086e+03
-7.602812006063177250e+02
-7.519409781942493964e+02
-2.621894898845231637e+03
-4.003353020964077132e+03
-5.251572195353232928e+03
-4.636693172961995515e+03
-4.841949855432652839e+03
-5.885539888752862680e+03
-5.559681684724513616e+03
-5.606745686740056044e+03
-5.364897347629803335e+03
-4.471401549233644801e+03
-3.975672592945809811e+03
-4.071984053816336655e+03
-4.171660276759699627e+03
-4.092027353343181403e+03
-3.463435516030343479e+03
-3.009288030879974485e+03
-3.601026621296854955e+03
-6.149180700403077026e+03
-6.089219765831403492e+03
-1.013963403697733884e+04
-1.294200046079175445e+04
-1.370893841862939189e+04
-1.247796769098451296e+04
-1.136864375473718792e+04
-1.106456158107263218e+04
-1.162926195695598835e+04
-1.057037895092546023e+04
-7.652473383824882148e+03
-5.321183575293449394e+03
7.067917621754818356e+02
5.454741650935585312e+03
7.405096041662112839e+03
8.204196436648668168e+03
8.921473121231963887e+03
7.920218782053342693e+03
6.795709799528812255e+03
6.496288060178761953e+03
6.962192149734713894e+03
7.603662964368628309e+03
6.519921111458776977e+03
5.780295939326251755e+03
5.686989599227134931e+03
5.132278563188702719e+03
4.224469952161245601e+03
5.158762800998136299e+03
7.033330870260246229e+03
8.181478645394005071e+03
8.716487345777710289e+03
9.549681198280459284e+03
1.035641184558735949e+04
1.138699701008056581e+04
1.221876458661625657e+04
1.322302489231882828e+04
1.397905933622531848e+04
1.451219862500906856e+04
1.450275660262118618e+04
1.426512240723353534e+04
1.431762794781252342e+04
1.373860019189954983e+04
1.259040397437459251e+04
1.188437303247040109e+04
1.156586013319895937e+04
1.179335654749327841e+04
1.162320385917046224e+04
1.226080429470539457e+04
1.214060263320352351e+04
1.193312500830621866e+04
1.196891304328755541e+04
1.179051576374200340e+04
1.169642014986763752e+04
1.213622360779246810e+04
1.180558572434259622e+04
1.098114003658288675e+04
1.040852124398507476e+04
9.328264657864372566e+03
8.676099961231817360e+03
7.409818963885423727e+03
6.007117401588323446e+03
4.995783027065347596e+03
4.612676102411821375e+03
5.029227777634278027e+03
5.867509580776449184e+03
5.545078643312799613e+03
4.343681977894927513e+03
4.106237019684114784e+03
3.616635419684711906e+03
4.481843346258423480e+03
4.838004371949367851e+03
4.998291559096598576e+03
5.985784870193519964e+03
6.766285564888265981e+03
7.228068555099423065e+03
5.532318523397829267e+03
7.862450526046609411e+02
1.646991252170267899e+03
5.430675615749626559e+03
3.678542546171732738e+03
-2.080090392186841200e+03
-5.450845312488528180e+03
-7.397444501088090874e+03
-4.352438166730957164e+03
-7.260425940557178365e+03
-9.428026504313074838e+03
-1.201977782177903646e+04
-1.049521134366792285e+04
-7.651824829254253018e+03
-7.033978139443731379e+03
-7.693113186003030023e+03
-1.155660746919162921e+04
-9.667755389728858063e+03
-1.071683749775666547e+04
-1.051008204010413465e+04
-1.071182643297344111e+04
-8.373310416079701099e+03
-1.119674390308138027e+04
-1.290040631063050932e+04
-9.541514352361140482e+03
-7.988139563259299393e+03
-9.493472880116121814e+03
-1.343863524937934017e+04
-1.379474128588832355e+04
-1.276694223464436072e+04
-1.645333661534439307e+04
-1.839193041474979327e+04
-1.663474525451059526e+04
-1.606783535437168030e+04
-1.708721356505449876e+04
-1.627675627752553737e+04
-1.836936453026724848e+04
-1.706996731805729723e+04
-1.548357175601408744e+04
-1.435498321961906004e+04
-1.783400597449174165e+04
-1.571461494342230617e+04
-1.430571495947441872e+04
-1.423325486221898609e+04
-1.482007463634057603e+04
-1.545002300093212580e+04
-1.635200491171237445e+04
-1.748701209938331522e+04
-1.910505642421146331e+04
-2.042892307955028082e+04
-2.193952501119088629e+04
-2.230175791853051851e+04
-2.171859706730171456e+04
-2.146490586229801556e+04
-2.208655044807343802e+04
-2.396348827911695844e+04
-2.607231735931388539e+04
-2.787890001411903722e+04
-2.881022512683085006e+04
-2.822917042968540409e+04
-2.648065751588272906e+04
-2.578444725992203894e+04
-2.437957638497105290e+04
-2.203440188157141165e+04
-1.927318387688065559e+04
-1.772554018256927884e+04
-1.647859049900099853e+04
-1.540522579950356703e+04
-1.537287582938399646e+04
-1.428963182896892067e+04
-1.277797132000007332e+04
-1.117286537636507273e+04
-7.675623019960369675e+03
-3.740542269507378023e+03
-1.040899811399103100e+03
1.543960574104810803e+03
5.334940507561280356e+03
7.102821019577893821e+03
7.404106353453844349e+03
8.112969920988371086e+03
9.833653710995051370e+03
1.397519515871409385e+04
1.234136508195565330e+04
9.080940908387186937e+03
7.503854653330646215e+03
4.125268768970354358e+03
5.589108359699735047e+03
8.410101280484044764e+03
1.713393310698577261e+04
2.490022502941043422e+04
2.740014762043997689e+04
3.574977357067309640e+04
4.360346294901107467e+04
4.390988076604395610e+04
4.412688573597212962e+04
4.882242078172831680e+04
5.798744523067815317e+04
7.003993910249344481e+04
7.460178420223892317e+04
7.030468779453141906e+04
6.203961249534980743e+04
5.356138019606647140e+04
4.758368405855326273e+04
4.275222811172511865e+04
3.978466634299264115e+04
3.691762128728115931e+04
3.413066955427180801e+04
3.234729654922482587e+04
3.007203006846160497e+04
2.776326391783235886e+04
2.606325520536168551e+04
2.539241749260060897e+04
2.474435287234592761e+04
2.112332382621867873e+04
1.674262096718664179e+04
1.753244902553056454e+04
2.319417366171396498e+04
1.930803380453755744e+04
1.831422282284990069e+04
1.844790780558291590e+04
1.932917742810836717e+04
1.855616833456445602e+04
1.627978057135931522e+04
1.893784574104558124e+04
1.798468943424497047e+04
2.271109175554954709e+04
2.264669275650505369e+04
1.908852413208848520e+04
2.377842897934896610e+04
2.163536345085261928e+04
1.442923941225407543e+04
1.160989357758231563e+04
1.451918623860828666e+04
1.306511763265545596e+04
1.137155490860469399e+04
7.746235591681127516e+03
-1.428428923740884215e+02
-4.745835957062692614e+03
-8.021091513278552156e+03
-1.046888675391513061e+04
-1.413945107371503946e+04
-1.743697253755137353e+04
-1.590954052647400567e+04
-1.628736529339807930e+04
-1.793783638256956328e+04
-1.961213106300826257e+04
-2.222544225233187171e+04
-2.431194013386444567e+04
-2.608985999555993840e+04
-2.783552864871545535e+04
-2.983819292750381646e+04
-3.103405631759330208e+04
-3.150336767486657118e+04
-3.123424749344959855e+04
-3.068899195086615873e+04
-2.990968815765864929e+04
-3.020228966962817503e+04
-3.002091876786986904e+04
-2.936057842347442784e+04
-2.932330940401447515e+04
-2.960337726059474153e+04
-2.986883405724417389e+04
-3.009078122744747088e+04
-3.016625685524274377e+04
-2.968221878984329305e+04
-2.925547604011902149e+04
-2.949497053286312803e+04
-2.929162401505103844e+04
-2.920347972733186180e+04
-2.849432696477003992e+04
-2.741391941550885167e+04
-2.742418254332269134e+04
-2.711590232766180270e+04
-2.590785472001034941e+04
-2.541983655085099599e+04
-2.443949141778729609e+04
-2.370442262873643267e+04
-2.226316981286317605e+04
-2.034537408510747264e+04
-1.831355438179634803e+04
-1.614614785918169218e+04
-1.504575425903938776e+04
-1.412491544762300146e+04
-1.267087377804529206e+04
-1.155448694323763266e+04
-1.159319737062295462e+04
-1.124345304324880999e+04
-1.102555124481566418e+04
-1.164991388255588208e+04
-1.111005902641895773e+04
-1.011283632505109381e+04
-8.833496309517660848e+03
-6.701318053320545914e+03
-5.194343329669255581e+03
-4.864803106537365238e+03
-4.252576284421672426e+03
-3.399833187387722319e+03
-1.666540949754276880e+03
-1.825591070522015968e+02
1.265380614162356778e+03
2.771490351085616567e+03
3.579910962570643733e+03
4.677868160145832007e+03
4.995634979066892811e+03
5.233557868596807566e+03
5.009928389080923807e+03
4.734072063569898091e+03
5.246450869615649935e+03
5.630494087924362248e+03
5.306497224584287324e+03
5.007713516547185463e+03
4.932726727081963872e+03
4.740134044029814504e+03
4.597428841404208470e+03
4.915218897527876834e+03
5.657085611885654544e+03
6.779669334387909657e+03
7.310611030969409512e+03
7.767608833170817888e+03
8.014334441725043689e+03
8.474531195806837786e+03
8.826964537998943342e+03
9.030417582406678775e+03
9.070690413616603109e+03
8.888539683651637461e+03
8.093710350786956042e+03
8.071978636885068227e+03
8.053095947765616984e+03
7.461892242882153369e+03
6.697107753381878865e+03
6.044654313139663827e+03
5.662373512242003017e+03
5.539114429230134192e+03
5.341784618544570549e+03
5.602232483003508605e+03
6.353285962196799119e+03
7.135879416459226377e+03
7.704864846428093188e+03
8.216148224420176120e+03
8.923757193919042038e+03
9.708503279529142674e+03
9.224261050708448238e+03
7.474952912456069498e+03
5.305450707236080234e+03
6.686551001047797399e+03
1.241603165880279994e+04
1.290762486179113148e+04
1.204424909484482305e+04
1.102678883689864961e+04
9.878955765102968144e+03
9.035597185319473283e+03
9.259298673485753170e+03
9.022773101706647140e+03
8.289962581220401262e+03
8.780561595839184520e+03
9.340252643405854542e+03
9.621695197548187934e+03
1.065279092299932745e+04
1.165650902994184980e+04
1.223713856381684309e+04
1.318202009503958652e+04
1.367027177402436246e+04
1.428893339813356943e+04
1.447745768738276092e+04
1.499231907755320753e+04
1.495359727928441134e+04
1.455829138033108029e+04
1.402188772651218278e+04
1.339287192297952606e+04
1.258936762682537665e+04
1.244166942537965224e+04
1.217033261006406428e+04
1.148078137534769485e+04
1.130170186943479530e+04
1.123901704008472370e+04
1.176726110257232540e+04
1.200266878146505223e+04
1.234251364672725686e+04
1.254685728767828550e+04
1.249335680986501211e+04
1.220915364896023857e+04
1.246199460737480513e+04
1.238610772270511006e+04
1.231782236366087636e+04
1.164953758088283030e+04
1.027617041907911880e+04
8.896628740527612536e+03
7.496321484389349280e+03
6.020150832881306087e+03
4.638799753539515223e+03
2.995324345237544094e+03
1.804793286894282346e+03
9.529400369137288180e+02
5.925059553556194736e+00
-5.885895251724186892e+02
-9.138195609135981385e+02
-8.808424846056692559e+02
-1.176395163233046105e+03
-1.451055713685660521e+03
-1.384042853273788751e+03
-1.546483547416763486e+03
-1.680545372509527624e+03
-2.054457872740710172e+03
-2.201442341791582294e+03
-2.932689578872767470e+03
-3.227476033638653917e+03
-3.816163495491475715e+03
-5.035040305308324605e+03
-7.625524899993620238e+03
-1.014909489912808203e+04
-1.359510497472227689e+04
-1.835278084315441083e+04
-1.906737928899148028e+04
-1.907621759945031590e+04
-1.904469315801389894e+04
-1.852222811680214727e+04
-1.777222824603218032e+04
-1.740826325322118282e+04
-1.714172458272148651e+04
-1.627307789408558347e+04
-1.543683956058312833e+04
-1.288053342912506196e+04
-1.367257005549234964e+04
-1.477537581837089238e+04
-1.456238513216718275e+04
-1.092904088452886026e+04
-1.139486947140899974e+04
-1.588836264801902325e+04
-1.677305264126334441e+04
-1.740460356095478710e+04
-1.777948587795849744e+04
-1.777706039180322477e+04
-1.796286463030590676e+04
-1.548653455375027443e+04
-9.472361252095661257e+03
-1.030259658347375989e+04
-1.618760312479134336e+04
-1.736681360061218948e+04
-1.619384136499646957e+04
-1.532861990456297644e+04
-1.447631286841201836e+04
-1.343438134440370595e+04
-9.461948081363972960e+03
-6.118691784620130420e+03
-1.054913303594355239e+04
-1.379812387552993277e+04
-1.445213973164918934e+04
-1.197716276852502597e+04
-7.577040573817527729e+03
-7.019179549637624405e+03
-7.101372936040710556e+03
-6.400873411634135664e+03
-6.098272720982243300e+03
-5.979308757421247719e+03
-5.439627210797902080e+03
-5.603940448482673673e+03
-4.904701274882584585e+03
-3.759566358374439460e+03
-2.904482436150466128e+03
-1.953609378451835255e+03
-8.890709057273934377e+02
2.194488466653752923e+01
8.774164979169222534e+02
7.803176537248278919e+02
5.014467646411890769e+02
1.538037165724052784e+02
-2.586953045890838325e+02
-7.942490956387890719e+02
-8.450168674206483956e+02
-6.997081309749698903e+02
-9.929909825142070758e+02
-9.607071344798014252e+02
1.937098832726578053e+02
9.200255324710300329e+02
6.947903499342479563e+02
7.066140297663320098e+02
1.383571160507628520e+03
2.024790831167726992e+03
2.612526718470627657e+03
2.568956528083092508e+03
3.302719194320695351e+03
4.672131632252008785e+03
5.348882081490867677e+03
5.271505466048145536e+03
5.977063942348306227e+03
6.227309695127082705e+03
5.660555623899802413e+03
5.343923483093416507e+03
4.628607683711088612e+03
3.768464813947246967e+03
3.309935041182885470e+03
2.895213486495767029e+03
3.023615071819969216e+03
3.819674021208359591e+03
3.884416121619496607e+03
3.932276071415889419e+03
4.640823954377327937e+03
5.706590375481802766e+03
6.605911415865580238e+03
7.095561452827459107e+03
7.689146121999889147e+03
8.582693843793123960e+03
8.824121418387567246e+03
8.995634939320541889e+03
9.612305488549980510e+03
9.602345325727836098e+03
9.036878699535087435e+03
8.353075257774778947e+03
7.917964457912771650e+03
7.994601878074082379e+03
7.226057754095262680e+03
6.668435917029392840e+03
6.386805705972351461e+03
6.316393284272333403e+03
6.128285696933174222e+03
5.947603961483550847e+03
5.669540595201221549e+03
5.472239078525406512e+03
6.189911837653256043e+03
7.118660729207168515e+03
7.182574608222604184e+03
7.182724488276550801e+03
7.298170267442130353e+03
7.189097096245161993e+03
6.906556662737102670e+03
6.828651028822348053e+03
6.864391198974869440e+03
6.713800868618071945e+03
6.099996195043773696e+03
5.335090313961522043e+03
4.166064609243250743e+03
3.096994868652364403e+03
1.900881016402488740e+03
1.587793716023381876e+03
6.747874534140429432e+02
8.328541251247232822e+02
2.328032478914774856e+03
1.473385494053211914e+03
-3.603960155933503302e+03
-4.915993119836495680e+03
-4.098688582476489501e+03
-3.912905742765933155e+03
-3.713550780893438969e+03
-1.194646773327252049e+03
-1.611270515496013616e+02
-3.942831344740092845e+03
-4.970883244353961345e+03
-5.889265942249729960e+03
-6.819037817547345185e+03
-7.414304257240130937e+03
-5.508075264461032020e+03
-1.025285536651749680e+03
-3.899132735822577729e+02
-9.850131792880329158e+02
-1.060581783018146552e+03
-1.227592605030514505e+03
-1.275062847338258280e+03
-1.500896582116660966e+03
-1.003992647850687035e+03
1.315953434256367416e+02
3.038990637799352612e+02
1.339266825441384867e+02
7.972934584700568905e+01
5.173079294621484223e+02
6.936147691102289627e+02
8.936931115832925343e+02
-5.294086146776450050e+02
-1.476722364522999897e+03
-2.079259127958734098e+03
-3.152029318844195586e+03
-3.849044731843575846e+03
-4.488331702057018447e+03
-5.008958203587784737e+03
-5.273960528313589748e+03
-5.171289847315697443e+03
-5.322903130794763456e+03
-5.513772303711916720e+03
-5.449898319374370658e+03
-4.432261418039894124e+03
-3.259850957560325696e+03
-2.847563383207672359e+03
-2.647328428724667447e+03
-2.379121677514767725e+03
-2.235952131241884672e+03
-2.315883734397603803e+03
-2.710913852961323755e+03
-2.905026946890396175e+03
-3.350207775866620523e+03
-3.707475681057364454e+03
-3.690813001844715018e+03
-3.805218717076621488e+03
-3.833773435311253706e+03
-3.750516162098570476e+03
-4.635440159965146449e+03
-5.166517979895842473e+03
-4.333698371588291593e+03
-3.820995795750623074e+03
-3.970476454386863224e+03
-3.773993233144634814e+03
-3.146512566314757350e+03
-2.547671615161301361e+03
-1.742502813695195982e+03
-1.482100212067037091e+03
-9.853179075768151733e+02
-5.282937312297092376e+02
-3.879814366809043804e+02
2.236239908885112015e+02
-2.315241315143223915e+02
-2.035341470736474093e+03
-1.765752372484054604e+03
-9.817441156221938172e+02
-5.853837639077096355e+02
-1.021638821104697286e+03
-1.217512792585982879e+03
-1.661014807379473723e+03
-1.861053125125236647e+03
-2.512568760310432026e+03
-2.123531594099153608e+03
-9.328426887824269897e+02
6.256675838472509099e+01
9.318447449936653584e+02
1.196934185481419490e+03
1.844910516471367373e+03
2.646912270888645253e+03
2.690945485996609932e+03
2.518011148736387440e+03
2.519213374623589971e+03
2.701529953430390833e+03
2.063993078929161584e+03
1.676675175234732933e+03
1.369576800248611335e+03
9.768109392170258616e+02
9.523227768136868008e+02
5.381435641336843219e+02
5.353217387393020772e+02
9.549117230573219786e+02
1.265977411684517847e+03
1.425667726867639431e+03
1.425046144436077157e+03
8.571008033405225888e+02
8.009106939147879984e+02
1.749604250197559850e+03
2.433224481462034873e+03
2.995839048911936061e+03
3.233513412996723218e+03
3.207284933274245759e+03
3.425189400662962726e+03
3.574265887123930497e+03
2.945506639546311362e+03
2.305920967799235314e+03
1.889543472708206764e+03
8.293605843250508087e+02
3.543619615499167139e+02
3.995437131836126241e+02
8.459264477633537354e+02
8.674081905339654668e+02
8.990142728783745270e+02
1.056835813712296158e+03
1.300883523931513309e+03
1.699155400376309899e+03
2.945625652415670174e+03
3.857381782297569316e+03
4.151333160363714342e+03
4.393456484997276675e+03
4.516803297916747397e+03
3.866425528000424947e+03
2.805283367304539752e+03
2.448391360211247502e+03
1.929875433168427435e+03
1.397453938263243572e+03
4.200124086857702537e+02
-5.456533643486235405e+02
-5.087209652967133167e+01
2.158569035833636107e+01
-2.829318442324999978e+02
-1.400636187214820438e+02
4.053977199703755332e+02
1.005089551330708900e+03
1.379717423681190667e+03
2.068750990114746855e+03
3.138678920413399737e+03
3.406415420789074233e+03
3.803857318419665717e+03
4.379984268922755291e+03
4.257234286031617557e+03
3.599152421667088674e+03
3.724237666661401363e+03
4.371481043333147682e+03
4.091011328437054544e+03
2.739707041847047094e+03
1.146877576521312676e+03
-1.775900983584338633e+02
-8.956333595887327874e+02
-1.053975980291700353e+03
-1.131189133636629549e+03
-1.112172341234490432e+03
-8.295431195692642632e+02
-8.811888957151541035e+02
-4.899858618626510633e+02
2.530837271647408215e+02
5.952531053039931521e+02
1.684748411613237067e+03
1.978368325573472930e+03
2.424897664623113542e+03
2.953865470750724853e+03
3.415010056948522561e+03
3.306097377489288192e+03
2.892079919479177988e+03
2.805863928504048090e+03
2.119090352488958160e+03
1.055534704207005234e+03
3.970051701720404935e+02
-1.796102664752111480e+02
-1.465594269818400619e+02
-4.302433486065516632e+01
3.618172104598440910e+02
5.718211986409703513e+02
7.288778103208376251e+02
1.412896351989685627e+03
2.578679450663360512e+03
2.867150679080083137e+03
3.207174465140471057e+03
2.678636842395625990e+03
-8.618360490303299315e+00
-4.358692246474853164e+03
-5.390763489689552443e+03
-5.536001571826643158e+03
-5.238517868143288979e+03
-5.744472334562896322e+03
-3.310103775634794602e+03
-2.886512887064410734e+03
-5.830779061463732432e+03
-7.841051453014282743e+03
-8.122489038950294344e+03
-7.340207634107763624e+03
-6.713208669374335841e+03
-6.434423410406208859e+03
-6.329063641792290582e+03
-4.858186322841042056e+03
-1.103785803556181918e+03
-1.226954975037835084e+03
3.177193675191800139e+03
4.548666054862625060e+03
-7.135734141991306387e+02
-2.836467681896692739e+03
-2.858921491663451889e+03
-3.000930817131390086e+03
-2.944556685050692067e+03
-3.182926967066252018e+03
-4.215157071481771709e+03
-5.272255645898576404e+03
-1.861183509326345984e+03
-5.683809700829745452e+03
-7.162108329069996216e+03
-6.770121337388898610e+03
-6.343847237404805128e+03
-8.762808817034675712e+02
2.879659102367743344e+03
4.017026017185128694e+03
4.840989427727168732e+03
4.899718393273379661e+03
5.945060479228707663e+03
6.729284713849860964e+03
7.503408070187190788e+03
7.523468706205199851e+03
7.108472397339577583e+03
6.593474508140526268e+03
6.077696466090013928e+03
5.087063261933938520e+03
4.176516952736787061e+03
3.014002166042333101e+03
2.192551621546650040e+03
1.601254914808598187e+03
8.171560203822173207e+02
1.170548423710412408e+03
1.450443379609111389e+03
1.630817676011665071e+03
2.041866529840403700e+03
1.994604787600694181e+03
2.434293658614861215e+03
2.822157979135794449e+03
3.343319150778038875e+03
3.662082832746240911e+03
3.811687023202384808e+03
3.357511984077695615e+03
3.620631798828572300e+03
3.768103564915691095e+03
3.366106156340646976e+03
2.524719424099626394e+03
1.381137458146808285e+03
8.034904324893207104e+02
-1.572040611255477138e+01
-7.565826619477263648e+02
-9.468744017288354371e+02
-9.721317352053134755e+02
-1.622219405456365394e+03
-1.978277026192291032e+03
-1.170995409261625355e+03
