1.693011467867642978e+03
1.525711073538379196e+03
6.830596694259038486e+02
3.681678825282486400e+02
4.279963758625166292e+02
5.545635612793727205e+02
6.899244520731062948e+02
1.351390001900133200e+02
-4.419049488128954977e+02
7.586068102179589800e+01
8.134975513698602754e+02
9.489053302267399204e+02
5.891312823293150132e+02
2.542348780318600063e+02
2.542064643376697859e+02
1.969962182047545127e+02
1.649534018345601893e+01
-4.113599846386532590e+02
-4.714313809005379881e+02
-8.887123984916834161e+02
-8.662489145761950340e+02
-3.899940479542069056e+02
6.200627997494357260e+02
1.124842942219921952e+03
3.973773728535007876e+02
1.937285050224672887e+02
1.249572634640432511e+02
2.067390554283431658e+00
1.707639042861937995e+01
-4.699914740344994470e+02
-7.941313782080455894e+02
-1.362344813169290774e+03
-1.609566150903594462e+03
-9.567619695796456654e+02
-1.515978695609333272e+03
-2.788200984551090642e+03
-3.960387121851334086e+03
-3.939512682940621289e+03
-2.924564738210969608e+03
-2.095421612989573987e+03
-1.041062094547252627e+03
-2.461173038384250944e+00
1.195425268299577510e+03
2.484582073914331886e+03
2.654060291968378806e+03
2.085918738620905970e+03
1.283097466167868788e+03
6.695271050284135299e+02
1.229175678269117270e+03
8.361187703692196465e+02
1.440419115497958728e+03
3.283147999983899808e+03
3.368232360096831144e+03
2.446646133042521342e+03
1.293447038340478457e+03
5.016779980392891503e+02
3.262873355214882736e+02
-1.096552047664860225e+02
-7.608219264801036275e+01
-6.160265142926925819e+02
-3.450494781440341285e+03
-4.802376795305305677e+03
-1.642670319252850277e+03
3.335895437655738647e+02
-1.961534060477407138e+03
1.422970901375625317e+03
2.029059723457243990e+03
4.637796013178437988e+02
-7.257632786649870695e+02
2.626440207260707211e+03
2.239378286428306183e+03
7.730605650259165031e+02
-1.889522730412896863e+03
-3.025334211469338697e+03
-3.279358248199788250e+03
-2.736594004458414929e+03
-4.461036436352045712e+03
-3.084632718697646396e+03
-5.720260641272478097e+03
-3.972957384930574335e+03
8.942057195776737899e+02
-2.008713437493498077e+03
-4.578671613228116257e+03
8.113611191943072072e+02
-1.210627228642870932e+03
-2.335625069690001965e+03
-3.915598699455531914e+03
-2.560493686857175362e+03
5.136801055373476856e+02
-2.037036821158107159e+03
1.804033561918967052e+02
1.893966029042904211e+03
-1.834349452585698373e+03
-3.454627094377657954e+02
3.558601246359055494e+03
2.809865868771683836e+03
-4.696461660500674498e+02
2.445050780074957402e+03
2.889872275414537626e+02
1.270187669245078496e+03
3.294607793837218651e+03
3.109219727157332272e+03
2.768078505412676805e+03
2.829200862140226491e+03
2.714562810295233248e+03
2.260096898536444769e+03
1.257911224904647042e+03
7.321454997956329862e+02
1.385932993703564534e+03
2.007063944057756316e+03
2.537751986301694160e+03
3.111736022936962399e+03
3.411083416537311223e+03
3.455930967122531456e+03
2.991869809504953537e+03
2.237261599249728079e+03
1.891531110566357938e+03
1.338401113622753428e+03
4.266121640716092429e+02
5.702865951658294534e+02
8.609323328072547383e+02
9.050228822684262013e+02
9.476186212912245992e+02
3.917398063220077233e+02
5.112306799366466521e+02
5.428999748446877902e+02
7.961700819811256906e+02
1.909010495703517563e+03
2.054086422346392737e+03
1.824470301555654260e+03
1.347168033720342009e+03
1.064354216880022022e+03
5.998592475370929833e+02
6.799630233137838786e+02
9.873165569371773245e+02
6.952997666629649984e+02
-1.695520411266168637e+01
-5.989730792542211475e+02
-1.292520790495045958e+03
-2.049634336465825982e+03
-2.231072850220003147e+03
-1.713830906926909165e+03
-7.332051097251636520e+02
3.167254272244309732e+02
2.092625978888211762e+02
-1.335296707310812678e+02
-4.788798087577700358e+02
-1.027395492591954962e+03
-1.559341950689171881e+03
-1.159459129724094737e+03
-8.436326932584998985e+02
-1.327613518873280782e+03
-1.725513644110237010e+03
-1.147536006586938583e+03
3.432773613312588736e+02
9.869390974965751866e+02
1.489395226616205946e+03
1.849728548234233131e+03
1.462896650342970133e+03
9.148211430131367479e+02
4.045714539770344231e+02
-2.369569317475791195e+02
-4.659150082629409440e+02
2.279785480565896805e+01
3.941914232326557226e+02
9.712463519013191444e+02
7.709741528820732128e+02
7.673892936794766229e+02
6.646001140399357610e+02
7.724692509738168837e+02
9.149904729027565509e+02
1.265214439703218886e+03
1.596096392615116429e+03
1.971661402077797220e+03
2.214885097719711666e+03
2.000739163812280822e+03
-9.947179909961885187e+02
-4.920452457824552766e+03
-7.603460609217848287e+03
-8.049703871509053897e+03
-8.134155373326299014e+03
-7.489859717832293427e+03
-6.375799985268577984e+03
-6.476967416276531367e+03
-7.271477223847795358e+03
-7.521221629799379116e+03
-6.828186957542744494e+03
-5.839301156690979042e+03
-4.988543484955192071e+03
-5.764901290983872968e+03
-6.254369274615775794e+03
-1.777936090134112874e+03
3.306411026704556207e+03
3.438560875217588091e+03
1.794654962672398142e+03
-2.628327043666172813e+03
-6.022498736037974595e+03
-5.665816181445543407e+03
-1.342201001172645192e+03
2.063370957443077714e+03
3.081832560638671566e+03
3.079239920273703319e+03
3.176564632510296633e+03
2.829941716856848871e+03
3.149488612690512127e+03
3.605238130499852559e+03
3.432191164806105007e+03
2.950346266001214190e+03
2.792653094535791752e+03
3.081170996455715340e+03
2.824888798021906496e+03
2.435746449371366452e+03
2.287733374472014930e+03
2.496997696987431937e+03
2.993657825869589033e+03
3.036653619477430766e+03
2.417005765062954197e+03
1.986804886255726842e+03
1.916070738774979418e+03
1.611801278677461141e+03
1.843930620465359425e+03
1.561387524610526270e+03
1.345228191130355754e+03
1.184609439140952645e+03
8.276124867953782314e+02
1.118320361220719633e+03
1.826587478732724776e+03
2.511265220365894493e+03
2.601394381405290915e+03
1.927986157372650950e+03
1.878060421410227718e+03
1.860663478750188915e+03
1.350928272545973641e+03
1.370943148235130138e+03
8.306692613035689874e+02
-4.684720590276591423e+01
-3.760860853034607487e+01
7.984451685525979201e+02
1.116322376028222152e+03
1.582988818602681476e+03
2.274424743901631700e+03
1.685675471747843403e+03
6.878282124676625244e+02
3.868151418209201324e+02
4.735402060778979489e+02
3.160802595943852680e+02
4.308266908280124312e+02
5.520928089276931132e+02
5.078213667749582783e+02
3.284128767477279780e+02
-2.761016870912483228e+02
-4.832065539274806838e+02
-1.087242627634009295e+03
-7.372442284434214343e+02
-1.202960430273008967e+02
-3.863376181887793450e+02
-1.934185913576085341e+02
-6.435447007622356068e+02
-8.707140617548523096e+02
-9.278421131930393813e+02
-1.331874413834524603e+03
-1.483859969584249257e+03
-1.395876176208588731e+03
-1.069919584875690134e+03
-1.514974521278835482e+03
-1.549004388001367488e+03
-1.043018765756401763e+03
-1.291037604051400876e+03
-1.358093374994449277e+03
-1.249182285069885666e+03
-1.052317626182689992e+03
-6.415170367667218443e+02
-4.147417108605451403e+02
-4.529722284276886626e+02
3.587815105641992091e+02
9.123738274870696614e+02
6.197956431123675429e+02
4.610697556855233188e+02
5.121411258110531435e+02
-6.809190362610998193e+01
-4.986390210568955581e+02
-9.493841072079363812e+02
-1.048283680367439729e+03
-1.182348128457368375e+03
-1.016739158657111147e+03
-7.754751504419568846e+02
-8.953911850868133797e+02
-8.465199602195385751e+02
-3.479062905824838481e+02
3.163417575493032814e+02
-9.792538983622301885e+01
-6.895092274042571034e+02
-1.175326036871619635e+03
-1.741552327284775174e+03
-2.362407920970633313e+03
-2.147980355759890244e+03
-2.137273258505389094e+03
-1.700354279124262121e+03
-1.224170440831577253e+03
-1.124810114032391084e+03
-7.163825971035541897e+02
3.261416301676872536e+02
1.209876586119310332e+03
8.669568873422604156e+02
4.734299800979864017e+02
5.190915415929821393e+02
9.049234152941182856e+02
1.311811656746273229e+03
1.347560632314074155e+03
1.010369267972177227e+03
1.066376295268952163e+03
1.321617234569092716e+03
1.336919767787873980e+03
1.447129679920124772e+03
1.514247636844318549e+03
1.294023130635280040e+03
7.852990528495898843e+02
5.532717544935892420e+02
1.047018734166833156e+03
1.219372653642757541e+03
1.419347475113421751e+03
1.602293151925637176e+03
1.033699422344300274e+03
4.858675982898015491e+02
9.209774410192397909e+02
1.381965744872885807e+03
1.853312232369963112e+03
1.882243277223997211e+03
1.881148894114611721e+03
1.865945809453969105e+03
1.643071155664600155e+03
1.592068764886337476e+03
1.191219954773669542e+03
9.522047205635195724e+02
1.620981059279200963e+03
2.037492722790783318e+03
1.773116541602202005e+03
1.401502843080609409e+03
1.304426785836616546e+03
1.697987044779946245e+03
1.460549515158591930e+03
1.387473014518809805e+03
1.232692937125018943e+03
1.564326482476386673e+03
1.713331055428485797e+03
1.779812244131488796e+03
1.868222339334166918e+03
1.588021810999698346e+03
1.490055621451730985e+03
1.527878479020940858e+03
1.297800883596428548e+03
1.369961234101368063e+03
1.524967501657324647e+03
1.367380929046191568e+03
1.155524380798767197e+03
1.048579003575271827e+03
7.813497335322040271e+02
2.109649051563941384e+02
4.858488667188279209e+01
2.741026040087280080e+02
-3.055103491139241001e+01
-3.123189930698808894e+02
-1.101404848021746687e+02
-2.339627747682330039e+02
-3.502795985162108082e+03
-5.178669913064869434e+03
-4.134439525781935117e+03
-3.021903177789226902e+03
-1.687143703792729184e+03
3.274651547980583643e+01
-4.031390266254540620e+03
-5.267692116754268682e+03
-4.115235680748086452e+03
-3.722127813765037899e+03
-3.934423547786966992e+03
-4.740950309676871257e+03
-5.322646060813027361e+03
-6.025571547323189407e+03
-2.275817207797796982e+03
-2.553225328801422620e+02
-1.001853870583282287e+03
-3.869447899312222489e+03
-1.011052424390053034e+03
-3.049497920763890761e+03
-4.728841139157588259e+03
-1.312133301939969670e+03
-1.978366317230766754e+03
-4.486445958208959382e+03
-3.531376881089388462e+03
-2.689167513621060607e+03
-5.859544593747802992e+02
3.358146681302855541e+03
7.221618200716829961e+02
1.812217495633540238e+03
1.643403108065969718e+03
2.688922861406087122e+03
-5.271487596008025776e+02
-3.888568905238301454e+02
1.946844792503389954e+03
8.029223482753330927e+02
-3.526705885077641597e+03
8.079996952965821038e+02
1.221117768710155360e+03
-1.534348657973831223e+03
7.706997366798874509e+02
-1.849660013827915236e+03
-2.659468756291540558e+03
-3.076964333710971573e+02
1.395734583452171591e+03
2.063912432008333781e+03
2.429749359858426033e+03
2.496222351821274060e+03
2.500418999092377362e+03
2.970418671716940935e+03
3.378278604909174646e+03
3.226220858061667059e+03
3.048587747886460420e+03
2.933375508657252794e+03
2.265414837504361913e+03
2.158485110746624287e+03
2.301498399970602804e+03
2.188498219218681243e+03
1.933491690655584534e+03
1.692541203086001815e+03
2.317697410616233810e+03
2.296052078631433233e+03
2.276685534895845649e+03
2.655604751960395788e+03
2.561874475242327208e+03
2.753509607548362510e+03
2.097546895523264084e+03
1.150010105377343052e+03
7.620343859278566470e+02
4.647987591526174924e+02
5.344418853645191803e+02
8.070700124381449996e+02
7.648141339997484920e+02
5.956674248024721692e+02
9.605886751072703191e+02
1.593525258625496690e+03
6.856568100422837233e+02
2.731994740806293294e+02
-6.828439443302216887e+02
-1.208503703804990664e+03
-1.272791438957090122e+03
-1.055745234147005021e+03
-7.102800782541791023e+02
-5.772611818823145313e+02
-2.427123278763256735e+02
1.294104414606761644e+01
7.886490480731770276e+02
1.057911739126991506e+03
6.650710910281333099e+02
2.489598663114608996e+02
4.794184274290407188e+02
8.055891609091255532e+02
7.319661379207823870e+01
-4.306464843253345407e+02
-1.305886166002966775e+03
-1.960701422982867371e+03
-1.939081434424219196e+03
-1.563069751316446172e+03
-1.148741351149965794e+03
-9.710507155028940360e+02
-1.347834800902621510e+03
-1.452047304228195799e+03
-1.465712545080341442e+03
-1.419774246724490240e+03
-1.555211328743751437e+03
-1.552186220837211295e+03
-1.521766098390166462e+03
-2.236943515721864514e+03
-2.576695273361597629e+03
-2.332031346161399142e+03
-1.581960766172579952e+03
-1.157466833441920244e+03
-9.835657383175957875e+02
-1.498295286966017102e+03
-2.345606722654298210e+03
-1.988614362073848952e+03
-8.282126679683659631e+02
6.157953318486750049e+02
1.072317241058027548e+03
9.031781777734163370e+02
2.832331629928164602e+02
-8.675498583515792461e+02
-1.694115438158342840e+03
-1.981500524027826486e+03
-2.004707189426017521e+03
-1.495701675243698901e+03
-1.106477066860493323e+03
-7.229028353021383282e+02
-7.299594066103107934e+02
-3.338580150001617994e+02
3.391438806353170854e-01
-1.963395560053747317e+02
-1.012946778568739433e+03
-1.520698849486608196e+03
-1.009641492310010904e+03
-9.986683201077888725e+02
-3.107729941666671493e+03
-6.190776281081444722e+03
-7.218830010359702101e+03
-7.373005994154625114e+03
-6.789338210270092532e+03
-6.605526365137739049e+03
-5.468178777795067617e+03
-5.454412739307080074e+02
-1.312031487974050776e+02
1.041492445881559206e+03
1.603480434849379435e+03
2.002714665029472371e+03
2.118191548382365454e+03
1.790774592482440539e+03
1.303452216261508738e+03
9.501183413615007112e+02
1.706671308776851447e+03
2.361108903433555952e+03
2.192351047990715870e+03
2.105328906784695391e+03
1.408950458477666189e+03
9.021885044973533923e+02
1.423993391154691608e+03
2.341237926459219125e+03
2.598911447475146360e+03
2.505002053167452232e+03
2.242428938278439091e+03
2.122098628483043740e+03
2.628933570152531956e+03
3.581862330824835226e+03
4.505833316439519876e+03
4.128711825744632733e+03
3.257422875665648917e+03
3.154961899545697179e+03
3.065260239323478345e+03
2.551241704426106935e+03
1.654900574406657597e+03
1.024180856414289110e+03
1.591016442023517584e+03
2.592356528670840362e+03
1.730141358907581434e+03
8.022776189322246410e+02
1.719754249751970519e+03
2.850553439170970705e+03
3.621608634129936036e+03
3.668835966171400287e+03
3.021128500187624013e+03
4.149536407427675840e+03
6.197058339802904811e+03
6.461672231992870366e+03
5.233374681122382754e+03
4.121137989848361030e+03
3.157853184046133265e+03
1.909535539683055731e+03
1.820098134135259897e+03
1.364487548693937470e+03
7.070551012536901681e+01
-1.827264700937486850e+03
-3.116478827516908950e+03
-2.875931757715535696e+03
-1.437582709650492006e+03
-8.094749312987106578e+02
-8.886087977289460014e+02
-1.053030166536119395e+03
-1.926752624656830449e+03
-1.423786542486311419e+03
4.308649022294065958e+02
3.246150543060445216e+03
4.967058415716570380e+03
5.991613299373720110e+03
7.457833429542067279e+03
6.658740263557670005e+03
3.060363489000666505e+03
-1.396334374691612311e+03
-4.524544781239987969e+03
-5.162853118464164254e+03
-5.950268752142779704e+03
-6.362911624294952162e+03
-7.356771914649531936e+03
-6.408827614931597054e+03
-4.787037909270134151e+03
-3.207418583738123743e+03
-2.895982156629917881e+03
-2.610718446371517530e+03
2.399438990072129400e+03
6.117523801810389159e+03
4.265551702506771107e+03
-3.663429992569559545e+03
-8.492360009803729554e+03
-7.165156530139869574e+03
-2.184809453759156895e+03
-9.613636570283617857e+02
-3.298771894490809245e+03
-6.577979447660810365e+03
-7.729908195811628502e+03
-7.935537763821558656e+03
-7.713896205204448052e+03
-9.882852808460304004e+03
-1.288440328201377633e+04
-1.578850851847169542e+04
-1.666915633824821634e+04
-1.342528388026860739e+04
-8.717849512737633631e+03
-4.919809866643870009e+03
-2.023113964659777594e+03
3.632304365694626540e+03
6.739499885782117417e+03
1.901524208934817807e+03
-7.058793102723606694e+01
2.329180388860294897e+03
2.703897879994192863e+03
3.265968866197616762e+02
-2.077652907519216114e+03
-1.534795589672047527e+03
-6.236771028404383514e+02
-1.200275477112419367e+03
-2.490639568459665043e+03
-3.497708232037648486e+03
-4.368428219524497763e+03
-5.572728533132554730e+03
-6.990536190582724885e+03
-7.935548423241293676e+03
-6.915846283032805331e+03
-2.585558629796413243e+03
2.010376937355283644e+03
6.429966740561257211e+03
9.611112202214852005e+03
1.106922673310826212e+04
1.131809437356245871e+04
1.035523930196921719e+04
7.877637482805494074e+03
6.507121333609266003e+03
6.656764449184448495e+03
6.087575091936028912e+03
3.647598118389309093e+03
1.213542304861479579e+03
5.414918952632436913e+02
-3.785414240357383733e+02
-1.115555561043425087e+03
4.844474845654272599e+02
2.675408916220972969e+03
3.591958507862929309e+03
4.195303251236998221e+03
5.713199579758205800e+03
7.460955250068313035e+03
9.023364266480039078e+03
9.335661013153274325e+03
8.066197029015372209e+03
5.793760286289995747e+03
3.727075304892934582e+03
1.941367237138162864e+03
1.927888503828079138e+03
2.324926028611026140e+03
2.296884629074606437e+03
3.396558304845107159e+03
4.676889515777106681e+03
5.103354493333114988e+03
4.618904345619402193e+03
4.358732148893810518e+03
3.490099206075792154e+03
2.980391198781963794e+03
2.822143706972097789e+03
2.567737065965621241e+03
2.184102896387215878e+03
1.362981036696426145e+03
1.028360953720621637e+03
-1.006323180137902256e+02
-1.110993489297080941e+03
-2.370729269929967813e+03
-3.436844706370832682e+03
-4.641331423253473986e+03
-4.430161423393225050e+03
-4.731644748014214485e+01
4.893216604292533702e+03
7.938454097067615294e+03
8.445439651755916202e+03
8.135117569850577638e+03
7.827479667132881332e+03
7.359575587860923406e+03
6.270427137546641461e+03
5.219988367435822511e+03
4.493156720586011943e+03
4.386999352763157731e+03
3.834542025989471767e+03
3.787738352963609486e+03
3.425642102866488585e+03
3.049233281357972373e+03
2.239579190948763426e+03
2.046714905842639837e+03
1.406291257798514209e+02
-3.019639859556074043e+03
-5.732134441328301364e+03
-5.806888403302321422e+03
-6.234901054982386995e+03
-7.036156247982403329e+03
-8.609669021023566529e+03
-9.809478126758527651e+03
-9.664459962044971689e+03
-9.503635095529976752e+03
-9.107950511803355766e+03
-8.672434496646172192e+03
-9.042155791504479566e+03
-1.061509385630293946e+04
-1.100724121332851246e+04
-5.997624983382051141e+03
-4.049181305029940177e+03
-7.603925468525526412e+03
-7.559900308563101134e+03
-6.984097027453853116e+03
-9.088424464798565168e+03
-1.067887715825161831e+04
-5.682471826524207245e+03
-3.428193604181823048e+03
-1.177957388918596280e+03
1.279238816107712864e+03
1.740408917001970622e+03
1.756360438499136080e+03
1.720510182472277620e+03
6.787428759787944728e+02
-8.370387882889247066e+02
-9.917875457563141026e+02
-3.464836213981918149e+02
5.818741390584356168e+02
1.946268171621240754e+03
3.764709852391756613e+03
3.940040835833517576e+03
3.634578500482003619e+03
3.844666512007372603e+03
4.101082703068642331e+03
3.537806521356953454e+03
2.850887431235335043e+03
2.684349685318974934e+03
2.066221475584723976e+03
1.491408381220895762e+03
1.065967038256964997e+03
-9.620289428772813380e+02
-1.804645344952416735e+03
-3.698923086522390946e+01
1.925883063590723168e+03
2.854052322096778880e+03
2.451594914631651591e+03
1.248605817436625784e+03
-9.180134902297811550e+01
-1.389598090045956724e+03
-2.683766780570417723e+03
-4.105501154655661594e+03
-4.893570389949830314e+03
-4.264837201685827495e+03
-3.281647360104095696e+03
-3.728682054817981225e+03
-3.619788415446056661e+03
-2.929122778652098987e+03
-1.945685247063510587e+03
-2.840424762916827149e+03
-5.544315216487724683e+03
-7.604418255742485599e+03
-8.340690004815603970e+03
-7.512900106606511144e+03
-6.403906113318319512e+03
-5.667810461013186796e+03
-4.458602502661158724e+03
2.133624751083410956e+03
2.326912837696055249e+03
6.301665322517831100e+02
1.220861281707677108e+03
1.618729210935663104e+03
1.617619596361483218e+03
2.263473249999625295e+03
2.976303511547704602e+03
3.303191131270525148e+03
3.691131326564495794e+03
3.704152498940142777e+03
3.300268262783548835e+03
3.207424736551095521e+03
3.047604919623133355e+03
3.031880896421502257e+03
2.932254295352434383e+03
2.438810785247064359e+03
2.405540038303883648e+03
2.115325451721312675e+03
1.687159657799984871e+03
2.047065884334453131e+03
2.462101220006888980e+03
2.698257133916852581e+03
3.123469091580520399e+03
3.425715659922716441e+03
3.692981937125707191e+03
4.049221492965486959e+03
4.207522702313352056e+03
4.291920157380318415e+03
4.340368152003215982e+03
4.358839986482645145e+03
4.336325204129235317e+03
4.330823415930808551e+03
4.009325987787984104e+03
3.966716341750206084e+03
3.740929500753602952e+03
3.186029010241098149e+03
3.197048468777039943e+03
3.277844796189299814e+03
3.289351388357942142e+03
3.350503817623163741e+03
2.875241369180925631e+03
2.426638042808129285e+03
2.071516520217518519e+03
1.824734362442279235e+03
1.764364695704811083e+03
1.576495450133358872e+03
1.140099027227524857e+03
1.092141913406186404e+03
7.685859758371585713e+02
1.752923819852699125e+02
-5.177199533263463991e+02
-8.674052157755056669e+02
-8.627272011073069962e+02
-3.697670343955477392e+02
-1.837623847633489333e+02
-5.088983919832849665e+02
-2.681891790443816603e+02
1.432510080841775313e+01
4.885825209042362758e+02
7.275713733941661303e+02
6.231570013976931932e+02
2.171104841647222656e+02
-1.667683599579844440e+02
-5.224781245510121153e+02
-6.060842858519559968e+02
-4.677431346748533088e+02
-2.765080154920012205e+02
-1.126171743984186833e+03
-5.000102613473267411e+03
-3.212671681414433806e+03
-1.489224758191238379e+03
-1.145853087668705030e+03
-7.528056925992485731e+02
-1.100793912077378081e+03
-1.381994506811748124e+03
-1.176726513917386910e+03
-1.263095131214763796e+03
-1.433129839033521421e+03
-1.493966312175997018e+03
-1.520122914835021675e+03
-1.777646385372898521e+03
-2.147154415207353850e+03
-2.044227168802383630e+03
-1.667067625695361812e+03
-1.449216451629777566e+03
-1.247140186008395631e+03
-9.565149624412265439e+02
-1.093110784822650430e+03
-9.135263422254591887e+02
-7.254203457465910105e+02
-8.918319595594692828e+02
-4.968486741230720440e+02
-4.082461489274540440e+02
-4.852749782406161216e+02
-4.727178370180636762e+02
-3.296307881378507432e+02
-2.677320116640992751e+02
-1.850187177055820484e+02
-4.738320503122156424e+02
-4.232434706699085041e+02
-1.106513855162750701e+02
8.978775890861975029e+00
2.883016124709939731e+02
3.141284800041211724e+02
2.810708965876056027e+02
-1.279826873630269262e+02
-2.855738607441893464e+02
-6.348394119793175605e+02
-1.382026681708763149e+01
7.595454460802484391e+02
7.883606690436505460e+02
3.985113128402865641e+02
-9.310870362302097192e+01
1.564780477710432081e+02
4.982195652910396575e+02
6.010887937452663436e+02
-4.597077257067408596e+01
-4.081117979750938503e+02
-1.946364546443088557e+02
1.603055088467116605e+02
-5.763236573345367333e+02
-3.084500493194757837e+03
-7.748134103282784963e+03
-3.965146302985666807e+03
-6.384356578181397026e+02
-3.087636393471060359e+01
4.564679715831837825e+02
7.285394564209127566e+02
9.003881404174545651e+02
1.907252999716618888e+03
2.857302468490809133e+03
7.764448013061993379e+02
-5.403285625609631097e+03
-7.412934598822539556e+03
-2.122678755271171667e+03
-1.326542323374252874e+03
-6.342413797718310889e+03
-6.426250063240197960e+03
-5.032119579166889707e+03
-2.921951257176959189e+03
3.076350983339827962e+03
2.863902019716623727e+03
2.159845957203484886e+03
4.260330040069665301e+03
-7.375504218530591061e+02
-5.159700729159067123e+03
-5.496200048247678751e+03
-5.523034534951275418e+03
-5.529120492903001832e+03
-3.775460614290585909e+03
1.470012654788795544e+03
2.869401286138008345e+03
2.554778474266604462e+03
2.050227607895724304e+03
2.934890315077439482e+03
2.831813804314058871e+03
2.481094311934330563e+03
2.466839211915907526e+03
2.380116000431298289e+03
1.887025214851373448e+03
2.164645638037494336e+03
2.318119663028475770e+03
2.050526155146455039e+03
1.481970681792802452e+03
1.393583868088736153e+03
1.679580319338242361e+03
1.646897980528446396e+03
1.655174209635512852e+03
1.880341986209984725e+03
2.018530955528418190e+03
1.867050056407319744e+03
1.813096643568305126e+03
2.163731332422757987e+03
2.708031232288369665e+03
2.670157212509474448e+03
2.153155722359665106e+03
1.812127381369652994e+03
1.735150306673696605e+03
1.450314111058926756e+03
1.360695821884917223e+03
1.276428397887284063e+03
1.100629225923482863e+03
7.974189497039702701e+02
6.658135305326098887e+02
1.053984755214235975e+03
1.315152594622078368e+03
1.435422118044931040e+03
1.264588768832917822e+03
1.087742987957734158e+03
1.259956385649928507e+03
1.345676825311268203e+03
1.439212904054000091e+03
1.592360085917051492e+03
1.709153105163059763e+03
1.679788670505445452e+03
1.027928982864028285e+03
7.826830576856607422e+02
7.492278889133425537e+02
6.147877693980514380e+01
3.298074131812066980e+02
3.586478791258788874e+02
4.135496328217909650e+02
7.142846485832255610e+01
6.034331074746385326e+01
-1.654080995774446308e+02
-1.415013203162009177e+02
1.423259855017337827e+02
3.198935650703404008e+02
4.791223912031808823e+02
7.294940616245195031e+01
-3.481522090225136708e+03
-1.473229027816624239e+03
-3.081188735747936676e+02
-2.839996463197928165e+02
3.618240402761922070e+01
-1.616477880366547879e+02
-4.105243869408994897e+02
-1.169455356333718100e+03
-2.193521486178774467e+03
-6.397778719198498038e+03
-7.372144182533007552e+03
-3.858638149061452623e+03
-3.864318728788760382e+03
-4.236202958615375792e+03
-3.666254489846419347e+03
-2.169468515165343433e+03
-3.348564133051862086e+02
1.246311481255108902e+02
3.790181809329518501e+02
8.722732871069371186e+02
1.518500087003106273e+03
1.592625416457319488e+03
1.224418503350989340e+03
7.208057142261719719e+02
1.328101401156319810e+02
-2.595069217778049619e+02
-3.631114139194315271e+02
-3.929823738292199096e+02
-1.031314474245701263e+02
-2.723590169448981214e+03
-2.432341724982677079e+03
-4.184428118260374276e+02
-3.198981680506751218e+03
-2.902102958625169322e+03
-1.287332335679120661e+02
8.270141263023691636e+02
1.107047928882053839e+03
9.943383148039213211e+02
1.033081185785848220e+03
9.983456171283251024e+02
7.640004201569018960e+02
7.749715946097567212e+02
6.760791766085098971e+02
4.902468789595898784e+02
9.733490913377885363e+02
8.973005558080050150e+02
8.345983855132145663e+02
4.155807249223917665e+02
-2.853734283391783265e+03
-9.165852999144757405e+02
2.369510556829208383e+02
1.852292658253749664e+02
4.393792257674975588e+01
5.889221582493357801e+02
4.851942653710135573e+02
2.797387083389260738e+02
7.650876961986263325e+01
2.084137277534616146e+02
9.536564576104821356e+01
2.537401344582265139e+01
-8.362223751923926329e+01
1.474107325307606686e+02
2.834846042064064591e+02
-1.015540985113434118e+02
-4.271912360383308993e+01
-1.910612129766777514e+02
1.132497277968459741e+02
1.931661284973490069e+02
-4.693285908616688857e+02
-7.642441152388518049e+02
-5.086461279511050293e+02
-4.666155321735855068e+02
-3.531723757917827129e+02
-2.583633809630907194e+02
1.527881176323831767e+02
5.382316180793683316e+02
5.959240295891067944e+02
3.328009998191078012e+02
2.908912361493577805e+02
2.662774706558049616e+02
4.229658285712447423e+02
-1.220832502588087181e+02
-2.189135273569005165e+02
1.563900762248346439e+02
7.397393028839593399e+02
9.671000736866773195e+02
2.224907905603534743e+02
4.591906490997839541e+01
-7.564776265967171298e+01
-1.682036611956212937e+02
-2.617721994092146929e+02
-2.803895383645327684e+02
-2.360425497426902268e+02
-8.372027261262030606e+01
-3.454117505580463785e+02
-8.110474945445281492e+02
-8.166562002768496313e+02
-5.222461422062069687e+02
1.081746912718802918e+02
8.796043159041872741e+02
9.399882321737051143e+02
9.063200428288962485e+02
1.041592600867180181e+03
9.137372328915890876e+02
7.337598384824086679e+02
4.087544663884086162e+02
5.977426182623172508e+02
4.598070340555053122e+02
2.219708818366491982e+02
4.442035180558368666e+02
4.584636265195520082e+02
1.277416319915490135e+02
-2.529972323710891942e+03
-5.753676784826016956e+03
-1.723274160104536350e+03
-4.344706001676525489e+02
-3.826752575170548312e+02
-8.379084834700081501e+02
-3.649071822338789843e+03
-2.702163215517299250e+03
-6.211111022305460665e+02
-2.208992151674734146e+02
4.214509237824498769e+02
8.819769594114719666e+02
7.617048020275223053e+02
3.886455868750686022e+02
2.228152123948403585e+02
6.762527324678113700e+02
1.429918040912486390e+02
-7.459827512144912589e+02
-2.151677955428224323e+03
-4.552067807442845151e+03
-5.149135234498076898e+03
-5.704871573516399621e+03
-1.330224168678206070e+03
-2.485196746163444459e+03
-2.568772214593992885e+03
-2.374901452624576905e+03
-7.556085477886853141e+02
-3.007852468057293208e+03
-2.420598141883718199e+03
3.691704894320617996e+02
-4.235359362287808267e+02
2.538309158482979456e+03
2.604725029847127644e+03
2.567764936239024792e+03
1.989426962289473749e+03
9.607088525696565284e+02
6.556429592189830373e+02
4.682345010655291162e+02
2.895216610228742411e+02
-2.839469555555027000e+03
-2.991684370772542479e+03
-5.393115971638107112e+03
-5.468724201699275000e+03
-3.489567722847632467e+03
-5.556532641500590444e+02
9.520882249649898768e+02
1.786712034350990734e+03
2.854253513590145303e+03
3.194675212835632010e+03
2.984981149404757616e+03
2.421202232099683442e+03
2.023418744768328224e+03
1.927634456034131972e+03
1.445820897526839190e+03
1.540975448851414740e+03
1.777200595736873083e+03
2.117680013359305576e+03
2.495665457432451603e+03
2.849517314490952231e+03
2.734206577097987974e+03
2.130913857128367908e+03
1.815646859979851797e+03
9.734237674807343410e+02
4.802566053721059234e+02
1.250076717588299061e+03
2.087876683327478531e+03
2.774911719229214668e+03
2.537591472755587347e+03
1.984678511404002165e+03
1.658572501592418348e+03
1.330562407769127503e+03
8.041453150700133392e+02
-1.780104967783088625e+02
-3.560352132742690401e+02
3.629777102638211090e+02
1.042641756792163505e+03
1.260381410637688532e+03
1.174245395068742482e+03
1.178001844649746090e+03
1.440232789331727190e+03
1.479988088834180644e+03
1.345994030355899895e+03
1.025224156847912127e+03
1.047670492037771737e+03
1.635171191276843047e+03
2.145376454209791518e+03
1.770512563438754569e+03
1.575697923069757962e+03
1.441951716188082173e+03
1.050157626717267021e+03
1.133380051458530716e+03
1.510638347126150393e+03
1.597905198699748553e+03
1.346182133766835932e+03
1.394501311591590365e+03
1.247799301819721222e+03
8.520755372682795041e+02
8.135808470646026080e+01
-3.063271424977237984e+02
6.799828602300394778e+02
1.355250413512171690e+03
1.194491186642590492e+03
8.466956922019081730e+02
9.583810467569992397e+01
2.891499489137527590e+01
6.649426717637769571e+02
1.018909326978999275e+03
1.045774183386402001e+03
1.246506985022822391e+03
6.641421555019730931e+02
2.587171477502894845e+02
2.482215208360364045e+02
-2.683665625763138678e+02
-5.140327393916285246e+02
-4.817937886697168892e+02
-3.653650044512323447e+00
