3.732957347906094128e+03
4.783475327106273198e+02
1.881566752703196926e+03
-1.212404121702881412e+03
-2.477748687943473215e+03
-3.131683963958648292e+03
-2.299408676880014355e+03
-1.346108685986927640e+03
8.390821119777468766e+02
1.256958070182807433e+03
4.962300117270409032e+02
-2.188299601206271291e+03
-2.145826326110452101e+03
-1.607554372804380364e+03
2.366275112598192209e+03
3.490424545906629191e+03
4.868668586616292487e+03
5.785716952470780598e+03
5.015395665743435529e+03
2.714675946362629475e+03
5.320013728952908423e+03
1.974996528348749507e+03
9.203950501375676367e+02
3.613749496929962788e+03
4.660787928565134280e+03
4.221213994510403609e+03
3.402569145595371083e+03
3.382537477567085261e+03
3.228769560492857181e+03
2.739847595826512588e+03
2.474498105182348809e+03
3.385349674078368025e+03
3.669122471927664265e+03
3.646511870936666583e+03
3.495156777021465132e+03
3.034735945119852204e+03
2.823026291622055851e+03
2.742692080690376770e+03
3.537338331205043687e+03
4.690682880360527633e+03
5.125543367910132474e+03
4.959524671835485606e+03
3.581135444232796544e+03
2.162140417307351527e+03
7.272170435040285383e+02
-1.771063210880721215e+02
-4.331804466046651214e+02
-7.383494586591696134e+02
-1.480096075287334315e+03
-2.263718753221007319e+03
-2.714271217284202066e+03
-2.239528616787490591e+03
-1.278014765379721894e+03
-7.310303761255445352e+02
-2.217313711224560109e+02
3.665423132541446307e+02
4.405765677889792755e+02
9.451057693521191823e+02
1.400914550663177806e+03
1.631494854108438858e+03
1.582769930761172418e+03
1.458628841681558697e+03
6.937288527802405724e+02
-5.212219453061453578e+02
-1.696314440862190168e+03
-2.055794711578968418e+03
-3.096169768178123832e+03
-3.703487327412653030e+03
-3.916048398589390217e+03
-4.170719824160333701e+03
-4.162206835176596542e+03
-3.170752513198868655e+03
-2.484561649125477743e+03
-2.122713118610375204e+03
-1.337560953399407254e+03
-5.119546342618138510e+02
-3.297877584179268524e+02
-1.813732442448858535e+02
2.443058491934633878e+02
9.282483282306126284e+02
1.256417978045386008e+03
7.058422227201309624e+02
3.057681281243994675e+01
-7.573056969921188966e+02
-1.369761162938852976e+03
-1.751709741059448788e+03
-2.757050076996335974e+03
-3.364563306874192676e+03
-3.805966755743424528e+03
-4.159589351209038796e+03
-3.916530736377195353e+03
-3.926509373125653838e+03
-3.621438610824942316e+03
-3.585103783236404979e+03
-3.324361457292008254e+03
-2.700984047487185762e+03
-1.668702020361273071e+03
-3.282989979124892557e+02
4.145059949095437446e+02
8.269787122232592083e+02
1.644357821987724719e+03
1.453916694098513744e+03
1.329963487488729015e+03
7.417108007205566764e+02
7.041403040113758038e+01
-7.466770446475446761e+02
-1.386331613881258818e+03
-1.858191155590977587e+03
-2.494947956001002240e+03
-2.887258053834336351e+03
-3.322716792749207343e+03
-3.189024165935580186e+03
-2.503905029308592475e+03
-2.164923884172121689e+03
-3.029669515191488244e+03
-3.071741404948101717e+03
-5.500806214735059257e+03
-9.820460131855817963e+03
-9.787193323620809679e+03
-8.981580267977376934e+03
-8.158269184801367373e+03
-6.825832405778245629e+03
-6.096953395071559498e+03
-6.517207423971452044e+03
-7.345118718507296762e+03
-6.218294788348330258e+03
-1.046356163746294214e+03
3.920404287688161844e+02
-3.857149622798243058e+02
-8.761456581392784528e+02
-1.033846014482417559e+03
-1.469418258144485662e+03
-1.311431546740204567e+03
-7.935150219654271950e+02
4.248008950897053637e+02
1.487967871581708096e+03
2.447456599827295122e+03
3.289796284851137443e+03
3.849422541878348966e+03
4.404700016695511295e+03
4.120031018779091937e+03
3.797896522997050397e+03
3.296689597596704971e+03
2.549705334139123352e+03
1.515250100174265754e+03
9.096843185647601331e+02
5.103895449571623999e+02
5.857366748145765314e+02
4.700700849708106830e+02
4.936256796450693969e+02
1.121693474644396701e+03
1.706634137741458517e+03
1.960829266615091683e+03
2.282663468254470899e+03
2.867431563863804968e+03
3.077394360113498806e+03
3.305906791260104910e+03
3.798195445087622829e+03
4.097475276528897666e+03
4.454996812253071766e+03
3.966067238698581605e+03
3.989984213633634226e+03
3.111959411179713243e+03
2.261169289403427683e+03
1.689780403555680778e+03
1.661792658239866114e+03
1.225357574144398541e+03
4.946375932605218964e+02
2.957947637649658645e+02
-4.179555350210129632e+02
-8.515784665348541012e+02
-3.660950272483229355e+02
2.316406200095482291e+02
5.627560525050951128e+02
1.072254472898103359e+03
1.269122680682568671e+03
1.116433219760864404e+03
2.108282264639002733e+03
3.298757292296880223e+03
4.150633892012262550e+03
4.242977445958950739e+03
4.056747551657980239e+03
3.600908089776820816e+03
2.924516836166953908e+03
2.160524980267105093e+03
1.657755126552784077e+03
1.025863410029106490e+03
4.652167841956467598e+00
-3.738001492046205954e+02
-3.083829398069652143e+03
-5.254859938812103792e+03
-2.793883046155392094e+03
-8.592300426638803401e+02
1.238638020888473363e+02
-4.848540099809547428e+02
1.786477994297003761e+03
-1.108475690663469550e+03
1.990156887633229417e+03
6.106103633241958050e+03
3.807778261761960039e+03
5.484829027587459677e+03
4.915093460966434577e+03
8.112318344666198755e+03
7.973105658432598830e+03
6.375961526764703194e+03
4.098354962594436074e+03
3.323751165728559045e+03
6.091803022105092168e+03
5.311127939491687357e+03
5.245292114665273402e+03
7.300835714867405841e+03
4.468387658948704484e+03
7.177471983623097003e+03
9.272601028883123945e+03
1.040265273745620289e+04
1.122049995030651007e+04
9.098723945131569053e+03
1.273095675371498146e+04
1.487079174115313799e+04
1.389689420214373786e+04
1.320380540387236579e+04
1.336612794820158342e+04
1.601455895286681152e+04
1.387372515150716208e+04
1.110912035402504989e+04
9.650180738406234013e+03
1.012143556494762743e+04
7.332364263609649242e+03
8.070338814296177588e+03
3.890863351552887707e+03
2.996503236712952912e+03
4.277782104161285133e+03
4.257199330203309728e+03
3.978379459909390789e+03
3.701014452641705248e+03
3.750784630842978913e+03
3.149312844517309259e+03
2.395144939163723848e+03
1.929955775470059052e+03
1.518419644580204476e+03
5.371919327907730803e+02
-1.178102259574822483e+03
-3.281917888281810065e+03
-5.567709519363899744e+03
-8.133399047932191934e+03
-9.451268588249904496e+03
-1.087464254082169646e+04
-1.288994150180681936e+04
-1.540445987411460737e+04
-1.835552847243535507e+04
-2.099734038627216432e+04
-2.127528954060658725e+04
-2.053225431345949619e+04
-1.953757687561383864e+04
-1.868890753958138885e+04
-1.799010141145041052e+04
-1.702768279581404568e+04
-1.751959893346199169e+04
-1.842186304717456005e+04
-1.855927267930881135e+04
-1.856546733139503340e+04
-1.887571158349458710e+04
-1.998511652653633791e+04
-2.029901055905548128e+04
-1.994453102426971600e+04
-1.946894117569370064e+04
-1.929921906767988548e+04
-1.944120750883992150e+04
-1.949436690739161349e+04
-1.922332546471012392e+04
-1.855262351203495928e+04
-1.758149021934111443e+04
-1.693574552005958321e+04
-1.625348189543041917e+04
-1.457849315865921744e+04
-9.331812022312886256e+03
-6.302591718856559055e+03
-4.858833161846692747e+03
-2.466945901344624417e+03
-1.104998944102469750e+03
-3.271188764315377284e+02
8.877845277796131995e+02
1.019698244132020591e+03
1.499531493573309490e+03
1.677329930996884968e+03
1.164228486253856317e+03
1.180380184140328538e+03
8.609077240506334192e+02
7.588247214276698287e+02
7.703594948449627964e+02
6.678300918930328862e+02
8.134855339422206271e+02
1.833436718831132339e+03
2.697816191541078751e+03
2.639762932463165271e+03
3.175379112178379273e+03
6.184773015273297460e+03
8.890224226398413521e+03
9.671076024680656701e+03
1.094076016504536165e+04
1.243940242599867634e+04
1.338014189713362612e+04
1.363010175928900389e+04
1.331642592296196926e+04
1.083425246387007610e+04
7.090780526874971656e+03
3.627401092269322817e+03
3.169083560687094177e+03
2.024731173179327925e+03
1.892576916246363453e+03
2.798019680766953115e+03
2.823260899708519901e+03
2.950689828943492557e+03
3.180565888049013211e+03
3.695062792432820515e+03
5.252223427458377955e+03
1.047407037680832582e+04
1.356124214662205668e+04
8.828036708151241328e+03
4.559655616257007750e+03
4.175406798814377908e+03
6.340701751916938520e+03
1.093476009096023517e+04
7.242799279930698503e+03
3.412981357196076260e+03
2.082710017218179473e+03
1.151292930666870461e+03
-5.113293891522417312e+01
-1.420517716038936214e+03
-1.808635570048505997e+03
-1.025222660044325494e+03
1.506052837085493138e+03
4.962773923594768348e+03
4.889367498695437462e+03
4.793101244304700231e+03
4.681116794437261888e+03
3.981592010623523493e+03
3.354817303884984085e+03
2.792142168273003335e+03
2.212789509571699455e+03
1.507021476386596987e+03
6.610609443802570695e+02
4.090989094224320866e+02
2.514443336063115112e+03
7.474332000983213220e+03
7.600992496414714878e+03
5.551618651753151426e+03
5.186410158480184691e+03
3.456651081976508976e+03
2.329582304402839782e+03
1.007480499670240420e+03
-2.834287949138883391e+02
-6.586181806862927601e+01
2.839205449899639433e+01
1.284814081014841349e+02
4.257842728202620037e+02
4.706076165191773271e+02
9.901085192870879155e+02
2.073673353899567701e+03
2.204510418440236208e+03
1.939776440242839271e+03
1.341525423491856827e+03
2.547848496424357165e+02
-9.314136423627438717e+02
-1.843879842198557753e+03
-2.575256810992388637e+03
-2.607294601541716020e+03
-3.103680507546554509e+03
-4.204291678350670736e+03
-4.808026326033443183e+03
-4.806870138677351861e+03
-4.464550991307045479e+03
-4.607938774976141758e+03
-4.616268038856809653e+03
-4.189000163717811120e+03
-3.600218934039668966e+03
-3.360771696773490930e+03
-2.277375444633689767e+03
-2.214069729797146920e+03
-2.484850673502384780e+03
-1.677439118595689706e+03
-1.496805709704188075e+03
-1.674132290369326483e+03
-1.866701110169477715e+03
-3.016129072372403243e+03
-3.834127776433495455e+03
-4.628979032273767189e+03
-5.559878908117290848e+03
-6.279847963091171550e+03
-7.134915128571074092e+03
-7.732110268058161637e+03
-7.926575780559367558e+03
-8.067358861561292542e+03
-7.657482893161538414e+03
-7.062007710300277722e+03
-5.625044075104526200e+03
-4.722743515647078311e+03
-3.339125052805133237e+03
-1.944256834819906317e+03
-1.535261677742145366e+03
-1.693353699075635404e+03
-1.912716064588723157e+03
-2.018620016714411804e+03
-2.161303450772154520e+03
-2.078037431564558574e+03
-2.724096045634834354e+03
-3.505722393109632776e+03
-4.529278263597853766e+03
-5.134087679264608596e+03
-4.740424627863510068e+03
-4.451604627990313020e+03
-4.509943798093812802e+03
-3.871742965277213443e+03
-3.186369895983034439e+03
-2.451156194863515339e+03
-1.881444004847546012e+03
-1.266604954010143274e+03
-2.499467527319963551e+02
4.611450235131939621e+02
1.498383539075068256e+03
2.465340620320745984e+03
1.857552760150023460e+03
1.161545924896163797e+03
3.229556314634582463e+02
-2.846419077528491925e+02
3.172319962982064681e+02
3.692059455211090153e+02
-9.981683456526956206e+02
-1.850442119899392537e+03
-2.328104645580166107e+03
-2.706594499492632622e+03
-3.488423602205608859e+03
-4.603033335131139211e+03
-5.280835034576668477e+03
-3.634425245568124865e+03
-4.025318301421683827e+03
-4.142947407933872455e+03
-4.242643220519169518e+03
-4.570915637169708134e+03
-3.576214848016919859e+03
-8.849631689932117524e+02
1.363380472593392369e+03
1.502324680465561187e+03
9.464133238259253176e+02
2.712260391335597433e+03
4.140382694646043092e+03
3.261485463172531581e+03
4.442144188337963897e+03
4.287611311460203069e+03
4.635422285652573009e+03
4.099200095657595739e+03
5.014695531220751946e+03
5.375329733197996575e+03
7.840204315581767332e+03
1.134548169878385306e+04
1.161565608141866687e+04
1.182789137267421938e+04
1.365055902833654363e+04
1.695048311167677821e+04
2.050904682484247314e+04
2.308528022308196523e+04
2.407607184338162915e+04
2.307111634046558902e+04
2.262100387141627652e+04
2.330716139896014283e+04
2.257066600561460291e+04
2.056925198604453908e+04
1.930450714622658415e+04
1.604960253023043515e+04
1.091590920471549180e+04
7.825272141483116684e+03
7.204598700301899044e+03
6.128747587634405136e+03
4.986828560718861809e+03
3.828372256080210263e+03
4.114387175736640529e+03
4.554151022721409390e+03
4.802724046564107994e+03
6.068071839098746750e+03
8.468044717401455273e+03
1.068212973183001304e+04
1.222051115034846589e+04
1.426823320006313406e+04
1.601428242080981545e+04
1.618212986561757316e+04
1.529069131394634132e+04
1.429756708689811421e+04
1.296275529268752871e+04
1.040632987588531796e+04
8.324713227637383170e+03
7.185248280113482906e+03
7.034291361064495504e+03
6.328193867036107804e+03
5.425382666430830795e+03
5.197406092480157895e+03
4.787648025436872558e+03
4.346592209059096604e+03
3.026787699617231283e+03
2.118117707251984996e+02
-4.830741561421699771e+03
-5.477346782267881281e+03
-5.402387585444369506e+03
-5.310349760779205099e+03
-6.086593612854373532e+03
-6.656478366523831028e+03
-8.431361883730300178e+03
-8.964576211163906919e+03
-1.081938390494007217e+04
-1.295330124621239884e+04
-1.184572911145045691e+04
-1.180498142988646396e+04
-1.354139687254052842e+04
-1.420332923155552089e+04
-1.209603198749640615e+04
-1.140560818324727734e+04
-1.416922501960374757e+04
-1.497718410231012604e+04
-1.577065685837784622e+04
-1.545777262635389525e+04
-1.575566555132446592e+04
-1.552059247489584959e+04
-1.514775751727853094e+04
-1.408737586556554743e+04
-1.006066194691704914e+04
-1.279576172047454384e+04
-2.153983525412698145e+04
-2.430810853918141947e+04
-2.571381313489271997e+04
-2.664018288903542270e+04
-2.799528160875573303e+04
-2.652824786769251659e+04
-2.683234215135472186e+04
-3.171508424868962902e+04
-3.256952886434891843e+04
-3.225672200697549852e+04
-3.140290635190685498e+04
-2.824219768802296312e+04
-2.490669485439271739e+04
-2.331164100871057235e+04
-2.429318042147639426e+04
-2.535050121257153660e+04
-2.631881869248184739e+04
-2.736531212161043004e+04
-2.849128603796203606e+04
-3.018194710839780964e+04
-3.158259235992325921e+04
-3.119954205840839859e+04
-2.950710348248993250e+04
-2.854761748074473508e+04
-2.770750211534425034e+04
-2.712209617769554097e+04
-2.652171577468247415e+04
-2.633877878233571028e+04
-2.557891870057449705e+04
-2.329557098304332612e+04
-1.877900833186521777e+04
-1.478475970230097118e+04
-1.131034275027312833e+04
-8.098253369751734681e+03
-4.665027690883887772e+03
-1.802302207737778872e+03
6.405886940175909103e+02
5.707651656950642064e+03
8.385882878842243372e+03
7.785092199466122111e+03
7.425030335686129547e+03
8.730981139391453326e+03
9.584060757437026041e+03
1.271337303675837757e+04
1.609715457265875557e+04
1.958756884450482175e+04
2.075166860688855741e+04
1.828738144207832374e+04
2.001942493293262305e+04
2.232703811466542538e+04
2.317611594970913211e+04
2.373125033106072442e+04
2.592458398384761313e+04
2.843416415719174256e+04
2.961997778345354163e+04
2.950123643244822961e+04
3.133654808252093426e+04
3.385177910434237128e+04
3.511969266220423742e+04
3.449095747046329780e+04
3.260019549036578246e+04
2.948692147441521956e+04
2.663960930098229073e+04
2.747561336563741861e+04
2.993547810566582484e+04
3.278806504801967094e+04
3.472047954624328850e+04
3.608507074713573093e+04
3.768828490621158562e+04
3.972847198733528785e+04
4.122997843867992196e+04
4.264214294152742514e+04
4.375331825259113975e+04
4.417984338287519495e+04
4.445592554463489068e+04
4.469452121643572900e+04
4.460954049358095654e+04
4.360740700565090083e+04
4.223843976417335944e+04
4.076261219407205499e+04
3.922212128624760226e+04
3.751403380765197653e+04
3.544543768815742078e+04
3.407337632533989381e+04
3.275573168755961160e+04
3.064153385536328278e+04
2.985878945695620860e+04
2.999842375945847743e+04
3.006244110626130714e+04
3.179579562913378322e+04
3.426936661857870786e+04
3.638917564485853654e+04
3.699916602627084649e+04
3.524831006350170355e+04
3.094963026463018105e+04
2.579508435695263324e+04
2.168452789074533212e+04
1.791582621211064907e+04
1.531180254856185638e+04
1.229735274565836880e+04
8.681454835714184810e+03
2.067975678695315764e+03
-5.786258613450931080e+03
-1.501641295888594323e+04
-2.048957603671849574e+04
-2.438878916156125342e+04
-2.774814893175064935e+04
-3.011473555847359967e+04
-2.987156034250891025e+04
-3.021077462522156566e+04
-3.181724153312539056e+04
-3.174684892249890254e+04
-3.241174141573788802e+04
-3.404598463175162760e+04
-3.496746829101704498e+04
-3.388510122511071677e+04
-3.058675983231944701e+04
-3.006539478637604407e+04
-3.157085216635670076e+04
-3.365299887318939000e+04
-3.540165626357795554e+04
-3.669569179549154796e+04
-3.835395948487147689e+04
-3.982723184597119689e+04
-4.053227056090633414e+04
-4.066384925676047715e+04
-4.088767789381524926e+04
-4.139150229206000949e+04
-4.121991546636010025e+04
-3.992657098383109405e+04
-3.798907158485638502e+04
-3.651393369194572006e+04
-3.512159732439213258e+04
-3.410648409154119145e+04
-3.306601107429582044e+04
-3.189259382027015818e+04
-3.114070677524434359e+04
-2.993663074787567530e+04
-2.908463715589890853e+04
-2.863397880551579510e+04
-2.820096949614191180e+04
-2.783692219393411506e+04
-2.714904025109102076e+04
-2.641948631902869602e+04
-2.608639971614759270e+04
-2.527184659078110781e+04
-2.436691395449338233e+04
-2.338060932625242276e+04
-2.237490083404415418e+04
-2.085374041411496728e+04
-1.875900621105590471e+04
-1.694357222463215294e+04
-1.555524136045335945e+04
-1.433769644591163160e+04
-1.269271226070073681e+04
-1.124400232776206030e+04
-1.041424174198800574e+04
-9.291177788255939959e+03
-7.965432660817099531e+03
-6.910589227193040642e+03
-6.006286179761231324e+03
-4.960090826376221230e+03
-4.275657542641216423e+03
-3.572534450697988632e+03
-2.517139246525626731e+03
-1.883592729124030711e+03
-1.463369187018510047e+03
-7.664914321851412069e+02
1.148183257445041818e+03
2.384346086571840715e+03
3.532711001370358190e+03
4.939850456682144795e+03
6.221376063893078936e+03
7.250965017420935510e+03
7.998572009505071037e+03
8.983006809897242420e+03
1.000188129406602093e+04
1.010301877169318504e+04
1.004634226774887065e+04
1.041152703807298349e+04
1.008148755763845293e+04
9.289063820913421296e+03
8.521244796466477055e+03
8.105776708144177974e+03
8.460547757505046320e+03
8.744243039013335874e+03
9.009661252893069104e+03
9.600890207632110105e+03
1.030488960866156049e+04
1.077250935020902216e+04
1.136650590276114781e+04
1.338176833985555822e+04
1.639425661056738318e+04
1.822301351606585376e+04
1.940917970321207031e+04
2.024067558264138643e+04
2.182934004745718266e+04
2.357415954757302097e+04
2.516515572308254559e+04
2.644718641239609497e+04
2.734138269854937244e+04
2.813282457858985799e+04
2.877933232140063410e+04
2.878158395809527428e+04
2.784647998772501523e+04
2.725588848644122845e+04
2.616964325861651741e+04
2.552743028641015189e+04
2.541102682517437643e+04
2.510426674691093285e+04
2.490784849069285701e+04
2.522639611217902348e+04
2.539759568418403433e+04
2.532817909527484517e+04
2.498975272312198285e+04
2.497393631602069217e+04
2.469845143692891725e+04
2.396399392140945201e+04
2.259918821285434024e+04
2.076160675323921896e+04
1.925185848291017828e+04
1.761750461120373802e+04
1.594399637861763586e+04
1.423774063544392266e+04
1.209717500185667450e+04
1.131470056359019873e+04
1.007968339650685448e+04
9.200518443088585627e+03
8.647544071640386392e+03
8.252191018428527968e+03
8.251937916073065935e+03
7.627346954645779078e+03
7.078308024942352858e+03
6.757000947022625951e+03
6.943595059910112468e+03
6.887309019776525929e+03
6.229231567414231904e+03
4.859532467880620061e+03
4.198970625700775599e+03
3.253052389313904769e+03
2.379890341049491781e+03
1.962968722907740812e+03
1.106753088331803610e+03
-8.181013021666277609e+02
-2.373832939829061161e+03
-3.585984157436995702e+03
-4.566353432301324574e+03
-5.996557231826396674e+03
-6.843272548008174454e+03
-6.983690830864133204e+03
-7.144751263092539375e+03
-7.430713713614917651e+03
-7.131304580733710281e+03
-6.841630184085288420e+03
-7.163138760814954367e+03
-7.447322419968776558e+03
-7.528066739922823217e+03
-8.037046269420702629e+03
-9.036341810657242604e+03
-1.075644500204348697e+04
-1.165391000113355221e+04
-1.222624958367391810e+04
-1.292077190718524253e+04
-1.394733216156029448e+04
-1.498178106733072673e+04
-1.573112917348344308e+04
-1.615677061777859672e+04
-1.651224349974524375e+04
-1.617726387826100654e+04
-1.582476574665303633e+04
-1.571702032292268814e+04
-1.490635968794860491e+04
-1.417145124543282509e+04
-1.343187054405257004e+04
-1.297620659373690614e+04
-1.221104221658509960e+04
-1.154992783869200139e+04
-1.121448338883777797e+04
-1.114042031932069222e+04
-1.122253093094370524e+04
-1.150640753545381449e+04
-1.169566482681549678e+04
-1.219992000309528157e+04
-1.263782209502402657e+04
-1.325595284111645742e+04
-1.375302947186376332e+04
-1.358282423449551061e+04
-1.344811646653801654e+04
-1.304051243196314499e+04
-1.255864955070752512e+04
-1.255315324602053079e+04
-1.432463408452594740e+04
-1.581860971227645132e+04
-1.095560631692884635e+04
-1.068243844153024838e+04
-1.507153385256096408e+04
-1.508414963542203805e+04
-1.385976636836124453e+04
-1.271201635936733328e+04
-1.358037073402661190e+04
-1.364750535442908767e+04
-1.326200563742653685e+04
-1.319147915277347056e+04
-1.384477306470266558e+04
-1.436223571464856104e+04
-1.298454859886624035e+04
-7.003881783957835978e+03
-5.356674044783198951e+03
-1.089324347494520589e+04
-1.249400245966773036e+04
-8.776328750511105682e+03
-7.546403834255429501e+03
-9.888366666965501281e+03
-9.157613688181960242e+03
-7.423413410820846366e+03
-6.026898937806786307e+03
-5.208123639964273025e+03
-4.790102984695653504e+03
-4.472825687759825087e+03
-4.485368917181599500e+03
-2.206157943924243682e+03
2.684525748128435680e+03
3.751504203089112252e+03
3.900698199749890136e+03
3.979050928024265886e+03
3.651537522853748214e+03
3.174090032592366242e+03
2.710682259985050223e+03
2.728373138946669769e+03
3.511225407908095349e+03
4.647329538422112819e+03
5.387847610583498863e+03
6.638875705822828422e+03
7.329609300508252090e+03
8.066236343276558728e+03
8.450957071790424379e+03
8.542950312166312870e+03
8.780375792704602645e+03
8.956437385326480580e+03
8.906366675809673325e+03
8.365305464057624704e+03
7.943496624774188604e+03
7.678273885913276899e+03
6.864731139620454996e+03
6.164048249670697260e+03
5.906462144868838550e+03
5.529995649973406216e+03
5.432783807207244536e+03
5.099103099910932542e+03
4.956350827683845637e+03
5.601028515358194454e+03
6.761682164703042872e+03
7.614776690459687416e+03
8.230645921690267642e+03
8.678678316462037401e+03
8.690125712770122846e+03
9.020376732247868858e+03
9.352835181201829982e+03
9.338047575901138771e+03
8.779470699850198798e+03
7.578647469891177934e+03
6.795865860466098638e+03
6.048582306204380984e+03
5.223112842062947493e+03
4.538756217424162060e+03
3.235634398731334386e+03
3.023900504698413897e+03
4.251965966725658291e+03
5.086039934365899171e+03
4.450441716139555865e+03
4.412593579266350389e+03
4.947708800865269950e+03
5.206217195677999371e+03
5.108922656021506555e+03
5.497861491464158462e+03
5.701649515691316083e+03
6.426688242397645809e+03
6.425070525164885112e+03
5.792950851038832297e+03
5.442593938232460459e+03
4.902238749887289487e+03
4.202024485610689226e+03
3.513030141150352392e+03
2.790425082038237178e+03
2.306366571070319878e+03
1.947985078137439359e+03
1.579348898264041281e+03
7.095177157802322654e+02
9.067544907132798926e+01
8.496344321790964216e+01
6.805310159842047142e+02
1.444520469113389936e+03
1.404020736306059007e+03
1.514151166953999564e+03
2.019970863594792263e+03
2.646605083684724832e+03
2.822202460006511501e+03
2.803835063236044789e+03
2.509548133054950540e+03
1.593384008532071903e+03
9.473447999030593110e+02
5.804588575147663505e+02
-2.362542326783456303e+02
-1.251779253205548002e+03
-2.242134379672166233e+03
-3.002401499576950300e+03
-3.688626193540984787e+03
-3.999783106232449882e+03
-3.693898924359212742e+03
-3.284984841977959150e+03
-3.127047208769545250e+03
-2.961099086955500297e+03
-2.238145565704750879e+03
-9.701491272267244312e+02
4.818424875763075761e+02
1.011791758530509242e+03
1.170635368847380732e+03
1.449358265749172688e+03
-7.518582007630978126e+01
-3.430044527354972161e+03
-7.698243355140913991e+03
-8.270907362370169722e+03
-7.052137298185550208e+03
-2.152027425155093169e+03
-2.754707686792703498e+03
-3.001349570090202178e+03
-3.099027000831430541e+03
-3.467719289174897312e+03
-3.038555976665616072e+03
-3.184703637701475600e+03
-2.576235400269280944e+03
-2.196100525239834496e+03
-1.572392580292374760e+03
-5.042497752691334654e+02
-2.777153514782097545e+02
-3.283749527639993460e+01
-2.177399842251757889e+02
-2.574634865672198885e+02
2.809005203366195360e+02
6.112619488353576571e+02
4.655116348985823720e+02
-1.354937242783348097e+02
-5.159105134593303319e+02
-1.696797083486104384e+03
-2.745268973525921410e+03
-3.152480082737683460e+03
-3.845580156813086433e+03
-4.135678028296549201e+03
-4.424981079384242548e+03
-4.582738654412992219e+03
-4.117000455837368463e+03
-3.328765671602125167e+03
-2.329077339797749119e+03
-1.777079438949946280e+03
-1.411865998475501783e+03
-1.366532429698349233e+03
-8.821658149055134572e+02
-8.728263708149262357e+02
-5.936419050783865714e+02
-6.926639379691348495e+02
-8.569134113950505025e+02
-1.011396413463226395e+03
-1.395222996090949664e+03
-2.137406456072122637e+03
-3.006012090376549168e+03
-3.362133413077626301e+03
-3.282795951192566918e+03
-3.010064012771380931e+03
-2.675000901777525087e+03
-1.995584795277194189e+03
-1.091838238303100525e+03
-2.957286022025588181e+02
4.266969151099850706e+02
1.202438901846679528e+03
2.267550082106482478e+03
2.959117853779084726e+03
2.824228186887156426e+03
3.125883416750359629e+03
3.509115037653991749e+03
4.075948808275430565e+03
4.012396100893728089e+03
3.272528244423049273e+03
2.598224141662415605e+03
1.915538776312093660e+03
9.174071997782481276e+02
1.577963762684407811e+02
-2.452619726461390712e+02
7.026558187965886759e+01
-2.375403926292854351e+02
-9.858343299391766834e+01
1.771854801539101913e+02
6.218165810340967710e+02
9.123497389779406603e+02
8.368416497711608599e+02
-2.572490904610584494e+03
-1.829619338452739612e+03
-1.344584600291177878e+02
-1.585902423666007508e+03
3.156010211847120445e+03
3.126377747673962858e+03
2.019355024724400209e+03
-2.094008541577004962e+03
-3.393630017182817028e+03
-1.065448962232174154e+03
-3.338389558587405190e+03
-6.010431597473104375e+03
-3.703570546648413710e+03
-1.210724322176967007e+03
-3.744815021766313293e+03
-3.696776303464907869e+03
-4.289525142555555249e+03
-2.901924243329474848e+03
-1.453845089606757938e+03
2.436791917530552382e+03
2.826151571300134037e+03
3.478330161179536844e+03
3.073524025947408973e+03
1.104792478220626890e+03
4.464218142914513010e+03
1.753858922651833609e+03
2.006809451223321048e+03
-1.017846871894902392e+03
-1.515045179235150954e+03
-1.150705324017887051e+03
3.172230496601278560e+02
-1.961232871428954468e+03
-1.658025287755893714e+03
-4.070592175797561936e+02
-2.972602651137827365e+02
-2.156584781362004577e+01
1.680399710732006326e+02
3.876760410692291998e+02
5.344586581590032210e+02
5.544802543703085576e+02
1.129901001477584714e+03
1.173805843568500904e+03
1.216228151278046425e+03
1.485291255339548570e+03
1.774022723919422560e+03
1.854508787017821760e+03
2.052814013081325356e+03
1.508006488759855301e+03
5.091248572017322545e+02
9.616037591824027686e+01
-3.079973750908087382e+01
-5.408128470268007959e+02
-1.342889767518562621e+03
-1.912967245094118653e+03
-1.934462182659343625e+03
-1.513271587338838799e+03
-1.121819232306034564e+03
-9.727188803595017816e+02
-6.906514934407101691e+02
-1.329694653243698212e+02
2.863713919548971489e+02
4.584605968759863686e+02
4.854761009646890670e+02
-5.136166301990724605e+02
-3.548863934673196127e+03
-1.374315545299038149e+03
-2.465935089329831953e+03
-3.878503548576340108e+03
-1.825150541445792214e+03
-1.958679089075820684e+03
-2.331088974865870114e+03
-2.235003866966312671e+03
-2.505249359783693762e+03
-2.660160865858122179e+03
-2.677603582862258463e+03
-2.736492233659628255e+03
-2.290048099946813181e+03
-1.757357948995640299e+03
-1.421471391860338827e+03
-7.804246754076838215e+02
8.682883979292030574e+01
1.284287434428266579e+03
2.067895434973811916e+03
2.628556822389256467e+03
3.054800904153661577e+03
2.906554537546805022e+03
2.253889795505556776e+03
2.032652809909769530e+03
1.807837283182805550e+03
7.984891278541821293e+02
1.925251205792132225e+02
-3.841880068322053603e+02
-1.346823777057023563e+03
-1.497560185260512299e+03
-1.688461159648227067e+03
-1.057618300446065405e+03
-5.410777790724665692e+02
2.580999704521339595e+02
1.158782481226122854e+03
1.761835808067090966e+03
2.313176396183850557e+03
2.748747833183563216e+03
2.822452461915469030e+03
3.149135214596165952e+03
3.919586901580350968e+03
4.120659490692737563e+03
4.595278430910580028e+03
5.122290606337362988e+03
4.671538765784778661e+03
3.768862468497001828e+03
3.032155172047621818e+03
2.558341663602550398e+03
2.295212595365408561e+03
1.924570626553105058e+03
1.592187700816078404e+03
1.550894395771415702e+03
2.073563795163704071e+03
2.464157718980070968e+03
2.990716440668631549e+03
3.536095180871188859e+03
2.917055155153648684e+03
8.525271330219095489e+02
-2.339603859521153481e+03
-4.460431761318053759e+03
-4.351191344340271826e+03
-4.236960213220011610e+03
-3.566881184244220549e+03
-2.329127384058703228e+03
-3.216753395314127829e+03
-4.083018021824383140e+03
-4.418271428626678244e+03
-5.015742109953375802e+03
-4.901570484419943568e+03
-4.985882023863653558e+03
-1.397692668401878677e+02
2.840859895234651958e+03
1.064756448684833686e+03
1.868579274361538637e+03
4.232161035274531059e+03
5.183261985179487056e+03
5.575706291976117427e+03
6.050390756028387841e+03
6.968156338960374342e+03
7.918915348514591642e+03
8.113529592003550533e+03
8.073824165271143102e+03
7.381637598670409716e+03
6.706867514977743667e+03
6.022391377769759856e+03
5.009990499164489847e+03
4.252594908128413408e+03
3.644114882400354418e+03
3.035380840383822033e+03
2.833217452009830140e+03
2.622441391981214110e+03
2.273115979638545923e+03
1.967224625879283622e+03
1.891609377122348405e+03
2.400055180693123930e+03
3.029531318215457304e+03
3.463984637044484771e+03
4.208380278012182316e+03
4.605743450760406631e+03
4.491067315540131858e+03
4.711263179391456106e+03
5.046325976200534569e+03
5.156268546521248936e+03
4.071090120616438981e+03
2.706778681121423233e+03
2.344328947370231617e+03
1.660739178577072607e+03
5.889298509584317571e+02
-6.360767019084979665e+02
-1.356257124211736254e+03
-1.908539826719090115e+03
-2.145923525734046962e+03
-2.155370029685193913e+03
-1.666841910691643307e+03
-1.390194186310418672e+03
-5.242893793221198848e+02
-4.228933592332031708e+02
