4.074502011249323346e+02
8.161014926056269587e+02
1.583666601536983535e+03
2.800151372256142622e+03
3.457405619263712197e+03
3.574651554495932032e+03
3.983450103571703494e+03
3.107693908827040104e+03
1.864362214915837512e+03
1.461663198313744488e+03
1.044490281987401886e+03
9.998610865674447723e+02
1.670932942477353663e+03
1.491860896051113968e+03
1.372890042116014456e+03
8.068005303751393740e+02
1.526831680584941068e+03
2.326078216693811555e+03
2.187463487599176460e+03
2.414338914604504680e+03
3.009869928257102401e+03
2.109145868272971711e+03
9.870117246549974652e+02
2.735472105349115282e+02
-1.400457794944033196e+02
-7.036256737019764387e+02
-3.281817858015297134e+02
5.684585850380321972e+02
1.347381392350964461e+03
1.086691837811328924e+03
4.515311912091382851e+02
1.728664899420482186e+02
-7.427425882129423940e+01
-1.027744148662844509e+03
-2.336332427963028294e+03
-3.797938129083888725e+03
-4.840497104633572235e+03
-4.931985119554122321e+03
-4.211159058270479363e+03
-2.945875316727078825e+03
-2.689096705914314043e+03
-2.262655830432179300e+03
-2.036581584350536787e+03
-1.795810388548514766e+03
-7.880911852534510444e+02
-5.712518011612886539e+02
-5.942616623135317013e+02
-1.225130577961093422e+03
-1.399765913113270017e+03
-1.150063493316833956e+03
-1.593901130336266760e+03
-1.235127783384222539e+03
-5.706810399035215369e+02
-8.155753300959271428e+02
-1.691653701865506719e+03
-2.697824028066838309e+03
-2.544007725046893484e+03
-2.111168354358110719e+03
-1.889335496468219389e+03
-1.068367110666969438e+03
-8.191149465855917242e+02
-3.764693244442797777e+02
2.595354660858647549e+02
-8.310978095246242674e+02
-1.823268420790738446e+03
-2.196943716338253125e+03
-2.374104800811150653e+03
-1.652640466280958435e+03
-1.457437662718473348e+03
-1.830499223043160100e+03
-2.011957091350456949e+03
-2.152613439510741046e+03
-2.617506456110284489e+03
-2.634613526724336680e+03
-3.448521904054430820e+02
-1.140221730509261533e+03
-8.466090199255746711e+02
1.126962430273456448e+03
3.258519928024318233e+03
4.932002451425878462e+03
4.624384663106441621e+03
3.675738198351415576e+03
3.708192068188389840e+03
4.168647838050109385e+03
4.166172401370463376e+03
3.898784696391262514e+03
3.446456919127563651e+03
2.816146658366925749e+03
2.900816980737737595e+03
3.333480180327701873e+03
3.359138355117258016e+03
3.008736157306281257e+03
1.933203085527607072e+03
1.361484710431614758e+03
1.057524797378298899e+03
1.215374852288081456e+03
1.212051246485424599e+03
1.820583668698775455e+03
2.475868179002576198e+03
3.480759163449857169e+03
4.024189935564553707e+03
4.012068072457039762e+03
4.408409199130690467e+03
3.957149996216262025e+03
3.240151081740132668e+03
2.436291568143731638e+03
1.816511135882665485e+03
1.645772054657976696e+03
2.303958077202198638e+03
1.851901381807782627e+03
1.375510343016357865e+03
1.297683015318648359e+03
1.588275597467197713e+03
1.755220778624278637e+03
1.772430279420764691e+03
1.981704140288313511e+03
1.963022247351094620e+03
1.761334264536108094e+03
1.992527471484809439e+03
2.385463243358009095e+03
1.925024752699600867e+03
1.673201920333660610e+03
1.809980528332657286e+03
1.236169773407423008e+03
7.196660160349182433e+02
8.292118152772944768e+02
6.759684435688255917e+02
2.416293609812333614e+02
7.280662471307972510e+02
7.831783722869082567e+02
-1.522091923116391854e+02
-7.042047399995303749e+02
-9.478597402059416481e+02
-6.623595020686566386e+02
2.074607211964774045e+00
4.673523746472339440e+02
-5.495988367054653736e+02
-2.064956344116157652e+03
-1.440911297337143651e+03
-2.418552254526460729e+03
-9.990537357102857641e+02
-5.134099479024298489e+02
-2.236502274674535045e+02
-1.307896784743397120e+03
-1.951410484000293081e+03
-8.748914058459395449e+01
-1.979227578728745357e+03
-1.342781416404516676e+03
-1.012321205445561304e+03
-1.360851164819572659e+03
-2.394887673669122421e+02
-8.553830272029338175e+02
-2.519861167211959128e+03
-1.545152066536135862e+03
5.658238738580802192e+02
1.244939179006794348e+03
8.581462697544175171e+02
-9.464730450546657892e+01
-2.220546755886910887e+03
-9.226093377494240713e+02
-2.555059319128169136e+03
-1.100116995990249734e+03
-6.729369917434844410e+02
-9.556758089546704014e+02
-1.550326695990580447e+03
-1.146955005758613424e+03
-1.415541399828049634e+03
-9.462224802528418195e+02
3.146653400298264955e+02
-1.872967233162835100e+03
-1.526248590977070990e+03
-1.476380666223041544e+03
-1.666413950468442408e+03
-1.853483337909072816e+03
-3.054727343686104177e+03
-2.501267407876300240e+03
-2.115180233587541807e+03
-1.728440216834888361e+03
-1.974149837439608291e+03
-2.236455151124960594e+03
-4.387178800761546427e+00
7.519800157757393890e+02
6.605433885982039328e+02
9.591502529738967269e+02
1.109750691405737143e+03
1.199363617189994784e+03
1.674962174995923760e+03
1.731561315562554228e+03
1.308001138305287213e+03
9.416779979775483866e+01
-7.060195083389606907e+02
-9.576872127457066881e+02
-1.794915552507704206e+03
-3.040732227236915605e+03
-3.376282380180983182e+03
-3.641700663497832466e+03
-4.322968593267036340e+03
-4.051864962787358763e+03
-2.260496811432552022e+03
-2.093995393828466149e+03
-1.172334690330710373e+03
6.985008558476578173e+02
2.070622408681183060e+03
2.610850361870324832e+03
2.449980801826927291e+03
2.655342326422518909e+03
2.884817440801407884e+03
2.970377887021355946e+03
2.770870149425156342e+03
2.416304058665727098e+03
2.243718552111345161e+03
2.236969359213137977e+03
2.411831884122048905e+03
2.184548115243287612e+03
2.050350351178803521e+03
2.027163497846639075e+03
1.929067613948966027e+03
2.588001823814333420e+03
3.033023373847276162e+03
2.913231914770231924e+03
2.874577027174797877e+03
2.684810366671705196e+03
2.773074299834346220e+03
3.229244493476184289e+03
3.756523694713730947e+03
3.779003653581291928e+03
3.789603071513779923e+03
3.842626991544089378e+03
3.125053084458500962e+03
2.011750011543451592e+03
5.968604836674429635e+02
-7.882977561274138907e+02
-1.711987500328952819e+03
-2.385979551292568431e+03
-2.242809254658490318e+03
-1.294854206483472581e+03
-6.064169699568010401e+02
-1.177533548011675322e+02
8.421128186900808714e+02
2.544488987397015080e+03
3.936487710591590712e+03
4.491976014423675224e+03
4.002017997670124714e+03
3.174744336678617401e+03
2.596074339149679417e+03
2.156337229154351917e+03
1.689452627442966559e+03
1.842271625683648608e+03
1.196093508326215215e+03
-1.406707734668771991e+03
-3.033316242877831883e+03
-3.504856133289134505e+03
-3.749939135695874029e+03
-4.175573681200417923e+03
-4.299554301553981531e+03
-2.705436499312422256e+03
-2.681517431092652259e+02
1.725367043060646921e+01
5.360165899717850380e+02
1.681795939417173031e+03
1.438368225479224975e+03
-6.831559921299951839e+02
6.053648641732208944e+02
8.288758385498866801e+02
3.438946473939695352e+02
1.638597095331934497e+03
1.186800907531557186e+03
-2.460317992228049491e+02
-7.867855799063416953e+02
-1.183728918257234000e+03
3.272195404891850785e+02
-1.097451826535485679e+03
-1.569691586547597353e+03
-2.025000641513772734e+03
-3.387283385045865998e+03
-2.903455974981371583e+03
-2.660614872353693045e+03
-1.576619285477412632e+03
-8.779981391220213709e+02
3.874686715453902366e+02
6.036444145674722677e+02
3.783474586790716785e+02
-8.162229574400040519e+02
-3.079004708662679946e+02
5.226004391085692760e+02
1.006088111707721396e+03
1.313522451583079601e+03
1.523150399458353377e+03
1.155090574569934233e+03
-4.955761118723809489e+01
-1.175749208161482329e+03
-1.927193905849468365e+03
-2.326800680052664575e+03
-2.722516259273214928e+03
-2.021173873201341621e+03
-8.899297067267442571e+02
-5.650436246934067412e+02
2.364214976816276135e+02
4.832095136507267057e+02
5.008468457502529532e+02
4.831919021808703292e+02
6.415453163502412508e+02
4.279518637381179929e+02
4.563714781485866752e+02
8.999107019405349206e+01
-3.742678142817989055e+02
-2.633264295951142913e+02
-5.220878918343735222e+02
-6.264324877395281419e+02
-1.131344080098379209e+03
-1.370907247495757019e+03
-1.877113301195458007e+03
-2.110923003989568315e+03
-1.883393948450515609e+03
-1.702598263873087944e+03
-1.685512764737677344e+03
-1.648201364320055973e+03
-7.695321286744086819e+02
1.853205640118338948e+01
3.940650839436059982e+02
6.604151413376916935e+02
8.927342950637485046e+02
5.300181316886103104e+02
6.853163053285943533e+02
1.194468714360475815e+03
8.013206026541816982e+02
-1.399927209223927321e+03
-6.581520521207241927e+02
-2.555257876280766993e+02
-3.165947987481781638e+02
-3.888923447877187414e+02
-1.018804351134721628e+03
-1.219669233812240236e+03
-1.199989230692114006e+03
-1.449029805282141297e+03
-1.461112301143703235e+03
-1.257531296023758614e+03
-9.432178844318979145e+02
-5.363792129951913239e+02
-6.043246654158656384e+02
-2.142241498120269227e+02
2.377255088666338452e+02
1.158336270437676149e+03
1.017456007430888576e+03
7.188968657482460003e+02
4.384005157720882266e+02
3.208501181303245744e+02
1.951562156450696648e+02
-5.667085813156645600e+02
-1.083683583011470773e+03
-1.975805114793783559e+03
-2.557091586841563185e+03
-2.525574787401379581e+03
-2.159200005875335592e+03
-2.176025592046016754e+03
-1.936062780519078387e+03
-1.033325553205548886e+03
-1.084678927667924881e+03
-9.179959540876795927e+02
-1.829089837187464695e+01
5.815670143887493850e+02
7.636498177772015197e+02
8.521095467021182230e+02
1.572051068459623821e+03
1.727660872968257991e+03
1.554930959966516866e+03
1.822933002373683166e+03
2.100227313368950036e+03
1.488428191972329842e+03
1.129827670591681908e+03
9.797040183262882920e+02
-5.016881321659283230e+02
-1.285127199228609697e+03
-1.826540098110800500e+03
-2.021804047481914267e+03
-2.680795390002122531e+03
-3.057486035522624661e+03
-2.821627870674256428e+03
-2.725129423052512266e+03
-3.461780132773059449e+03
-4.055343276431109643e+03
-3.544689890287856542e+03
-1.515749680735293396e+03
-1.895491150210469186e+03
-2.293701922932505113e+03
-2.362257028482569240e+03
-2.704075330156231757e+03
-3.135897300703896690e+03
-2.370592953919318006e+03
-2.254036090269644774e+03
-2.986076592716568939e+03
-3.286662136925901450e+03
-3.930830811941497814e+03
-4.851498884050390188e+03
-4.981514668271542178e+03
-4.930923062135168038e+03
-4.913443941690604333e+03
-4.129921356788390767e+03
-3.157343671390498457e+03
-2.498746830271110412e+03
-2.547881026599385223e+03
-3.087550367027571610e+03
-2.562829490759129385e+03
-1.786244936069836058e+03
-1.862890109144860617e+03
-2.119681251095272728e+03
-2.412458023655645320e+03
-1.512217108296541483e+03
-2.251764069965196086e+03
-4.682994032919851634e+03
-5.745084360211585590e+03
-6.541101770300791941e+03
-6.998811403446786244e+03
-7.264091265526213647e+03
-6.555828774431585771e+03
-5.136871763764890602e+03
-4.548463036631974319e+03
-4.884421295351778099e+03
-4.771036907093769514e+03
-4.569133269832965198e+03
-4.420561076679433427e+03
-4.189284509341059675e+03
-2.824381587997313090e+03
-2.120806336141588872e+03
-2.022654867221601535e+03
-1.011110024310007930e+03
1.070500041010614751e+02
5.736006802036027921e+02
-1.106129997203786388e+02
-8.946922085690868016e+02
-1.099766792008753782e+03
-1.651855619556247802e+03
-2.316137187774147606e+03
-2.198723266073973718e+03
-2.385918549822754812e+03
-3.350938898111572144e+03
-3.642953480785569809e+03
-2.830219986283599610e+03
-2.174799139977983941e+03
-2.519812998116938161e+03
-2.637448124216575252e+03
-1.926004810378538195e+03
-8.247921510750898051e+02
1.097851497182718958e+03
2.153674607692936206e+03
2.973434132326995041e+03
3.469955330020778547e+03
2.878003361297366155e+03
2.707299295208993499e+03
3.952493655766423217e+03
3.826286315211057172e+03
2.522259785788704903e+03
1.336034780370762974e+03
2.295367533374943832e+03
1.158747407632839213e+03
-1.558388524201902783e+03
-3.172230460576335645e+03
-3.734184505228774015e+03
-2.153765611679077665e+03
-8.135895426881587866e+01
8.677506086296928061e+02
1.905190983100541189e+03
2.466516114535525503e+03
3.191398182667966012e+03
3.012394391663545321e+03
3.453061998997164210e+03
4.680014900720381775e+03
3.047827309245287779e+03
-4.758717451331245343e+02
-1.641505840963891387e+03
-1.385495293166000693e+03
-1.293194811782135503e+02
-1.114061262573575704e+02
8.228340591106127704e+02
3.237931593884748509e+03
5.686471759081714481e+03
6.626120491323767055e+03
5.318481020381836970e+03
4.640155321440885928e+03
5.197713760848109814e+03
5.274740223729187164e+03
4.384810583143693293e+03
4.690596011957086375e+03
7.051685497755584947e+03
8.477668046227036029e+03
7.049222080116178404e+03
5.073032778157035864e+03
9.938766402195635237e+03
1.240805921813165514e+04
7.158500867438621754e+03
6.125685263650007073e+03
1.278827006426333537e+04
1.687790310999472422e+04
1.651627436266554651e+04
1.473899366954537072e+04
1.557374606881330328e+04
1.710917085900747770e+04
1.581598791825155968e+04
1.439900273219096016e+04
1.502607299397696261e+04
1.455207842960265043e+04
1.622179116676466219e+04
1.513398019125826249e+04
1.107839771350018054e+04
9.823764949136069845e+03
1.170095710445973964e+04
1.002121526679866838e+04
5.338494436798619972e+03
4.693568572008842239e+03
2.906207960759027173e+03
1.228329889695152133e+03
3.687950565486160940e+03
6.474978276914823255e+03
8.261210128999822700e+03
1.406085614706873639e+04
1.602187797283353757e+04
1.494724227800521476e+04
1.366282916059586569e+04
1.239570406150474810e+04
9.135869303317867889e+03
9.771569808295551411e+03
1.123101294221529679e+04
9.935066523960973427e+03
1.373910834234722643e+04
1.958949216343287480e+04
2.302128507339944917e+04
2.668364178134305985e+04
2.280165447225294338e+04
1.675085625639429782e+04
1.659035789410493817e+04
1.693742147653572829e+04
1.646453985322906374e+04
1.365590958073169168e+04
1.140983680852836187e+04
1.245541010277252281e+04
1.529809456410529674e+04
1.598032573665053133e+04
1.317244362139001350e+04
1.094883960428447062e+04
1.036504568011292213e+04
1.342742131374855853e+04
1.351333623315114892e+04
1.072229166124615222e+04
8.969813835801964160e+03
7.503396013769844103e+03
5.805561357269654764e+03
2.037929587209976262e+03
-5.629014288273048123e+02
-4.445330812996835448e+03
-9.870867161646374370e+03
-1.482799238488264018e+04
-2.388514079613321155e+04
-4.000074287426398223e+04
-6.439314343912236654e+04
-8.656677076857743668e+04
-9.481593173449655296e+04
-9.461591444440490159e+04
-9.063499868701823289e+04
-8.724350366052219761e+04
-8.532775446655892301e+04
-8.245708501201853505e+04
-8.099578830652603938e+04
-7.887819002365146298e+04
-7.689663264365597570e+04
-7.293939419476823241e+04
-6.826075778161881317e+04
-6.554098749083073926e+04
-6.383036623771390441e+04
-6.244715106207192730e+04
-6.121061408849814325e+04
-6.111406917298179906e+04
-6.159382188504117221e+04
-6.307714896511643019e+04
-6.427334259064341313e+04
-6.563478835481136048e+04
-6.656582035726970935e+04
-6.526678735774532106e+04
-6.203503117104802368e+04
-5.780076613963988348e+04
-5.172129768998392683e+04
-4.526197589457288268e+04
-3.971114335561940243e+04
-3.018709781900200323e+04
-1.568608388530159937e+04
9.693062258657969323e+02
1.459469710596811638e+04
2.552084459328372031e+04
3.779332359364353761e+04
4.629967554927270248e+04
5.205843946747518930e+04
5.890511579120782699e+04
6.491428203148919420e+04
6.950346654853268410e+04
7.552512751154979924e+04
8.050561993850419822e+04
8.456540313892230915e+04
8.908497414482363092e+04
9.278181618558007176e+04
9.565336733121245925e+04
9.799588139378531196e+04
9.905487313383974833e+04
9.847477214331751748e+04
9.754187456431408646e+04
9.561341700447729090e+04
9.315267143528915767e+04
9.065996614361679531e+04
8.799751563688597525e+04
8.514660501394381572e+04
8.210145234471070580e+04
7.932218378168126219e+04
7.608095683082623873e+04
7.228391528909292538e+04
6.802216486626191181e+04
6.429671072956056742e+04
6.077965063214428665e+04
5.642400146369835420e+04
5.149771443545196962e+04
4.534374988609229331e+04
3.880817808084798162e+04
3.128100413949670474e+04
2.394415204582974548e+04
1.447256575696653454e+04
9.671306155567185669e+02
-9.645286939803776477e+03
-1.527973487265567746e+04
-1.921935498405799808e+04
-2.176841598670137319e+04
-2.299706848098693808e+04
-2.264939034276231905e+04
-2.298174825401317867e+04
-2.352041224111315387e+04
-2.361073932425691601e+04
-2.479706429475207915e+04
-2.547271127752984103e+04
-2.671600771706942032e+04
-2.667241798558490700e+04
-2.590429350403542776e+04
-2.501696823302440680e+04
-2.409383468179597912e+04
-2.468055744821692861e+04
-2.467553176632459872e+04
-2.372013816724815115e+04
-2.366280800523573998e+04
-2.299599739374924320e+04
-2.195323792299169509e+04
-2.044115219515710123e+04
-1.755821230981350527e+04
-1.434088725754108054e+04
-1.263477599806581202e+04
-1.280344020872723377e+04
-1.355348162784281885e+04
-1.466049261266360918e+04
-1.562707308745200135e+04
-1.349184873444451841e+04
-1.302555722698052523e+04
-1.472787720600508874e+04
-1.659143346547990222e+04
-1.747581920606379572e+04
-1.821560061931522796e+04
-1.800651915380387436e+04
-1.783921126122387432e+04
-1.796326858488658399e+04
-1.784635054852176108e+04
-1.707104507224928602e+04
-1.626311931044524681e+04
-1.628011198019265794e+04
-1.697057222398176236e+04
-1.797927362960874234e+04
-1.786579706368488041e+04
-1.783070607715581718e+04
-1.760666564253863544e+04
-1.739954765406595470e+04
-1.730707005725874842e+04
-1.821580259142781506e+04
-2.035029818365530082e+04
-2.149321586191598908e+04
-2.153622958782441856e+04
-2.139690491037131505e+04
-2.095881915920586835e+04
-2.003269682751453001e+04
-1.879811319930624450e+04
-1.800857174269888128e+04
-1.695061937526554539e+04
-1.524186510849739534e+04
-1.441779990587508291e+04
-1.381386040956411307e+04
-1.352559740103460535e+04
-1.317658099388882511e+04
-1.165023561629690448e+04
-9.410934007498746723e+03
-8.770218910608002261e+03
-9.570602126661060538e+03
-1.080145384621325684e+04
-1.049218967120459638e+04
-9.534318789245207881e+03
-8.118265548875851891e+03
-5.541262583662010911e+03
-3.551675362515627512e+03
-2.227911151087731014e+03
-1.486336356834935486e+03
-1.002413335316397365e+03
-7.902944800546015358e+02
-3.242469863748607963e+02
1.064492326853075383e+03
3.460798787839318265e+03
4.968418144739942363e+03
6.250929539663395190e+03
7.243289145158245447e+03
7.740426510576944565e+03
9.116080591664505846e+03
9.469058217550988047e+03
8.855536352242010253e+03
8.958488470863640032e+03
9.503740244619719306e+03
9.588117108970312984e+03
9.473383761272156335e+03
1.007442899835655589e+04
1.031336618439099584e+04
1.023899276993511012e+04
1.124347910144070738e+04
1.180779652737313336e+04
1.163204015676913150e+04
1.146518672325601619e+04
1.116014066293556425e+04
1.156136948248998124e+04
1.221118554329027938e+04
1.255654122963394366e+04
1.217436478893062304e+04
1.167095300902570852e+04
1.105326374317290356e+04
1.047048433071251566e+04
9.689589308587281266e+03
9.296786277872746723e+03
9.124203922620255980e+03
8.910341341616056525e+03
8.648366757082210825e+03
8.677394684841474373e+03
8.634516000764177079e+03
9.116310197102975508e+03
9.486906825270962145e+03
9.705431899526991401e+03
9.921048292972713170e+03
1.040324332498178774e+04
1.086844757043154641e+04
1.111437811907020841e+04
1.085442020971310194e+04
9.747519482998386593e+03
9.164743060908804182e+03
9.209795309942419408e+03
9.405030851312243612e+03
8.450949468173708738e+03
7.756963980011631975e+03
7.041172584049241777e+03
6.151863486524408472e+03
5.326575769657940327e+03
4.633681918014887742e+03
4.851330137877829657e+03
5.132941983398523917e+03
5.186749114591428224e+03
4.314388177523482227e+03
2.390440048175109041e+03
-5.220085632168938901e+02
-1.293838836557426248e+03
-5.004166866376097005e+02
-3.222144865786825108e+01
-1.133301499813879900e+03
-2.812392458819254443e+03
-3.460094273789873569e+03
-2.677396488026010047e+03
-2.556119946744383924e+03
-1.097965771212485379e+03
6.229096883162013683e+02
3.092955296383236146e+03
2.559603959514601684e+03
-4.775908284932093011e+02
-1.670379974099863603e+03
-1.948420076149108581e+03
-1.728758769861197834e+03
-3.137243685233884207e+03
-3.458439094456481598e+03
-2.526565883837801266e+03
-2.324629927619258979e+03
-2.747347037543967417e+03
-2.841655027577106921e+03
-1.987736796582747047e+03
-2.239161330040755729e+03
-2.887221614557195153e+03
-2.098775156954451631e+03
-7.645847002265140873e+02
4.916892366218276038e+02
-4.978115375256386415e+02
-4.511716050564468787e+02
1.372544516958551412e+03
1.913565755281810652e+03
1.770283440963860812e+03
1.752948358430498729e+03
2.300417639580321065e+03
2.219277537277745523e+03
2.256793924509362569e+03
2.709293908224227835e+03
3.043815224006492826e+03
2.799445276454539453e+03
2.512221619916174404e+03
2.591441655186517892e+03
3.421110387917868138e+03
3.517259459135701491e+03
2.531048489755794435e+03
2.090500165048606050e+03
1.711184998517976965e+03
1.033789003484783734e+03
2.144396369892206611e+00
-1.045528509593809304e+03
-1.724039103583355427e+03
-1.743108210075051829e+03
-1.334199285961053420e+03
-1.216540078077522367e+03
-1.012280971837896232e+03
-9.276540513462563240e+02
-1.286722272999541701e+03
-1.688652188997041776e+03
-2.305622088408741547e+03
-2.754008578843705891e+03
-3.413163470479679745e+03
-3.903213423201717433e+03
-4.415316440187912121e+03
-4.558612996192783612e+03
-4.499257448267535437e+03
-4.555350091181318021e+03
-4.472023685925961217e+03
-4.203350306301404999e+03
-3.947483465151967266e+03
-3.846617467205085177e+03
-4.547057212229658944e+03
-5.847244745239690019e+03
-5.893572707277262452e+03
-6.296338425375982297e+03
-6.441777841021106724e+03
-6.074221983506125980e+03
-5.768968800369798373e+03
-6.063652335747306097e+03
-6.481079319358592329e+03
-7.070861701442133381e+03
-6.036156850738757385e+03
-4.923134955168213310e+03
-4.717138562750936217e+03
-4.403188227013252799e+03
-4.445497326099154634e+03
-4.160515084604224285e+03
-3.366300565469147386e+03
-2.660823195211814436e+03
-3.425333933865075323e+03
-4.307891458781149595e+03
-5.248539772989603080e+03
-5.138455829712810555e+03
-4.433605187639553151e+03
-4.856040128065425961e+03
-4.456853650102582833e+03
-3.097934010500217482e+03
-1.975088372891505742e+03
-1.536253831587307332e+03
-1.328314149929970199e+03
-1.095106861895675593e+03
-1.239471274518576138e+03
-1.242306437960540279e+03
-9.453772872692811688e+02
-8.005071765822978023e+02
-2.366294663309915336e+02
1.663814966251468377e+02
8.467074258146539023e+02
1.340545181910602423e+03
1.386003698098417090e+03
1.218161847444614295e+03
8.662841238008637674e+02
-3.923788536567389542e+02
-1.131470939866565459e+03
-1.539676080224319094e+03
-1.475711769523261182e+03
-1.543432024467771726e+03
-2.191414733420153880e+03
-2.651982840719502292e+03
-1.710011226204979721e+03
-1.175594796896931484e+03
-1.511664249327018524e+03
-8.991939367417132871e+02
3.998026241445240316e+02
8.783232767969275301e+02
1.649455912860586295e+03
2.027290347326690153e+03
1.564940261149623893e+03
1.282626993387302036e+03
1.982455812293631197e+03
1.413601987799366270e+03
1.770777868195180247e+02
-3.971094289688848562e+02
5.750126835718385792e+02
6.534288526124787495e+02
-8.777291899097137957e+02
-1.687396510487846399e+03
-1.642491797820313195e+03
-1.320821431079491958e+03
-1.391298490325545572e+03
-1.471919098183323513e+03
-1.194483147009831328e+03
-6.820726538662758003e+02
-1.997394247598442689e+02
8.468719983080497116e+01
-3.416612198120723178e+02
-1.016990040503262946e+02
4.766586472380400892e+02
1.017579457904285505e+03
9.969241366397162665e+02
6.958450539665246879e+02
3.105934256641065190e+02
-2.526792699229418417e+02
-5.129572180349240398e+02
-1.035211006499609312e+03
-1.034446022638988552e+03
-1.016623138829542313e+03
-1.332552058500065414e+03
-8.692469215205443334e+02
-4.387340105888409312e+02
3.104455247106173932e+00
-2.625968693281957371e+02
-1.304691541389777512e+03
-1.549069094295338346e+03
-3.527201068755291544e+02
1.098357908508092578e+03
8.461726522127811450e+02
5.348237328399437729e+02
4.603711556093659851e+02
4.770271319944308175e+02
4.569722429547881575e+02
-2.718722906394233405e+02
-5.955404323006457616e+02
-5.289366125378378456e+02
-8.710837565051751881e+02
-1.681003209716942365e+03
-2.322716028096793707e+03
-1.751154490005581465e+03
-1.456336042397879282e+03
-9.022365310522527579e+02
-2.276769611531467490e+02
-2.396464277981885971e+02
-7.601622959159033144e+02
-1.010220169767060383e+03
-1.358927236983825253e+02
6.237629774710585480e+02
3.098736363222412251e+02
-2.294316853446139532e+02
-2.961152525672048910e+02
-5.872290021914935778e+02
-1.458822624659868325e+03
-1.634952328357565875e+03
-1.810687889212677419e+03
-1.989008476507392515e+03
-2.131871649951025574e+03
-3.223248129325983427e+03
-3.175092642389630782e+03
-3.040393372863564764e+03
-2.782148816279727725e+03
-2.047412822532273594e+03
-1.215317210627365284e+03
-1.544805418932152406e+03
-1.264907487502385266e+03
-9.986166651185887986e+02
-2.484849057392953455e+03
-2.820736195383381073e+03
-1.301209902185629062e+03
-5.711561043059961094e+02
-2.606254637858257297e+02
-4.576361172179281311e+02
-7.111636925575187433e+02
-9.502326053198705722e+02
-5.099016846731835528e+01
-1.350461086981753169e+03
-9.446294551269915019e+02
-8.055874401632479476e+02
-7.493508764360265104e+02
-1.062839847284662483e+03
-2.747122347028668628e+03
-2.616217519443197943e+03
-2.219143027882152637e+03
-2.014952197760969284e+03
-3.105715865657698032e+03
-7.324180691759596584e+02
-1.659110163403589922e+03
-1.238827237044064077e+03
-1.379600406511752226e+03
-4.194630087444794526e+02
-1.371474771766951108e+03
-9.176734700038356323e+02
-6.061270543808846014e+02
-4.279398978938750133e+02
-2.777212033297710605e+03
-2.103962661521185510e+03
-1.745338682496950014e+03
-4.774174059545547948e+02
-8.692820468069695607e+02
-1.520055429708905649e+03
-1.299814446352652340e+03
-1.123624344812295703e+03
-1.177525482293537380e+03
-9.875531155211689338e+02
-3.167196117805247013e+02
1.380812400235847463e+03
2.921834263050041500e+03
3.107222540247574671e+03
2.799950185295758729e+03
1.983953687089555842e+03
1.587138254279727107e+03
1.033356025322629421e+03
4.634607125711573872e+02
-6.616151718008530906e+02
-1.947085237612007859e+03
-2.358088449314428999e+03
-1.359771712679559641e+03
-4.241508272150814491e+02
-2.082794294679077325e+02
8.819488282636738177e+02
3.023237012661829795e+03
4.571412770089331389e+03
5.280379411517931658e+03
4.080070142427265637e+03
3.758514866843699110e+03
4.175495884600610225e+03
4.409738696550444729e+03
4.608184628818779856e+03
4.312518911392461632e+03
3.367538615555410161e+03
1.280918231048105326e+03
2.343874732776046130e+03
3.352556584522635603e+03
3.195436487696380027e+03
2.924292288648399335e+03
2.757067495928905373e+03
2.612639290015552888e+03
2.290920471588409328e+03
2.584719040202007818e+03
2.857967065406001439e+03
2.623527827337450162e+03
2.944193207330910354e+03
3.132787763039054880e+03
2.441270577308104748e+03
1.963616611631626256e+03
1.718621865606510028e+03
1.201080549789328415e+03
6.178352696447358312e+02
4.728237587424389403e+02
3.778859789910090399e+02
1.977714415052832635e+02
5.031104495114127673e+01
2.270381892070518006e+03
3.466883934247806337e+03
2.575597610625100970e+03
1.615421484470831956e+03
8.182914854527574562e+02
3.191630011703461491e+02
4.219018303609813074e+02
1.244363487825828685e+02
8.306588594896555833e+02
2.263483794916885017e+03
2.358737064816412385e+03
2.031423963089124527e+03
1.438592861534438043e+03
2.967168505444303264e+03
4.074154769923341973e+03
3.320573793709148049e+03
2.549370907607788013e+03
2.730551520344268738e+03
2.765049779512711211e+03
3.027720093091523722e+03
2.613501974415722998e+03
1.196464471008597911e+03
4.648558277768356106e+01
-9.844449559657451800e+02
-1.070233514492981385e+03
-8.728567069081856289e+02
-4.801910415450267351e+02
-4.661967607846529518e+02
-8.669500707143146201e+02
-1.610466671994902981e+03
-1.937656219973337784e+03
-1.769497038324420146e+03
-1.471919011280837594e+03
-1.072855463356167547e+03
-3.472538632731847201e+02
1.006887838157256624e+03
2.103656010413581953e+03
1.974127915608444482e+03
6.933903832999247925e+02
-1.093385406584705379e+03
-2.806134100171747377e+03
-2.174739422547304457e+03
-1.316139134497632540e+03
-1.315249332553274826e+03
-1.413828014346187047e+03
-1.809710571390652603e+03
-2.046793077561912014e+03
-1.642879656594507878e+03
-1.266931906720462166e+03
8.061252125360722403e+02
3.444541055228541154e+03
4.002630274821091916e+03
2.377516996847140490e+03
1.347302301059906540e+03
1.252176743286361216e+03
1.350219349257099111e+03
1.612719174472882514e+03
2.004891532876241399e+03
1.978959728175932241e+03
2.868121999429717107e+03
3.280501679529077592e+03
2.474381800021176787e+03
1.837942208967821671e+03
1.651337082456358758e+03
1.201785426056314918e+03
1.565413452532849590e+02
-7.711952582376524106e+02
-1.165157279274940947e+03
-2.015076057712377178e+03
-1.621663360463061053e+03
-5.985714527402150225e+02
1.035280548934544385e+02
3.398016271795400485e+02
4.855424082246367448e+02
6.430123973913879354e+02
6.384894780551287568e+02
-3.277581685737661701e+02
-1.143432694385478726e+03
-1.909233550603199092e+03
-2.100761396519034861e+03
-1.414754112178911782e+03
-9.859976409505119364e+02
-1.661270581139330488e+03
-2.644265055416324685e+03
-3.343613349116541940e+03
-3.982067587282867862e+03
-4.148468448013113630e+03
-4.007498425671150471e+03
-3.982788958212024681e+03
-4.359163971416826826e+03
-4.367334660991322380e+03
-5.044972778780245790e+03
-6.178809121360281097e+03
-6.784514456965530371e+03
-7.001767685671910840e+03
-6.678280396600843233e+03
-5.865859932826946533e+03
-4.581119986765477734e+03
-3.093743496524654802e+03
-2.434521400512036507e+03
-2.756285855748204540e+03
-4.201732772877052412e+03
-5.837472660658239874e+03
-6.849378792153635914e+03
-7.523192974030236655e+03
-7.654730320958179618e+03
-8.437755998928125337e+03
-6.936926313123811269e+03
-5.321864518116468389e+03
-4.053345219275785894e+03
-2.257099482453395922e+03
-1.286115611117153321e+03
-9.451842429339345699e+02
-1.311128909089354011e+03
-8.167643276481721841e+02
1.710410466892441548e+02
8.505405698455101628e+02
1.443961301011482192e+03
2.432483298398669376e+03
3.398219606134600326e+03
3.774332064491351503e+03
3.981973528480878031e+03
3.642190924500639539e+03
4.505121555967638415e+03
4.534911447700203098e+03
3.932559911896700214e+03
4.035173011136674177e+03
4.212871161208515332e+03
4.631781859147185060e+03
5.121096497436001300e+03
6.020841775385774781e+03
6.158936340035934336e+03
5.730423245449787828e+03
5.735460274781304179e+03
5.610033501683839859e+03
6.406190580013452745e+03
7.378931880861137870e+03
7.307308881265512355e+03
7.020402344949407052e+03
7.541170069401738147e+03
7.598440527925995411e+03
7.440198600301646366e+03
6.941439026311943053e+03
6.443119879431857044e+03
5.497106936711320486e+03
5.180273080275174834e+03
6.192431096163321854e+03
7.075449879405107822e+03
7.213275378408405231e+03
