2.542299421372538291e+03
3.735500090433133209e+03
5.293965346939200572e+03
5.608618943164106895e+03
6.099253287963681032e+03
6.642625955434143179e+03
6.321437414201597676e+03
6.074549803112756308e+03
5.154858192160516410e+03
4.173187801240000226e+03
2.570330997117546303e+03
1.298112039466524948e+03
2.564583654666649863e+02
-4.208074409569717318e+02
-1.674953225622025002e+03
-2.682177604293490276e+03
-3.425862704880524689e+03
-3.773810426015627399e+03
-4.357231187345824765e+03
-4.508296672096969814e+03
-3.892442952862887523e+03
-3.633565455146551358e+03
-3.244791720238677954e+03
-3.176565254515463494e+03
-3.440248421483353013e+03
-3.662736834145800913e+03
-4.177191090536630327e+03
-5.497872597817643509e+03
-6.021024258385113171e+03
-5.777938790079998398e+03
-5.604283552286558916e+03
-5.036484207359641005e+03
-4.924259653017541496e+03
-5.889501430800261915e+03
-7.009233971737160573e+03
-6.664226026212490979e+03
-5.570710931035912836e+03
-4.431340975515104219e+03
-3.736387456369561733e+03
-2.580331500399814104e+03
-2.850987846158211596e+03
-3.470407478445348261e+03
-3.430013876705317671e+03
-2.523925770811189523e+03
-1.153161818999542902e+03
-4.767564037438587832e+01
-6.799962229817202797e+01
-5.223461925458773294e+02
-1.722019958911527510e+03
-2.502630658490678343e+03
-2.275849156934846178e+03
-1.305254598506533284e+03
-6.429933740029621276e+02
-9.787452995801673978e+02
-1.531290088672840511e+03
-2.093807892356590855e+03
-2.133598105533549642e+03
-2.902547205823770128e+03
-2.247626301528895510e+03
-8.960884577384821341e+02
1.306591715613775939e+01
1.647394397852328609e+02
2.358633902203856394e+02
4.984944268309013182e+02
1.626344335693835603e+02
-1.183793727197455155e+03
-1.374746644622426857e+03
-1.998276101754774118e+03
-3.351441663015648373e+03
-4.866328395438672487e+03
-7.667023676264288952e+03
-1.082459769674138624e+04
-9.235049453963090855e+03
-2.105433686982688869e+03
4.353234343491139953e+03
7.551930682846833406e+03
7.732717141351668943e+03
7.476554076283466202e+03
5.988409974596133907e+03
3.318446387432450592e+03
7.537153812602157359e+02
-1.955738001972267512e+03
-2.411836119444722044e+03
-1.340531533699548163e+03
-6.666738778362037010e+02
-3.302238935434965583e+02
-2.061411797408626114e+02
-1.663626993125888589e+02
5.071970731648604556e+02
3.752666280693493263e+03
5.251073170556983314e+03
1.723465960651704108e+03
-1.875071719137361242e+03
1.878490132088066503e+03
2.412144818645110263e+03
-1.405091345476244896e+03
-5.313228333215628481e+03
-4.408093521012399833e+03
-4.420512482123997870e+03
-4.441227195287156974e+03
-9.232410236543787505e+02
-1.651474341984851890e+03
-2.880705146043063905e+03
-1.647874887202757179e+02
4.227312313354040270e+03
5.952614574806613746e+03
6.166247600931387751e+03
5.924196074036129176e+03
5.634588661186060563e+03
5.205634547678419040e+03
4.495479174757081637e+03
3.446305592217632238e+03
2.513288639380810309e+03
2.251676265014569253e+03
1.785567762990970323e+03
1.199980720532601936e+03
1.136146922577633632e+03
1.471292612768189201e+03
1.735553213180337252e+03
1.821068141992333267e+03
1.897866170179665914e+03
1.299957765534773671e+03
1.580567007046652861e+03
2.272626487259686201e+03
3.070095085809927241e+03
3.211407841616159658e+03
3.983694381507247272e+03
4.459999821076849912e+03
4.492599342124392933e+03
3.886784940729422942e+03
3.367577881844099466e+03
2.573171641332923627e+03
2.012550739388645752e+03
1.323518739235217481e+03
-6.380554030122826248e+01
-1.119049418310349665e+03
-1.191552615648238771e+03
-1.253586513918602122e+03
-6.420685817095246648e+02
1.003282048995478362e+03
2.179816710566301936e+03
2.969000377880182896e+03
3.415237756783640634e+03
4.017875399151734655e+03
4.281267678682032965e+03
4.107205038365017572e+03
3.726535924660528053e+03
3.463987828199251908e+03
2.992766807951889859e+03
1.918467553355337714e+03
1.075390891756251904e+03
-3.018046488605151012e+01
-1.047260158066360191e+03
-1.458375558292197184e+03
-2.195095837450953240e+03
-3.332492602077992160e+03
-5.555775670590542177e+03
-4.785951565823243982e+03
-3.117047693385305593e+03
-9.261630643590207228e+02
8.669019549924935291e+02
1.721840452050742442e+03
1.754742389837170549e+03
9.932009026997947103e+02
8.874779613872748314e+02
9.114548232184239396e+02
1.634322120377289593e+03
1.933393530792863203e+03
1.609759622124591033e+03
7.655216377413444206e+02
-1.708036733130231539e+02
-8.602710122220044013e+02
-1.479599071991798837e+03
-2.133192038981256701e+03
-2.662029295740010639e+03
-2.804282343069025956e+03
-2.319311999001676213e+03
-2.143186742068345211e+03
-2.197994509600743640e+03
-2.134902810436140044e+03
-1.673252230248795968e+03
-1.492675501850694218e+03
-5.968518294812038221e+02
-4.664494934375264847e+02
-8.236969550438080887e+02
-1.172035513648198275e+03
-1.510559562816391235e+03
-2.109248149652766642e+03
-2.311767703860569782e+03
-1.308826778890927926e+03
-1.506703143687578631e+03
-2.084632501834619688e+03
-2.768590868372829391e+03
-2.834536764354623301e+03
-2.638805768076262666e+03
-2.409861304377096985e+03
-1.646335047800661869e+03
2.022943830118747428e+02
7.251828112829624615e+02
-3.430423905245222045e+02
-9.844179674144689898e+02
-6.582259912127394728e+02
-2.898130689210858009e+02
-5.219765055609295814e+02
-3.157231939300868362e+02
1.283161882100284146e+00
9.141348789862661306e+01
1.054186969353114137e+03
2.259687191246654947e+03
2.313067596058070649e+03
1.391026403216915014e+03
1.312502416681086572e+02
-6.202547116815613890e+02
-1.496411305536954842e+03
-1.558397179521569797e+03
-1.407347342215507069e+03
-1.181154497544907144e+03
-1.166860353841310371e+03
-1.235587138785786010e+03
-1.251416118583177877e+03
-2.512594869846530230e+02
4.555411863274649136e+02
1.277384655199390636e+03
1.859293352471388744e+03
2.272907087646786749e+03
2.479603611600419299e+03
2.475338511079755790e+03
2.258404640511943398e+03
2.038419351605147085e+03
1.534180250841175393e+03
8.574221480793924002e+02
1.040845613999024550e+02
-5.906137857402293321e+02
-6.228990255354140118e+02
-1.193161511085293114e+03
-1.274138220341274291e+03
-1.427076921067440708e+03
-8.940189940818861487e+02
-9.868168923549631018e+02
-4.284725958127311856e+02
5.348028100165511205e+02
4.629169225824156797e+02
7.590954479615161290e+02
1.141229241852848872e+03
2.089036852064854429e+03
2.760752078816569338e+03
2.493556070820302466e+03
1.649342556738254871e+03
7.002398074462844306e+02
-4.021422104226688532e+01
-7.389514648588525461e+02
-1.856323063313217290e+03
-2.691158025903091584e+03
-3.331401054349264541e+03
-3.550975086713256587e+03
-3.100686182838069271e+03
-2.037677458627757005e+03
-1.290086242198202171e+03
-8.027789258828320271e+02
3.113576070097659709e+01
7.426891062368540588e+02
1.910855540608856700e+03
2.539619713828439217e+03
2.882067939951327389e+03
3.230218812556940065e+03
3.734168757190022916e+03
3.755900892488311456e+03
3.448581680455627975e+03
3.225210068436643724e+03
-5.622745006578569473e+02
-2.420922927173324751e+03
-9.856607151368262976e+02
-2.332449536056083161e+03
-3.055234114086100362e+03
-2.675003850925972074e+03
-1.503697156126746677e+03
-5.583249073347925332e+03
-2.427718265613289987e+03
6.822512695676915762e+00
2.743503867660758715e+02
-2.132051483810905211e+03
3.586904420108196518e+02
-1.083415031787480075e+03
1.516664936053713745e+03
2.209837150547843407e+02
4.850036813313545281e+02
1.431598877656078457e+03
3.320686413260633344e+03
3.150140118028498364e+03
2.811974106151048545e+03
9.163315032783463039e+02
-2.995764791127244735e+03
-4.192473459138031103e+03
-1.679842900518232909e+03
-7.508710877135755482e+02
-3.372391200180861688e+03
-1.070445309952713615e+03
-3.709534349579652712e+02
-1.978291962475043135e+02
-4.239740054679118657e+02
-2.208381557769821939e+03
4.728732638918347675e+02
4.428369381296506049e+02
-2.516341624831463378e+03
1.459370978715297269e+03
2.743098376503215150e+03
1.199124861518413780e+02
8.027948597209760919e+02
2.377691567572473559e+03
5.658502354633021980e+01
1.500559071973490518e+03
1.393687351430148283e+03
-1.559979084906675325e+03
-2.691486584362931808e+03
-1.343767874794497629e+03
-1.645900409105392782e+03
-1.598959829398727379e+03
-1.771893536869228456e+03
-1.979502305036299504e+03
-1.766665455971773326e+03
-1.167377415720844738e+03
-6.325718070999142810e+02
5.038542406265598288e+02
1.280880894973857721e+03
1.992636702215990454e+03
2.237203030361280980e+03
2.316596043734335126e+03
1.991015398150144847e+03
1.977508759573877569e+03
1.643764413041661328e+03
1.430375901097848327e+03
8.852431497978492416e+02
5.714565711349159756e+02
-3.947661859804317146e+02
-1.962300662176814058e+03
-2.086013144992041816e+03
-1.902786802444026534e+03
-1.957513529675218479e+03
-1.992073165862213273e+03
-1.992553822383368470e+03
-8.971295403419326249e+02
2.561302153806824435e+02
1.224300260616360447e+03
1.677432328913386755e+03
1.869802885906585743e+03
2.693550769374089214e+03
2.605396146576055344e+03
2.509451562811073472e+03
2.800377658750604496e+03
2.255896252419045140e+03
7.641597688785568607e+02
-4.556833899096336609e+02
-1.866892671038046956e+03
-2.803291071374120747e+03
-2.537267202501736847e+03
-1.932822354752241154e+03
-1.814948439531324311e+03
-1.065895253297102954e+03
-1.523489648737865991e+02
8.898899331448698149e+02
1.393638332639340206e+03
1.025471406242291550e+03
1.473398319188105461e+03
2.365507484596732866e+03
3.254822988012118913e+03
4.053397217060471121e+03
3.996220356631677987e+03
3.503289956751609225e+03
3.120707597354176414e+03
2.722448992994332912e+03
1.848383190325793294e+03
5.585385446308566770e+02
2.129507149951070062e+02
-3.804234739890799233e+02
1.625800158871023271e+01
2.879244091426974705e+02
1.688314164699262765e+00
1.345962779671805549e+02
-1.493346335703829197e+02
-2.591891300243958653e+02
1.220169795927000393e+02
1.022241643835387890e+03
1.615494414845863275e+03
2.272704440023973802e+03
2.542871882851951341e+03
2.589080008492237994e+03
2.316402279639489279e+03
2.214726724242224464e+03
2.253029256580413858e+03
2.240283454848643032e+03
1.779462468433887807e+03
1.132564273530354740e+03
-4.943585734377948171e+01
-1.198617558192941942e+03
-1.627005085468211519e+03
-1.970695581767752401e+03
-2.232798108123911334e+03
-1.964303289988436291e+03
-2.037219230570264017e+03
-2.419513470158346991e+03
-1.489210737672178766e+03
-4.813251973040206622e+02
-2.238004454628882343e+02
-8.626972505019799655e+02
-3.963059041503795015e+03
-6.356873742544094057e+03
-6.304106737316342333e+03
-5.171776082335015417e+03
-4.420905791847953878e+03
-4.338597619064852552e+03
-3.200892127917345533e+03
3.922217050374122778e+02
3.947796943826566576e+02
1.848696054930597086e+02
-1.467804511835083076e+03
-2.327287783692941503e+03
-2.582806446990255154e+03
-2.294432613984990439e+03
-2.176127234193257664e+03
-2.151824259105990677e+03
-1.998461747792430742e+03
-1.795099724605059009e+03
-1.154757908678448302e+03
-1.153577586223551180e+03
-8.415315802628809934e+02
1.046258989983049581e+01
3.304279727235347082e+02
4.983571099238184843e+02
1.678150395044123570e+03
1.697785179883014735e+03
1.149240882081117888e+03
1.078445443213736326e+03
1.952319558968076080e+03
2.650749251809630096e+03
2.224734138910328966e+03
4.782436171766202619e+02
-1.031781273514999157e+03
-1.660408075051169362e+03
-1.095503781635623682e+03
-1.014304446752470135e+01
-1.913435927663806240e+02
-9.140859296985171341e+02
-1.246363501926120534e+03
-5.742097129546137921e+02
-3.858518012574182166e+01
9.324868943439356599e+02
1.254871464861844743e+03
1.309590196340593138e+03
1.424618801903480289e+03
1.712929697159763464e+03
1.454415679738902554e+03
2.229993991153049592e+03
2.866724309185191942e+03
2.999549544100898856e+03
1.829246834932655929e+03
7.458059062507347790e+02
4.934574779435839105e+02
7.192692385119842129e+02
7.230719240298052455e+02
-9.920994629149558364e+01
-6.164843775722049486e+02
-1.531775931799229738e+03
-2.132099154965284924e+03
-1.384053435278878510e+02
1.665220549389736334e+03
3.027742675306935780e+03
4.182211253799425322e+03
4.235700080512216118e+03
4.144287105180899744e+03
3.756876812121857711e+03
3.415386118289651677e+03
2.647697111961391329e+03
2.127808912071586747e+03
8.757234753292565301e+02
-9.124909665641981746e+02
-3.586850980555686874e+03
-6.819359948754859033e+03
-3.563132706477401825e+03
-3.694167466696284009e+03
-2.184454223468494547e+03
-5.933984521086329551e+03
-2.229743179767806396e+03
4.362954141066306875e+02
-2.156811506237407229e+03
-1.055048098162216547e+03
-1.482389039980996358e+03
1.314196739765453231e+03
4.277834183063611704e+02
7.873183862432431397e+02
1.535769362227992360e+03
-1.262941806256464133e+03
-1.967712535329384082e+03
-9.886273495112276350e+02
-5.837021821196990459e+02
6.308284974848606907e+01
-7.262813107004232052e+02
-1.822900895416048797e+03
-2.407786160966448733e+03
-1.545831732579282288e+03
-4.400889788676445136e+01
-2.022274296774698996e+03
-1.787682687946435180e+03
1.281757141152231497e+03
2.986095314886093092e+03
2.016462665809316150e+03
1.115935159998673271e+03
2.386423995121199823e+03
-2.001747597320244054e+01
1.787701517799262774e+03
-1.225421876327836344e+03
-2.053380954596877928e+03
-1.317245405543333845e+03
3.708830905175841508e+02
-2.656053701344057117e+03
-1.556957931384057247e+03
-9.118113428286702629e+02
-8.026749127013763427e+02
-7.906177424502633357e+02
-8.896423072404422783e+02
-8.357078424400145877e+02
-6.467658923874801076e+02
-9.882743877675979149e+01
-1.829160702485264665e+02
8.660124017249950157e+02
1.960993008755782739e+03
2.202054559413665629e+03
1.707540919958468749e+03
9.782193688864969090e+02
2.900487212811012228e+02
-1.057524980294320116e+01
-2.299214471936711277e+02
-3.048683584645348787e+02
6.461439349790240385e+02
1.664440059795900879e+03
1.316031250342568910e+03
4.296461142601510801e+02
-1.586004924285784341e+02
-6.325794688975601048e+02
-1.548495238955914374e+03
-3.125044845065401205e+03
-6.040604160032767140e+03
-2.808721788999597266e+03
-6.074935158980024852e+01
1.849629989178455162e+03
2.613168661124012488e+03
2.966194731850518110e+03
3.739441955977449197e+03
4.157925748073604154e+03
3.490110016577085389e+03
2.536915536597229220e+03
1.244911550269192276e+03
1.303317427894582352e+03
1.058228437800144320e+03
-1.139040422967615882e+02
-1.442587121174718959e+03
-1.594962519734763873e+03
-1.117123282270782056e+03
-1.288021575120422995e+03
-1.331843612837394630e+03
-9.052701162295549011e+02
-1.017969288595136391e+03
-1.034582022912221191e+03
-3.905946746943384369e+02
6.829682493574209730e+02
1.760833142548229944e+03
2.238905672097087518e+03
2.445517223838024165e+03
2.866422171765140774e+03
3.445594111056243491e+03
3.490446591755665850e+03
3.052900884080584547e+03
2.430641158434002136e+03
1.072757810038720663e+03
-6.347705175869704135e+02
-1.185907264551530261e+03
-7.416868397557301478e+02
-3.671572282127128801e+02
-1.463420879190595940e+02
-2.932215120068039482e+02
-2.048120668859609737e+02
6.839078275484546339e+02
1.418928439587453113e+03
1.531278096784433728e+03
2.062047428169021259e+03
1.742353811527917287e+03
1.567262955841617895e+03
2.655836154149492359e+03
3.484919465660572769e+03
3.179540518110579796e+03
2.580633127286160743e+03
2.664264095782092681e+03
2.616527176617086297e+03
1.857215875001996210e+03
1.385263971867030705e+03
1.202811580973889022e+03
1.426915544057509351e+03
6.656158830293441042e+02
-1.878250784236644222e+03
-4.663690491658993778e+03
-8.058662981610845236e+03
-8.825105063933173369e+03
-7.282030736676236302e+03
-6.191461396004408925e+03
-4.721287230588588500e+03
5.825688659932800419e+02
1.979087463521660766e+03
-4.506697043296725838e+02
-4.682629885266377642e+03
-4.960811396137478368e+03
-4.163130452168999000e+03
-3.924645305668301717e+03
-4.664380074958155092e+03
-5.622326773449444772e+03
-6.054485946331175910e+03
-6.529965546019023350e+03
-5.145797333136689304e+03
-1.321989203630776046e+03
3.685111187361645761e+02
5.527689947506563612e+02
6.427983692961826137e+02
5.856363611895245640e+02
1.166383578211468148e+03
1.544038167629179725e+03
1.559625207055818919e+03
2.506183375435979087e+03
3.321790468996634445e+03
3.172494837832975918e+03
3.205396045522008990e+03
3.651535584725306308e+03
4.289895384889634443e+03
3.493580092481543034e+03
1.631505454910802655e+03
9.315638426343792844e+02
9.428945020512485371e+02
5.855291303830016432e+02
7.252124182453586343e+01
4.387943301166773580e+01
-9.434718112285715108e+00
-2.864763977473018031e+02
-5.612245763288616445e+02
-7.936492523842192668e+02
-1.565117517234160616e+01
1.562815464076619946e+03
2.213819065524220605e+03
2.532406138453740823e+03
2.981570458564292949e+03
3.211324674310007140e+03
2.756771574495221557e+03
2.220051868263745746e+03
1.725191800079688164e+03
1.143204918121670516e+03
2.381349795730965297e+02
-5.949988183820495351e+02
-1.236195309259857595e+03
-1.932609458391914359e+03
-2.166149928370164162e+03
-2.097629531341235179e+03
-2.077083296359175620e+03
-1.300604378977034457e+03
-1.096229056773269122e+03
-1.010816820594793512e+03
-6.391640449726373845e+02
-1.263205781909334604e+02
7.104612227030487475e+02
1.325378500864256466e+03
8.928268947298156490e+02
7.109540387872441443e+02
5.941804347443295455e+02
7.401442762660998369e+02
9.975274400590390087e+02
7.202819153192016302e+02
1.641552654499671917e+03
1.215262977349359744e+03
2.533047568088146875e+02
-6.103325680316954731e+02
-1.096635603039955413e+03
-1.372611474403193824e+03
-1.531272511132048521e+03
-1.427638309425254874e+03
-2.005570200312919496e+03
-2.238883603396739090e+03
-1.598747615017177623e+03
-7.533304654364528687e+02
3.173714058578786421e+02
7.414478529768447288e+02
1.312870336630599240e+03
1.996873077216894671e+03
2.266692000934154294e+03
2.270215148828179281e+03
1.840255720193096295e+03
1.487611851409035580e+03
7.841204213575826998e+02
-4.261097869433992287e+02
-2.040924442112012684e+03
-1.997124427991032917e+03
-1.664593865359517622e+03
-1.837347069610035078e+03
-1.998420720528353741e+03
-1.842957722738640996e+03
-1.867200751919440791e+03
-1.400329122718162580e+03
-4.433955541809646661e+02
6.716365761902329723e+02
1.538889068532572310e+03
2.105420858841432619e+03
2.472359038926465473e+03
2.308855492226181923e+03
1.528925731170592599e+03
1.822587421918506834e+03
2.438942767330484003e+03
1.884970736914896179e+03
1.127132736313861443e+02
-4.538148796566123906e+02
2.752338865464924993e+02
1.569655638151970578e+01
-1.069743546690679977e+03
-1.596131143648808347e+03
-1.962483033746462297e+03
-2.278724310080902342e+03
-2.012876757069623409e+03
-1.614160051158163014e+03
-8.834559099039405510e+02
-2.023502292081300880e+02
6.382266578374136543e+02
2.288181115801653959e+03
3.435974130387180594e+03
3.447642156963713660e+03
2.643806458772311089e+03
1.960700515069724588e+03
1.345637754674587541e+03
1.434461408904782729e+03
1.278053943704312587e+03
1.139446313326140626e+03
6.323167534823764981e+02
-4.733092841386059035e+01
-4.064795111441567315e+02
-8.169278956067314539e+02
-1.190769692323367963e+03
-1.479911482866599044e+03
-1.268865136849773990e+03
-1.090305078647357277e+03
-6.096964255132429571e+02
-1.723631992271381108e+01
1.422894535017055659e+03
2.171405871735979872e+03
2.478420520040479460e+03
2.337292451185599930e+03
2.923891243946699888e+03
2.862673098637441399e+03
2.385076259828224920e+03
2.854936162829866134e+03
2.623124180693966082e+03
1.502466747243709506e+03
5.049322786136685863e+02
-3.928662930120585770e+02
-7.943496234031007361e+02
-5.956324289926219535e+02
-4.216795431860886652e+02
-5.330704398596056990e+02
-1.102123467016330096e+03
-8.899603756409412654e+02
-2.564276143025992738e+01
-3.637313767155352480e+02
-3.129879206211329006e+02
2.191155395763203728e+02
7.898559465062900244e+02
1.535918383912055333e+03
1.742751044780575967e+03
1.228108021489102384e+03
5.385915221216069995e+02
8.997984713092712354e+02
1.423620136832950720e+03
1.696955927393885077e+03
1.012419782660956116e+03
7.725061893700726614e+02
5.824447000533442633e+02
7.309698023034400194e+02
7.310279547364931432e+02
5.441143051664096220e+02
3.277536468402013838e+02
-1.222076585630451717e+01
-1.667910688730997890e+02
-1.368201327078762688e+02
-2.308266027790486078e+03
-2.139220416738201493e+03
6.379479198232454564e+02
5.883457193861731866e+02
3.469401327808124279e+03
1.793565493419393079e+03
-2.146143491360503504e+03
1.006077082477569888e+03
1.047114855272249770e+03
6.346340296796560096e+02
-1.485648735694487641e+03
-1.714598117300520016e+03
-1.994087005135374966e+03
-3.193656669861964929e+03
-2.470607572491576320e+03
-5.207517208938061231e+03
-3.229214665467192390e+03
-2.914377882666552068e+03
1.321601266651155981e+02
-2.082744921288068269e+02
-2.653185466874238500e+03
-2.264435477772528429e+03
-6.379034965291400567e+02
-4.595138369083429666e+02
1.685854720766918263e+03
1.518201075639435203e+03
-1.226297415366337646e+03
1.069392159949248708e+03
1.454212169123737567e+03
7.523547299666934407e+01
-3.158588276586480333e+03
-4.911204293489044176e+03
-5.267516940728454756e+03
-4.728544932252168110e+03
-5.446140867339654505e+03
-1.153124160121809382e+03
-6.894000380857814889e+02
-6.730944243213992877e+02
-7.273133052221533035e+02
-5.458671172475648063e+02
2.094071699260172466e+02
-8.284471954488248002e+02
1.495280465311971341e+02
1.709348012689240477e+03
1.945078650170412175e+03
1.838732145285755905e+03
1.732342853330984326e+03
1.846064412537072258e+03
1.367931687881650305e+03
4.940475016526361856e+02
-4.634865512089403978e+02
-1.370569417992380522e+03
-1.919091552860972342e+03
-2.522040155763239454e+03
-3.402331695093246708e+03
-4.641846722025603412e+03
-5.190623696106466923e+03
-4.814027494818359628e+03
-3.182179197131514684e+03
-6.971796191762329045e+02
2.039051185971916595e+02
1.184211578240673362e+03
1.517022093208018532e+03
1.895517056977204220e+03
2.606748471790672738e+03
1.794774352348935054e+03
2.177206740817256048e+01
-5.832505123393403892e+02
-6.462879031543766359e+02
-2.333820055083064346e+02
-8.241792068773006577e+02
-1.430361800979254213e+03
-1.690675192329317497e+03
-1.663664559524241668e+03
-2.244764048978920982e+03
-2.659237258213585847e+03
-2.747991763224700662e+03
-2.003099126384692227e+03
-1.091921473807973825e+03
-2.378078421714349133e+02
3.098735667348785228e+02
4.175073690393508627e+02
9.465525162411923930e+02
7.367210444575974861e+02
1.163158453657525342e+03
2.130237326409265734e+03
2.698068399619425236e+03
2.456638765284333203e+03
1.856051367596909586e+03
1.122083466570854171e+03
2.516631590488354959e+02
-1.222017630149323622e+03
-2.327114405251636072e+03
-2.864733042808945356e+03
-2.186902615695245004e+03
-1.568614999088609238e+03
-1.663779732484622173e+03
-2.209266135772452799e+03
-2.190122187135039439e+03
-2.005436049692522829e+03
-1.451229135428708787e+03
-1.337568730934711766e+03
-1.028467686721489144e+03
9.005499791180896807e+01
1.011090915093344279e+03
1.737187727113504252e+02
8.786922738931745869e+01
4.884923900569985449e+02
8.825264087355225229e+02
1.246906119567071755e+03
1.341516269865519462e+03
1.015262252367089218e+03
3.370484462928601488e+02
-2.912250168685123413e+02
-4.096108942762896277e+02
-5.672196976348991484e+02
-6.371929402848369364e+02
-3.755538743921522382e+02
-4.503407033328975899e+02
-8.926680793192757619e+02
-1.014578243097557333e+03
5.289552984932377910e+01
4.767258926528866709e+02
4.648645038962483227e+02
1.252234538051561231e+03
2.120684582749981928e+03
2.862182145724426391e+03
1.742692708940722014e+03
8.650829184210898575e+02
1.660136906419147181e+03
3.376594610715777890e+03
4.232296103779294754e+03
3.754049359505265329e+03
3.736832727024008364e+03
2.951536490904743914e+03
8.099380531250915283e+02
-3.612093187787812440e+03
-5.405695576997726675e+03
-2.415083988878751370e+03
2.676651152142197589e+03
1.815377305184160605e+03
-1.444068123819677112e+03
4.663380940337668221e+02
1.628511679339583907e+03
3.028410948529475718e+03
3.961718671151598755e+03
3.839355526645379086e+03
3.904141665934115736e+03
3.810700143301898152e+03
3.261967037986088599e+03
2.309852143792883453e+03
6.612544467743142604e+02
9.689993957322924416e+02
3.249818044103808006e+03
3.932400351552536904e+03
2.950557525226591224e+03
1.108103184278271101e+03
-2.492541934115390347e+02
-1.257612181809815411e+03
-4.410508556349250853e+02
3.222275772245780900e+03
6.679279424853049022e+03
9.554888288531807120e+03
1.030400359271552225e+04
7.572483296949624673e+03
3.727235091053212273e+03
7.291166454614510712e+02
4.180173796381246802e+02
3.073712984101305665e+03
7.189042898679083009e+03
1.074489595834518150e+04
1.259910403106477679e+04
1.183752130678370486e+04
9.532049756257532863e+03
5.895556677920782022e+03
2.530902274793957986e+03
-5.190202826127257367e+02
-3.805333303303594676e+03
-6.054148988055841983e+03
-6.417541756650583011e+03
-7.218547536056570607e+03
-6.648155013250618140e+03
-4.231530152823725984e+03
-1.719761240181180938e+03
6.922059721825032739e+02
4.034444806285594950e+03
7.161825763530907352e+03
9.688164512985527836e+03
8.415474380733845464e+03
5.367790731100824814e+03
1.637077350648107540e+03
-2.460723032597627480e+03
-7.674746823583922378e+03
-1.423413798636198408e+04
-2.042866482084579548e+04
-2.218934012795765011e+04
-2.311115072388816043e+04
-2.658713409920061531e+04
-2.426043194246236817e+04
-2.085903276857760284e+04
-2.180677575496990539e+04
-1.992851523434927731e+04
-1.238018747738797174e+04
-5.523659929887298858e+03
1.133053402404009830e+03
9.201974157516424384e+03
1.414319675757892219e+04
1.410186941057198965e+04
1.167305546175181189e+04
1.437682200085801378e+04
1.091925345400632250e+04
2.351279776556371871e+03
-1.088642143884759889e+03
-6.117460188548728183e+03
-1.488616088870253225e+04
-1.547867428534819192e+04
-1.425082642290474905e+04
-2.030661596017164993e+04
-2.446078820135546994e+04
-2.346614288162125740e+04
-1.310151975040575599e+04
-5.082784341682821832e+03
-2.056694501311143881e+02
4.072019015555509213e+03
9.026343421578547350e+03
1.211755304957324188e+04
1.595092067163284810e+04
1.648970366521087999e+04
1.361009636553082601e+04
1.015925196904403310e+04
2.955287983802376857e+03
2.889415177797888646e+03
2.650919752902161690e+03
4.520992128558323770e+02
-5.580947551974320049e+03
-6.473127032661173871e+03
-8.821213059892456840e+02
1.052633958770436220e+04
2.024044513157607798e+04
2.334441328836981847e+04
2.200848164928551705e+04
1.924790518591196087e+04
1.199895980958034670e+04
6.450903183737255858e+03
2.704946485219653823e+03
-3.349677423398865358e+03
-2.135781693206484761e+03
-7.654053385508681458e+03
-1.116526169163679515e+04
-4.301143036570088952e+03
4.467495816683334851e+03
9.404900167035784762e+03
8.607323145547805325e+03
6.978059216054285571e+03
5.877366936790390355e+03
6.026419389055152351e+03
6.254487783677469452e+03
5.005931334796695410e+03
-2.032197867204798285e+03
-9.190817920406716439e+03
-1.210251998520904635e+04
-9.083331918184161623e+03
-3.548707037622181360e+03
1.139868708424408624e+03
4.132045224421144667e+03
2.253252734832125043e+03
-4.320269288510532533e+03
-1.104018127923534485e+04
-1.884845518016578353e+04
-2.366305026956412621e+04
-2.213546801834823054e+04
-2.190955203089748102e+04
-1.910174033414484802e+04
-1.131542523158083350e+04
3.168589894336196267e+01
4.216631419864235795e+03
2.538679016201964714e+03
1.787077316238650383e+03
8.968399354448730492e+02
-1.669193010012339755e+02
-9.690047410894920858e+02
-1.169459287865347051e+03
2.869949606997793694e+02
8.427196649464100346e+02
-4.123458447596963197e+02
-4.281294331993148035e+02
-1.033498711414475338e+03
-2.359309981680677083e+03
-3.238320139316095265e+03
-4.775543747875298322e+03
-5.919853518259682460e+03
-5.423337231116403018e+03
-3.309498823495418947e+03
-2.466616553587568433e+03
-3.431826808138062006e+03
-3.193209560546089506e+03
-1.551646788034924612e+03
6.898798800687522998e+02
2.444359666175364055e+03
3.544927934098427158e+03
4.444425250466137186e+03
4.521847354197057939e+03
3.072217234490597093e+03
1.666545087434558127e+03
4.067717537215262951e+02
4.748607207543765867e+02
1.161789198884499910e+03
2.514612975224770253e+03
4.541288078597714957e+03
6.700642007098413160e+03
1.090658260876284658e+04
1.734110956161160721e+04
2.372620984149774449e+04
2.641867951388233996e+04
2.639440987504641089e+04
2.416114519393759838e+04
2.104265866376194026e+04
1.813694970869264216e+04
1.641885965057278372e+04
1.547828655030910886e+04
1.483110151744238829e+04
1.380014933891675719e+04
1.324047139343068739e+04
1.187610082754016912e+04
9.517761120686316644e+03
5.392209829471469675e+03
3.114243399365302139e+03
1.376779313205757944e+03
9.006726560133170096e+02
4.529673120342078619e+03
4.444568266431588199e+03
2.459217637206436393e+03
3.734031193816514929e+02
-3.330082292677141140e+03
-8.849527304035318593e+03
-1.069714500584162852e+04
-9.119104534210695419e+03
-5.196610466421767342e+03
-4.885845528860347258e+03
-8.040062246246787254e+03
-1.108336776178484433e+04
-1.131597200315452028e+04
-1.102611737353588251e+04
-1.093007972085037181e+04
-9.899006958662319448e+03
-9.951048687005271859e+03
-7.817414340701418951e+03
-4.105295178659423073e+03
-3.257756669947955288e+03
-3.976042479829613967e+03
-5.654480105695576640e+03
-7.018400430339246668e+03
-7.618053041174751343e+03
-6.848630068325782304e+03
-5.307299556332094653e+03
-4.398299206686216166e+03
-4.397777017931221053e+03
-5.006068576622842556e+03
-5.194360475785302697e+03
-5.037835329436707980e+03
-4.802728303732538734e+03
-4.547297431797896934e+03
-3.804506203209889009e+03
-2.300634038883680660e+03
-1.102920185878511347e+03
-1.175179499626879362e+02
7.053366346331561090e+02
1.170427318795592782e+03
9.477060957216987163e+02
4.801189823034171411e+01
-9.318434353827790346e+02
-1.547076213139614765e+03
-2.067874324316353523e+03
-2.683387769349803875e+03
-3.106780865860182530e+03
-3.863183017880688112e+03
-4.352759024784001667e+03
-4.987728089104894025e+03
-5.096285741902031077e+03
-4.636512716237261884e+03
-3.953446539365462286e+03
-4.359293811358512357e+03
-3.950221286832409533e+03
-2.269355505720709061e+03
-5.916563917112533773e+02
5.828200404903033132e+02
4.318150513192939570e+02
-2.869492527406407589e+02
-1.153576026089305742e+03
-1.160814083129218716e+03
-9.004059749113590669e+02
-1.436767451340725984e+03
-1.723260024062760749e+03
-1.490523434230110979e+03
-2.304487935729707715e+03
-3.767608200132785896e+03
-5.311178184602779766e+03
-7.556778009624901642e+03
-7.676133644441240904e+03
-6.714415874402371628e+03
-4.492863107436034625e+03
-2.579689107799169051e+03
-4.718879561892598531e+02
1.079648747018927907e+03
-3.261128928251608272e+02
-5.491877387041701013e+02
2.854459891154973548e+02
2.294801163980454930e+03
4.988973062796413615e+03
6.041826988484486719e+03
5.480194578506918333e+03
5.394211714953109549e+03
5.341131503192709715e+03
3.836113393121940589e+03
2.205145056600930729e+03
1.470245006116464310e+03
7.722651625843385546e+02
