8.050216210500952911e+03
7.821536914520432219e+03
7.224336700166110859e+03
4.920553864215178692e+03
4.720889167023587447e+02
-2.786012825424519178e+03
-5.166788100086619124e+03
-5.837345878776171048e+03
-3.087953398507777365e+03
1.356354203365539661e+03
5.785546660566079481e+03
5.132633833655580020e+03
1.348533491958540480e+03
-3.337767557656852659e+02
1.542731098631480791e+03
2.658083706009445450e+03
1.699351595032350815e+03
3.138510811834131800e+03
3.311469369145374458e+03
-3.654721690946653325e+03
-1.233208456027277680e+04
-1.550369417289593366e+04
-1.764049625754314911e+04
-2.115402214753868247e+04
-1.748230464314912024e+04
-9.755084044357694438e+03
-9.002354948106574739e+03
-1.440668679276247531e+04
-2.276246456207824667e+04
-2.499182872996846345e+04
-2.371049546278722119e+04
-2.826036458832199423e+04
-2.693128347598579057e+04
-1.607181255000505735e+04
-8.837769383791841392e+03
-9.554946078855560700e+03
-1.652977274167246651e+04
-2.192185370716090256e+04
-1.460739235839012326e+04
1.716447137610027340e+01
4.093962906194977677e+03
2.868144500556095409e+03
1.259925977767829181e+03
-7.023227344852068200e+03
-1.213118398262558730e+04
-2.168569356284238529e+04
-2.848461186367420305e+04
-2.206175139882551593e+04
-5.469520207318100802e+03
-1.787866776133145322e+03
-1.738928188980154300e+04
-2.712970798117624872e+04
-2.780908292168248590e+04
-2.437112021393782561e+04
-1.364845507399442795e+04
-6.983547007177969135e+03
-1.218846294574713829e+04
-9.635725563388281444e+03
4.747093724232933710e+03
-1.760088203729141696e+03
-1.777580403612441296e+04
-2.161903237973066643e+04
-1.209822761554815952e+04
-4.478087054183346481e+03
7.875724566012402192e+02
8.473999213121262073e+03
1.457652791753662677e+04
1.564155606105529841e+04
1.757733968606944472e+04
1.436212493921296846e+04
3.861186962437643160e+03
5.483821826576972853e+03
2.289240355531613022e+04
3.034718174993439607e+04
3.864342639842088829e+04
3.493746299620466016e+04
1.615260743324031137e+04
8.506173254562658258e+03
7.395358670242940207e+03
7.211466410858935888e+03
7.878745714751154992e+03
1.429249469507295908e+04
1.991191443265161433e+04
2.559622099963103756e+04
2.300164648574743842e+04
1.794046413298991683e+04
1.686514315014031672e+04
2.182195399095619359e+04
2.342492025425502652e+04
1.741808449455831578e+04
9.231781312722832809e+03
7.908394652747328109e+03
1.153721154563727214e+04
1.776229917858491535e+04
1.091676413255705847e+04
6.764812064898465906e+03
3.054675125878935887e+03
-7.526515679504569562e+03
-2.576552229585577720e+02
7.291368212372965900e+03
7.631713325267553955e+03
9.147572380271625661e+03
5.281045390167551886e+03
-7.282811893494719868e+01
-1.198738854670309877e+02
6.117039830377461840e+03
9.175961881558110690e+03
9.587000754572234655e+03
6.468206926587766247e+03
9.007693049828150833e+03
1.424257366351783458e+04
6.182800301710321946e+03
-1.007587121211141721e+03
-2.436599670483802129e+03
-1.081245437839573015e+03
2.364230693311087066e+02
-5.755548950812498106e+02
-1.106118313612415477e+03
3.070049579142543195e+01
9.128345058748276415e+02
3.648266144574630289e+03
4.602951542231604435e+03
5.631873766382755093e+03
8.017956779325669231e+03
6.948086342624466852e+03
6.340206902682134569e+03
4.853284320292865232e+03
3.427174129479169551e+03
9.887613501873498763e+02
-1.104037281301665416e+03
-3.384340686146589178e+03
-7.196307413968456785e+03
-4.916085294627030635e+03
-1.397778499330933073e+03
-4.322554271564568808e+03
-5.817478992623094200e+03
-5.330669386593818672e+03
-5.590387021292373902e+03
-1.037478222468727836e+04
-1.328495022927028003e+04
-1.124705334863715143e+04
-9.282332699549593599e+03
-6.722050346287164757e+03
-2.239235364696595298e+03
1.698913306163445441e+03
-2.941607792810332739e+03
-1.006495076645095651e+04
-1.148156414310109722e+04
-1.372680828651262891e+04
-1.531092536967757951e+04
-1.590792761865138345e+04
-1.644712605150906165e+04
-1.352268591742045282e+04
-6.404750299021581668e+03
-5.191571851375651022e+03
-7.801406449069175324e+03
-8.303463343429824818e+03
-8.571119076156859592e+03
-9.487505760828707935e+03
-9.855040857860396500e+03
-7.904943010569865692e+03
-8.657060890509736055e+03
-8.661934182355813391e+03
-6.339867223821913285e+03
-9.916208943560110129e+03
-1.597515892039738719e+04
-1.569294742103901626e+04
-4.980888164934431188e+03
2.201740228061126345e+03
1.461776210371065645e+03
-8.270785263660471855e+02
-1.865007293676426571e+03
-2.151317586907638542e+03
-3.642334621706109374e+03
-2.551237238392172912e+03
-5.112380610129511069e+02
1.028521653029268236e+03
1.912917260797827794e+03
1.619641339679605835e+03
8.924620860629271419e+02
-6.208791175758254894e+02
-2.828560245952784499e+03
-2.108746620027693098e+03
1.165347304260706323e+03
2.107555513184981464e+03
1.641721052169568111e+03
1.549657397411773673e+03
2.953242316785941057e+03
2.726401202691577964e+03
-2.790548000439166003e+02
-2.965273909761480354e+03
-4.849395158312772764e+03
-4.284562273079909573e+03
1.467068639505258034e+03
6.793361013404992264e+03
6.496230107675625732e+03
4.933538435358161223e+03
4.362225171207204767e+03
3.891290577799382390e+03
2.243615709960399727e+03
2.020026608149305730e+03
3.532431307734575967e+03
4.069813788747222134e+03
3.891215678210174246e+03
4.954514997973219579e+03
4.881567365757528023e+03
4.266306186824606812e+03
9.587666841095880272e+02
-3.034932125861113036e+03
-3.271760570907277270e+03
-2.768923022470181422e+03
-2.590699140398696727e+03
-3.551927148750483866e+03
-1.555446217262127902e+03
2.135911041327288331e+03
2.351114977337633263e+03
2.463870851657026833e+03
1.410346075742026869e+03
-7.753986008146126778e+02
-1.504509049183140860e+03
-3.389389129624295265e+02
7.194870497693718789e+02
2.608790657608317815e+03
2.731944458418972772e+03
2.669955897775324956e+03
2.690960689588316200e+03
2.305036671899592420e+03
1.446211101448785939e+03
-5.144537078368590954e+01
-4.448998197526565832e+02
2.762989363322203644e+03
6.009428927575070702e+03
6.669429589628372923e+03
7.022972987607983669e+03
6.731959345578608009e+03
5.538534849869398386e+03
4.159162643593603207e+03
2.536977261040966823e+03
2.435022072674194533e+03
2.667266875004099802e+03
1.640752739305933346e+03
-2.093961335782395565e+02
-1.108114062317090884e+03
-6.413236315981172311e+02
-2.461951416490585416e+03
-8.454757988745148396e+03
-1.108146481725905505e+04
-2.406996367993348031e+03
2.132588585971677276e+03
4.206946350945459017e+02
-1.157476730166423295e+03
-1.520394184958351218e+02
2.860188056729055916e+03
5.046340070396446208e+03
6.037369262956235616e+03
6.304970049929002926e+03
6.949259675814990260e+03
6.438555650054090620e+03
5.246004483267196520e+03
3.879722887320152950e+03
2.293894683713874656e+03
2.334897949705317387e+03
3.783910143821366546e+03
4.463958115024477593e+03
3.769011691499973040e+03
2.808046857230247497e+03
1.894954163919494022e+03
1.710577208918413817e+03
9.513553057121536085e+02
2.158844819053538444e+01
-5.827459070409698825e+02
-6.347321571321094780e+02
9.176906364808234002e+02
2.204725973574390991e+03
2.176362619925639592e+03
2.274798582516212718e+03
1.754691869358075564e+03
-1.088689691347488861e+03
-6.328684126157253559e+03
-7.728230380251041424e+03
-6.107154719211747761e+03
-3.429923177624883010e+03
-5.988031489094010794e+03
-3.005015944051063798e+03
4.574457438086472649e+01
-2.645338611280685654e+03
-3.912628217487261736e+03
-4.813313844026823062e+03
-5.905915193017230195e+03
-3.098852113196910977e+03
-1.140003898146878555e+03
-8.103287622798590064e+02
-3.784301374979448610e+03
-4.000303100190392342e+03
-1.752650220750800827e+02
1.527942733931818111e+03
2.341624908611031060e+03
8.413704594033220019e+02
-8.545964460708704564e+02
9.726595496313652802e+02
1.028734094263516909e+03
-3.873681589601189330e+02
-1.774065402965558178e+03
-3.991484900055801972e+03
-2.990750400351758799e+03
-3.008024101648666601e+03
1.292410468450295411e+03
1.597238336969082638e+03
6.384369709594528786e+02
-7.256089215354512589e+02
-2.954711316433387651e+02
2.580025842156111366e+02
-4.441638871788635470e+02
-1.906055143150106687e+03
1.485025563536692516e+03
2.189848130985215903e+03
1.192830638512627502e+03
-5.441500598291966071e+02
1.083951187940918317e+03
2.476927637155241882e+03
2.240022706652006946e+03
1.359420304858392001e+03
1.058711932904181140e+03
1.761703558073248132e+03
2.011542532204633972e+03
1.551014008898186830e+03
6.876170136564073800e+02
4.061837848160528779e+02
8.558925210951468898e+02
8.292290088049953738e+02
1.646757782049022865e+02
1.088338152800071725e+02
-5.255431868367788439e+01
4.830192004588500936e+02
3.039056596686382932e+02
5.937864244190982390e+02
8.848037372854247451e+02
1.486926170018868106e+03
1.693574357823707487e+03
1.395867699967244562e+03
6.328011385854845230e+02
-3.743006639276316605e+02
-2.004453159229372261e+02
-5.239778144319000148e+02
-1.098008483265336281e+03
-2.833206470919411004e+03
-3.851946192703936504e+03
-3.216684450623408338e+03
-1.189090438767196019e+03
-6.790108700775826946e+02
-8.047320834131825222e+02
-4.320788025810139743e+02
2.758364878157400994e+02
6.109604832528328870e+02
3.910057450378947124e+02
-1.776506837833421457e+02
-5.408711138361948088e+02
-5.817252405291457080e+02
-4.023884432264588895e+02
-4.706514294792960413e+02
-3.103964408113335480e+02
-3.352058207922664224e+02
-9.632812858561526355e+02
-7.744329773996452104e+02
-1.177441975383429963e+03
-1.017053677873789979e+03
-2.648162267521500439e+02
6.128485404269091532e+02
1.340170796935156886e+03
1.620547383700820092e+03
1.648442285340137914e+03
1.075736377292185352e+03
2.831650028688725911e+02
5.407091626161031854e+02
1.119655256718411920e+03
1.007838120639269619e+03
9.282657738395328124e+02
9.857913781077951398e+02
1.012580314673115367e+03
7.345827394585899128e+02
1.527233542582952452e+02
3.981952828823506252e+02
1.144132223475806995e+03
1.081814983981016894e+03
1.065137990911997576e+03
9.852796147193249681e+02
8.323346128611490258e+02
6.883166753316201039e+02
3.493673554994594497e+02
1.571033289505929247e+02
-5.366128473241088841e+02
-7.881975502041527761e+02
-3.855698513614742069e+02
-8.488381353189465699e+02
-1.271923325457343026e+03
-1.025398804386762322e+03
-1.083683999013773445e+02
4.088139777540013711e+02
-3.682844501092097289e+01
1.366430202085261669e+02
-5.169789755363919994e+02
-4.576640269009437816e+02
-4.360511560308015078e+01
-1.222396614987149860e+03
-3.511328084424280405e+03
-6.511281878563085229e+03
-6.278142095154622439e+03
-6.683897059928538511e+03
-7.220698115092934131e+03
-6.813791888939332239e+03
-6.539523366243743112e+03
-6.670589723967625105e+03
-6.052666958106025959e+03
-6.307729348883570310e+03
-6.160670545089681582e+03
-6.536358129866192940e+03
-6.864884471092682361e+03
-6.597458325417354899e+03
-4.398738178480718489e+03
-1.015724603775524997e+03
-3.775944645535579980e+02
1.228157935258116822e+03
2.566823489278477609e+03
2.928962683966922214e+03
2.493734045759087621e+03
3.102355497744825243e+03
2.925407171178899262e+03
2.626098977357744843e+03
2.081413105333461317e+03
1.244269103901348444e+03
1.626832832082145615e+03
1.734928360449789807e+03
2.335504921655684029e+03
3.438733946261936580e+03
3.562718804160940181e+03
3.635466414508062371e+03
3.646009766933454102e+03
3.133552097293711086e+03
2.949182687660113061e+03
2.727694001748154278e+03
2.729923250021896820e+03
3.026054613857706045e+03
2.653249668799385290e+03
2.213454265617179772e+03
2.360583104204670235e+03
2.479770908802812755e+03
2.678302393693303657e+03
2.873274370729440761e+03
2.646716432374540545e+03
1.991434291359522831e+03
1.557988461270643029e+03
1.126300633640845717e+03
7.457676170882273254e+02
5.155567664476634491e+02
1.289620650780176902e+03
1.636971709761341572e+03
1.157821719167511219e+03
7.500900954724280609e+02
3.658467711446211013e+01
-1.136733715797334980e+02
-5.976768339395787279e+02
-6.855661241099302288e+02
-9.972531673611123324e+02
-1.622481473836858868e+03
-1.529988999240216572e+03
-1.089550938333465183e+03
-4.474250023356668180e+02
-7.527302066099133526e+02
-2.743858455476371887e+02
-2.242020652979849160e+02
-1.754064701110692397e+02
-8.942117920156604214e+02
-2.227645836708636125e+03
-1.407768815602893028e+03
4.567031702550661976e+02
7.407556856047522160e+02
-1.327921644952947986e+02
-3.661512890966344003e+02
1.566449265153501358e+02
3.775498227252344350e+02
-7.332972979935320268e+01
-1.280490581919057718e+02
-5.868213741382002269e+01
-2.022243662153764490e+02
-5.764644000776139166e+01
-4.749286595021096673e+02
-5.141470801744404753e+02
9.342256683417138774e+00
6.774005327657449698e+02
1.659170962407571778e+03
9.866223109549326864e+02
3.767476483828533560e+02
1.809632171272106916e+03
2.257218237601136025e+03
2.182548607800374612e+03
1.245513257915147051e+03
5.380359131031669904e+02
5.791758595309423754e+02
-8.100753874022198886e+01
-7.755718087067693887e+02
-1.261714001268193442e+03
-1.801374411600772646e+03
-1.881324139934867389e+03
-1.467834406325180908e+03
-2.345763849112849584e+03
-2.462925590446609931e+03
-1.414965215891830894e+03
-9.759125610059119253e+02
-3.400081362773013893e+01
9.245147049417505514e+02
1.881635398611728533e+03
1.374313356254597920e+03
1.157479376292407551e+03
1.550061799465308013e+03
1.794097872593167494e+03
1.765519517872911138e+03
5.422811214526939239e+02
-4.185783190576305515e+02
-2.622659681398164935e+02
-8.719763190746924693e+02
-1.927738531832149874e+03
-6.915087760892751021e+02
1.080793748089432938e+03
1.151055978535315489e+03
1.219140519804728001e+03
2.510701573004801901e+02
-9.231034040728859509e+02
-6.994756652157335566e+02
-1.022230056231285403e+03
-1.861583632496022574e+03
-1.317614854315939056e+03
1.207459095343757269e+02
1.554462303502437180e+03
2.210504418059607815e+03
1.881023832907574615e+03
2.105484727904571628e+03
1.960749693481338909e+03
2.669338578194667207e+03
2.181118359022174900e+03
1.189416932708832746e+03
8.437711509198005615e+02
6.208443074327271916e+02
1.340558085496172964e+02
3.911182187890566979e+02
4.804344348774909008e+02
5.810476735030673581e+02
4.723781242842558754e+02
-5.496752300601127672e+02
-2.369232508943272478e+03
-4.029726695065934109e+03
-5.233332652585137112e+03
-4.700399244365291452e+03
-2.486676841627504928e+03
-1.643732892538874353e+02
5.286455731294831821e+02
-3.418402925846518201e+02
-1.745977266652824483e+03
-1.709735687497261779e+03
-1.291368483266793987e+02
1.113798717682683446e+03
1.729409224985514584e+03
9.884909284672728518e+02
-7.787323347852376401e+02
-1.791913577967811307e+03
-8.493166826624594989e+01
2.464230757432414521e+03
3.124830771122330134e+03
2.613674833061008485e+03
8.528025685708884112e+02
-7.974606056421836229e+02
1.646916825326329899e+03
3.372198596810681465e+03
4.271735569043169562e+03
4.607697992816333681e+03
2.563128075594886468e+03
-1.033092449275336776e+03
-1.078981144413389984e+03
1.391505314248296827e+03
3.843447158204573952e+03
4.917774589967125394e+03
4.219426590726347058e+03
1.980483435268858784e+03
6.869881769657407631e+02
1.220988802719294426e+03
2.783554485120078425e+03
3.881705491119184444e+03
5.081534813844261407e+03
4.309017468507455305e+03
1.301105957528308863e+03
-9.600870351678815950e+02
-4.516594467944110875e+03
-7.450345774610560511e+03
-8.083392696369676742e+03
-8.122662324778827497e+03
-8.889117638534946309e+03
-7.090701659629405185e+03
-2.961353831403239838e+03
-1.798037659780489093e+03
-4.366594953261168484e+03
-9.143131144915871118e+03
-9.479554532619786187e+03
-7.943594843204187782e+03
-6.186111289638281050e+03
-5.491556696193642892e+02
3.393178372084001694e+03
2.116781667890020799e+03
7.228130825236830788e+02
1.129352924799724860e+03
1.399303856285581560e+03
2.717468157672255984e+02
-7.172155692331307364e+02
-5.956517139198079349e+03
-8.215099532309759525e+03
-4.606888444298981995e+03
-9.998335537720715820e+02
1.140940004493551641e+02
7.996883589446748886e+01
-3.403289309525040153e+03
-2.889569758129707679e+03
-1.844686906829005466e+03
1.030273666028044843e+01
1.485511926748499718e+03
1.483907355937383045e+03
-7.524925236568843729e+02
-1.516619663376831113e+03
1.743593924355549007e+03
3.132234101218553405e+03
6.146399511266659829e+03
6.285229684056736914e+03
3.546803335175412030e+03
4.047983959847092137e+03
3.960682707084935828e+03
3.647977753522326566e+03
3.387954038499648959e+03
3.609651883591790465e+03
3.118084562741550144e+03
2.983310010705471996e+03
1.390488877754138684e+03
1.048638610581167086e+03
2.898730643382496055e+03
2.844787794267409936e+03
3.133856305949704620e+03
4.101030839669667330e+03
4.171437831629736138e+03
3.164034171316541688e+03
2.453735733976239317e+03
1.267522521266428384e+03
4.635316787831610554e+02
1.012765777290000642e+03
1.682178034053358260e+03
2.326884280445152399e+03
2.936909048597520723e+03
2.636125848831732583e+03
2.033411670444567790e+03
1.561833671571844434e+03
8.300596679701299081e+02
-5.312379044396730023e+02
-1.876380623264514725e+03
-2.378001043002560891e+03
-2.369782562130415045e+03
-2.026981812339722410e+03
-1.978829520059568722e+03
-6.310559371487798899e+02
1.517524717110205756e+03
1.402793177955939655e+03
1.385641199550015926e+03
2.020210965941041195e+03
1.163425787896926522e+03
-4.307311502334920306e+02
-8.333055155844489263e+02
-2.842542086536539045e+02
8.203888459456302371e+02
6.976852676258620249e+02
-2.742525635378104312e+02
-5.475372707227418800e+01
3.310103478421194723e+02
6.142548905471003309e+02
8.557907982130185474e+02
5.495139630043272518e+02
-4.987276130093216011e+02
-1.212911193610014834e+03
-8.930392425635058089e+02
-7.121940425490985263e+02
-2.943712477793694120e+02
2.634469152879496505e+02
-1.747156402265445649e+02
-5.739075065221029490e+02
-1.402273717049515199e+03
-2.282803959888350164e+03
-1.549529946385741368e+03
-7.161114236751463125e+01
8.098674897446157672e+01
-4.827451118815271798e+02
-3.283384877133747892e+01
-4.134932641761734118e+01
-5.053645672600419516e+02
-4.879032968685057199e+02
-3.020056330666675990e+02
2.712990323407842084e+02
6.905301711842771795e+01
-1.381537220894847806e+01
-2.943589779710036964e+02
-5.856194681421301311e+02
-4.425916060167180035e+02
4.162099820075349754e+01
8.402781912382593532e+01
2.486463260458835123e+02
1.654526026097314571e+02
-1.296246081452818260e+02
-1.156827614853175419e+02
-2.927842410013542462e+02
-6.660133525406896524e+02
5.056470673097127388e+01
9.290121874712380077e+02
1.237266739029460950e+03
9.723196828805153018e+02
-1.908156898839268365e+02
-2.365169720291982685e+03
-5.195824020967734214e+03
-5.952741107892918990e+03
-6.866902973370487416e+03
-6.694454417357935199e+03
-6.611491066243437672e+03
-7.345174773336615544e+03
-7.323422964146300728e+03
-5.829339909132680987e+03
-3.558876714762688152e+03
-7.680125570479880253e+02
-7.648224259337963531e+02
-1.513202915024702179e+03
4.646926214125558658e+02
1.313662074685328207e+03
1.304763244722291347e+03
7.800521089192470754e+02
1.944942171115640690e+02
5.360059422930620485e+02
1.242557498747353975e+03
1.572204652151708615e+03
1.453892502051999827e+03
1.325601970435898693e+03
1.366300189421033792e+03
1.154978643247113951e+03
1.307611467567625368e+03
1.403137928576120885e+03
1.092459302403915444e+03
1.013574001664457569e+03
8.474839021120850475e+02
4.083002830630416042e+02
4.640235353973886276e+02
-2.665449373647174411e+02
-6.403177506633251141e+02
-5.602995753926194311e+02
-4.513892585912258255e+02
-2.535649689018358686e+02
2.720698323178292526e+02
1.592624557081814828e+03
2.745135599158860714e+03
3.158548538220617502e+03
1.992858141515804618e+03
-3.694350865449884935e+01
-5.098807746622351260e+02
-1.948069541082459182e+02
-4.157770317820635455e+02
-5.929200148636704171e+02
-4.721979737949766900e+02
-2.556525446436605478e+02
7.937258061635973263e+02
1.458911071441201784e+03
1.558032585819544693e+03
2.097077095239892515e+03
2.942008417394793469e+03
2.898879424891608778e+03
2.493716700921750999e+03
2.765671765945422521e+03
2.623740504028092801e+03
2.335833842263915358e+03
1.881047301337642239e+03
1.251514947832203461e+03
1.965064482139639949e+03
1.890614197384576983e+03
1.330363843302063970e+03
1.023363620844039360e+03
1.823685788071378511e+03
2.485364051348971770e+03
2.057387487940621668e+03
1.235824495434044593e+03
-2.526512340268683587e+01
-1.147973667009689507e+03
-2.205351825340000687e+03
-4.040405561837168989e+03
-6.636078814035433425e+03
-6.400306338347978453e+03
-3.955085341544996936e+03
-3.591340564691748114e+03
-2.458026641664785984e+03
-1.395930915998977525e+03
3.130362967455549779e+02
-7.392685287938850252e+02
-1.789834552807403952e+03
-5.735600011267919399e+03
-4.200575373165048404e+03
-1.466742170847099487e+03
-1.121076769593329573e+03
-1.833533808787550470e+03
-5.533961957977343445e+03
-5.675202016621742587e+03
-5.278233727183534938e+03
-4.262023033983681671e+03
-4.106976304262078088e+02
1.305620910530241190e+03
3.161885208679668722e+03
2.003219279002909843e+03
2.774816841448623563e+03
2.806734001938753863e+03
9.378535254456264738e+02
-1.922984143556273693e+03
-1.906756058103683699e+03
-1.154406836196388667e+03
2.332214034433274264e+03
3.028245568222048860e+03
1.978662123615238670e+03
-5.847420705269058772e+02
-8.730456926291412856e+02
-2.151112914494253801e+03
-2.933807373496018499e+03
-6.279729647177102834e+02
1.608441425790764015e+03
-5.438572648761445407e+02
-7.198403217331198221e+02
-5.684777588025993964e+02
-1.172746090620939185e+03
-2.847536394373639368e+01
1.192537073308524214e+03
1.497085764929450761e+03
1.920940462676519928e+03
1.660054102221094581e+03
1.341468094011489711e+03
1.416318545713714911e+03
9.527990301702524221e+02
1.989603830403985540e+01
-7.351494549770859521e+01
5.553833301731154961e+02
1.835685403483270420e+03
1.848394473133261044e+03
1.290603565650045539e+03
1.594544749922200936e+03
1.859139661632836578e+03
1.958498581040163799e+03
1.337729017189815750e+03
1.133957905918425013e+03
1.325024885869439458e+03
1.480984443677744139e+03
1.364645174367293748e+03
4.190006099564686792e+02
3.281067394863745221e+02
-7.801019653939084719e+02
-2.142745361107301051e+03
-1.035778561142707986e+03
1.117994239402271148e+02
5.648418446671939819e+02
9.360623474132941055e+02
1.124544672527678813e+03
1.658285871168316817e+03
2.158392601997470138e+03
1.261903573854144497e+03
1.111928645352912781e+03
1.424475663279227092e+03
1.442197889464844593e+03
1.060384867090063153e+03
1.010125334136836841e+03
1.252035739668001270e+03
1.523997048444394522e+03
1.972135414490174071e+03
9.024600894289239932e+02
2.082154217461769008e+02
5.111167309902979810e+02
2.030319661803891904e+02
2.083914000351095197e+01
-8.304373587122591971e+02
-1.578652934105052964e+03
-1.888469525402244926e+03
-1.952012200028959342e+03
-1.860781537625750843e+03
-1.251752159946449638e+03
1.237951140967333430e+02
1.938987330344724114e+03
2.758219351745945005e+03
2.370191413577292678e+03
1.666767167230331552e+03
1.392832504489019584e+03
1.176278912011210423e+03
4.680725224369405737e+02
-5.766887873440772410e+02
-6.179670655970925282e+02
-6.959921721008637974e+01
4.112873889686962343e+02
2.641861132171075610e+01
-2.571097558911941405e+02
1.986843712363685768e+02
2.082823134302647759e+03
3.436438988426404194e+03
3.257614902378224087e+03
2.438173896876850449e+03
2.329136423157333866e+03
2.253610207384237583e+03
1.923479201843810415e+03
1.905541604253628748e+03
1.883754504920858835e+03
4.742883481759369602e+02
-2.480589313417277481e+03
-5.831890364957850579e+03
-1.650606848512120905e+03
-5.779790974773778771e+02
-5.141180421989366550e+03
-5.084028594068014172e+03
2.352484418114969600e+01
8.445440076833081093e+02
-3.359786116487482104e+03
-6.504493626268200387e+03
-4.556648193639546662e+03
-4.515636594138447435e+03
-6.301649972590673315e+03
-5.375719398583474685e+03
-5.243727661957191231e+03
-5.630298006749353590e+03
-5.715412552137467173e+03
-5.958497730323411815e+03
-6.127524176736856134e+03
-5.842985391807986161e+03
-3.597669072229570247e+03
-4.568853535763717446e+03
-5.460890160480812483e+03
-8.984157432629107234e+02
4.616684416860054085e+01
1.559690642533028722e+03
1.806428925563830489e+03
1.994328880086030267e+03
1.683220857502187073e+03
1.713341958608559025e+03
1.415832190679077030e+03
1.529397974857614599e+03
2.091182357981563200e+03
2.049598913622863620e+03
1.693773404452590739e+03
1.662667229552798290e+03
2.360174386569466151e+03
2.288498961738289381e+03
2.309225731130560234e+03
2.731494820278187035e+03
3.387387235866732226e+03
3.106294182255905525e+03
2.516073504554899500e+03
1.881789261043692022e+03
1.279703228289425169e+03
1.039964921571718605e+03
1.171133278764237957e+03
6.852959230165317877e+02
5.119391939477822575e+02
2.901194809712403071e+02
8.328841064542949653e+02
6.791158442731056084e+02
7.468814911747747374e+02
1.088669689639395301e+03
1.901061780919417060e+03
2.415599952765092894e+03
2.224595064305779488e+03
1.779073463014377694e+03
1.830790767865511725e+03
1.243450677481273260e+03
1.050627449607905191e+03
4.423046962825233663e+02
-3.879228170210644180e+02
-1.465976483265430090e+02
-1.556245772825279516e+02
-4.042997507035499325e+02
1.054658293440585908e+02
1.128580152236629147e+03
1.660730627076874271e+03
2.012822273999698382e+03
1.052220676086694539e+03
5.444940551230807841e+02
-1.878953663655856872e+02
-3.045001621041511157e+02
3.784257241445655495e+02
-3.248068700224196164e+02
-2.374195289026662579e+02
4.940975706915803016e+02
5.371761124304568966e+02
4.014362332680872782e+02
5.618956983776934777e+01
7.770629261304151214e+01
1.812440338846684824e+02
2.064560479093509215e+01
1.896150897745238808e+02
3.230646552988176836e+02
6.922036922128368133e+02
7.469147130860354764e+02
1.324894961965672792e+03
1.292540075345770674e+03
9.861495675319367820e+02
9.403094162224863339e+01
-5.252561586170334067e+02
-5.025643031089267083e+02
-5.185162113828765769e+02
-5.100100749423332900e+02
-8.344578605985916511e+02
-7.111504414022347191e+02
-1.088377823760295087e+03
-1.174004755649059234e+03
-9.073946057230148199e+02
-1.304788313816916570e+03
-1.096430944289071022e+03
-5.368863943446179974e+02
-5.681718950648615873e+02
-9.327190473979576382e+02
-1.135531410819818348e+03
-1.205745959501893367e+03
-7.628274717499300550e+02
-3.655680448292302458e+02
-3.802330090068015807e+02
-4.411436929399250744e+02
-4.991124287142183675e+02
-2.998537522433330196e+02
-3.349228124485320564e+02
-3.053037290949435487e+02
-4.757725219969619275e+02
-7.580134727943300277e+02
-6.884604841120350329e+02
-7.743463606007244380e+02
-5.105617456599910042e+02
-5.649716228904402442e+02
-1.105921628960014687e+03
-1.677407937583968760e+03
-1.544335906584487930e+03
-1.602825600668517836e+03
-2.180579245612719660e+03
-2.045938124305458359e+03
-1.512290150643358629e+03
-1.487807653435147813e+03
-1.933292415950697205e+03
-1.625136085052066392e+03
-1.272945620860782583e+03
-1.119787348376943100e+03
-1.159580856694379918e+03
-1.060445569961657384e+03
-1.033373506576696855e+03
-1.207046327116147495e+03
-2.027652852921769863e+03
-2.920603307821424096e+03
-3.880888963268682346e+03
-3.898109923324345800e+03
-2.624014862565110434e+03
-9.364519312741359727e+02
-8.013184070341511642e+02
-8.823475285088961755e+02
-9.562482948598438952e+02
-8.529097810435613383e+02
-1.051583527262895586e+03
-1.385176980781852308e+03
-1.856353094377558136e+03
-1.916280779111780475e+03
-1.436702463830995157e+03
-1.286239060992847953e+03
-9.009253466122426062e+02
-7.786503721666052797e+02
-4.470985637221948537e+02
-2.875025368156896661e+02
-5.509551657518651524e+01
8.989118815276532359e+02
1.642423625222724922e+03
1.978263780915030338e+03
1.739630118195675550e+03
1.468666549623307446e+03
1.151559762473644696e+03
1.044172556375228851e+03
1.070872665543310859e+03
8.657112016677875772e+02
4.989752646722500344e+02
1.811294520772935925e+02
-2.100155624770796692e+02
-3.277236698029100808e+02
-2.399592371875026515e+02
-2.065233261141538890e+01
5.247824587400502878e+02
1.236285245832721102e+03
1.826897068380492556e+03
2.262635108928172485e+03
2.139416656747810066e+03
2.155861698587161754e+03
2.527508479692261062e+03
2.746965669113007152e+03
2.939329262596969329e+03
2.622795838890648611e+03
2.112545639074275186e+03
1.978843351616041446e+03
2.068970372666889034e+03
2.268801277685045534e+03
1.273085445753751173e+03
1.190029589008237735e+03
1.542664865834961574e+03
1.127093477301588564e+03
8.428988083126598667e+02
-6.313094008591142483e+02
-3.274729753369571426e+03
-5.353402680960641192e+03
-4.001397279705097844e+03
-3.927117035886341910e+03
-3.855687922923234055e+03
-3.338123666710739144e+03
9.908010853434066121e+02
5.036837760358627747e+03
5.041391912139343731e+03
-1.523127750686860793e+02
-1.671857857366695725e+03
-1.039384812109417908e+03
-1.368497826636771606e+03
-1.874153738103055389e+02
2.340716058147226704e+03
2.206755167721205169e+02
-1.272684888957244766e+03
-4.803038551815767505e+02
2.386113506348691772e+03
4.788432609247274740e+03
2.937701188957343220e+03
-7.063288647518173775e+02
-1.508864222338614127e+03
-9.139938560897064690e+02
-4.537545982617632490e+02
1.979693530756203756e+02
3.609977629150091616e+02
2.956179457932162435e+01
-1.012885201147000771e+02
-1.008995905912400417e+03
-2.266886770556126521e+03
-3.137238874295117512e+03
-3.281064714359104528e+03
-1.042239843294172488e+03
1.630255521924517780e+03
3.107344106554049631e+03
4.349963393238896970e+03
4.733197219921218675e+03
4.645823483543046677e+03
7.034428819443329303e+03
9.491287746728230559e+03
1.046871576403994914e+04
1.014298798250764230e+04
8.487876517087970569e+03
6.764736625725097838e+03
5.473671317691079821e+03
5.023587916745989787e+03
5.260314178194799752e+03
5.182654762085737275e+03
4.122500975812076831e+03
2.563094851953880607e+03
9.963474922934087772e+02
5.340723502305939974e+02
1.283277448712585738e+03
2.367898712204756066e+03
1.508144850572749419e+03
1.140855969888217913e+02
2.835363908911970157e+02
5.574358665010363438e+02
-1.511135827196314494e+03
-4.462210107724841691e+03
-5.456919727191368111e+03
-3.631400924213355665e+03
-1.744354249083507966e+03
1.005327344228296056e+03
7.419385722416674298e+02
-3.025770099701257095e+03
-5.467150630804549110e+03
-7.095314431816442266e+03
-7.624751933879840180e+03
-5.009371460412715351e+03
-2.157531026701450628e+03
2.392818015857349565e+03
4.215939451226190613e+03
1.614674125361201732e+03
-2.026792070748540482e+03
-4.113166368946856892e+03
-2.948218504582284822e+03
-2.329828790032159759e+03
-6.718102510917352447e+03
-1.086778165002175047e+04
-7.897863094601394550e+03
-2.151504144160754095e+03
9.631408669167275605e+01
-8.839933048855345987e+02
3.534721386629657900e+03
3.352050876057392088e+03
6.984880773084463499e+02
6.447202968276324100e+02
-1.284981585348534963e+03
-6.237600058286799140e+03
-8.127976206675673893e+03
-8.704961910915668341e+03
-1.356946792292692044e+04
-1.765537802002983517e+04
-1.819459955534442997e+04
-1.733500899561153710e+04
