3.486735808007273135e+03
1.957859174317616635e+03
-3.185158346894445913e+03
-4.046213972191009361e+03
-4.038386157403136622e+03
-4.430710555522585310e+03
-5.118027468627275084e+03
-5.967515803590053110e+03
-7.120530763141845455e+03
-7.640072786174536304e+03
-8.425216371327614979e+03
-8.854030080772747169e+03
-8.638466079951420397e+03
-4.236662901502092609e+03
-6.126149126871962380e+02
1.152681911210571798e+03
1.994244247511548110e+03
2.702047958793666567e+03
3.356032979169778628e+03
4.021107186829933653e+03
4.343047068821921130e+03
4.329761671399613988e+03
5.084626974966349735e+03
5.834725778224447822e+03
6.022013238740214547e+03
5.467483115315550094e+03
4.630162415481042444e+03
3.779933456985375869e+03
3.369763715027817852e+03
2.697517186816487538e+03
2.260118995111740333e+03
1.763467567459433212e+03
1.555502206330525269e+03
2.556222270608916006e+03
3.399582134478017906e+03
4.588504455222839169e+03
5.539980964789074278e+03
5.918978085526990071e+03
6.414472915375968114e+03
7.344477482480189792e+03
7.493953825628977938e+03
7.107846486730366451e+03
6.564065096744034236e+03
6.170569122031966799e+03
5.646303365834649412e+03
4.753196029171596820e+03
3.783181033194037354e+03
2.910262835279583214e+03
1.824459690974530531e+03
6.513052652639306643e+02
-2.566703771120495503e+02
-7.413996409421382623e+02
-1.291321759840674531e+03
-1.822792767981524094e+03
-1.465366195158672554e+03
-1.639875583846642257e+03
-2.190453100374428686e+03
7.511678340844772492e+02
2.591811801887479305e+03
4.083406556892949993e+03
4.553799560534214834e+03
4.565851640200315160e+03
4.713516516028638762e+03
4.258656634698911148e+03
4.119903048105923517e+03
3.778140313685556066e+03
3.827524162255954707e+03
3.533878097459264609e+03
3.171599943113600148e+03
2.480446348915422732e+03
2.100296676615246724e+03
1.757011545093676659e+03
1.453343125907945023e+03
1.677142305992231741e+03
1.348305441349200009e+03
1.075680780752748433e+03
1.327110347685340912e+03
1.695438506163393413e+03
1.779524737721666497e+03
2.076208992537103768e+03
2.014403658277067734e+03
1.685033269661325903e+03
1.930900665470012655e+03
1.625807340658516978e+03
3.896075447766281172e+02
-7.068662118391650893e+02
-1.684812974739540550e+03
-2.437482934621995810e+03
-3.447117976799384905e+03
-3.479949960921184356e+03
-4.141208890890287876e+03
-3.713171688809567968e+03
-3.820009633785442929e+03
-3.918930766321465853e+03
-3.338135661903909750e+03
-2.887842376646993216e+03
-2.039203243449116599e+03
-1.530416695135955933e+03
-1.137651218908841884e+03
-3.801101260787523728e+01
9.784123348056564282e+02
1.338394244724990585e+03
1.565588872941825230e+03
1.119781262783781358e+03
6.577917133511657539e+02
1.354170520058547140e+02
-3.754693119632553362e+02
-1.528992640163926353e+03
-3.687351791141965350e+03
-6.880982082002007701e+03
-1.089016481855399979e+04
-1.157206147889790009e+04
-1.097478057398219789e+04
-9.928548641042996678e+03
-8.859493536999216303e+03
-8.152759983025171096e+03
-6.659496361855721261e+03
-4.667729352011790525e+02
1.947328635227459472e+03
2.446722703295014981e+03
9.063842610427915361e+02
3.367141705994778931e+03
6.041089943526435491e+03
7.257152084726786597e+03
7.575068116186094812e+03
7.404556762347646327e+03
7.069545943238991640e+03
5.934938090399523389e+03
4.896679135694409524e+03
3.772002883787800329e+03
2.526523433981335984e+03
2.475183368376784983e+03
2.294609338121908422e+03
2.087118807735801056e+03
2.227409095371621333e+03
2.394820705541911593e+03
2.694933005217952541e+03
2.720159294582091206e+03
2.160570215186190580e+03
2.647901557372795651e+03
3.065347258446402520e+03
3.055080965957375156e+03
2.755880743891406382e+03
2.346901346741748512e+03
1.862122413458885603e+03
1.317667173256682645e+03
7.985485299035522075e+02
1.297057362971233090e+02
-2.103751902599574350e+03
-3.810774203298266457e+03
-5.186433551632295348e+03
-5.436602437755605024e+03
-5.813259371990961881e+03
-6.290161382992275321e+03
-6.206544081625807848e+03
-6.237229274657900532e+03
-4.487099390636771204e+03
-2.520763891913818043e+03
-9.737541746985916689e+02
2.324543020202326602e+02
7.681638786736017437e+02
1.442780919911768024e+03
2.665898811404428670e+03
2.642165256269261590e+03
1.917745830481038183e+03
9.315661732814910465e+02
-6.131929297462716022e+02
-3.241392832672825079e+03
-6.102773466644400287e+03
-7.144318241818837123e+03
-6.492875354706708094e+03
-6.288268532529618824e+03
-6.554292630127712982e+03
-5.682730322851343772e+03
-3.805427245737529120e+03
-2.943144859978012846e+03
-1.980620535482071318e+03
-8.055776453411291413e+02
2.632936717864700995e+02
1.794236011218203657e+03
3.211435872611526520e+03
4.632135439120382216e+03
4.173604978326588935e+03
2.546043087602996820e+03
-1.258225699813052643e+03
-1.000273888260729336e+03
-7.605054500057342466e+02
8.432453209251843873e+02
-2.215119546918222113e+03
-5.215346956558489182e+03
-4.401280689087011524e+03
-1.176424357140857353e+02
-2.598157144174871064e+03
-2.297680509272101517e+03
-4.650586714648201792e+02
-1.113076434412366098e+03
2.349535062972240667e+03
7.189958518109598344e+02
1.198538964578963260e+03
2.854460523328042655e+03
1.998866181631276959e+03
2.337057759789495321e+03
2.554285558554528507e+03
4.489637034789067911e+03
4.331337942325368203e+03
1.864573261863482685e+03
-1.323516832897442555e+03
-4.690826983062585896e+03
-5.899199400986791261e+03
-3.991565746082266742e+03
-4.325866650213672983e+03
-7.992945470106115863e+03
-6.149595589864125031e+03
-4.432670794804848811e+03
-2.331062570069698268e+03
3.583262490551848032e+02
-1.373243879215886807e+02
3.268135541155938427e+03
3.258764695328140988e+03
5.847283942271067190e+02
-3.288215950647248746e+02
1.114186557098370031e+03
1.482833117050495730e+03
5.441696138080556011e+02
6.032651696278075093e+01
-2.985769481414606048e+02
-1.567561849129248003e+03
-2.894700628648441125e+03
-1.419972915200338775e+03
1.191583606376468651e+03
1.039866087785178934e+03
-1.114222237889447570e+03
-1.085807955393050406e+03
-5.898098459198220098e+02
-1.289953453411225837e+03
-1.456109400546720735e+03
-1.654810628452140008e+03
-1.000671584188297857e+03
-2.108964502274390611e+02
6.969952100325581341e+02
1.711928748149230387e+03
1.803784036415469927e+03
1.662940871799837851e+03
1.689678643628215468e+03
1.505988425148589386e+03
1.041333195385196632e+03
4.056451304025507056e+02
-1.932051003302224444e+03
-3.237969240650330448e+03
-4.336355054937368550e+03
-3.332015738766414870e+03
-2.378527460870077448e+03
-2.738748219008047727e+03
-2.122180158468849186e+03
-1.306376183015690913e+03
-4.906322939381992683e+02
-6.358756093822598814e+02
-7.682512955989802776e+02
-1.754377991486705923e+01
2.124254503514571297e+03
3.731731109011782337e+03
5.615974618704882232e+03
1.000281243163935142e+04
1.364699494250619864e+04
1.328804575319367359e+04
1.288879237951380310e+04
1.232428121197478140e+04
1.171214206894448398e+04
1.246004581097145456e+04
1.172974339138716823e+04
1.131581740536188590e+04
1.154511944586709433e+04
1.262707433534357369e+04
1.371988407927232583e+04
1.455544630555128606e+04
1.481348068776618857e+04
1.209273089770095248e+04
7.282033096408950769e+03
5.992181930402383841e+03
5.884967760455261669e+03
5.899147433389708567e+03
5.731473293733586615e+03
5.961700196515922471e+03
5.921810745212244910e+03
6.134860604899527061e+03
5.313672246508005628e+03
4.076086594811234136e+03
2.624094992629437002e+03
1.627532649349236863e+03
1.080086764788524306e+03
3.248803442225233198e+02
-8.191114317121999875e+02
-1.324125043345217136e+03
-1.653514777322787040e+03
-2.099829182862888956e+03
-1.686603112729184431e+03
-6.151366230184886490e+02
1.404443323897145603e+02
3.271603365704985436e+02
8.598917902628318188e+02
1.906516713931723643e+03
2.644895761415261859e+03
2.433670070911334278e+03
2.528612140035237644e+03
1.546790031502482179e+03
-8.786902369728405802e+02
-4.769753869756198583e+03
-3.774616398225999092e+03
-3.604930094147534874e+02
-4.696531549530981465e+03
-1.086187583930789515e+04
-1.011771295576693228e+04
-1.179593853451285031e+04
-1.308840633756823081e+04
-1.379958951943916145e+04
-1.284733209223430276e+04
-1.212856532551361852e+04
-1.270136746144183053e+04
-1.206985446440945452e+04
-1.115703868778680408e+04
-1.087787736865490660e+04
-1.031731355232105307e+04
-6.271423101856397807e+03
-3.134319596701216597e+03
-2.302010413467391572e+03
-2.891445926717857674e+03
-3.850470220448215059e+03
-4.909998580039446097e+03
-6.526011827686144898e+03
-8.173481080040429333e+03
-9.306330509137244007e+03
-1.024434496463834512e+04
-1.096444441617103439e+04
-1.112861057583997354e+04
-1.126264518510073867e+04
-1.149824897210245581e+04
-1.104825362977757504e+04
-9.906418092977761262e+03
-8.979428284910642105e+03
-8.239002836679732354e+03
-7.311782726390660173e+03
-6.661342628028826766e+03
-5.885334134054752212e+03
-5.122465482523747596e+03
-4.965499706441785747e+03
-5.730182173449145921e+03
-6.330336091840508743e+03
-7.378540280770088430e+03
-8.265443867182264512e+03
-8.898602241322860209e+03
-9.780587056081594710e+03
-1.067800873848035008e+04
-1.103038357027270285e+04
-1.170120226635899962e+04
-1.211399334648568583e+04
-1.086630027987279755e+04
-7.723617594568412642e+03
-4.822495152038426568e+03
-3.502413559602347959e+03
-2.813768142983373309e+03
-1.491853206318430921e+03
-8.911190121597438747e+02
1.209594634147011760e+02
2.906907467121213813e+03
6.030333149687746300e+03
6.620869721480199587e+03
5.872115688249234154e+03
5.071706739628149990e+03
4.825993015611812552e+03
4.185506458867089350e+03
3.367504349697832367e+03
2.825274756406336564e+03
1.885445882912960769e+03
1.702890071214420686e+03
1.704950589489427784e+03
1.443877904263570144e+03
1.903184223210702157e+03
1.997414495387373279e+02
1.876262512499156969e+02
4.061285824424402563e+03
7.259236032193484789e+03
7.873975524166890864e+03
7.547998735394374307e+03
7.882746950715545609e+03
7.830711516074532483e+03
7.948301992431968756e+03
6.835889558184415364e+03
5.704877796360500724e+03
4.584556878772389609e+03
3.040241986110408561e+03
1.750274847944953535e+03
6.809886231885649295e+02
4.966803038213524957e+01
1.216009364300175690e+02
-2.059324287253052432e+02
2.163881567863325870e+02
1.719792921398390263e+03
2.441520521397615539e+03
3.284818825400257083e+03
3.409895483183319357e+03
4.503972983934596414e+03
5.613209491809524479e+03
6.035812458294037242e+03
5.964841750671466798e+03
6.493337581147427954e+03
5.735525119632239694e+03
5.109433684380568593e+03
4.607049205350379452e+03
4.167206973093574561e+03
3.916872852201515343e+03
3.788902433497946731e+03
2.572119868817320821e+03
1.135406784338479838e+03
1.915407336327691610e+03
3.154847486888460480e+03
3.943582912018488514e+03
5.521358526855699893e+03
6.947915184402449086e+03
6.673975720928512601e+03
6.649159018317520349e+03
7.715252182646147048e+03
8.368894549881675630e+03
8.763675904309109683e+03
8.524214138617160643e+03
8.120285723015889744e+03
7.738421557495214984e+03
7.698979553433398905e+03
6.272258102718093141e+03
5.240717340715837054e+03
4.382871031858924653e+03
2.936055328810822630e+03
1.553514400355340740e+03
6.246172824255172600e+02
2.667172188517338896e+02
4.761623393806870013e+02
1.067265059876542409e+03
1.744224323010348826e+03
2.397364155233125530e+03
3.654965076672248415e+03
4.002357684836121280e+03
4.282791974371038123e+03
2.718944289988561195e+03
5.456972012117657869e+03
7.018152499380810696e+03
6.969232683684214862e+03
7.147990539246681692e+03
6.200606722837463167e+03
5.678934158002459299e+03
5.914040350233057325e+03
5.195250540375144737e+03
3.884586922676155609e+03
3.142433999773075811e+03
2.796704673711014038e+03
2.413315401433310399e+03
2.294197119061218018e+03
3.461331487967363046e+03
3.642805038119908204e+03
4.767726997083266724e+03
6.283589259646662867e+03
6.909248074154196729e+03
8.304103274995715765e+03
9.296649497906297256e+03
9.959022954733065490e+03
1.018356181154901969e+04
1.075638872248442385e+04
1.040977706829369890e+04
9.124045282418112038e+03
7.546587310048766085e+03
6.691836315501644094e+03
6.386920435092091793e+03
5.612646583389761872e+03
4.717547675288096798e+03
4.288253653004757325e+03
4.433898750985069455e+03
4.111809113505595633e+03
4.367937085356332318e+03
5.296649324857786269e+03
5.819189590405367198e+03
6.585271524042243072e+03
7.166587881467421539e+03
8.227773338188035268e+03
9.866330288979723264e+03
1.120788545767285541e+04
1.139407674706869693e+04
1.169560103653726583e+04
1.139797808137110405e+04
9.794742797562450505e+03
7.722795852675211790e+03
3.650058307892546509e+03
1.561120548871918174e+02
-1.153134831641271489e+02
2.242748955806900540e+03
-1.565865030501599676e+03
2.057347434953566108e+02
-2.300545747969613330e+03
-8.056617147721800620e+02
4.213831725817877327e+02
3.906654437991829582e+03
1.417337959481649705e+03
2.987646650250369021e+03
5.959780062056412135e+03
4.059913956436361786e+03
2.123295838306074074e+03
1.857156984629951012e+03
1.954097042219889545e+03
-5.694924770998972008e+02
1.093609199329949206e+03
-2.070404017887251939e+03
-1.296120086595674366e+03
-1.436027977766872937e+03
-5.840832753941472220e+03
-5.013070819808100168e+03
-8.270167821187671507e+03
-7.058571936685206310e+03
-7.598864650453365357e+03
-1.045451583777367341e+04
-1.327696034365549531e+04
-1.171847676730028070e+04
-9.635476823637813141e+03
-7.918556408330107843e+03
-9.889914195927522087e+03
-1.235949856991226261e+04
-1.106752359046513084e+04
-1.197418612901944289e+04
-1.437665816551823445e+04
-1.704420684164715567e+04
-1.773484502110769608e+04
-1.707572761884241118e+04
-2.264801805540996429e+04
-2.421689857451479111e+04
-2.434343930966558401e+04
-2.517068660445620844e+04
-2.650362665653306976e+04
-2.760693826465774691e+04
-2.914529851746489294e+04
-3.000798735801327712e+04
-3.129610979198963105e+04
-3.397962005667393532e+04
-3.890737440831382264e+04
-4.308236039343759330e+04
-4.498949816154193832e+04
-4.685975788443640340e+04
-4.924597130912212015e+04
-4.956601669279931957e+04
-4.986879027442463848e+04
-5.196320600213271246e+04
-4.871326074120933481e+04
-4.214000384730385849e+04
-3.378234380852718459e+04
-2.551424248549683762e+04
-2.077667662139621461e+04
-1.977166768236925054e+04
-1.979324737680747421e+04
-2.013143621439302660e+04
-1.873427434169405024e+04
-1.691586313814531240e+04
-1.432136752612870623e+04
-1.138385858370246751e+04
-1.169918605999185093e+04
-1.416215222153125251e+04
-1.497886066354442119e+04
-1.358933001310352120e+04
-9.797549552116168343e+03
-6.841558207934114762e+03
-4.793931391929956590e+03
-3.565954742335836272e+03
-3.392126991336870560e+03
-4.241024832432781295e+03
-3.848763750749939391e+03
-1.326215954060034846e+03
-4.175306018836879502e+02
2.612865388953899583e+03
7.605341774851828632e+03
1.185261465678971945e+04
1.484825988585149389e+04
1.823124428314746910e+04
2.186421751649146245e+04
2.690274216582169174e+04
3.108316529828459898e+04
3.414865895941444614e+04
3.633362331790985627e+04
3.830022270465545444e+04
4.102764102206547977e+04
4.426304195326202898e+04
4.676355541081691626e+04
4.829443412096213433e+04
4.972676370066080563e+04
5.166550418500651722e+04
5.271060953723550483e+04
5.211802052940341673e+04
5.148759884608018183e+04
5.161920478499842284e+04
5.117366523188247811e+04
5.017975402307170589e+04
4.936919371859602688e+04
4.914370986622044438e+04
4.935599555740608048e+04
5.028666841812660277e+04
5.197134549364531267e+04
5.366763933776447811e+04
5.459709828478920826e+04
5.407827390534657752e+04
5.189072497646335978e+04
4.918284068470638886e+04
4.663604489845990611e+04
4.373479291869195004e+04
4.051336444462205691e+04
3.702005461963859125e+04
3.356015985224003089e+04
3.102281821329435843e+04
2.814722523566362725e+04
2.466453224702281659e+04
2.202573288829904777e+04
1.873179750996713483e+04
1.472077679413006081e+04
1.141481089771780535e+04
9.690955364596013169e+03
8.305173224963886241e+03
6.879500493613678373e+03
5.437879498488461650e+03
4.322116120775295713e+03
3.319058531594202577e+03
1.605740166470268605e+03
-4.948457498609595291e+02
-2.149788942483808114e+03
-2.165349594012072430e+03
-4.781556646254387488e+03
-1.074161481738791917e+04
-1.651873295155133019e+04
-1.703412527166401196e+04
-1.312908948603215140e+04
-1.439885224147440204e+04
-1.719754752108374669e+04
-1.732649093004611495e+04
-1.838776236732587131e+04
-1.879665256399789359e+04
-1.934574625390103756e+04
-1.992125643024462261e+04
-2.018925590535494848e+04
-2.041090653784046299e+04
-2.053647761645825813e+04
-2.063616132345545702e+04
-2.128324208323078346e+04
-2.203082642218391265e+04
-2.270006105355588079e+04
-2.404515766500857717e+04
-2.556727128559073753e+04
-2.674158010443096646e+04
-2.826030808768212228e+04
-2.979673199234933054e+04
-3.171600328663342225e+04
-3.377719430760195974e+04
-3.514351327979421330e+04
-3.634716111447501316e+04
-3.741218362105721462e+04
-3.855262769792511972e+04
-3.912745042149671644e+04
-3.959775244478313107e+04
-3.888454294702399784e+04
-3.839069950059106486e+04
-3.835907320526948752e+04
-3.773963177588932740e+04
-3.664715331996261375e+04
-3.531049453697670833e+04
-3.438642579899321572e+04
-3.299676866849332146e+04
-3.227727464356095879e+04
-3.170665897540705555e+04
-3.083152429018666589e+04
-3.028553790427495551e+04
-3.011251874518344630e+04
-2.892909526663876022e+04
-2.774883987220198105e+04
-2.681934759663303339e+04
-2.528308562432883991e+04
-2.356835158592232983e+04
-2.095454930300803244e+04
-1.866813594249167727e+04
-1.682538467091288476e+04
-1.525753553102775913e+04
-1.219775441753041378e+04
-9.687232625826733056e+03
-7.491132700137420215e+03
-5.861607394603989633e+03
-4.535663315594802953e+03
-2.672305843654692580e+03
-4.825289254757827848e+02
1.233711302871832459e+03
2.123497523341299711e+03
3.106899956601920167e+03
4.565057606319519437e+03
6.005085040731506524e+03
6.680113060398646667e+03
7.815353446593791887e+03
9.230084569630134865e+03
9.493625552493253053e+03
7.603390490622041398e+03
7.730868853365084760e+03
1.046571089104859857e+04
1.447097518120890891e+04
1.423023552912100968e+04
1.641215515498997775e+04
1.778430914187048620e+04
1.829142858211455678e+04
2.165107169041331508e+04
2.032285079899085395e+04
1.883656077995119631e+04
2.176692044976760008e+04
1.872761999911146631e+04
1.578644030123969969e+04
1.721621077021626115e+04
1.811669035638192872e+04
1.927962189341570775e+04
1.661594221462594578e+04
1.862944063615137566e+04
1.589804005511274590e+04
1.728874650758038115e+04
2.090441120154362579e+04
2.109404324544994233e+04
2.106177483206903707e+04
1.790363641620437193e+04
1.573661231206113371e+04
1.725385131732210357e+04
1.846251137385236507e+04
1.754768099078605519e+04
1.966039499253067697e+04
1.504772842738110194e+04
1.275781169610320649e+04
1.502174824357810576e+04
1.084556612318936095e+04
9.067382545851474788e+03
1.100933768708986827e+04
8.751490376945270327e+03
3.826971272052041968e+03
3.340862375763178079e+03
4.215233033965248978e+03
5.017294195261648383e+03
5.308145859118892986e+03
6.112823996320869810e+03
6.062443198932938685e+03
6.218224139964904680e+03
7.335292571734116791e+03
8.195797583179361027e+03
8.967943626453290562e+03
9.652849116925330236e+03
9.625778132769843069e+03
8.840771927894156761e+03
8.104675524972078165e+03
6.913231794160695244e+03
4.891787454335762959e+03
2.684856726953572434e+03
1.127951468772740327e+03
-7.740874227654484230e+02
-2.576319380107092456e+03
-4.274066714483074975e+03
-5.305970158982499925e+03
-5.701478958811550001e+03
-6.542926509797665858e+03
-7.539016067104575995e+03
-9.399848866599075336e+03
-9.455953030330238107e+03
-7.647532383647821916e+03
-7.140558636524097892e+03
-6.644606675994215948e+03
-5.557408437878177210e+03
-4.348815879003167538e+03
-4.038547404149358499e+03
-3.561316181275362851e+03
-1.865910303829854456e+03
-5.944859545569082684e+02
-1.292653034895149858e+03
-2.189756230977745417e+03
-2.319742922652392281e+03
-1.639341148819909449e+03
-1.383008804465996491e+03
-1.822383385235096966e+03
-1.161171089799734091e+03
-2.197587622065570940e+02
7.521683429602333035e+02
1.513586937473712624e+03
2.156054642662069909e+03
2.748908226240785098e+03
3.458185420838756272e+03
3.825883321630744831e+03
3.876573404420762927e+03
3.444376146455240814e+03
2.949054869719446287e+03
2.134314790121525220e+03
1.071028973026996937e+03
7.272220105992666959e+02
1.438751950220112576e+03
1.149536612679367408e+03
3.736206576686107894e+01
-1.070870699710296321e+03
-1.197222860286400646e+03
-1.380662847967249718e+03
-1.466401423251308415e+03
-1.623823466785057690e+03
-1.464183210561245005e+03
-1.101742237465057087e+03
-5.929841723006195480e+02
6.867311684977936466e+02
1.928187694331484408e+03
1.688511688144040590e+03
1.382916997942558964e+03
1.519617401110359879e+03
1.717943972255063272e+03
1.137536747025862724e+03
7.731210444149489831e+02
1.014179972780902972e+03
8.581924830665959689e+02
-9.605574685467476002e+02
-4.672708660019869967e+03
-8.939960972014489016e+03
-1.135499143195651232e+04
-1.133414347643986184e+04
-1.096682483335092365e+04
-1.029072843450354958e+04
-9.248635623213565850e+03
-8.568451619233477686e+03
-8.087779881056467275e+03
-4.930243239110442119e+03
1.247582736315753436e+03
1.215066963727171014e+03
-3.610320031090989687e+03
-5.931348353530186614e+03
-5.735970461490301204e+03
-5.540692656178130164e+03
-6.302424723777550753e+03
-4.680145221159626090e+03
-2.986616973607034652e+03
-6.861463003619040137e+03
-8.238454870461160681e+03
-8.260428696443626905e+03
-8.190313808254530159e+03
-5.801756310415024018e+03
-1.147339819203213665e+03
1.421342432042464452e+03
2.570688450115693740e+03
3.074936217126229167e+03
3.045399685865564152e+03
4.088480989448158198e+03
5.156639558977620254e+03
5.690225387304435571e+03
5.762594333085595281e+03
5.710242018893966815e+03
5.410711424858894134e+03
4.826444508635900092e+03
3.783801747733585671e+03
2.920290956957912385e+03
2.309412429658239034e+03
1.656650348284255642e+03
9.934736643060266488e+02
1.793274738538361817e+02
-8.433095668488571164e+02
-1.222947216918715185e+03
-1.319073715756442652e+03
-1.238029103225743029e+03
-8.791112287531218499e+02
-9.985132096172992533e+02
-1.450533798032684217e+03
-6.924706022462893316e+02
-2.725911288711536145e+02
-1.391703987470751258e+02
3.614840652922841286e+02
2.040917973876702831e+02
-4.556891878010968071e+02
-1.321102527902228530e+03
-2.451345690332460435e+03
-3.054721725501575293e+03
-3.608396731274082867e+03
-4.223519888519305823e+03
-5.052355904290022409e+03
-5.721192622901631694e+03
-6.337226401584203813e+03
-6.690633721489200070e+03
-6.513580459420952138e+03
-6.068346122019254835e+03
-5.903044834279852694e+03
-5.649751305558842432e+03
-4.980152249464721535e+03
-5.274321682964010506e+03
-4.247475240434639090e+03
-3.728485990782128738e+03
-3.203114221134081163e+03
-3.372372639845428239e+03
-4.151598731770485756e+03
-5.068151230051784296e+03
-5.216691990784863265e+03
-5.766367796167270171e+03
-6.824546806486442620e+03
-7.249256600101099139e+03
-7.802480572418881820e+03
-7.799269265114882728e+03
-7.720565742786386181e+03
-7.542376680983302322e+03
-7.068637691525837909e+03
-6.295268372886431280e+03
-5.970160385765859246e+03
-5.467229219085409568e+03
-4.232371656643724236e+03
-3.095419171283348078e+03
-1.950189966026475304e+03
-5.375611661775434413e+02
4.045288630675542549e+02
1.022415948825906469e+02
2.857317425558692889e+02
8.041547538528171799e+02
8.606418132913822774e+02
7.962660188883886576e+02
4.601732265568895173e+02
3.665161141081940741e+02
5.214541452726418811e+02
5.031313792718182754e+02
2.926839209428941331e+02
4.822029630847190447e+02
1.232835907697344055e+03
1.859808184490281064e+03
2.440284349713873326e+03
2.828416221711793241e+03
3.838365384997299316e+03
4.412319975630443878e+03
5.180420123603797947e+03
6.237902610685132458e+03
7.319960317516852228e+03
7.793763639913861880e+03
7.842512413279137036e+03
8.021387331835177974e+03
7.617479374012836161e+03
7.051963941491592777e+03
6.625979826023700298e+03
6.265607959147768270e+03
5.885031056055511726e+03
5.298358495822429177e+03
4.966759059226823410e+03
4.958400854761230221e+03
5.329508769944348387e+03
5.670121145061430980e+03
6.022447742158607980e+03
6.390726523158388773e+03
6.223203813120339873e+03
6.712120979013071519e+03
7.496599825560258978e+03
7.725781561308881464e+03
7.921911812953043409e+03
7.862249637825057107e+03
8.222927693095485665e+03
8.383013275434441312e+03
7.894698626801656246e+03
6.930208853704781177e+03
5.653646119694308254e+03
4.829175223169131641e+03
3.659085897669603582e+03
3.438743781348486209e+03
3.979058272288895751e+03
3.694976859761916330e+03
3.615526890189529240e+03
3.698552736919017207e+03
4.108023694501487626e+03
5.089209852019933351e+03
5.485367875860288223e+03
6.038385921478557066e+03
7.065773822023020330e+03
7.350811195932611554e+03
7.172320041813288299e+03
7.286065355897163499e+03
7.670013498015496225e+03
7.371898984584702703e+03
6.995007893905292804e+03
6.460538803603358247e+03
5.408105534862858804e+03
4.889894904772482732e+03
4.429464839528374796e+03
3.341878870813971389e+03
2.190061653263262542e+03
2.477311903886099117e+03
2.646842609553826605e+03
2.645279887036060700e+03
3.099118102785922019e+03
3.790930420873315143e+03
4.163313034856841114e+03
4.415598265855684076e+03
4.971611896100876947e+03
5.468025913175245478e+03
5.701790484934604137e+03
5.121614019820080102e+03
5.014192416758671243e+03
4.621522627433299022e+03
3.830862571242319518e+03
3.856805339939041005e+03
3.011788998517676191e+03
1.565783400708161935e+03
9.615229039432219906e+02
6.548105538613921226e+02
1.096022376812819630e+02
-4.860872619234567651e+02
-7.072027786037274382e+02
-4.367506948731061129e+02
4.919841446970591647e+01
6.807138573053520076e+02
1.093799340055243647e+03
1.433466531469676966e+03
1.350789318476645803e+03
1.662852471523777467e+03
1.404680257956240212e+03
-1.105638136397260268e+03
-5.208031191452020721e+03
-7.536408003929627739e+03
-7.735797415307720257e+03
-7.758199976284065997e+03
-7.951636735871860765e+03
-8.033089603224999337e+03
-8.358580571544787745e+03
-9.201188652246959464e+03
-8.820962673096802973e+03
-7.560892889715529236e+03
-8.886755639430293741e+03
-9.613742793021729085e+03
-9.529251144294748883e+03
-8.846835256073080018e+03
-4.975445760615988547e+03
-3.141272930265185551e+03
-6.702407844996811036e+03
-6.655779790579629662e+03
-6.306420122791859285e+03
-6.328452211006922880e+03
-3.197903293539872720e+03
1.676381991077965267e+03
-9.105879009086423821e+02
-7.183916921091227778e+03
-8.163668877865729883e+03
-8.174800416753156242e+03
-8.517305851886989331e+03
-8.573262593282714079e+03
-9.185740880898943942e+03
-9.672805843828802608e+03
-7.574433840726224844e+03
-4.663601778256549551e+03
-3.493281693895852641e+03
-1.879489273431855736e+03
-5.762167739634358441e+03
-2.913222695208583445e+03
5.383846662672847287e+02
2.264726695663888677e+03
2.312913303249270484e+03
2.885991725269140716e+03
2.905902807609070351e+03
2.709562891845582726e+03
2.005083563717602146e+03
1.508574625682212172e+03
8.440669947112331784e+02
2.014768572666593229e+02
-3.711487394102214807e+02
-8.307539791698048930e+02
-1.050325360067820384e+03
-1.409852595845878568e+03
-1.674337133903559788e+03
-1.685730151491619154e+03
-1.262048919840379313e+03
-9.282302743526573749e+02
-1.391074690224246524e+02
4.914174858518162523e+02
9.674006794869038686e+02
1.507900478983172889e+03
2.274029918314949100e+03
2.370846192066801450e+03
2.376371780936133746e+03
2.171668449861861518e+03
1.847923149443327702e+03
1.231342837175807745e+03
4.000686120979718225e+02
-2.090572381797638002e+02
-8.752099056827415779e+02
-1.387054885635408027e+03
-1.634430110675320293e+03
-2.332407388967624684e+03
-2.554909214660799535e+03
-2.716927722199890013e+03
-2.186618361531406208e+03
-2.059221222268201473e+03
-1.159967100196352703e+03
-1.075835984404164378e+02
2.918173778462334766e+01
1.372550199998707512e+03
2.713867238064805861e+03
3.470222717488284161e+03
3.695467356343935080e+03
4.369720952226923146e+03
5.142504666514078053e+03
4.969201701557257365e+03
3.686984191686311078e+03
2.528903402497842762e+03
1.754785055632399462e+03
1.199525660100908226e+03
1.291320092754201596e+03
9.578813002603948235e+02
9.751724717855245217e+02
1.158259779897010958e+03
1.743044306310050843e+03
1.938549653448028039e+03
2.332816066334964489e+03
3.238906999157509290e+03
4.127860349189039880e+03
4.946707243988833397e+03
5.354508265029277936e+03
5.739285343629810086e+03
5.685046873893182237e+03
5.443750830933549878e+03
5.142387578634205056e+03
4.214922970944371627e+03
3.275349025170817185e+03
2.554680653860471921e+03
1.488858168813646444e+03
9.417911793842401948e+02
3.643635040509958571e+02
3.715333226203811705e+02
3.803264772664165889e+02
9.587170206271169945e+02
1.925558557350997262e+03
3.051868953663511093e+03
3.699653416998978628e+03
4.267808592297991709e+03
4.816342837928470544e+03
5.253254220803391945e+03
5.595514657649934634e+03
5.780089358525247007e+03
5.908845825392217193e+03
5.756723425310711718e+03
4.986642164617997878e+03
4.242556773342034830e+03
3.553363089665732787e+03
2.642937477348279117e+03
1.422162400583351427e+03
-1.648103886483763063e+03
-5.072022126915830086e+03
-9.629708546387953902e+03
-9.921250174613243871e+03
-9.599804215435347942e+03
-9.057399347697648409e+03
-8.357280681109388752e+03
-7.696470774765021815e+03
-7.375049687361128235e+03
-5.757100127585778864e+03
-2.409678514252208060e+03
2.187147137543788176e+03
4.274316303770930062e+03
4.685691374764337525e+03
3.916159940760088375e+03
3.883538567729902752e+03
2.823703685429964025e+03
1.962475145291492481e+03
6.876579986544828671e+02
-4.779210459506008988e+02
-1.338430496954963701e+03
-1.596996862183005760e+03
-2.303734820220238362e+03
-3.036788556727837658e+03
-2.762356457204397884e+03
-2.054579096692864368e+03
-1.315597179631056861e+03
-9.125478388719748182e+02
-3.635072421944729513e+02
5.055288842850553124e+02
1.236374088169921833e+03
1.545922863767676972e+03
1.416118971246640967e+03
1.228809101124639483e+03
1.006891217227519746e+03
5.272649612621194137e+02
2.227612094652944279e+02
-4.727560867005882983e+02
-9.774035618079243477e+02
-1.945339517481887242e+03
-2.818728213549080010e+03
-3.308702940421076164e+03
-3.521386305618982078e+03
-3.442853475038100441e+03
-3.430250849417025165e+03
-3.246593750709344022e+03
-2.794984965453023506e+03
-2.207555696972662645e+03
-1.262417601402980381e+03
-1.755761649026802331e+02
6.339516542998991326e+02
1.425106556109083840e+03
2.408885220196337286e+03
2.759215762300971164e+03
2.449037933607841296e+03
2.388295573098947898e+03
2.537920396299258300e+03
2.492853979631788206e+03
1.911017495465138154e+03
1.537345392973845719e+03
8.767085990356271168e+02
1.530606955347543021e+02
-1.126579321381433374e+02
-8.951646559728717989e+01
4.095761140061125047e+02
7.716759144242313369e+02
1.139650100443619976e+03
