1.235248865077858227e+03
1.475575307550774596e+03
1.475391694237731144e+03
1.151687853202624865e+03
1.267529576729551763e+03
8.919554730374640030e+02
6.539844428400181187e+02
8.576184927605352186e+02
7.729543667678035490e+02
9.560144743983764783e+02
1.296811024208180925e+03
1.330367915597578985e+03
1.335732514472540970e+03
1.440896596340142651e+03
1.595903948974829518e+03
1.624798007600913706e+03
1.475599209751346280e+03
1.137306408068390283e+03
9.759715173322267674e+02
1.106598585722532334e+03
1.006181528796333509e+03
9.837086371631778547e+02
1.183222249885236124e+03
1.025750873879503160e+03
5.953587405621900643e+02
3.310373587999358165e+02
-9.915392464433952568e+01
-5.323281915226055361e+01
3.188507786170146119e+02
4.381450949198868443e+02
5.366436391768138492e+02
8.163714752520828597e+02
7.693569415245924574e+02
1.026543645376702898e+03
8.939555806851536772e+02
3.626505175890634973e+02
6.447320092594634389e+02
4.952375317647823181e+02
3.823381906703618824e+02
8.468555422003897775e+02
6.736516913217972160e+02
3.826520634289155396e+02
2.417086246384651247e+02
2.469788210941296427e+02
1.795908187016582076e+02
-1.545037753104083151e+02
-8.930394792107614421e+01
5.192217442129194893e+00
3.896035148478810584e+01
-4.289336119243668577e+02
-3.185080473586295398e+02
-5.238204759077475501e+02
-8.609031045103205315e+02
-5.117121820837599557e+02
-1.033353555857056790e+03
-5.008780830201028948e+03
-5.023704465100163361e+03
-1.609350688470786508e+03
-1.317697066109071500e+02
1.630816304133199424e+02
1.920052159114743517e+01
2.745592570325591169e+02
3.661281732708658865e+02
1.178732619410064189e+02
1.079562500250913537e+01
3.585982314423610262e+01
4.704747626802563332e+01
-1.906651223245870312e+02
-4.122278351732007309e+02
-4.226016223959161948e+02
-5.848335732048199134e+02
-7.399591961758375191e+02
-5.539695046205947619e+02
-2.549072457697453160e+02
2.925879106538304697e+01
2.184913836352610588e+02
4.187502390936912775e+02
-1.709953207309755214e+02
-2.963814262342501479e+03
-8.946888254720749956e+02
-2.526306742546103123e+02
-3.016711714308926275e+02
-3.618469769515583039e+02
-3.441096652071237827e+02
-3.985403097056282604e+02
-3.321998328007898635e+02
-4.910898048847992641e+02
-8.982399092652973422e+02
-9.866518260647931129e+02
-9.033106482845228129e+02
-3.772917101062166694e+02
-3.686300363214144795e+02
-5.193137509015770092e+02
-4.363478252840931759e+02
-4.817473077859223736e+02
-8.375432410693413203e+02
-9.517876048341784099e+02
-5.855223431170452386e+02
-1.877311307363790149e+02
8.257381822349164224e+01
6.634777159636406907e+01
5.957549225155722183e+01
-1.627862794271890721e+02
-4.067784133012465873e+02
-4.803784297665352483e+02
-4.306296047274482248e+02
-2.315668562076253636e+02
-6.532059317358313137e+02
-1.023521297788846027e+03
-1.043596874639926909e+03
-8.173671290685741724e+02
-7.119442908370442638e+02
-1.201268900477753959e+03
-1.377188950536596167e+03
-1.286622738663653990e+03
-1.234828838515833695e+03
-1.161953748334257625e+03
-6.997424404964893938e+02
-9.117347418383508284e+01
-9.831404410243955283e+01
-1.060143402616412004e+03
-3.460671275837516532e+03
-1.689938177567750017e+03
-5.929032795431101022e+02
-2.873880064851430234e+02
-1.005895181298008936e+02
-2.030747173776670991e+02
-5.066024289594364660e+01
3.445217064895898034e+02
2.398318617611230081e+02
-1.055786960781552608e+02
-1.818323873439709359e+02
-2.999061576305162475e+02
-1.222011780265372494e+02
-7.255487249782461845e+01
7.074879832479392228e+00
-6.230793896737220194e+01
-3.808003218550264251e+02
-4.408170497953299218e+02
-2.792947003148013891e+02
7.494824860019485868e+01
-5.807874843858184732e+01
-3.612386791763607903e+02
-5.812828161418802893e+02
-5.195826099864875687e+02
-2.201295888126257410e+02
1.188072299408890586e+02
-2.762670005187176869e+01
-2.146271513801316360e+02
3.038262707114811292e+02
5.487906741544463785e+02
2.092125941070580666e+02
-8.289243034229340878e+01
4.843794628394007162e+01
1.871824493282101685e+02
1.963570772717400530e+02
2.299598876953075433e+02
2.859947573844787030e+02
8.124573076412062846e+02
7.763361307448415118e+02
8.296501746064025156e+02
6.283940111807612539e+02
4.295752787422570123e+02
3.251837599815856379e+02
5.562347156820392229e+02
5.327078190780999876e+02
4.116511004730205627e+02
3.130298580834405016e+02
1.408453016983536656e+02
-3.018830012420542062e+02
-1.471410777594455226e+02
-2.249054479324284159e+02
-1.121962446702117973e+02
5.696383602131384549e+01
2.353801693503529791e+01
1.185040094406163149e+02
3.490972107156547963e+02
4.683329797568649724e+02
5.610893146944197269e+02
1.765249273732729307e+02
3.006261586329198963e+02
2.922506840139164197e+01
-3.226786924613491578e+02
-4.500068602850147954e+02
-1.016788695335214470e+03
-5.940493243745858081e+02
-3.375074745247954411e+01
-4.984772378997323727e+01
-3.053283555168848125e+02
-1.432220577010716056e+02
-4.496637489796493128e+02
1.050565013673794645e+01
1.255260940973974897e+02
2.932223966272997018e+02
-3.804074416346757630e+02
-1.168383954024497598e+03
-1.580590529651666429e+03
-1.085055673401786862e+03
-4.357530749026435046e+02
-7.376815478741127663e+02
-3.398190301237617632e+02
-4.621719966525482732e+02
-5.966743060116159540e+02
-5.543414338955677749e+02
-2.921995444155458017e+02
-2.791757089455147138e+02
1.968621340516035900e+01
-1.135590110120822658e+02
-5.599064846462086962e+02
-3.253507283132439056e+02
-2.284049903507595758e+01
-3.013207545724137049e+02
-3.268331316573251684e+02
-4.764218497362567746e+02
-2.910340699095239643e+02
-9.265866311860844462e+01
1.969773598048647401e+01
-9.295398180887268325e+01
-4.456145847790207313e+02
-2.132204396467575691e+02
-2.707748796241153855e+02
-2.452748422787514926e+02
-5.307049786746997597e+02
-2.910490872494198129e+02
-1.393227483064814010e+02
-6.752624043970845946e+01
-3.186986929141776841e+02
-2.378164768495549879e+02
-4.068263746248998700e+02
-4.617094799424933740e+02
-3.695392031675648923e+02
-3.012615396265107393e+02
-4.284664446250234704e+01
-2.702819901701421372e+02
-4.755669188796313733e+02
-6.886562898370010544e+02
-5.224904234286466362e+02
-2.531323008807263193e+02
-4.203611840582051400e+02
-5.450100131447799185e+02
-4.522961518122591542e+02
-2.911560142588393205e+02
-6.646695447027744876e+02
-5.557218252930471181e+02
-6.823903784816537836e+02
-8.546275207390816604e+02
-6.644011510886111864e+02
-6.929964983476785392e+02
-2.745664934779726991e+02
-6.461064071897105805e+02
-9.522471312721553431e+02
-4.740046295945975316e+02
-4.584813646434682823e+02
-4.396403634263129447e+02
-1.955000526244613184e+02
-7.305139574200018160e+01
-4.603047304039002370e+02
-6.162205413688743647e+02
-5.828304171689260329e+02
-9.431472515074077592e+02
-8.551697896398026160e+02
-7.148817914348073828e+02
-7.432398209767630988e+02
-1.069195328560768530e+03
-8.567632447024064959e+02
-5.799114451249240574e+02
-3.956283192168936012e+02
-4.419339128372836285e+02
-2.448253574715771492e+02
-4.082895102683046389e+02
-4.242843885480252766e+02
-3.467708694173585968e+02
-1.346967927584303766e+02
-1.090711490553864138e+02
1.970083813612767472e+02
1.984322224130383461e+02
1.261479132754259354e+02
-1.287940344054804029e+02
-1.393789166654001122e+02
-3.776307365305723351e+02
-3.065758002223819858e+02
-2.401495525430472924e+02
-3.372712398495628463e+02
-4.688786613362539697e+02
-4.941076462908458211e+02
-3.520260835240006259e+02
-4.946125478744872339e+02
-5.779398835155586767e+02
-2.620204632775531195e+02
-4.707605709838461507e+02
-3.881345556478240724e+02
-2.850634561310114918e+02
-1.594714167344170619e+02
-2.333293842692319515e+02
-6.297418102544654630e+02
-8.767881298682473243e+02
-5.783608135095993248e+02
-6.125696845860410349e+02
-5.696013156369810986e+02
-6.223656693382885123e+02
-4.596323778620047733e+02
-3.682825007603727272e+02
-1.345074952798648269e+02
-4.336541639718240049e+02
-5.447848757975933722e+02
-3.227221470855642451e+02
-2.861178139289617661e+02
-5.881566420979849852e+01
-2.169125582176937144e+02
-2.246350361507846856e+02
-1.625952880597303420e+03
-2.907977741123170745e+03
-7.554771190331507569e+01
3.863933835383678002e+02
2.999270203161163408e+02
5.498528143969717803e+02
6.176621331806067019e+02
4.942652373155042369e+02
6.615277600423316926e+02
5.114261662311570262e+02
2.247421919770448540e+02
3.509390602256280545e+02
3.515935140776222170e+02
1.810111827701154539e+02
-4.609248778680611736e+01
2.239114989225760439e+02
2.684533558855559932e+02
5.618648067799058481e+02
7.871848056698192977e+02
5.765770060952753511e+02
1.005486840649630949e+03
1.004314490432777006e+03
1.072287091676709224e+03
1.342839945242603562e+03
1.052394038928639475e+03
8.804555646241278737e+02
1.013746757282306021e+03
1.338421204001304659e+03
1.457076263846403890e+03
1.498024446098721000e+03
1.668353479113514140e+03
1.574361821449008175e+03
1.423822277761268879e+03
1.358753701438207599e+03
1.282896145428653199e+03
1.385399107754605211e+03
1.352399944339243575e+03
1.341762661823299823e+03
1.510500062607492055e+03
1.347619689013118432e+03
1.496088686904148062e+03
1.677669316332780909e+03
1.509448735859155477e+03
1.489082280937631140e+03
1.431872529581282151e+03
1.560267340509074074e+03
1.584874492858039730e+03
1.715986932614176339e+03
1.955149523155039788e+03
2.028996417898420987e+03
2.055842127454497131e+03
2.046500439928414607e+03
1.976103988232869824e+03
2.039325628211874800e+03
2.029513846238180804e+03
1.470376931600789021e+03
1.954005935771811892e+03
1.811450558659023500e+03
1.877303758892513770e+03
2.087663786005514794e+03
1.446501183676569553e+03
-8.561238877977107222e+02
-4.379886418537136706e+03
-5.031290737646374509e+03
-4.870023060012463247e+03
-4.811119368917071370e+03
-4.818633928173769164e+03
-4.542107635936942643e+03
-4.687022127536553853e+03
-4.141480715917963607e+03
-5.703337719173642881e+02
1.960687747235379220e+03
-1.999632021486933127e+03
-3.688297092098777284e+03
-4.213791086970734796e+03
-4.400462461186168184e+03
-4.248217095674000120e+03
-3.053260476754399406e+03
-7.818161011085336440e+02
-3.386462206492687073e+03
-4.418092560910676184e+03
-4.351502656137539816e+03
-4.069331347085306788e+03
-3.674373148125164334e+03
-3.567511366564862783e+03
-3.513164599581959010e+03
-3.307902757797558934e+03
-3.087534305948388919e+03
-3.786071467540739377e+03
-3.757361030663289512e+03
-3.046412611555111198e+03
1.073506815072480322e+03
1.963226580638644236e+03
3.056869168923336929e+03
2.700616843429105757e+03
2.408686665069104038e+03
2.637450491379181130e+03
2.739261048508855311e+03
2.615103632095157536e+03
2.408536222896681920e+03
2.218704144730071221e+03
2.179824798061938054e+03
2.183880714895148685e+03
1.895956815933276857e+03
1.876950417368300805e+03
1.936016461385496086e+03
1.534203708345109590e+03
1.351594144272336507e+03
1.253406258140387990e+03
1.223850130640078760e+03
1.374411233207730220e+03
1.015808287910804779e+03
8.497602416338161220e+02
7.724466461917031666e+02
5.492562695796812022e+02
3.454578757928087498e+02
4.229937376128348774e+02
3.846472071926587546e+02
1.256002796913014237e+02
-1.447818615004895264e+02
-7.202732554376659664e+02
-2.653224666810659528e+03
-2.502510255345699534e+03
-2.816278491697874529e+02
-4.151559572862444156e+02
-5.239344002936139759e+02
-6.249468973654496722e+02
-6.191742981611492951e+02
-4.967488432727894292e+02
-2.798528793641664834e+02
-1.426457898245592730e+02
-5.176919054452511091e+02
-7.520851516348880068e+02
-5.835616062435343565e+02
-6.853502128860471885e+02
-9.512056439628751150e+02
-2.687480943163282063e+03
-3.396013420905255771e+03
-1.364238117846256728e+03
-1.435048570953263379e+03
-1.696364571418214155e+03
-2.413332407360081561e+03
-1.769943957063259631e+03
-1.473164007731917309e+03
-1.376684181245364016e+03
-1.302327639136161679e+03
-1.297925991654678000e+03
-1.495281088280469703e+03
-1.403118426805864829e+03
-1.424747531200365984e+03
-2.030414355225688951e+03
-1.906003736375078006e+03
-1.772202508888239208e+03
-1.596492877785937253e+03
-1.713825559520078514e+03
-2.211263899768678129e+03
-2.200865751814128998e+03
-2.007702878477175773e+03
-1.922671460585537261e+03
-2.008751686150348860e+03
-1.934496038310390986e+03
-1.878958002019735886e+03
-1.984444089238125116e+03
-2.242855815428617461e+03
-2.090972584214528524e+03
-1.766869441087760606e+03
-1.821713603475054242e+03
-1.595557580452155435e+03
-9.313402393249270972e+02
-4.358654712071345330e+02
-2.001887323041515288e+02
5.763672208349459680e+01
-5.053044508057657680e+01
1.162439530229169122e+02
4.088469127534269774e+02
6.722279187306795620e+02
5.271347001763863318e+02
3.346381418162047794e+02
1.610371918260295558e+02
1.882578784947302495e+02
2.002010709271530118e+02
2.144892631350446095e+02
1.559200421369962442e+02
1.234535220673630675e+02
5.728484675428243236e+02
6.360041987531674295e+02
5.439753150663937049e+02
5.150405546017186680e+02
1.752986428522749307e+01
5.508516971005965388e+02
8.411386480469758453e+02
1.289257367960090960e+03
2.084225012796033752e+03
3.034976659874418147e+03
3.268315288686952499e+03
1.030071563274186246e+03
2.768105678450555843e+03
4.128216440204516402e+03
4.236174225619724893e+03
4.571828587557311948e+03
5.058958792713751791e+03
5.413411956525632377e+03
5.397988872222817008e+03
5.636497926792830185e+03
5.931736809490132146e+03
5.748417079361325705e+03
4.970268078468561725e+03
4.535196571916605535e+03
3.870139329032911064e+03
3.653932964774171523e+03
3.525245901102099197e+03
3.393713866010038146e+03
3.597187165003387690e+03
3.712535824802581828e+03
3.498456671550221017e+03
3.281682005035783277e+03
3.653022556417740816e+03
4.724276676557270548e+03
6.703237869387098726e+03
8.876676093139372824e+03
9.945401069951551108e+03
9.834172145994363746e+03
9.241845516509863955e+03
8.957153300366975600e+03
8.880906601154229065e+03
8.720794160237250253e+03
7.733658869457404762e+03
7.017330997438755730e+03
7.390727491601674956e+03
8.542805482469570052e+03
8.581276446688174474e+03
8.132951874064248841e+03
7.720493411274296705e+03
6.185579153346514431e+03
4.336150994024066677e+03
3.035106445017499482e+03
2.163288477833906200e+03
1.831403623358090726e+03
2.037336419669392626e+03
3.729031736503919547e+03
4.025375955429817623e+03
3.366233390300789779e+03
4.959405746054004339e+03
4.877671683041837241e+03
1.967192486596256231e+03
-2.258905436984730102e+02
6.365530220053084349e+02
3.612028143887836904e+03
4.501338271527612051e+03
1.172396647266530636e+03
-3.817886503939984777e+03
-7.554618354081329926e+03
-7.732746744789053082e+03
-4.840283320528744298e+03
-2.647269576696082368e+03
-3.112836024359276053e+03
-2.196060270981528902e+03
-3.383665144511902326e+03
-6.885495036184432138e+03
-6.334828105759349455e+03
4.183339561953023349e+02
5.170057689435343491e+03
3.167410503778261955e+03
-8.316381478286901938e+02
-7.160026579242444313e+03
-1.553971073386011085e+04
-1.498060357811695212e+04
-6.934587028965739592e+03
-2.158557010569566955e+03
-5.771422704057333249e+03
-1.458006636399829040e+04
-1.639939126678293542e+04
-1.178529665315569218e+04
-5.906567963409258937e+02
2.746482626485965284e+02
-1.003414999343008640e+04
-1.617377220113055955e+04
-1.771799622773279043e+04
-1.594374062426066666e+04
-6.612030676604076689e+03
-3.424661943010164123e+03
-9.036312300674226208e+03
-1.439173469415510590e+04
-1.978777671811191976e+04
-1.816525275004298237e+04
-1.090790503010074644e+04
5.524893862676375420e+02
5.715186419272070452e+03
-4.867557818919850433e+03
-1.800949379273463637e+04
-2.399133547901476049e+04
-1.392582808497136648e+04
2.060273803910347851e+03
7.417216139456011661e+03
3.029190551390181696e+01
-8.982227476986105103e+03
-5.486022954289133850e+03
-3.921851190236828643e+03
-3.234202808782074499e+02
1.746078576871769030e+02
-8.226473244544273257e+03
-1.176438969352776985e+04
-6.818824459443372689e+03
4.312520464158351388e+03
1.279689850080913857e+04
1.891863571963696813e+04
1.743502743385009671e+04
1.364841059138413584e+04
1.152607244422826261e+04
4.782317494230161174e+03
9.944672355970315039e+02
7.042804241154974079e+03
1.720564590828711880e+04
1.731308321891722881e+04
1.192555223790410309e+04
6.133612697122634927e+03
-1.153573309349818601e+03
-9.117487785411807636e+03
-1.444663503667913028e+04
-1.380976051974842449e+04
-7.620789284143331315e+03
4.454646498168370385e+02
9.773174781490886744e+03
1.293852041833256408e+04
8.014790789465859234e+03
4.972288335112761160e+03
3.010188576649084553e+03
3.806500031261516142e+03
1.607502022091020763e+03
-1.674115528657034474e+03
1.910672910437182281e+03
1.672480692514359816e+03
2.071263998753907345e+03
-9.978691976073416754e+02
-8.333846675317952759e+03
-1.208760404143976120e+04
-1.549058342053377055e+04
-1.750872521546727512e+04
-1.528194788185131983e+04
-1.006810602453156207e+04
-2.442066106349014262e+03
1.002312837350431550e+03
-3.237923443012472035e+03
-6.254662580687224363e+03
3.247230806307598414e+03
1.700798708229471958e+04
1.942150084763462291e+04
1.830906453716197211e+04
1.399539240926851016e+04
9.583654032001591986e+03
5.172870098990199949e+03
1.633154635300500786e+03
2.419426725778391756e+03
7.467616061809538223e+03
1.213577467111634724e+04
1.061287803352439005e+04
1.018072946010875785e+04
1.178356917215997964e+04
1.235235370100136788e+04
1.321789589000586056e+04
1.165907119462609080e+04
1.129978507699644069e+04
9.680901676686184146e+03
7.541315997555843751e+03
6.273893436945746544e+03
6.236453576998543213e+03
1.198381949617164901e+04
1.426381698807105204e+04
1.134134861963169351e+04
8.539245517346653287e+03
9.077372057115784628e+03
1.205656906685032664e+04
1.309965990644324120e+04
1.029737119938077740e+04
7.446546445588247479e+03
7.691020503662860392e+03
9.777522148808942802e+03
5.388875276985103483e+03
-5.598391969354872089e+01
-1.301494252630616302e+03
1.436937167388228318e+03
5.592213873031418188e+03
8.896058084569538551e+03
1.230204879724737111e+04
1.259714847745912448e+04
8.384050134840035753e+03
-1.028463636146118915e+03
-9.264781218023110341e+03
-7.305165907009205512e+03
-2.349887341176437531e+03
-1.635301319817164085e+03
8.732963088839246666e+02
-2.329315957901783804e+03
-6.365344225203638416e+03
-4.054218791424836581e+03
-1.436487614581569687e+03
1.658673753067687358e+03
9.219554397649844759e+02
-1.797929297310101902e+03
-6.078404886123729739e+03
-7.523769806992416306e+03
-7.900360351198614808e+03
-8.364447190490460343e+03
-6.588330603518599673e+03
-2.070370126885731679e+03
-2.045923390948183851e+03
-6.644302552617222318e+03
-1.178879447256663661e+04
-1.523775797798831627e+04
-1.277951839677308635e+04
-1.033034164822631647e+04
-9.451496190749176094e+03
-9.258263979444494908e+03
-1.068797265547077586e+04
-1.239794677498574310e+04
-1.474644844898084557e+04
-1.193676306190718606e+04
-9.165233608097563774e+03
-1.041513089261783171e+04
-1.095876391350235281e+04
-8.898366248621961859e+03
-7.813219497406132177e+03
-8.268547246871899915e+03
-9.915547280599181249e+03
-1.095951536199997463e+04
-9.622742545064545993e+03
-7.813466742996183712e+03
-5.891903497404910013e+03
-5.043304231716811046e+03
-4.719847655630333065e+03
-4.931730454882196682e+03
-5.486187722622052206e+03
-8.997457792168665037e+03
-1.143264483419726821e+04
-9.186888247537694042e+03
-5.985388915873443693e+03
-2.619371571314984976e+03
-2.537029076550583795e+03
-4.084560990174878498e+03
-4.769118379464897771e+03
-7.481538843802231895e+03
-1.136798908858683717e+04
-1.393656504201372081e+04
-1.115228624413627949e+04
-6.422176146991001815e+02
5.676744110745832586e+03
3.728403119957637045e+03
1.151416438705517521e+03
2.157397387468903673e+02
7.872901810592964011e+02
7.898009573273794786e+02
1.330459085264418491e+03
1.599528083448216194e+03
1.544602913269799728e+03
1.664604081557269637e+03
1.853621102024445236e+03
1.611669083059925470e+03
2.153706613307207590e+03
2.697737561754587205e+03
2.861818441712575805e+03
3.228969477800864752e+03
2.641261127251548260e+03
3.977488135314994224e+02
-3.784399130087055028e+02
8.477624817222339288e+02
2.963452261979751711e+03
3.563718883253636250e+03
2.726683147690650003e+03
2.749354528723973090e+03
4.009743567995582453e+03
4.121910312498583153e+03
3.814044040875090104e+03
3.402240274515602778e+03
3.216563191089619522e+03
3.218053545604214378e+03
3.182716485164358346e+03
3.292613793323154823e+03
3.377011884067498613e+03
4.161076860396410666e+03
4.202987978059277339e+03
4.251913035131096876e+03
2.960964874550069453e+03
1.616301906176480315e+03
5.921961141796399488e+02
9.008122715049395310e+02
3.287207549635785199e+03
4.823446191645562067e+03
6.862783779235589463e+03
7.400402540742381461e+03
5.618488225326100292e+03
5.001300562119765345e+03
5.628085698895481073e+03
5.909003348890824782e+03
4.540227326846362303e+03
3.297847060277925721e+03
3.024982477678861869e+03
2.771673684276081531e+03
1.899175652261836149e+03
-2.942534907727667814e+02
-4.107620634101096584e+03
-5.471643987558223671e+03
-3.615909127619345782e+03
1.988783419745120909e+03
3.518312053299063791e+03
3.749671631910932774e+03
4.060095732606494039e+03
3.475148602760434187e+03
2.120146239910274289e+03
2.240221405810643319e+03
2.639277063923837886e+03
3.272174959784156272e+03
2.073045212424969577e+03
-2.857397086209073223e+02
-1.009183915579693689e+03
2.497077121021123602e+01
2.057119880429099794e+03
2.150138547039652622e+03
2.244577507401178991e+03
3.211614571747443279e+03
3.164869436453005164e+03
2.963707449541149799e+03
2.737500026233300105e+03
2.276594899950046056e+03
1.973468175372291398e+03
2.211534949607930685e+03
2.253986526753939870e+03
2.215536935421659109e+03
1.730807253973208844e+03
1.298438704817850976e+03
3.809733964945195908e+02
-8.381936802846579440e+02
-1.266316997400814898e+03
-5.753734124615793917e+02
1.886551455310223901e+03
3.271225084993462588e+03
2.082425915356314817e+03
1.015517923311900859e+03
7.998550635048934510e+02
1.192169458385984854e+03
1.154618238301116662e+03
8.913730883987344669e+02
8.398665530168206033e+02
5.556134995037258477e+02
6.091278533996265878e+02
5.447575373413284296e+02
3.388071653075248264e+02
5.777186004027342960e+02
7.591474492519273554e+02
8.967816703287830933e+02
5.609167141570615058e+02
4.051590588728466287e+02
3.175376518967996731e+02
3.563609724181249589e+02
1.226851733521170758e+02
-6.338155548907757009e+01
-3.708041112622026958e+01
1.127823028173737470e+02
-9.302308463558655660e+01
1.262249355777504718e+02
2.728764045027105567e+02
-1.127474103238715912e+02
-9.764109838407915731e+01
-3.497733343434500171e+02
-2.335629649371995527e+02
-3.717946078087387036e+02
-6.245698737351872296e+02
-5.284794515911919461e+02
-7.676151740331843030e+02
-1.553792057215265459e+03
-4.480541350478844834e+03
-6.934199417091376745e+03
-6.017287582142178508e+03
-6.572646436956139951e+03
-4.981001667431867645e+03
-2.163141010097823255e+03
-1.156179046343989057e+03
-1.085563933214341859e+02
9.091943238334753232e+02
8.347571682366188952e+02
-4.891563888955832340e+02
-1.305197633425370668e+03
-2.019718272400511751e+03
-3.078761935136368720e+03
-3.728491731367501870e+03
-4.146985657305077439e+03
-5.526018583250036500e+03
-8.437473941500054934e+03
-5.278784089143843630e+03
-4.526754683790948548e+03
-4.434476214049129339e+03
-4.591637056190967087e+03
-4.715814871695929469e+03
-4.808200294509477317e+03
-5.175711371820033492e+03
-5.578391181344210963e+03
-5.765571702424714204e+03
-5.782577376591843858e+03
-5.819725793155728752e+03
-6.934787084581947965e+03
-8.082140706416988905e+03
-8.925778384096243826e+03
-9.039733906017725531e+03
-1.116157199011690500e+04
-9.698565101733584015e+03
-8.209414049900000464e+03
-7.419716369031853901e+03
-6.102303073525292348e+03
-4.650098109482501968e+03
-4.211069756701684128e+03
-4.160451532778156434e+03
-3.333623897312753343e+03
-2.635592685800923846e+03
-4.378844630915382368e+03
-2.576443015289311916e+03
-4.497824511424648897e+00
1.521113339619128965e+03
2.352397318132670534e+03
3.527615368296592806e+03
4.531781685541392108e+03
5.248071629371353083e+03
6.052606926192477658e+03
6.336384581217455889e+03
6.143378160214938362e+03
5.673166496626154185e+03
5.270013238075101071e+03
4.791403560310330249e+03
4.762453613039720949e+03
4.822975588973518825e+03
5.042845566267708818e+03
4.512270638144573240e+03
4.422597414127384582e+03
4.726958029733232252e+03
4.297212688337536747e+03
4.045268148581767946e+03
4.338762556198473249e+03
3.979931298502920072e+03
3.955492359944388227e+03
3.913213489359136474e+03
3.637311496510466895e+03
1.003626595719801799e+03
1.180103028061560053e+03
1.154070125685123912e+03
2.276984011959600593e+03
2.244434844283769507e+03
2.037566054826306527e+03
2.267723295033729755e+03
2.236572603292723215e+03
2.051402021742135275e+03
2.873508229730952280e+03
3.538301064094451249e+03
3.541834700615864222e+03
3.524668448336524307e+03
3.535809569561872195e+03
3.469204656940957193e+03
3.262158163055207751e+03
3.078943432212128300e+03
2.986778441402420867e+03
2.538588253406403055e+03
2.766321684281642320e+03
3.364036558979639722e+03
3.366614928371430778e+03
3.186852017833567515e+03
2.985077336344148080e+03
2.456711320214360967e+03
1.942933763325653445e+03
1.188724140424463485e+03
1.001492555069546825e+03
1.047456443125671285e+03
9.498502748907518480e+02
9.826388491882950120e+02
9.078640686542166804e+02
1.234754048070619092e+03
1.564484184926219768e+03
1.358523963727584942e+03
1.266769468839660931e+03
4.905611757304332059e+02
-1.821695336170941459e+02
-8.296362423157003150e+02
-8.597929934461878929e+02
-4.585309427175219525e+02
-2.897529756273405042e+02
-1.584398401159813545e+02
-4.779658503971121775e+01
9.406746304893162858e+01
-7.088258261814210925e+01
-1.655779401948550174e+02
1.819538392292228650e+02
3.177486532731982720e+02
-1.481313709645169752e+02
-3.145767438222568302e+01
5.557252942394690081e+02
8.050534259855666050e+02
3.873708639742718560e+02
-7.724606302577253700e+02
-3.112223952182136145e+03
-6.510817256379800710e+03
-6.681326640147886792e+03
-7.042580521527659585e+03
-7.716326009214965779e+03
-7.608679983348146379e+03
-7.038115975229888136e+03
-4.159428666580020945e+03
-9.855016932169335178e+02
-1.056763414715061572e+03
-6.071272386255490119e+02
1.232643377156603606e+02
-1.776754408231795878e+03
-1.611161688246087806e+03
-2.430418535251175172e+02
3.445817042747137862e+02
1.486868016952072082e+02
5.220634916013838023e+01
4.131165190666903868e+02
3.884277301796795996e+02
9.102659183213179972e+01
-2.471489569104613224e+02
-5.871156386230147746e+02
-4.749203338120985336e+02
-7.825299166680108556e+02
-9.678340238163888216e+02
-9.359129425130125810e+02
-9.299880212687454559e+02
-3.312113242670102977e+02
1.088447790070143583e+03
1.761097396422416068e+03
1.835642012161612911e+03
1.329914857951513795e+03
1.557943938136587803e+03
1.604752964862051158e+03
1.648306328671937536e+03
1.591549493718087888e+03
1.282444025112436066e+03
7.459739620800291959e+02
1.228069541994690553e+03
1.050691301597614938e+03
7.027392001116780875e+02
7.942458389430684065e+02
5.621623546058234524e+02
2.195657291515572922e+02
3.794500058921042864e+02
7.558138462902589936e+02
9.435170113523632835e+02
8.833628010157671042e+02
1.069328386844628540e+03
9.422833899227737220e+02
9.743167295296218526e+02
7.976051468086819796e+02
8.560201872139700754e+02
9.744333012071258509e+02
1.397895313863440833e+03
1.250493591814788488e+03
9.742260091968292954e+02
7.450299010816910368e+02
4.488091931421737399e+02
2.637236442795389166e+02
2.008936543475333565e+02
1.444214040339357155e+02
6.408851560950759563e+01
5.706526044705984759e+02
3.937167926119316235e+02
7.735588023291894615e+02
5.932473542119805643e+02
1.190823652034602219e+03
1.234289844724866725e+03
1.210693241811703047e+03
1.149891086453259732e+03
9.198520983812536542e+02
4.845501795098361981e+02
6.291010865917124875e+02
4.536119429749018082e+02
-3.390229259427683814e+02
-7.639411161970800777e+02
-7.532471961599476344e+02
-8.988286187582483535e+02
-7.627048960879317292e+02
-5.029371337621231532e+02
3.625237469315902672e+02
1.159694354826301833e+03
1.284568301488252473e+03
1.443174392302803881e+03
1.629513437400862813e+03
1.609537560158710221e+03
1.415272142671630263e+03
1.306729243604670273e+03
1.216930451450791907e+03
1.162858529259568513e+03
1.146568259939712561e+03
1.124131530779606692e+03
1.005494206955413460e+03
1.061578382949955540e+03
1.104210364422091516e+03
1.099426039113957586e+03
1.468420674870216544e+03
1.420185723687081918e+03
1.123671983131734351e+03
1.197843414796546995e+03
1.760736267886144560e+03
1.294392744860415405e+03
1.075789038217925281e+03
1.001916393874743335e+03
1.018755118428989022e+03
1.097336154289396518e+03
9.866969720601803147e+02
1.016801952753562432e+03
7.476309056352745301e+02
7.381604229934386012e+02
6.324819508653865796e+02
6.515648000595356280e+02
8.543884939742821416e+02
7.699271841900200570e+02
8.951965917891483286e+02
7.101951386231029346e+02
4.869153461144914559e+02
2.743295294225695216e+02
-1.535107925561097773e+02
-1.176252868292188651e+02
-3.350075250254358821e+02
-4.496294296712511027e+02
-5.445460757821376774e+02
-6.173945773275428905e+01
3.677720393954708697e+02
5.389940746105057769e+02
2.849487529818119356e+02
5.765822471463774264e+02
7.679212091897846904e+02
5.270390738351771915e+02
1.290558483267630550e+02
-3.450446597451708044e+02
-6.535195197835315639e+02
-5.444348330183672715e+02
-1.397416449166219650e+02
-1.642870388088950406e+01
9.651222414770906255e+01
1.031635142710683795e+02
2.629032827521666960e+01
-6.309823479659942080e+01
-1.088743301500070260e+02
-9.107016999666956281e+01
3.083138935272770595e+02
-1.026691054604522151e+03
-8.541899847105465824e+02
-9.062099692292752025e+02
-1.281646257229999719e+03
-1.763219710857708833e+02
2.652306551834427069e+02
2.510911420965760215e+02
4.212104032024824392e+02
3.789296931175760506e+02
-5.697860286992153078e+01
-7.857180200753022348e+01
4.917297362025920648e+01
2.362208974506704919e+02
2.265067800594794392e+02
1.540117298926259934e+02
1.626803151803376579e+02
1.695859220811512387e+02
3.747438484074249345e+02
4.861419194218101438e+02
3.677017016135779386e+02
-9.050328339977478720e+01
-6.657688618023142908e+02
-5.431417155162159816e+02
1.023814956013764146e+02
1.617248816631466184e+02
-5.819630487343241754e+01
1.956829997334840527e+02
9.136841379496448212e+01
2.495882902067942837e+02
6.876019885733088586e+02
5.355765656734353115e+02
4.590562263376436363e+02
5.038831132417625440e+02
3.821108983489074831e+02
3.237063268119152326e+02
6.585984897912497900e+02
1.037770805329767654e+03
1.253208169252433436e+03
1.061850149535091077e+03
7.147298620453254898e+02
6.048595677953336462e+02
5.912558745903943418e+02
6.308860816034214167e+02
6.307689907986488151e+02
3.158671161934097995e+02
3.641645668317964919e+02
7.946476374035913750e+02
6.953707547940603035e+02
5.163129079589745061e+02
3.004025884423193702e+02
2.667977140736129016e+01
