-2.562740305155291480e+03
-1.994510486619732774e+03
-7.726054241267839018e+01
3.125037657291219602e+03
1.770453041695082675e+03
-1.207021581547041478e+03
9.295742819259902490e+02
1.113143664381360850e+03
-9.423148633810175170e+02
1.688324691283755556e+03
3.970102996134431578e+03
3.700933411952548340e+03
2.440831615053318728e+03
1.446908174777891873e+03
5.362203569941585783e+02
-2.082885091854213897e+02
-4.137571223796652475e+02
-3.992308797075615985e+02
-2.846631034527545125e+02
6.220913226404791203e+02
2.276111547565039018e+03
3.780401519937024204e+03
4.168013517704633159e+03
4.242018064618126118e+03
3.870440759535453708e+03
3.380391833955938182e+03
2.584897478870915165e+03
2.032070046645070761e+03
2.397853983887872346e+03
2.270298063400070987e+03
1.946474178020607951e+03
1.246404117603678742e+03
9.207896763280344032e+01
-1.514969486449887199e+02
-6.453314872823094674e+02
-1.118358120031805811e+03
-1.124725581441190116e+03
-1.736548133635268414e+03
-1.310890329037581523e+03
-1.764435450293902079e+02
1.143939735798353240e+03
1.818202705212571345e+03
1.951507547057775810e+03
2.192797389318027854e+03
1.794375562275967241e+03
1.654193561672691203e+03
1.482212497470754670e+03
1.270115590344669499e+03
1.302291613572156848e+03
8.147789649539523680e+02
6.124433481766138812e+02
7.351462064244573185e+02
-1.442015122497520281e+02
-1.230174502865877230e+03
-1.807790391339089638e+03
-1.819516306358471184e+03
-2.234311408865627072e+03
-1.989353413322529832e+03
-8.127698186855759559e+02
4.892162398720564624e+02
1.131478842864658873e+03
1.798742033018158281e+03
1.473939162418731030e+03
1.360252756623282039e+03
1.929617886140622204e+03
2.615038500368996210e+03
3.336532199729606873e+03
3.447118183544881049e+03
3.327853464170284951e+03
2.863805907915240823e+03
2.255967224460415309e+03
1.944304402922181453e+03
7.798733195548794583e+02
-9.328859912534228727e+01
-1.382690146875456492e+02
-1.550982551689534148e+02
-2.378297616825635430e+02
-1.605023803694903961e+02
2.549109369535030964e+02
1.282481506739899260e+03
2.178321778406525937e+03
3.003506392919958671e+03
3.521016100367543004e+03
4.036891219115029344e+03
3.138195697265321087e+03
2.573943934127379634e+03
2.685089536576344926e+03
2.597525544365379119e+03
2.368332209550091193e+03
2.598584189753652936e+03
2.122325016072476501e+03
-6.574896870918656759e+02
-5.212911814791584220e+03
-7.622907464352011630e+03
-7.985448596354732217e+03
-7.857611853103031535e+03
-7.822491635468798449e+03
-7.344192288112757524e+03
-6.772638238812989584e+03
-5.971750784314188422e+03
-2.221482528634790015e+03
2.223146374099897912e+03
1.622202386338597989e+03
-1.729299670585292915e+03
-3.664379883366212198e+03
-4.102986420964591161e+03
-3.697187450850621644e+03
-3.407021687628773634e+03
-1.637387839144277905e+03
-1.185263577527705820e+03
-2.934699992534149260e+03
-4.059683127678873007e+03
-2.528189778385914906e+03
-9.472848267088602370e+02
-6.010256498476147726e+02
-5.924073944756602259e+02
-8.615427365532226531e+02
-5.465369478959757998e+02
-3.313651150727934578e+02
1.721155663729896617e+02
1.145950921631926803e+03
2.142132987439546014e+03
2.528726642949294273e+03
3.096727918543610940e+03
2.833097351465265092e+03
2.206800691985228241e+03
2.104914998658707191e+03
2.349331435942554435e+03
3.322039961186610981e+03
3.662125877545366620e+03
3.777546510864221545e+03
3.246376960632030659e+03
1.820669261675150210e+03
5.904161419900377723e+02
-1.294574946419030539e+02
-9.040470435496529262e+02
-1.391454199631911933e+03
-8.157460876074666203e+02
-6.229345073956168335e+02
-6.119831493166855125e+02
3.830948132016973204e+02
1.759447247142214565e+03
2.321070673980263109e+03
1.916877994926690690e+03
1.282854699102484346e+03
1.093946544344971699e+03
8.321750790860509142e+02
1.372550209778596354e+03
1.286066155042449282e+03
1.099754998354181907e+03
7.456381534730155636e+02
7.674103940012331293e+01
-7.290223514716234376e+02
-1.689661868559968980e+03
-2.777149178814358947e+03
-3.440546131120303016e+03
-4.505872938023362622e+03
-4.690143281201791979e+03
-3.065155844977623019e+03
-9.979008764921362626e+02
7.746604627365626357e+02
1.634589403050220199e+03
1.782860613150697418e+03
2.384440293369795199e+03
3.244298911857671555e+03
2.995411751873048615e+03
2.088772053270294236e+03
1.835115608783276002e+03
1.374440032373585836e+03
1.014828819651037406e+03
-1.027671158274500613e+03
5.659304545256103438e+02
1.001706433123632223e+03
2.806730762753388717e+02
-9.882753303627843025e+02
-1.171244104824234682e+03
-1.050251711986563578e+03
-1.310366939548346409e+03
-1.263631633948366243e+03
-5.439649802204611433e+02
3.677217456014031995e+02
1.659489879835933834e+03
1.845315244988019458e+03
1.143203064732868143e+03
2.961263841361960090e+02
2.580481081203280951e+02
3.540277604819110593e+02
2.361249337546635161e+02
1.841283737776816736e+02
9.919456347447422786e+02
1.442638187240662546e+03
1.236137569096448033e+03
4.052300029025271044e+01
-1.039162607831326795e+03
-1.850945419863713369e+03
-2.070823593767530383e+03
-1.973886828617842411e+03
-1.920229412903987395e+03
-1.600849077361415766e+03
-1.262617794562267818e+03
-1.875041588386629030e+02
4.265495797212117282e+02
6.735061292889856759e+02
4.763822775274851438e+02
1.522262917401833704e+02
-1.691262011085452954e+01
3.918718826659023193e+02
8.525917067012798043e+02
8.082002713051704177e+02
6.787038877311183569e+02
1.811119179734983163e+03
2.124504648912336961e+03
1.148824660046256213e+03
4.530743672975793288e+02
-5.278149615359193376e+02
-1.742866104587163136e+03
-2.381141046021038164e+03
-2.551686689698599366e+03
-1.871405065982840824e+03
-1.360344873023591845e+03
-7.414394359867277444e+02
2.893535390121801356e+02
8.481046408799085157e+02
9.008439461895102340e+02
8.414650169762873020e+02
6.269256213180066197e+02
9.034565162660359761e+01
4.839824347001991782e+02
5.339030151912749034e+02
7.629754624835220511e+02
2.801395664474248406e+02
3.455076175251826385e+02
-1.348589735930420375e+02
-1.679176560009323566e+03
-1.513598539886421122e+03
-4.378853004613289386e+02
-3.094621403792600631e+02
-7.631572542526153029e+02
-4.029974284755696772e+02
-6.671905627939571559e+01
7.063955174936900221e+02
1.672621205882640879e+03
1.686880028017655377e+03
1.743334640817993659e+03
2.005801303880626847e+03
1.442286534140443564e+03
8.045276774224506653e+02
8.896545594156985999e+02
1.102038857676164298e+03
1.340467904020594460e+03
1.439141539443209467e+03
2.076791310954958590e+03
1.296353310834646436e+03
-1.961770915038746921e+02
-1.605710325613559462e+03
-2.833519438109156908e+03
-3.761604076977446312e+03
-3.588880660759863531e+03
-2.724364572835741455e+03
-1.805108528189374738e+03
-2.989669542522054826e+02
1.473014427410768803e+03
2.632082510025935790e+03
2.571850849462149199e+03
2.080403241063687801e+03
2.197973059182556426e+03
2.269178808000203389e+03
1.553886714975436917e+03
6.773225210087749701e+02
4.715165036740429514e+02
1.187370853545038472e+03
1.817929027229238045e+03
1.253217103833343799e+03
1.061865324820866761e+02
-8.861459134525564423e+02
-1.406766646648242386e+03
-1.122751609976543023e+03
-9.193319746958525229e+02
-9.125779809790332138e+02
-2.134221016951127865e+02
4.741548767966378364e+02
1.110241398913521607e+03
1.111954856078575176e+03
7.013656108509875367e+02
7.264917048968728750e+02
2.514161139759233663e+02
5.584401180771864119e+02
1.039629614550171254e+03
1.289858140296812508e+03
1.360995855320669534e+03
1.387777095725918343e+03
2.261199539847165397e+03
2.012395002372650652e+03
4.463446813798445874e+02
-2.518904803704301685e+03
-3.894245413007080515e+03
-4.193922916744046233e+03
-3.335129739977382542e+03
-2.902844881901437475e+03
-5.551994960946028186e+03
-3.251640529700363459e+03
-5.886305217115342430e+02
1.997207980233695253e+03
-3.470149528714449616e+02
3.466362378316377999e+02
-5.468645832997250409e+02
-3.197487695353820527e+03
-2.024240993751430551e+03
-7.951361537361437968e+02
1.664920082130816354e+03
2.994895716076766348e+03
1.478805791442111058e+03
1.050630167593864144e+03
-1.928578329240131325e+03
-5.349835773695321222e+03
-2.037247254523764923e+03
-2.940887341786592060e+03
-3.131783451245928063e+03
-2.670822720953508451e+03
-5.367775494650836663e+02
6.372957497982138193e+02
7.834340342203936416e+02
1.091775016809821409e+03
1.597344835653395194e+03
2.415056072798200148e+03
3.150897240713452902e+03
3.515068572697364743e+03
3.213530769358273574e+03
3.183963379929476105e+03
3.765465005678061971e+03
3.669286571965520125e+03
3.361507658111507226e+03
2.591169134431074781e+03
1.045255884823108090e+03
-2.462635028477194794e+02
-1.441331768130388809e+03
-2.092062944938648343e+03
-2.170587332892748236e+03
-2.542043004890595057e+03
-2.538271641972517045e+03
-1.390079699974707637e+03
1.426684870139541488e+02
1.162855652366135018e+03
9.913955111351335745e+02
6.247057921284774693e+02
5.432983759979267688e+02
1.000108671504274412e+03
1.445974523562350669e+03
1.232301910356225562e+03
1.322429556506331210e+03
1.590014779469543782e+03
1.431656877829750101e+03
1.087155414504366945e+03
-3.114524791234709937e+02
-9.325105335728366072e+02
-1.291124035026648471e+03
-1.635435910265131042e+03
-2.009628957549045708e+03
-2.511624629394802469e+03
-2.137949026452651651e+03
-1.387643945746774989e+03
-1.969381911427668115e+02
2.153234064597739632e+02
2.370401495719457046e+02
1.081245092948980300e+03
1.635981333056769017e+03
1.320364173983840828e+03
1.059520116433824342e+03
1.594693358050764118e+03
1.717773338361854940e+03
1.578573694548638741e+03
1.673342740218939753e+03
9.694426704869110836e+02
-4.762113532505388775e+02
-1.523918959366700847e+03
-1.804986500826627662e+03
-2.222494341326667382e+03
-2.701630845964436958e+03
-2.314712008053228146e+03
-1.640838524060036434e+03
-1.191153787669296889e+03
-1.187036488040456106e+03
-6.278565363884594319e+01
1.597847757576576555e+02
-3.775339415638528635e+02
-6.059218922688710336e+02
-1.253463948155158050e+03
-1.062920475300004227e+03
-1.728503075301796343e+02
8.670283539162952593e+02
1.293839497235575664e+03
1.262663655479954969e+03
1.330638399789794221e+03
1.020639293671941005e+03
7.416249425299732820e+02
-7.149156021222176527e+00
-1.102617858828073850e+03
-4.840999467144703772e+02
5.440178844867380121e+02
8.946018603717936912e+02
1.151729915095490014e+03
1.126514688732130708e+03
1.759918608908724536e+03
2.424092561958253100e+03
2.667214488759775577e+03
2.594489588388953962e+03
2.621810334746392527e+03
2.731082673965775939e+03
2.608787076472588979e+03
2.390393078995180986e+03
2.267506800571452459e+03
1.559588662080100903e+03
-4.037750607279655242e+02
-3.487510874749787035e+03
-5.624773897777074126e+03
-6.568898267367851076e+03
-6.878976352724753269e+03
-7.477841401835270517e+03
-7.660122180591102733e+03
-5.343727726664556030e+03
-9.040494141540958708e+02
4.468162580818414540e+02
1.084990613918544796e+03
1.549305860100410428e+03
1.653771546289339540e+03
1.256550564297901701e+03
1.157548595503126307e+03
1.171844579555564451e+03
1.970268207828353525e+03
2.697001016491306018e+03
3.048997625920816517e+03
2.740314887875554177e+03
2.641124067930757974e+03
2.004401763952433384e+03
9.639418034703116973e+02
3.696768894801673468e+02
-5.152473536735319612e+02
-9.146853214149608675e+02
-9.579646510890439686e+02
-9.605878415733432973e+01
5.992196123972830719e+02
1.077741523805126917e+03
2.060210718762983561e+03
2.970397209219491742e+03
2.696199706352613703e+03
2.123598137030674934e+03
2.443560376804904990e+03
2.827192950023559206e+03
3.132556241659455281e+03
3.158843972857145218e+03
2.881386740552328320e+03
2.965291667025196602e+03
2.543466116514612168e+03
1.484953680269451070e+03
5.982644131518566866e+01
-4.219681076548486089e+02
-1.032663372783738396e+03
-1.038580112218979593e+03
-1.307907768206402579e+03
-1.248692143573637850e+03
-7.927849715023943418e+02
5.929277753413178971e+02
1.705474873208573626e+03
2.639939573805308100e+03
2.993441841448698142e+03
2.685094693621568240e+03
2.196072626373619642e+03
2.422235013134867586e+03
2.435466005489770396e+03
2.509792882898608241e+03
2.053276763217116240e+03
1.292062393685655934e+03
1.732150288633908133e+02
-1.207220593561101850e+03
-1.809245612069721801e+03
-2.921947840509249090e+03
-3.952370491578366455e+03
-4.516516369047016269e+03
-4.374242364204788828e+03
-4.370684876490442548e+03
-5.580751368471815113e+03
-7.641345491429251524e+03
-8.408408392233161067e+03
-6.181847059785372039e+03
-2.697614851476176682e+03
-2.406318580159109786e+02
-2.596654174500098833e+01
1.430448783904621678e+03
2.441586161531396556e+03
8.115640666534185357e+02
-9.115294687331479508e+02
1.009120789742602824e+03
-1.855554633202630839e+03
-2.564409528077885625e+03
-4.255457260880943068e+03
-2.814825852970233882e+03
-5.621442309711306734e+03
-5.937127803554242746e+03
-6.590867197895913705e+03
-4.616542332846584031e+03
-4.372048913164364421e+03
-3.424341087446810434e+03
-3.439293978747660276e+03
-3.650776446511627455e+03
-2.268754639700849111e+03
-3.009302135478449600e+03
-1.166269299838718609e+02
3.710578025004677727e+01
-4.181572097212097106e+02
-9.261806352720501536e+02
-2.407961032964778951e+02
-2.385945505924711142e+03
-4.016479903580133850e+03
-4.429320340057895919e+03
-5.649438277116763857e+03
-6.042888836212889146e+03
-2.106760905032664596e+03
-2.588169915744023001e+03
-2.049168156496294159e+03
-1.253830206245239197e+03
-8.210145363430586940e+02
3.884208587252413167e+02
1.864489929838068520e+03
2.210222915999822362e+03
3.414724460233047012e+03
4.103080160377223365e+03
3.565296261147947462e+03
3.364339398693446128e+03
3.479295016603660315e+03
3.438173149465700135e+03
3.906990992690897201e+03
4.902767574317517756e+03
6.192520376822797516e+03
5.741263042785336438e+03
4.438050682008846707e+03
2.727989356113570466e+03
4.510348511321319620e+02
-1.833878185618202906e+03
-3.431768832329322322e+03
-5.126643858428306885e+03
-7.115544068933309973e+03
-7.584442757856872959e+03
-4.402103077568224762e+03
3.135187793397340670e+02
3.918450512994982091e+03
5.837735764086399286e+03
5.203296524945372767e+03
3.897019994101570774e+03
3.968789733487064495e+03
4.190670238765078466e+03
4.318785581406937126e+03
7.196242398272225728e+03
8.312001014858631606e+03
7.446004481002189095e+03
6.105260900315271101e+03
4.836705355903729469e+03
2.336257194369253284e+03
3.947966211637788092e+02
4.644478638063848166e+02
1.922112193023246164e+03
2.589049881996416843e+03
3.151870809756904237e+03
3.483689019485693279e+03
3.848697636391666492e+03
4.338654003703387389e+03
4.913433995161103667e+03
4.477532507358971998e+03
4.291025719735255734e+03
4.137257087215888532e+03
4.010990960553620880e+03
4.160529766680073408e+03
3.900106353918227342e+03
2.770985083182346443e+03
1.963615717266583545e+02
-1.521683388371293631e+03
-1.762092281269673322e+03
-3.023188921653254511e+03
-3.565195838395944520e+03
-2.214254038354708428e+03
-1.134227829038242135e+02
4.572351690542672600e+02
4.706375916479448733e+02
2.678752800451682560e+03
4.374536521260214613e+03
1.777104498328996442e+03
-1.633560617013824185e+03
-2.630594371089243850e+03
-2.230004164755192505e+03
-1.364860903329215944e+03
-8.282101621951190964e+02
-6.790256115115219018e+02
5.655865320645182237e+02
1.168642741710350720e+03
-9.194021306134511917e+01
-3.876222174324127081e+03
-6.921235723174496343e+03
-8.198120127908870927e+03
-9.879968434037025872e+03
-1.399292586721001317e+04
-2.029304630136396736e+04
-2.294419475071211491e+04
-1.942942156193909250e+04
-1.563570879436148061e+04
-1.426302735059933912e+04
-9.887468813121371568e+03
-2.529033968575171002e+03
3.300219426867041875e+03
6.883194282316273529e+03
9.145864939402939854e+03
1.263016795999587339e+04
1.276721038669945483e+04
1.175989680154221423e+04
8.902126815548115701e+03
6.635844500518129280e+03
6.936133755456749896e+03
9.148436556306129205e+03
7.688671841006115756e+03
3.283531406983557645e+03
1.258711359355350851e+03
-1.853767398053773377e+03
-5.413844093121335391e+03
-7.382592463933240651e+03
-9.419986422321968348e+03
-1.294392068818349071e+04
-1.364453883379377839e+04
-1.306299160265945102e+04
-1.451621867326225220e+04
-1.384315814948186562e+04
-7.890877675349765923e+03
-1.641481508773760197e+03
2.918137848463368755e+03
4.506994026936620685e+03
6.072108854259573491e+03
6.348516103656540508e+03
2.611147409656021409e+03
-4.018105847184895993e+03
-1.425828680261273075e+04
-1.920644030828478208e+04
-1.573060471570681511e+04
-7.803883818610832350e+03
8.381058833396336638e+01
9.028519758933860430e+03
1.929027816223453556e+04
2.167513613198818348e+04
1.617407178800443035e+04
1.229805479179036593e+04
9.334054914285869017e+03
7.377091998876629987e+03
6.995134068357603610e+03
5.219210644182361648e+03
3.952334799744815427e+03
6.184477310841932194e+03
1.032668687634074922e+04
1.276904718186584614e+04
1.151245424864973756e+04
7.715880626828419736e+03
3.264402411891350312e+03
-8.939943561346607339e+02
-6.116365259625450562e+03
-1.050974963627584657e+04
-1.233009506280638379e+04
-1.202232862822884272e+04
-1.307341967915041641e+04
-1.581934314825139882e+04
-1.250709849052098252e+04
-1.273593025700319231e+03
7.524188870345811665e+03
1.105330525923777350e+04
1.029183178271017641e+04
1.020979815365809372e+04
9.178285756425591899e+03
5.719260543667617640e+03
1.400921788289957931e+03
-1.078531448228573936e+03
9.399675600381107188e+02
4.656915939203130620e+03
4.758175881311720332e+03
4.388852363636573500e+03
4.914250648513188025e+03
2.563287016108802618e+03
5.789224912150343698e+02
4.022292198792995919e+02
-9.006390479518286156e+02
-3.416636536566034465e+03
-4.799620836928580502e+03
-4.662643747679948319e+03
-6.273745602556517952e+03
-8.223871106436246919e+03
-6.966955468180871321e+03
-5.099071779987507398e+03
-5.942188398683644664e+03
-7.495258388768963414e+03
-6.266196629676132034e+03
-1.833863728476936785e+03
7.790822950142575110e+01
2.126109038293873709e+03
6.687528908171017065e+03
1.056216229611208109e+04
1.228303455593140461e+04
1.153914191964792371e+04
9.049544936826850972e+03
5.748487413092156203e+03
2.220071093537138040e+03
-9.277304931221292463e+02
-4.811902419395029028e+03
-8.359373188202547681e+03
-8.330102394572133562e+03
-6.720044298349648670e+03
-5.500220524244248736e+03
-2.947572972251133706e+03
1.400948843415924102e+03
6.655456121446248289e+03
1.019090863455393810e+04
1.113744162351941850e+04
9.294049606448150371e+03
5.881800054874979651e+03
3.038704816782169019e+03
6.668134908881287402e+02
-2.061972442972110002e+03
-3.887648883410889084e+03
-4.535155876162754794e+03
-4.484366993188518791e+03
-2.230122425573592864e+03
-4.028376257768322688e+01
9.520790328090784271e+01
-1.207654188188289709e+03
-2.249891393661925122e+03
-2.380414134840180850e+03
-2.528127118007298577e+03
-2.020015792959941336e+03
-1.306006011856894702e+03
-9.720335586758653790e+02
-1.558992740776471692e+03
-2.459791667447300370e+03
-1.199364285020559919e+03
-2.304765532091531441e+03
-3.314040013098900545e+03
-3.801042727089041364e+03
-4.266664447867842682e+03
-4.473998346271207993e+03
-3.502241704240737363e+03
-1.879448099687668446e+03
-1.025628012025583075e+03
-2.643012334737222204e+02
3.875370866393491838e+02
1.807916175340616519e+03
2.946945858501935618e+03
2.982984772285396957e+03
2.761604193617439705e+03
3.244027934467098476e+03
2.462537500175282730e+03
-3.308742240377471688e+01
-2.655148326676840952e+03
-3.302999318258166113e+03
-4.001983006012841543e+03
-4.687865768849955202e+03
-4.560776962667232510e+03
-4.010703647826241649e+03
-3.014584430203124612e+03
-5.974807148093083242e+02
3.277785749978525928e+03
6.940085836089197073e+03
8.268605164413937018e+03
6.989252058997217318e+03
4.803207089636230194e+03
3.305451059413908752e+03
2.201183975373125577e+03
8.035101190449789783e+02
5.334905048410126938e+02
9.231294726840390013e+02
2.583373755244993390e+03
4.485125284014806311e+03
5.599696750634153432e+03
6.014604158549316708e+03
6.214079605817518313e+03
4.731280686845867422e+03
3.268926515205518626e+03
2.495216389004667690e+03
1.953998171577759194e+03
1.295446146438443066e+03
6.145991759539036821e+02
2.114801103007731342e+02
4.813108352324385208e+01
1.576581402484522130e+02
1.364091007879123936e+03
1.428396069027492558e+03
5.646444385322279231e+02
-6.801656364960981591e+02
-1.969121159116870103e+03
-2.782331537732550714e+03
-3.258705620116907539e+03
-2.701114112280454265e+03
-1.899434429698507984e+03
-1.779572706519222265e+03
-1.903499771441551729e+03
-2.926180206647999512e+03
-5.519590118395912214e+03
-8.177687669467753039e+03
-8.890533647415506493e+03
-8.388474438699580787e+03
-7.069746403017918965e+03
-4.893229205826080943e+03
-3.365820822839462380e+03
-3.045313031340819634e+03
-3.179585846733664312e+03
-3.519756020644465934e+03
-3.819764454324864346e+03
-4.801582529130890180e+03
-5.330525316675589238e+03
-5.678532444785192638e+03
-4.363547743252615874e+03
-3.648537210557442904e+03
-7.519452921361181325e+03
-8.401134319096232502e+03
-6.237587332101656102e+03
-3.852939575609070289e+03
-2.188288425918923167e+03
-2.166635369203736900e+03
-1.900015162315514090e+03
-8.155448039946064682e+02
1.668705624801878912e+03
4.019739370317127850e+03
2.120563991002441526e+03
5.762517175458355041e+02
8.697882368233074430e+02
-7.358614461325158800e+02
-1.244707660418338946e+03
6.572316287644415524e+02
6.239268288166891807e+02
-3.616457594299137668e+02
8.666466515009902878e+02
4.803793107648071782e+03
8.190610700324127720e+03
9.458114352191789294e+03
8.797202888872681797e+03
8.072701721618131160e+03
7.306490470736486714e+03
6.402656538074603304e+03
5.641191280442370953e+03
4.466718251097204302e+03
4.622100950034759080e+03
5.566639881628128023e+03
6.323481001145129994e+03
7.244462271338676146e+03
7.847410217850080699e+03
8.026272971200243774e+03
8.176018769495695778e+03
7.440629820210429898e+03
7.244907468597924890e+03
6.893748316486624390e+03
6.889200531027760917e+03
6.784417704266135843e+03
5.745347461126352755e+03
5.276837215874291360e+03
4.115887763392278430e+03
2.323677697184337376e+03
1.436362698483372242e+03
-9.935294733381354604e+01
-9.200829261870710525e+02
-2.401288106954619082e+02
4.775127961855061187e+01
3.092381655801522697e+02
7.389468220680122386e+02
7.237621251538432716e+02
4.407156089548331011e+02
-5.831469499105329533e+02
-1.252038731719194402e+03
-2.399835138448179350e+03
-4.698490006717085635e+03
-8.111941340437390863e+03
-1.099631944728140661e+04
-8.044943129053840494e+03
-3.952026118447337467e+03
-2.105079616924879247e+03
-2.932171919865441851e+03
-3.917668321637989266e+03
-4.276605883051614001e+03
-4.368878442859396273e+03
-3.855471264068929031e+03
-2.239459675963579230e+03
-1.936787429292504157e+03
-2.483682438747033302e+03
-2.367263239114380667e+03
-1.309392048055232863e+03
-3.861079342910413175e+02
-1.471031048770780899e+03
-2.225567875686374464e+03
-2.692792538977869754e+03
-2.072637817292346881e+03
-8.102643084558508235e+02
-1.727194667378144288e+02
2.362734887179829286e+02
8.099620532481360442e+02
9.747590437787332576e+02
3.223979838218257896e+02
-4.868766767085853644e+02
-9.846187038720632927e+02
-1.888043073005312408e+03
-2.280451978860059626e+03
-2.646257616263436375e+03
-2.550074671039484201e+03
-1.918257694108502392e+03
-1.109814721049634500e+03
-2.977986668744653684e+02
-2.503031482153424747e+02
2.816099184323915097e+02
5.950866478101140729e+02
4.011081970270145689e+02
3.935989129709903267e+01
-1.952649636924475018e+01
1.074184294470057210e+02
4.134602791432146205e+02
1.173796019535868709e+03
1.732565950665512219e+03
1.120818335021806433e+03
3.427355199064901399e+02
6.234343510089316709e+01
1.304819972439199489e+02
1.700744729144243905e+01
1.389197976614748065e+01
-2.177747739257934256e+02
2.165376990910779398e+02
4.710797639401886272e+02
1.331910470875913688e+03
2.381352879739565651e+03
1.943696509675885636e+03
1.248985942437931129e+02
-2.854862280042533712e+03
-3.292338080604388324e+03
-7.844324635046444882e+02
2.607734778257449307e+03
-4.442051286580403371e+02
-3.677472002298730786e+03
-3.325819640345107018e+03
-1.520124467097810566e+03
-1.437340271282027743e+03
-2.467281888991118194e+03
-3.617932244493582402e+03
-4.029344120769059373e+03
-4.195399597567401543e+03
-2.765023842286148010e+03
-1.218259563243221919e+03
-2.281072663738513313e+02
1.032643915398509534e+03
2.300152405050700054e+03
2.469239512630749687e+03
1.842839818575970412e+03
4.092028750199428941e+02
-5.345462617676718082e+02
-8.676088810791123933e+02
9.435953769506170374e+02
2.904249072133534355e+03
2.935369038013375302e+03
2.344767077018890632e+03
1.269484520941009350e+03
-1.335593727048623691e+01
-1.233502754417125971e+03
-1.146688038805213182e+03
-6.677189509412947928e+02
-1.105101468069839257e+02
3.529665292998166706e+02
1.365911109556167503e+03
2.351484433398329656e+03
3.267531318448615821e+03
3.874892019553824412e+03
4.242674726848596038e+03
3.862858107276101691e+03
3.569362622420098887e+03
2.746133741441362872e+03
2.720213702286564057e+03
2.568738870544762904e+03
2.385985361857372027e+03
2.029162396323109533e+03
2.190406403748699177e+03
1.642796351866943041e+03
3.894108650827756151e+02
-9.367053768872672208e+02
-1.971523952723468938e+03
-2.426087803463794899e+03
-2.016550718954329795e+03
-5.368978133299126512e+02
3.831360560050817412e+02
6.567779137046858295e+02
9.811076218427713229e+02
1.596111120851981923e+03
1.241829238958413498e+03
5.303063068595009781e+02
4.897211049066123678e+02
5.021193724484891732e+02
1.008718395314454597e+03
2.318410693247249583e+03
3.353984688663559609e+03
3.307660888017996967e+03
3.219551347374580018e+03
2.660666238014567625e+03
1.037051810448131846e+03
-9.122528048120859694e+02
-2.538290691936384519e+03
-5.742107182809837468e+03
-5.666664432278628738e+03
-4.501956317814860085e+03
-3.375896111547964210e+03
-4.102486196269495849e+03
-1.023666883401217660e+03
2.286692623100315132e+02
-1.109377183860768810e+03
2.643196863059223233e+03
2.195544268825291056e+03
1.448959923891621600e+02
1.363381000365011914e+03
-2.872167612797209699e+02
-6.790273855070954312e+01
9.853426539814273610e+02
3.505390569071971072e+02
8.767207185616379093e+02
-8.631234532427547492e+02
-1.307131413345135343e+03
-2.342478460362523947e+03
-3.856219433578776261e+03
-3.245225080282116778e+03
-3.040331023451841702e+03
-4.379400663990825706e+03
-3.940386802934891421e+03
-9.752667218043203547e+02
-2.159489506741116998e+02
3.575174107851440795e+02
9.351834203222553015e+02
-1.401022368368393700e+03
4.427915888436186833e+02
7.706213576650768573e+02
-3.675130775098384106e+02
1.228472864298312288e+03
-7.823538993909014607e+02
-1.116957205936700575e+03
-3.100327925782536113e+03
-2.835465150239823743e+03
-3.387350049912176473e+03
-2.987991165866042593e+03
-2.588434857260514491e+03
-2.314699454585257627e+03
-1.652810956355507869e+03
-1.328908215020550642e+03
-3.959060982695991129e+02
1.094346289655762348e+03
2.246900181639746734e+03
2.497795984422603397e+03
1.987080421525736028e+03
1.690726244203290435e+03
1.918683126224863372e+03
2.103853907115420043e+03
1.867107110496395308e+03
2.112420580840821003e+03
2.036884764377195097e+03
1.555639674745470529e+03
1.332648177681020115e+03
4.758898749085424242e+02
-1.238669213011093234e+03
-1.796166091713077776e+03
-2.220705633494271297e+03
-2.543270728867112211e+03
-2.342832376305406342e+03
-2.469351772979431644e+03
-1.574844990380438048e+03
-4.537085263797648338e+01
9.271660702449306655e+02
1.701849919371010401e+03
1.348574848300906069e+03
5.811664688007625728e+02
7.579683971868955439e+01
-6.647408367323767209e+01
-2.009531667325522619e+02
-2.578853806609075860e+01
8.288434936404412383e+02
1.592931802105606721e+03
2.425616721375293309e+03
1.955890021626958514e+03
7.736695280306951190e+02
-1.092696208931695310e+02
-5.391121977966306531e+02
-8.045918122365347926e+02
-7.777119801962137444e+02
-8.566342941914715539e+02
-6.780774635370055421e+02
8.303238667656111716e+01
6.502141625595622827e+02
3.603872161561249641e+02
2.885115155831654192e+02
9.775148720984007014e+02
1.225404010069461037e+03
1.054222258850098115e+03
6.066905182503465994e+02
4.868326913959932654e+02
6.976697295156081964e+02
1.685192552697390283e+03
3.090363207529130250e+03
3.037205488536621942e+03
1.780677886884409872e+03
3.436314373478678021e+02
-3.609446028687804073e+02
-6.730095555098872637e+02
-1.204713848662931468e+03
-9.961729860488500208e+02
-4.013668448636799440e+02
7.477307044604004886e+02
1.780202593249003939e+03
2.157047559805851051e+03
2.151413560427414268e+03
1.807310235484937721e+03
1.497616478781955493e+03
1.353311988276555894e+03
1.430296226170287127e+03
1.697543244209425438e+03
1.502097826275167336e+03
1.019935228607058889e+03
-1.228018255650683273e+02
-3.322200102213816990e+03
-4.625520242835134923e+03
-5.452668109326580634e+03
-5.779643757955816909e+03
-6.484447660565997467e+03
-6.959010228478260615e+03
-6.430481329067894876e+03
-5.534836727357140262e+03
-4.759093682337580503e+03
-3.446143148518628095e+03
-2.449840316861769224e+03
-2.067985321310673498e+03
-2.507457721485096044e+03
-2.540784141499250836e+03
1.655749835696608443e+03
2.975255734532712268e+03
2.226961153529599869e+03
-1.431152656000012371e+02
-2.000116577742672007e+03
-2.010092692211305121e+03
-2.615136020013271263e+03
-3.908348861392873005e+03
-5.131527545956260838e+03
-5.798616881082394684e+03
-5.889732332200743258e+03
-3.039016475532929690e+03
-1.985277211015490764e+02
8.719423858578678619e+02
2.004404488179135342e+03
3.081857076344547750e+03
3.622262746675088238e+03
3.453577845018989592e+03
3.196891911386052016e+03
2.638248738725617841e+03
2.349646259617991291e+03
2.915077019632399242e+03
3.068567737221009793e+03
3.018105320550916076e+03
3.138705908869365885e+03
3.515453237919617095e+03
3.154334545813183013e+03
1.947380313629204011e+03
1.017579511838480130e+03
7.628812315158746742e+02
2.882471625480204693e+02
-6.843159022318667439e+02
-8.087670269174350324e+02
-1.600678803236346823e+02
1.098848652564787017e+03
2.813024630196618091e+03
3.285507162382640217e+03
2.956355502177981634e+03
2.792653644779636124e+03
2.185519229516649375e+03
1.837900251557572801e+03
1.503726399973219259e+03
1.498037200854369985e+03
1.760810592247051773e+03
2.154071598600868583e+03
3.155863146197315928e+03
2.749261601405133206e+03
1.371308857893335471e+03
1.203115256232592323e+01
-1.268691940011301085e+03
-1.680712634642498188e+03
-1.593065560534992301e+03
-1.746940690780763134e+03
-2.000270225637311341e+03
-1.051541555967508657e+03
2.615385906873911495e+02
1.111829196441681006e+03
1.421071828197799960e+03
1.353297200150925391e+03
6.761029145272520964e+02
-3.654508850123186789e+02
-7.426990825852776652e+02
2.063190565744737057e+02
2.737580481022742447e+02
4.149588991257987658e+01
3.605398363623456817e+02
6.319182905826050956e+02
-2.693176134624292217e+02
-1.766330520222976929e+03
-2.589160812991877719e+03
-3.227720455838771159e+03
