2.906447508207091687e+03
2.683235230241990848e+03
2.714705983061275219e+03
2.505911379540055350e+03
2.300869820791165239e+03
2.432630517563725334e+03
2.419205498528188855e+03
2.151648098080960153e+03
2.014974280562952345e+03
1.962212796905517962e+03
1.619391544938487414e+03
1.443495840222529750e+03
1.545608539957155017e+03
1.529767355420562126e+03
1.728994858908486322e+03
1.771309166463568999e+03
1.552744046723658812e+03
1.662378146256115997e+03
1.803234391035675571e+03
1.979277262584199661e+03
1.783478818750042365e+03
1.754853941202786700e+03
1.870531386420974286e+03
1.534936017107832413e+03
1.337301667586905751e+03
1.269691327867297559e+03
1.173933120699540268e+03
1.180008449202749944e+03
8.249649302763483547e+02
2.549020856407738336e+02
3.157813110651118222e+02
6.704982103470841821e+02
1.560979465366438319e+02
-1.044352632768420790e+03
2.402385966114991049e+02
-4.871324033557559119e+02
-3.239555721123839248e+03
-7.333416127084664140e+02
5.237823899647889903e+02
7.856131072539011484e+02
4.511086229809226325e+02
5.672932733593004286e+02
7.002131214297169208e+02
5.768832229226691197e+02
5.063267525811757537e+02
3.915185346400993467e+02
2.374972044305293650e+02
2.023609533394180815e+01
-2.602395429380687233e+02
-4.419262765289032586e+02
-6.088808418296615628e+02
-5.030569981139483957e+02
-5.274335695667776918e+02
-3.470359354961471468e+02
-3.038470706652243507e+02
-2.368646353908949891e+02
-1.811152187199341199e+02
-1.445576122885316863e+02
-2.881721212733325501e+02
-3.797170490828219158e+01
9.305906575656921120e+01
-3.110315390996251494e+01
-1.134591289295838266e+02
-3.050429650384543834e+02
-3.908750399290407813e+02
-3.459437522891579988e+02
-4.702838298148854506e+02
-4.608901789676310159e+02
-5.677482897668207897e+02
-7.978699973484408474e+02
-1.237321397365903294e+03
-1.321113443568141065e+03
-1.348252444437253644e+03
-1.046721893309452071e+03
-6.545410644217931804e+02
-6.667409051629360874e+02
-5.803365694505995407e+02
-6.263213077763116416e+02
-6.097036274386135801e+02
-4.385157359587570909e+02
1.652253708314320875e+02
3.575226568766805713e+02
5.293522530210176456e+02
3.577265896765961770e+02
1.755504320582567175e+02
1.298273933994230163e+02
-1.104198242498380864e+02
-5.492502454179748383e+02
-2.321694247014881512e+03
-1.044834298756540193e+03
-8.225176668687553274e+02
-8.538715599685627922e+02
-9.669270077803764707e+02
-5.826890424667362822e+02
-3.952028710639431779e+02
-1.298475682751748536e+03
-1.876697474830512192e+03
-5.146733106972214955e+02
-2.322477094837327911e+02
-2.550361514748480118e+01
7.637380582977809240e+01
-7.864809968966274312e+01
8.850673740629582653e+01
3.687729791839091149e+02
2.391068274881893956e+02
4.084499854301088249e+02
5.238168425517457081e+02
7.391804703583351284e+02
7.125380064691840971e+02
4.698357755976016961e+02
4.360132841214165751e+02
1.940987544481740201e+02
-1.218940639215772990e+02
1.610274357502442513e+02
4.447671202297091781e+02
3.913440797737109733e+02
2.347393332099168219e+02
2.248900046519387388e+02
4.708557270544523021e+02
2.996460023491932247e+02
3.812420940215138785e+02
4.415935574981517675e+02
4.616816098565109883e+02
5.714987144724938162e+02
3.240063317949713451e+02
2.032081355204996669e+02
2.330837526798902672e+02
1.726723870872895361e+02
-5.108904300629836825e+01
2.877888897546783653e+01
-1.387088345871986803e+02
-2.455419560924373457e+02
-6.673281554619101996e+01
4.573724718095551367e+01
-2.820405038514713780e+01
2.224659015962219542e+02
2.467602238537974699e+02
3.476793580846413079e+02
5.282256746650284640e+02
6.614039428408950698e+02
6.712000006036080322e+02
2.385836369046874381e+02
-5.463925541547151852e+02
4.792855236573528259e+02
8.326337919591455830e+02
8.746044496543134983e+02
7.222289640758266387e+02
4.565167492007728924e+02
1.684603610425601516e+02
1.670612180859929197e+02
1.882114162607227570e+02
2.699800916107598709e+02
4.793956026234561705e+02
4.984264536679227149e+02
4.321274648139966530e+02
6.475035837775396885e+02
6.015148634202935227e+02
6.211773531847672984e+02
-7.965464251019452604e+02
-3.426460090396559735e+03
-2.695409450799402862e+02
1.076115354824038832e+03
-1.165561338719641299e+03
-2.159504268944300748e+03
-2.465666108528252607e+03
-4.940653820359479482e+02
-1.655699208197229382e+03
-1.250573511057983751e+03
9.053467168272885601e+02
4.560571486413729758e+02
4.075811927572117384e+02
2.919047188606026566e+02
3.660209982205009851e+02
2.289906595135745988e+02
-2.289160991758815726e+03
-2.114443859608638832e+03
-2.011891649050318620e+03
-1.361398395405652309e+03
-5.114951111079238217e+03
-4.405556279810838532e+03
-3.720769224525540153e+01
8.121200726659985776e+02
-1.906539809176108974e+03
-1.506180187645263231e+03
-8.788330888487907941e+02
1.232548124275049076e+03
9.690060631320079665e+02
-3.146481294596869247e+03
-5.610932344241828105e+03
-2.397345209335060645e+03
-2.524698542814008306e+03
-1.700670126333919185e+01
-2.137245824641383024e+03
-2.123408960657279295e+03
-3.704647138320607382e+02
1.346592583966069697e+03
1.123781562791367605e+03
1.415116685952813668e+03
1.544596398613614156e+03
1.443277969864761644e+03
1.456172118259501985e+03
1.480245001206240204e+03
1.660489385681237309e+03
1.660925176569691757e+03
1.634555359006923027e+03
1.546401004345492538e+03
1.512448287455575837e+03
1.312707425944306806e+03
9.691541951714195875e+02
7.317145070780262586e+02
7.934224515074629380e+02
2.931437541899638859e+02
5.470859025580073194e+02
6.384065476908732535e+02
6.672506851651932038e+02
8.856876320145769341e+02
8.149619115863346224e+02
1.117952214515876449e+03
1.346457401109389139e+03
1.675579099273464180e+03
1.551357949531776285e+03
1.071079326142164746e+03
-7.878538769102058268e+02
-6.370747710791529244e+02
1.219380522828756284e+03
1.279973517570043668e+03
9.959322088663939212e+02
9.282307351652318630e+02
9.894978064070944583e+02
8.097420750457600889e+02
8.292864207132081447e+02
8.509001294956982520e+02
6.295269367799527345e+02
8.793606234792227951e+02
1.081574497794269746e+03
1.356949516968232501e+03
1.407284357002118441e+03
1.530939671849570004e+03
1.517164044702637284e+03
1.330763670712563453e+03
1.324635222776743603e+03
1.260747441773939499e+03
1.415088906146439740e+03
1.492540413458355260e+03
1.479078794651368980e+03
1.693377807051599348e+03
1.613516427160668172e+03
1.146445965240563282e+03
1.063075847175043691e+03
1.136424023925767870e+03
1.028399752636204994e+03
8.590218064059670269e+02
9.672770661649947215e+02
1.030125486488315573e+03
9.195132874899613853e+02
8.004509348575238619e+02
1.368906960644505261e+03
1.608874144026791555e+03
1.543395946036957866e+03
1.474414290286458709e+03
1.385931722569333942e+03
1.558938709126589401e+03
1.715356794962010326e+03
1.863205383313038283e+03
1.909484345375703242e+03
1.759162819154393674e+03
1.554205588837234927e+03
1.259630817804499657e+03
1.297414705074940002e+03
1.308496512003303224e+03
1.045855467990145144e+03
8.994968975971553391e+02
5.984516710569573661e+02
7.126921102837515036e+02
8.331825429881376976e+02
7.529072748861756281e+02
-1.181148249884160350e+03
-4.152952113362485761e+03
-7.081480427252882691e+03
-7.916766144778845046e+03
-7.846822452695373613e+03
-7.576606101800642136e+03
-7.605127304454465957e+03
-7.843411640027762587e+03
-7.828459421022538663e+03
-7.183270505264339590e+03
-6.650899914444922615e+03
-6.772296260407513728e+03
-7.095376638253978854e+03
-6.952215361060156283e+03
-6.668771320067967281e+03
-5.763075916965866782e+03
-8.040603015837175462e+02
-7.945442590259464168e+02
7.210654896698493133e+01
1.503931030111564041e+03
2.066012794458309145e+03
1.864389780748370413e+03
1.963038343841224105e+03
2.054990511540885564e+03
2.364272094649100836e+03
2.166893592353677832e+03
1.963904407135788460e+03
1.797275748842098210e+03
1.831059335985813732e+03
1.884294158955626017e+03
1.527972076996151372e+03
1.392102311679290779e+03
1.349680322524051462e+03
1.075758986412447257e+03
1.155300382153265446e+03
1.127340706988372403e+03
8.149478392988562518e+02
7.811102776698237449e+02
8.498771233727234176e+02
9.562892169845013086e+02
1.243350573393277728e+03
1.345099027621871755e+03
1.577587643445671802e+03
1.650858704548285232e+03
1.557945686044692820e+03
1.678843441932521273e+03
1.511603557455770215e+03
1.403239160180649151e+03
1.510775919783535755e+03
1.717249270247341428e+03
1.428695355251899855e+03
1.103195649329883508e+03
6.977445948525866015e+02
6.343710975745038922e+02
5.580734554123171165e+02
2.658630540039866332e+02
9.680807608856638069e+01
2.309257331289665842e+02
3.382533939452729328e+02
1.908613726612412336e+02
1.857633194511858221e+02
3.069174733111555611e+02
4.754263108675895069e+02
8.403378452140494801e+02
7.216768128825092390e+02
5.273952314478906374e+02
7.205023541100447346e+02
3.549575214558445282e+02
-3.068722039932795838e+02
-1.043742871677042558e+03
3.662666423589034821e+02
3.694649630011438717e+02
2.434873784463318884e+02
1.552542204123586203e+02
-2.342758750600651751e+02
-1.194033263547112256e+03
-3.802913515688485404e+03
-4.145897463973401500e+03
-2.371169158450923078e+03
-2.726378147342019247e+02
-2.730951763705279518e+02
-7.596011322655700724e+02
-2.213834220966260702e+01
2.462924970887280267e+02
4.587024391327784656e+02
2.941463364783593306e+02
1.996242232880698850e+02
5.014069894133189820e+01
2.616832584468669438e+02
-1.770486740942243387e+01
-4.659960206877497058e+02
-5.061679622362407827e+02
-5.782263759246250174e+02
-6.813516022509971037e+01
-2.969307278197752566e+02
-1.676298840558126813e+02
-4.031989527236877393e+02
-6.545991538452946088e+02
-4.868443133102661022e+02
-2.759324831664840758e+02
8.814838301147499067e+01
3.664168881224589995e+02
5.778559060897101745e+02
4.294550437759804140e+02
2.712556064540311240e+02
4.502495508490093812e+02
3.544417812750378403e+02
3.688171688125302694e+02
2.263331628469872783e+02
-6.701282622577932102e+01
-3.282412822535833357e+02
-4.003655001294508224e+02
-3.304029415840040542e+02
-1.533885405814436069e+02
-5.023344892971578588e+02
-6.692399008507369444e+02
-6.481272346254379499e+02
-6.040249796722752080e+02
-5.539660878500794752e+02
-4.699546367756838663e+02
-5.210226718968854129e+02
-6.391953017582297889e+02
-4.964467479488590698e+02
-5.277514177471613266e+02
-1.143063138723578476e+02
6.991751232746594269e+01
6.286656724774654492e+01
4.906246255992949159e+02
7.211720321308845314e+02
7.044043138055099007e+02
2.792465994842482360e+02
-6.131513522857911624e+01
-1.183248992900199283e+02
-5.882594668775924163e+01
-4.287016004125329260e+01
2.015356672091291443e+02
1.623161936101447509e+02
5.743517902263692321e+01
-1.097124256830028116e+03
7.772368544834387194e+01
5.600182615396852270e+02
8.351302538608815667e+02
7.183729413167631037e+02
6.012062478818467071e+02
1.222233537616603599e+03
1.255694648096243554e+03
1.683905253203593247e+03
1.706314904503198704e+03
1.511621023765329028e+03
1.238807430146277738e+03
1.346018486970189315e+03
1.141017901579583850e+03
7.947635033555150130e+02
7.331770204934699677e+02
8.102356696491726780e+02
7.641251391074881667e+02
5.115819506629706552e+02
5.693720601547215665e+02
7.366988576573226055e+02
9.219378559198703442e+02
1.150639609829100209e+03
1.191562609628295149e+03
1.410777054394291781e+03
1.651254945683273718e+03
1.555399602638166925e+03
1.609931822470147836e+03
2.088481768952813127e+03
2.351164628446899769e+03
2.220059178569258165e+03
1.926301355367041651e+03
1.921788517691956486e+03
1.740160869131893151e+03
1.423524755223917737e+03
1.329912016035776560e+03
1.352377206039451039e+03
1.237748944244817949e+03
1.403862322254863557e+03
1.355781211137042192e+03
1.400436861063916922e+03
1.928792912485262605e+03
2.158866075207122776e+03
2.133639156217580876e+03
2.022087020210468609e+03
2.299181382013166512e+03
2.319922971979645354e+03
2.415289140353738730e+03
2.298280619239996668e+03
2.337875320479284710e+03
2.146032650680083407e+03
7.247730058750926219e+02
-7.238642385803829029e+02
-4.738944142986335464e+03
-6.905448913812471801e+03
-7.126421763462170929e+03
-7.055855841528345991e+03
-7.059744100646551487e+03
-6.668114660247645588e+03
-6.394948116630479490e+03
-6.840261080674960795e+03
-6.339048082391006574e+03
-4.248299717933145985e+03
1.664992339842535102e+03
2.758884013489547669e+03
1.535550083738611420e+03
-4.045136899233662007e+03
-6.318327010634296130e+03
-6.043909203700904982e+03
-6.016836645774148565e+03
-2.031142497991591654e+03
2.765095358957944427e+03
2.490241180192920183e+03
-7.108875382144692594e+02
-5.112078698148039621e+03
-6.769460659501860391e+03
-6.496056298910411897e+03
-6.695843228646554053e+03
-6.122814435823192980e+03
-5.903918422114936220e+03
-5.922151498760254981e+03
-5.804446652195789284e+03
-5.587784431283206686e+03
-5.394119838502247148e+03
-5.311395672117039794e+03
-3.403609899442145888e+03
2.059273170727247816e+03
1.238301558676936111e+03
3.189494329509586350e+03
3.431904100077262683e+03
3.642577832081908127e+03
3.895554707074620637e+03
3.702868644210126604e+03
3.385570888629031288e+03
3.360696850597447792e+03
3.499267695599386570e+03
3.177300789247392004e+03
2.972850485365407167e+03
2.701987082926970288e+03
2.263716585671324992e+03
2.520053102906786989e+03
2.562072489238891649e+03
2.650812820341083807e+03
2.863353621617270619e+03
2.647725091910120682e+03
2.789960013459934089e+03
2.917095550231564630e+03
2.989187525497940896e+03
2.897291058327509745e+03
2.912443194794136161e+03
2.946674463338151327e+03
2.646047950411817965e+03
2.056587958846589572e+03
1.861365757029185943e+03
2.126387461859366795e+03
1.930693027662841132e+03
1.693316742637979132e+03
1.396302332745292688e+03
1.037679196375872152e+03
7.516971235087753485e+02
1.018499857309917275e+03
1.174146627724953305e+03
7.315763470890842655e+02
9.627565214146101198e+02
1.301701314817572211e+03
1.376499912300781261e+03
1.630170651394734023e+03
1.538713941277595723e+03
2.460556474579416033e+02
-1.683566394747689543e+01
1.268317698535292720e+03
8.056095533941697795e+02
-2.661843094309132880e+02
7.065537253705184639e+02
7.083131670919534599e+02
4.558145866605716492e+02
6.653838365147311151e+02
5.601825094434475432e+02
6.312135931564965858e+02
4.542775881070297714e+02
2.103430568876845825e+02
2.583718777707971412e+02
2.283843924429771164e+02
1.803691038573459480e+02
5.613752147260157699e+02
3.244349579688827703e+02
4.175441426646736431e+02
7.217374556357027586e+02
7.850055607627692780e+02
7.003877517578155221e+02
5.468549183503841959e+02
6.974106052461827403e+02
2.830913421284461720e+02
-1.701446162826910040e+02
-5.229199060002109434e+01
-4.173050549386824173e+02
-5.422344759479141203e+02
-7.050702375148282499e+02
-7.808463814781925976e+02
-8.035918516867128574e+02
-7.562946831399566463e+02
-4.759504655837985752e+02
-2.125459413182772153e+02
-3.020858263678923663e+02
4.638370351912248424e+01
3.889840057777811921e+01
9.044370108173444578e+01
7.199855830419677716e+01
-7.743974204179276910e+01
1.201387715685905277e+02
1.526958717750832761e+02
1.962242545274124552e+02
1.687117878192156866e+02
2.612987973617081039e+01
-4.951039080494591360e+01
-2.642374155894737555e+02
-6.371287124953704506e+02
-5.171799311670778252e+02
-4.554088551011651020e+02
-8.828277314368218640e+02
-7.854990866555815501e+02
-4.264379697663936213e+02
-4.956808714112742678e+02
-1.870197827241902132e+03
-3.917001702139830286e+03
-7.985174723904451639e+03
-8.730708675164229135e+03
-8.503567233387424494e+03
-6.458735210801256471e+03
-6.994766519313080835e+02
6.933191706037092672e+02
7.855860887746969183e+02
4.903810539793382191e+02
5.867052222774643724e+02
4.925788602868497605e+02
4.170588172105666445e+02
-4.280313446028704334e+02
-1.554819620076699948e+03
-3.244489579681683722e+02
-3.681293771855479946e+01
-4.884709558386916939e+01
-2.774369517389517625e+01
4.947651944781296862e+01
2.148240947942020114e+02
4.993152054126503572e+02
6.539063964297943130e+02
5.855810502413813765e+02
6.512688774765168773e+02
6.379543864784443485e+02
9.486684933944773093e+02
8.073487992098130235e+02
8.259962423421892481e+02
8.535180721530073242e+02
6.019261664977876762e+02
3.081653713157057837e+02
2.542297770436435371e+02
4.711326335363484219e+01
7.877289076076026220e+01
-2.108638299729294090e+02
-5.680011762677737153e+01
-1.140395829598481185e+02
-3.596172008561324560e+02
9.146652723288417519e+01
1.861882631897623526e+02
5.535397197883113449e+02
1.073522802987752357e+03
1.141094596028147635e+03
1.109264970187686004e+03
1.263049368617700338e+03
1.159390920189388453e+03
1.004275873792795437e+03
8.536744885706822288e+02
6.905632023765141412e+02
5.449763209661448400e+02
7.038762963758102842e+02
5.682294139754360458e+02
3.250422156124867570e+02
4.122998440133313807e+02
3.909803407331949643e+02
2.331106384901598005e+02
2.136634143381545528e+02
3.746327300424345594e+02
2.070231953869704569e+02
2.817829710316623846e+02
-2.720707630214046731e+02
4.584732503433467059e+02
1.398375089564559175e+03
1.460641158473585392e+03
1.229322377398181970e+03
1.271423541714157409e+03
1.293958037725240501e+03
1.418913090832721537e+03
1.183283114446824584e+03
1.233075067561663445e+03
1.101245582228260218e+03
6.958024770242037675e+02
5.727854559628860898e+02
4.072673234811319958e+02
-6.319831135188973121e+02
-3.947791900846747467e+03
-4.444192409259812848e+03
-1.964322320080369764e+03
-3.051901849392520489e+03
3.059690948414130389e+02
-1.930637487641507960e+03
-1.038624416444412645e+03
-2.028955699407910743e+03
-5.165330324334413490e+02
1.489439159363186718e+03
1.637940739666823902e+03
1.754999644456803708e+03
1.609621524241830684e+03
1.474816211087153079e+03
1.547564093646034735e+03
1.137885576757851368e+03
-2.261150232638408397e+03
-2.316554149027248059e+03
-1.760327128668335263e+03
-2.390479404590641025e+03
-1.186986704759630129e+03
-1.249827196895341558e+03
-5.578015614673748132e+03
-1.454537538586238270e+03
7.696884698791308210e+02
8.826656526019813782e+02
8.263561400991412711e+02
-2.655234613121893744e+03
-3.759038649817645819e+03
4.600061354789131656e+02
-2.233126540769146231e+03
-2.844234129872347125e+02
-2.077836902887208453e+03
-1.017394226498366606e+03
5.439339106587103743e+02
1.051180534407617643e+03
1.054322914111326554e+03
1.025349913782582917e+03
6.882901971621198527e+02
5.740934097727432572e+02
6.077987813521780254e+02
5.974565577296782521e+02
6.550928349127403862e+02
8.196693191712788575e+02
9.022499220580510837e+02
1.150836391673999969e+03
1.391432381518412967e+03
1.057061921220692284e+03
8.327697252219612665e+02
1.295669851000336621e+03
1.373800934733614667e+03
1.125416929283357376e+03
1.071464218071706455e+03
1.022810168517769966e+03
1.041398756761659115e+03
9.132702618392576142e+02
7.064082074899783947e+02
6.157680685040895696e+02
5.083036090510719873e+02
6.178927254032204246e+02
2.784546373042775826e+02
2.424787121280330737e+01
1.833667983790579967e+02
3.946298520032501642e+02
5.351708672977334800e+02
3.741491902439349246e+02
1.895871307353046120e+02
-6.054660600091181095e+02
-2.936333937926503950e+03
-1.192027068043666759e+03
-1.744086472369731609e+03
3.443221175492976727e+02
5.059237315121770848e+02
5.619451317537972272e+02
5.994531245455159478e+02
5.094658329594952306e+02
5.271481030211538155e+02
2.795008955818086633e+02
3.531440940486927502e+02
3.771671938525465606e+01
-1.368066661591614164e+01
1.916298373435139979e+02
2.440591048826763370e+02
2.646437803768367871e+02
3.719882707904523613e+02
5.416974704020555009e+02
6.673654691316162371e+02
4.320755038185140506e+02
4.907476522778213734e+02
6.684088239910935272e+02
8.580268560734961056e+02
9.245956177908886957e+02
1.038127795346695848e+03
8.135861023511229178e+02
5.079778302191952548e+02
4.892786409862313803e+02
7.934949142763432519e+02
5.176531293233502993e+02
3.236920086303088624e+02
-2.638259452911147918e+01
9.409726258824830936e+00
1.780390253296441756e+02
2.755687424562469801e+02
3.509405936948798512e+02
5.511387793494266134e+02
7.521611868195368515e+02
8.170211441871674651e+02
5.507212122396832683e+02
8.632408481846576933e+02
9.956067057609482163e+02
1.265855715018328965e+03
1.184978703992425380e+03
8.369089022003062155e+02
7.596770391093914441e+02
7.752746840132543866e+02
4.386926486740564997e+02
7.019520779017548193e+02
7.020443418359482166e+02
2.349056455840643309e+02
9.453815654431988946e+01
-8.701570155268235851e+01
-2.617963459869827147e+02
1.061851298319764112e+02
1.739367559326098274e+02
1.413959524276071704e+02
-5.443984445726651984e+02
-2.222283585980332646e+03
-1.350326007165358305e+03
5.352730841735685772e+02
-1.312054518286671794e+02
-6.750774374890569561e+03
-7.568635048546399048e+03
-7.555711537346207479e+03
-8.011980686734275878e+03
-5.436491096057135110e+03
-1.345199122124435689e+03
5.786302186087008437e+01
3.427164480668615738e+02
2.443402528935362170e+02
2.187218826616461342e+02
1.209057187994672802e+02
-3.615733608176724090e+01
-6.457129702382167658e+00
-2.019179450590455644e+02
1.274164918166491560e+02
3.325368193159441148e+02
5.614806352656719355e+02
5.252613949618902325e+02
5.468889245054361936e+02
7.553663574528542313e+02
7.597287602685464662e+02
7.180032446598156639e+02
9.691293035803091698e+02
8.411677243781441575e+02
9.901173972391740108e+02
8.099668687668602161e+02
4.877192515736766723e+02
1.753972884241690622e+02
1.319867257428889786e+02
2.454501976031137360e+02
2.547948494123642149e+02
-2.592113388804826712e+01
-4.771248042994380256e+01
-9.752516295482257647e+01
-4.236500497753500838e+01
3.487937471751966996e+02
6.369454344240214141e+02
5.401033710869587594e+02
3.472929416804019525e+02
4.985113082691886461e+02
5.097963990710572943e+02
6.711544266421501561e+02
8.345813851143072952e+02
5.581351545187901593e+02
5.918418944790931846e+02
4.056637167425938060e+02
4.646008846227968547e+02
1.296995930883404640e+02
-7.405047318099543929e+01
-2.107648211399016986e+02
-9.742182767920348851e+01
1.010611300397975327e+02
-2.690228915666449083e+01
-3.510037684177658548e+02
-3.364095977511210549e+02
1.607075042572294521e+01
-4.442039255652609882e+02
-3.973509740463638877e+02
-1.071004631131966107e+03
-6.804752336007560416e+02
-1.525105811342730533e+02
4.058270912143103715e+02
-2.052302915105860492e+01
-5.675447684995456257e+02
-5.414252723629522279e+01
-8.329995323048741795e+01
-2.012313628199914035e+02
4.051519251958511632e+02
2.378818749699759394e+02
-2.390426433348534374e+02
-2.686287391793950974e+02
-7.186245269272495761e+01
3.258850025791779181e+00
1.737208776002122192e+02
1.965689878705887850e+02
-1.681892027916884444e+02
-8.554389436654609824e+01
-1.035365342853412187e+02
2.319049609515850534e+02
4.267583918430169660e+02
4.350059907534251238e+02
4.057002254084286506e+02
2.148381991235969792e+02
1.464349085748762889e+02
2.474928828446419118e+02
-2.410154694668695186e+02
-3.290654843539289232e+02
-1.787035676543888485e+02
-1.949118352751593761e+02
-3.316734219344978101e+02
-6.280605139393510399e+02
-4.710431449278356695e+02
-2.776249345005464306e+02
-2.918367485442023508e+02
-1.196691217995853549e+02
3.299079938364076838e+02
2.558590281870769161e+02
3.431960949194030945e+02
3.899344942801844809e+02
4.610663304090169277e+02
6.166000145867062656e+02
5.715321102373133044e+02
3.738034542979779076e+02
4.024364665550920677e+02
3.814397995898206659e+02
2.157830575567087692e+02
3.624577089667681093e+02
1.484400262741123129e+02
1.757310024917403553e+02
1.733010088798158108e+02
3.711388823824198369e+01
-9.788136574940754286e+00
-6.239510793474987338e+01
-1.358931789893309485e+02
-2.571332384887172111e+02
7.988085478046136245e+01
3.615158202905376328e+01
1.336063760855224416e+02
3.052151025485825926e+02
5.399644262243793946e+02
8.608973304372772191e+02
8.809897583569177186e+02
6.572207469625975591e+02
7.744598613015712090e+02
5.156330338347863744e+02
-6.579797725257127468e+02
-2.742819380273671186e+02
-5.221423712936635866e+02
-3.460817976490999627e+03
-3.356432316401069329e+03
-3.956667239721666647e+03
-4.448135110460428223e+03
-3.330459742035394811e+03
-1.945990072635013121e+03
8.402477797865930143e+02
1.097641658101955045e+03
1.361996381409487185e+03
1.557195848265803306e+03
1.457174624279975205e+03
1.543799715890942025e+03
1.330132599085192851e+03
1.012523807641767689e+03
1.129839759858656635e+03
1.239973459191994607e+03
1.316939601388553911e+03
1.122772466564846809e+03
1.120754485041684347e+03
1.040422001656762632e+03
7.327751267570785103e+02
4.051554203225301194e+02
5.788793373189835165e+02
7.810182718462505136e+02
8.145195043041580902e+02
5.618528552179357121e+02
5.610834750365768286e+02
9.847884160141547909e+02
1.197882227087412957e+03
1.206744182963543153e+03
1.462241262573127642e+03
1.362398909280562521e+03
1.567789067418825425e+03
1.936652187173182028e+03
2.202065618749533769e+03
1.948000839299198788e+03
1.943347543098639790e+03
1.633109290953275377e+03
1.377269603129154120e+03
1.320798208770821475e+03
1.312685768124772721e+03
1.010918210872521740e+03
1.119492521493910772e+03
1.200378151595678446e+03
9.265738916465168131e+02
9.130557518955760088e+02
1.092868014304445978e+03
1.190014984306022370e+03
1.272450237163905967e+03
1.229170331800884924e+03
1.477214964611451023e+03
1.652571446944785976e+03
1.317238270778941796e+03
1.361216988857616116e+03
1.657506954000623864e+03
1.324147502311146582e+03
-6.729161018114250510e+02
-4.018669593492219065e+03
-7.407109224567006095e+03
-2.452299440849428720e+03
8.428341843252860599e+02
-3.045176930104303779e+02
-5.932588025663603730e+03
-8.348344994710894753e+03
-8.578768212825412775e+03
-8.420835662479066741e+03
-7.863454480723483357e+03
-5.058469609947194840e+03
2.108184835803463386e+02
7.295766209010270131e+02
-5.176402536917335055e+03
-7.244010298648020580e+03
-6.893189280473424333e+03
-6.645932875696980773e+03
-2.860224348432982424e+03
1.912940911196192474e+03
2.409602744733551390e+03
-1.966256260618935130e+03
-5.889610004110877526e+03
-8.094250121244427874e+02
-2.857729367093853853e+03
-2.440532015382235386e+03
-2.412770516264523394e+03
1.585620595226231728e+02
9.804703579228947774e+02
1.769967236147761469e+03
1.769116060675266681e+03
2.408923930515363736e+03
2.388387128717942232e+03
2.177505099900170990e+03
2.505346390112018980e+03
2.718877611578717278e+03
2.681172479799494795e+03
2.462274306825445365e+03
2.258165630279122979e+03
2.219870208608503162e+03
2.172430673271930118e+03
2.131849417760164670e+03
1.996169328375709483e+03
1.694391447712395120e+03
1.873516822575972810e+03
1.770557959946251685e+03
1.548552674749085327e+03
1.312503424073639508e+03
1.123423913473889797e+03
1.136344456345738990e+03
9.853325314208886994e+02
8.603646284557205490e+02
8.784899111743450248e+02
1.204722267373960449e+03
1.286055968185797610e+03
1.428548913992748339e+03
1.475217353445335220e+03
1.348088057489869243e+03
1.421198622820472565e+03
1.469527701902639819e+03
1.314083291612426137e+03
1.165937472583278577e+03
9.481084520309626669e+02
8.844525134228540537e+02
9.168945635579667623e+02
8.986589007424731790e+02
2.580049589182320346e+02
-3.319968891021012496e+02
-2.473327638003965774e+02
-1.349757744362860024e+02
-9.970275939260891391e+02
1.714098229019054713e+02
5.935719488280476526e+02
5.280596467739036370e+02
6.144460495674563845e+02
7.497142824952597948e+02
7.379020987942870988e+02
1.021732954925626700e+03
1.107250101500094843e+03
1.219548320306345204e+03
8.994804285209829686e+02
5.800255738305376099e+02
7.031102374681299807e+02
6.573756837125453956e+01
-1.181003980125876893e+02
1.659572460617497924e+01
-1.601451276482711421e+02
-2.963624986929339116e+02
-2.180646468652350620e+02
-1.762507375582304405e+02
-1.829003504851083903e+02
1.089554197032339857e+02
2.183270644691282598e+02
4.842470641800289854e+02
4.387063809428344143e+02
5.786556599520714599e+02
8.371180855684959852e+02
8.050992670972342466e+02
7.576063585100436057e+02
9.586505747410263893e+02
9.702019659617934622e+02
6.202413111619526944e+02
1.937315407110635590e+02
-2.932438827275118953e+01
-1.499234000196799172e+02
-2.707531799131202277e+01
-4.478729126536066474e+01
6.793326663639156493e+01
-2.189526965584759921e+02
-1.664712517630905779e+02
-5.859452409529301065e+01
-1.203497959372802200e+02
9.426802124931063531e+01
1.192337341570847258e+02
-5.347566725692990985e+01
1.831358802644739399e+02
4.180895255133004866e+02
5.053145901030312643e+02
3.958662793139786800e+02
1.286980788710138768e+02
-8.188863737187212166e+00
-1.721808770340526962e+03
-4.296197084875140717e+03
-8.384350479107475621e+03
-9.127321807767844803e+03
-9.018121659936015931e+03
-8.441686276900576559e+03
-3.994107146807284607e+03
-5.397432326557599481e+03
-3.654630481010316544e+03
-7.769596907813686926e+01
-1.451617614012982813e+03
-1.524184443124952963e+02
8.838540757084729194e+02
9.691636823583648948e+02
1.175545321246587491e+03
1.701822879882138295e+03
1.887211307409211258e+03
1.577809466573928830e+03
1.523417810999440235e+03
1.512968687382541020e+03
1.416481665160013335e+03
1.162972162417495610e+03
1.078390054344938108e+03
1.116692046763042981e+03
7.788884455263912514e+02
6.759472862816727456e+02
7.228885518452887027e+02
7.667220510028660101e+02
5.544024526811642772e+02
7.809384622289909430e+02
8.512943352227188143e+02
6.424590204670431604e+02
7.434225630199150601e+02
6.612117486822862702e+02
9.698417570471524414e+02
1.174296368621443207e+03
1.271547069249731976e+03
1.354622764776790973e+03
1.275476691297548541e+03
1.225072848356586746e+03
1.170438688006276152e+03
8.955948934517336966e+02
6.895372371405626382e+02
7.922258208574337459e+02
8.256377737992431776e+02
6.277439239323351785e+02
7.615717162469787809e+02
7.050901189828481392e+02
5.923199209623126080e+02
6.512643291397534995e+02
6.569251772184496758e+02
8.233061730335730317e+02
1.069410337817411573e+03
9.832337060242670077e+02
9.907967106980524932e+02
1.079107182201587648e+03
1.242169957127579210e+03
1.362971906505111065e+03
1.141503270085083614e+03
1.163805590734604493e+03
1.153884300183746745e+03
4.007073497064936305e+02
4.873035383186289664e+02
1.346626584056739091e+02
-1.389200616695914050e+03
-4.892806273665420349e+02
-4.557945955795188553e+01
3.998512301176269830e+02
3.951329181799685557e+02
1.382132283884723449e+02
-4.291061108393197543e+01
1.397805871641982094e+02
5.432693951966562054e+02
7.655860680208114672e+02
-1.042223014151071766e+03
-4.029213983962944894e+03
-3.658290969428043809e+03
-2.714296338894161181e+03
-2.587414452384782635e+03
-3.295598244852239077e+03
-2.045612006633740293e+03
6.773703366345888526e+02
9.163906655045153684e+02
8.144655211502612246e+02
-7.985558993249654804e+02
-5.197693330433126903e+03
-1.967103607304934940e+03
7.264052607147567642e+02
9.808329173132101459e+02
6.201903581084334292e+02
-1.862474895948277435e+03
-3.973161224379653504e+03
