-1.320401889177199337e+03
-1.162494593204829016e+03
-1.230876774657604074e+03
-1.343488730264470860e+03
-3.763973298239931751e+02
1.613969461745815579e+02
3.819467610631199932e+02
4.081862175330918490e+02
6.541947241478856085e+02
1.011971177110246686e+03
1.371464728448808728e+03
1.764693506476715811e+03
1.208620857855315762e+03
5.601931217398748686e+02
8.524369140674664322e+02
4.712922768805265150e+02
-2.322383888086915817e+02
-6.802566904391297840e+02
-1.033735559262838024e+03
-9.736849651641731498e+02
-8.632051838662188175e+02
-9.363028538344809704e+02
-8.891048194250099641e+02
-8.286515430320899895e+02
8.025823693494123745e+01
6.979601196408323176e+02
7.549320064534820176e+02
3.289684198715539196e+02
1.330511029229413680e+03
1.673640389910309523e+03
1.839295826094384665e+03
1.793402267284979871e+03
-1.480038898262040448e+02
-2.399864630281162590e+03
4.220010072601663182e+02
7.244207146904199135e+02
-1.138825779136665943e+02
-1.030221794424244081e+03
-1.837092602498667929e+03
-9.845628863824163091e+02
-8.367975928026456813e+02
-2.850320374522359543e+02
-2.534488215381773841e+02
-5.071042501226322941e+01
8.781636355987644720e+02
1.745460599171027070e+03
2.117037718432899965e+03
2.243272165689122176e+03
2.245187703546995635e+03
2.495432718332471268e+03
2.476058319989189386e+03
2.590464002658764912e+03
2.116570835970094777e+03
1.622084823068870264e+03
1.578035446387675393e+03
1.206631095540436718e+03
4.907626171793167487e+02
-3.309957836534381954e+02
-3.625064327973558989e+02
-2.851983711055578965e+02
-4.784891059988621009e+02
-8.745013004772226850e+01
-3.859538459586752168e+01
7.369391216618927842e+01
4.480390342952880474e+02
1.188463097352239856e+03
1.837984887235039196e+03
2.101566230840163826e+03
2.207203213907421286e+03
2.834924812020308309e+03
2.971646033616779278e+03
3.148381584529510292e+03
2.772132655764880838e+03
2.097795366275154720e+03
1.889369183074079501e+03
1.604794194213871606e+03
1.428059789618843524e+03
1.075160872308489161e+03
6.339992370417988923e+02
2.535606989417926229e+02
1.617738701075777783e+02
8.026303939283802720e+02
7.821174713911561867e+02
5.173593259338395001e+02
1.504352421625794932e+03
1.853083288573613345e+03
1.640498428238841370e+03
7.815965496597245874e+02
-2.606001227474178563e+02
7.669198815828061697e+02
-4.856826450575177660e+03
-7.005806519735131587e+03
-6.593077692508270957e+03
-6.495586538869672040e+03
-5.453294108653422882e+03
-4.328575357706536408e+01
-2.210545331766342315e+03
-7.157110797072003152e+03
-8.465652237347616392e+03
-8.849480756044898953e+03
-8.477713146816971857e+03
-6.857274610231474981e+03
-4.951787744126266375e+02
1.482683400236831176e+03
2.281478466802552248e+03
-9.919192176509394585e+02
-6.163515278467090866e+03
-6.071251802344381758e+03
-4.315061449852412807e+03
-5.188644416660075649e+02
-3.322720382723838156e+03
-5.167576974445101769e+03
-5.402422760403533175e+03
-3.998190999156769522e+03
1.153152872744903334e+03
-9.723828096871961861e+02
1.002194780303332323e+03
8.489024421278289765e+02
-3.712495756564047724e+02
2.867812560495256093e+02
1.452001191064687191e+03
1.743435180414501929e+03
1.624079030473426201e+03
1.640094410853464979e+03
2.199501949604255515e+03
2.805368955378232840e+03
3.018724167030952685e+03
3.380621439170889516e+03
3.214074805319258758e+03
3.764200280412216671e+03
3.930047738876697622e+03
3.874648420917695603e+03
3.784979209573495154e+03
2.929212708398440554e+03
2.351442175655196934e+03
1.969567417145053241e+03
1.432565706805593209e+03
3.005003874613402672e+02
-1.056249856025553235e+01
2.245275406290309661e+01
-3.752581942232998813e+01
3.135403598472969975e+02
1.926765887479279229e+02
1.105928668702854623e+01
5.877987762244888472e+02
1.459809530215292625e+03
1.619167696793558434e+03
1.656980101743956311e+03
1.760271697305276348e+03
2.105217616041687961e+03
2.340776853598428715e+03
2.222939262022582625e+03
1.880782494111921778e+03
1.733240043821370364e+03
1.481350454786889486e+03
7.524313918935350785e+02
-7.317980042429883270e+01
-2.673410395766205738e+02
-5.862490407457788706e+02
-8.349794240629311162e+02
-1.438445448886654731e+03
-1.865716440958951353e+03
-8.487261329802411183e+02
-6.374884225219531118e+02
-1.950882913620853003e+02
1.980150064561530030e+02
3.566137302412059285e+02
7.160144867217748015e+02
9.024608650173706792e+02
8.771452940667148823e+02
1.141057201091040724e+03
1.287186161501967945e+03
8.755823855355837395e+02
5.092953615756083536e+02
3.353327052400206867e+02
3.286975976291304278e+02
1.364042079633354945e+02
-1.202643189359317148e+03
-1.448424972236632811e+03
-1.729894427475428756e+03
-1.955129954391594310e+03
-2.016128623655217780e+03
-1.943885791438863180e+03
-2.072399120677819610e+03
-1.447526512433446214e+03
-5.092517893239503337e+02
1.173600665921316164e+02
-1.206990744062579921e+02
1.725795141870578391e+02
5.912746934106464778e+02
6.873604034093432347e+02
6.898079297112835775e+02
7.326283841206919760e+02
6.848309433086691342e+02
2.424138270139906979e+02
-9.960044003164212256e+01
-4.323191794865437600e+02
-1.088830731622591202e+03
-2.745154044370419342e+03
-2.675315044280157053e+03
-1.841348119044076157e+03
-2.006249371925766127e+03
-1.662100150338617141e+03
-1.668838068442295707e+03
-9.424751987272214819e+02
-2.250181023887788285e+02
5.264685005171005514e+02
1.226933189320963720e+03
9.574167906517448046e+02
1.150915893469250022e+03
1.230423205932515202e+03
1.447905982356647428e+03
1.220281601553426754e+03
-1.638422187628720167e+03
-2.098158194216677657e+03
-7.260330488980199561e+02
7.775056617021992622e+01
1.052937655586981975e+02
-4.025234876357688449e+02
-6.177602431818346531e+02
-5.794717542118708025e+02
-6.526858439717753981e+02
-6.684803746465933045e+02
-7.188467302651417867e+02
-4.078275134805505218e+02
2.395313238045139315e+02
6.531683560178856851e+02
1.491884014825272970e+02
4.794680799938799964e+02
1.075003715609259189e+03
1.630734542138327470e+03
1.955615284677263617e+03
2.068559228502665974e+03
1.769579865953042372e+03
1.495708318008287961e+03
1.000782337665267733e+03
4.257216852027567029e+02
-5.305732814606705006e+02
-9.671038442083420250e+02
-7.469036946246565094e+02
-1.580383995075881671e+02
-2.155891597202565038e+02
-9.461150514582462279e+01
-1.720697149141623754e+02
5.106727062773571646e+01
7.006600984178315912e+02
1.234696620403264887e+03
1.851144890373570888e+03
1.952982179056260293e+03
1.811245474936134087e+03
2.584873397843874500e+03
2.844806834828042156e+03
2.804042420843390119e+03
2.632610466107562388e+03
2.632453441048774039e+03
2.184507250893872424e+03
1.381732371671443161e+03
9.069812405937740323e+02
3.122310828410960539e+02
1.554941623011443141e+02
2.677295089404437931e+02
4.368299204570585630e+02
6.768378487563763883e+02
3.956740181745964264e+02
1.032407537907645747e+03
1.718074809191280110e+03
1.535612397964799356e+03
2.040960222848076228e+03
2.714101442256772771e+03
2.587181424828182116e+03
2.877162665877134714e+03
2.816940755239499140e+03
2.614534969092642768e+03
2.301899006096422454e+03
2.094101186831038831e+03
1.982217004628078030e+03
1.786087823659715923e+03
1.211665762694037539e+03
-9.870363354597833450e+02
-4.347995321150725431e+03
-4.579188767043985536e+03
-1.637151119632079599e+02
-2.492561502537930210e+03
-7.755708385128434202e+03
-7.743057462560732347e+03
-6.620653528964349789e+03
-5.858465307816838504e+03
-6.059501304454654928e+03
-5.715768080275918692e+03
-5.265977857223185310e+03
-5.036053669142138460e+03
-4.731449338947153592e+03
-4.466966794599271452e+03
-4.877552316121164949e+03
-5.515127769021622044e+03
-4.924693888057020558e+03
-1.937376497711011780e+03
-4.436154685049571526e+03
-7.253052133739956844e+03
-6.951981639695060039e+03
-6.293925311914105805e+03
-4.519374544540339116e+02
2.450967268230750960e+03
2.370876502953710315e+03
4.588767643886153564e+02
-3.320996998541282210e+03
2.438287301562919311e+03
4.062793058294998900e+03
4.120509932352361830e+03
-3.194292977338740798e+02
-3.995983858243461782e+03
-4.199207277101991167e+03
-1.518046422624812749e+03
3.947585219143146787e+03
3.401710205696707362e+03
-2.730667925735770496e+03
-6.051543230329290964e+03
-6.431909564887128909e+03
-2.729767228753224572e+03
1.112911317602772897e+03
1.403193620734241449e+03
1.403101050803109274e+03
1.449599426976728864e+03
1.742747462055479900e+03
2.126621476739695026e+03
2.762269545611153262e+03
2.987659704624096321e+03
3.395893051614989417e+03
3.894986099328277760e+03
4.000033614486119404e+03
4.176120836926938864e+03
3.817205964208336354e+03
3.965340861208196657e+03
4.106527850198271153e+03
3.731809405202846847e+03
3.351263952051011984e+03
2.572880064956478691e+03
1.637660036100429352e+03
7.455811473127570252e+02
1.005700028481970094e+03
1.088058583356469398e+03
1.321568155238194095e+03
1.406137639154802400e+03
1.194801223797536522e+03
1.076899555736398042e+03
1.528787391800693058e+03
1.789232526262906731e+03
2.129892963181996038e+03
2.177593983103907249e+03
2.136138809138109082e+03
2.536629829343990878e+03
2.411906830513433306e+03
2.604583072464765792e+03
1.824233700039387941e+03
1.544109009138873944e+03
1.522058274159162011e+03
8.329794978799369574e+02
3.419871800975082579e+02
-9.862413098434416270e+02
-1.851436276104707076e+03
-2.730654355663130559e+02
2.409846862803182148e+02
-3.991381011898195652e+01
-3.015375809496479746e+02
-1.302193135651120599e+02
1.008890420811801505e+03
1.330626808162226780e+03
1.262466155215647177e+03
9.703638841522611074e+02
1.572276788012433599e+03
1.840049568686815746e+03
1.885324330654561209e+03
2.109917827561043396e+03
2.168126586612281699e+03
1.786954780583580941e+03
1.481423826431976295e+03
7.363380568877105361e+02
1.345975491100077477e+02
-8.627532448506295850e+02
-7.947093236925195470e+02
-1.080277601384772652e+03
-8.775516880379321947e+02
-4.895408695136065376e+02
-3.701836644954852886e+02
-4.955397868736463920e+02
1.854602993055097500e+02
7.897457705390106639e+02
1.208369084657488656e+03
8.252576419756285304e+02
1.380393114929202511e+03
1.858894220098328105e+03
2.198697212237403164e+03
2.290725984601599976e+03
1.898996668396414179e+03
1.630540630279384914e+03
1.242275231128063297e+03
4.721614705238838496e+02
-6.839147725397004329e+00
-7.368092749588379320e+02
-7.137016909018270781e+02
-7.225356256371862855e+02
-1.231415820268864309e+03
-1.168408232041137808e+03
-9.044173931117005623e+02
-1.034465926944004195e+03
-2.225756329886142737e+02
3.772146089642552056e+02
4.709037778742383011e+02
2.075063697785553813e+02
-1.834994234814729452e+03
-5.187548777646348753e+03
-7.188194993847918340e+03
-7.106960546247750244e+03
-6.520851728043956427e+03
-6.365937548982575208e+03
-7.172189424617412442e+03
-6.916670443949449691e+03
-7.537366911612676631e+03
-8.503242065552261920e+03
-8.951466222709614158e+03
-5.977977029552227577e+03
-1.307808066367432275e+03
1.549634770122385135e+02
3.473109278774572317e+02
2.462146833490092774e+02
7.978592675689145608e+02
1.279206718486020918e+03
1.260222165873125505e+03
1.566879832668899326e+03
1.955223615313504297e+03
2.183279010961156928e+03
2.479992015648977485e+03
3.142336389629833775e+03
2.896343104086523454e+03
2.284071699375777825e+03
1.968504232141573993e+03
1.568623402042510406e+03
8.714269242918807095e+02
-3.011159137199583711e+02
-1.414042839595541182e+03
-9.983474458786212153e+02
-3.210689439408039902e+02
1.097499139296372874e+02
-1.008841744122737651e+02
-6.398195525780798789e+02
7.593233390099575786e+01
6.243890911792684619e+02
7.285792153775687439e+02
4.734875180032321396e+02
6.731011616810684473e+02
1.318516572215846963e+03
2.146765867029426317e+03
2.660844160966943036e+03
2.521719493805232560e+03
1.948508079292934099e+03
1.339331361808860493e+03
7.540389262637353340e+02
4.645570908277250055e+02
-2.740152945061335572e+02
-4.517159461434780496e+02
-5.054969927639993443e+02
-4.204000951605642058e+02
-5.584192102427692816e+02
-9.615770210850345165e+02
-1.077822711200871936e+03
-6.360259821775306364e+02
9.181150928669782729e+01
6.757698404622560702e+02
3.928103122975242059e+02
7.569044739314326762e+02
1.249357782165346862e+03
1.402003148734369461e+03
9.050335049933355549e+02
1.207821807183147257e+03
8.980619191653642019e+02
6.767698701513602373e+02
-1.415943327598409773e+01
-5.407362530465109103e+02
-5.929374643871076387e+02
-9.937787359697854299e+02
-1.388214667380182391e+03
-1.939210121895519933e+03
-2.613799099253432360e+03
-1.420028102396065606e+03
-1.229617292920317368e+03
-3.055937311091750530e+02
4.049641225006584477e+02
6.530842062077467745e+02
3.468307303490817617e+02
6.592201392784082827e+02
1.394354976516686520e+03
1.579215907009867806e+03
1.618849363788651999e+03
1.163294826696426526e+03
7.865686539840618252e+02
4.526737307209669439e+02
9.457826367026966352e+01
-1.317510807976091485e+02
-9.542470047566200719e+02
-1.530943956480562065e+03
-1.599843628318159290e+03
-1.559949399177688974e+03
-1.450279310876746422e+03
-1.197797149893910955e+03
-1.241573542023021901e+03
-7.264539546388296003e+02
-2.473703502166223132e+02
-4.814404227083671231e+02
-6.616130525275624450e+02
1.321162734539069845e+02
7.907794271390110907e+02
1.398376079805150539e+03
1.948935142562477722e+03
1.698464235952069430e+03
1.250000060736470232e+03
1.020524943082663640e+03
4.359905031775547855e+02
-1.636497458601974984e+02
-2.334466617042051837e+02
-1.427430722444913499e+03
-1.853545347948866493e+03
-1.304877994492010430e+03
-1.056470033164425558e+03
-1.280276960939356059e+03
-1.461297394243300005e+03
-4.765304531011400968e+02
1.370198726109414338e+02
5.833522510814171937e+02
8.084791532384812172e+02
8.323318260158915294e+00
2.059564234073927764e+02
1.665316727330960703e+03
1.736336011370547567e+03
1.271009344488198394e+03
6.913432699975415971e+02
4.314772083019793172e+02
4.525424418049039446e+02
1.192407689641652127e+02
-2.848863514218623436e+02
-1.150359153788205276e+03
-1.545916579581783253e+03
-1.125930063911421712e+03
-8.235473384206961782e+02
-8.577981656969725464e+02
-1.421643263191872393e+03
-5.932779828907762294e+02
4.194024802136300423e+02
7.375428695638020145e+02
1.425232877056351754e+03
1.469056021842809741e+03
2.065378885503852871e+03
2.428703235670478989e+03
2.682151596868170145e+03
2.370676377426852014e+03
1.873231994459644284e+03
1.673141620246921093e+03
1.558992867270362694e+03
1.245846832722050294e+03
4.298177559551601803e+02
-1.357152597598216062e+02
-2.349118917117533840e+02
-4.201937066512030583e+02
-3.232710629135577847e+02
-7.510628195994160983e+00
-6.150437080618226560e+01
6.149502629650695553e+02
1.443510793044486718e+03
1.682788182349236877e+03
1.853338636957133303e+03
2.306220520376601598e+03
2.387718293590109170e+03
2.844680126989768269e+03
3.180364507736467658e+03
2.896586324353011150e+03
2.738188297293033429e+03
2.117705496224351464e+03
1.905997241841517507e+03
1.818447982919796459e+03
1.279877784181138395e+03
1.036172847801720081e+03
1.019252210899687157e+03
1.058093376894325729e+03
8.226143437197929416e+02
1.036750326928311324e+03
1.129504701264396772e+03
1.466964421775937581e+03
2.157149665851674399e+03
2.344999647008191005e+03
2.711517431680995287e+03
2.804604474734555424e+03
2.808298067233163692e+03
3.300648293487511637e+03
3.280586958270669129e+03
3.123126693102370609e+03
3.091309571143769517e+03
2.809166831217239633e+03
2.331594574444537102e+03
1.547554219759718762e+03
-1.762029252727671064e+03
-6.622133634643000732e+03
-9.265709100767076961e+03
-8.399808753654335305e+03
-8.748469327067334234e+03
-8.214628384641953744e+03
-7.632293001937798181e+03
-7.402449616846727622e+03
-6.147060262877431342e+03
-5.873149912207562920e+03
-5.473722052109803371e+03
-4.914739113644386634e+03
-4.978040226918217741e+03
-4.217655296185178486e+03
-4.051594010079821601e+03
-1.360804546881521901e+03
-9.493224339748238663e+02
-4.615048713532788497e+03
-5.392977532024672655e+03
-5.779310256883580223e+03
-5.943974100285351597e+03
-6.387887681020429227e+03
-6.621023840293989451e+03
-6.950386779653636950e+03
-6.616029307617052837e+03
-6.563875549816984858e+03
-6.716856255885783867e+03
-5.940888812803957990e+03
-5.059006245605612094e+03
-3.780125096335764283e+03
2.191794874820277528e+03
4.436747084375513623e+03
5.459828594120955131e+03
5.902143025725568805e+03
5.908669477797353466e+03
5.557458049208551529e+03
5.232537895615628258e+03
4.699056433292433212e+03
4.309933575637012837e+03
3.402214192764100062e+03
2.582919865312398542e+03
2.367024068042986983e+03
1.730586975724887907e+03
1.624685311226475960e+03
1.599302674732603236e+03
2.292486020684633786e+03
2.173284398023422909e+03
1.980825308885145205e+03
2.765097925251462129e+03
3.263149048329537436e+03
3.195042492076578583e+03
3.364825719836139797e+03
3.458614457291111648e+03
3.440467129194523295e+03
3.556399113719398883e+03
3.391523630988873265e+03
2.833848686495834045e+03
2.656430069188661946e+03
2.380259530420370083e+03
1.754361005718105389e+03
8.628213869629649935e+02
7.776449597718967652e+02
5.408076615065359647e+02
3.193737944895916030e+02
1.073245760413422119e+02
7.570829705808954202e+01
1.505453310484875260e+02
-4.114130195960104430e+01
8.709349170079466376e+02
1.604192281939619761e+03
1.735687622887772704e+03
1.748263449735543190e+03
1.593983181314610420e+03
1.867939159788227471e+03
1.552247212227688806e+03
1.062642055652664794e+03
1.264228568665577541e+03
9.982651820353850098e+02
1.057725219625182945e+03
1.212305539002878959e+03
5.330045317557120370e+02
-7.632085680553649354e+02
-2.287262087228769815e+03
-1.534267686471699108e+03
-1.223308750894825835e+03
-8.643638967385985552e+02
-7.633871344755875725e+02
-5.893033181725585337e+02
1.489758635745420889e+01
2.001975786950073939e+02
2.655870975915747181e+02
6.000514742877750223e+02
3.886823954318928145e+02
8.835574135217286766e+02
1.161643872199177167e+03
1.478914206982009318e+03
1.573399036250428480e+03
1.269188218442811376e+03
6.862849558450666336e+02
2.275623266627152930e+02
-4.900270239341193701e+02
-1.560521318875457609e+03
-1.785888013325393104e+03
-1.785103445626695930e+03
-1.442242726035433861e+03
-1.052351770548587410e+03
-1.060344463883094477e+03
-1.420199528941766175e+03
-7.929158314761941710e+02
-2.635577994565484232e+02
1.098395352585737896e+02
-2.167464118345605186e+02
2.987430650398449643e+02
1.008348603898837496e+03
1.198045483284617831e+03
1.109807128792019967e+03
1.133575278328853074e+03
9.313898214097036998e+02
7.232201598902057640e+02
4.749530670802827217e+02
1.205258613144973197e+02
-7.630845794356617944e+02
-1.368863288518397439e+03
-1.665846376271993222e+03
-1.951117540832943632e+03
-1.629714633289829180e+03
-1.988667813620682182e+03
-3.811939398064769648e+03
-5.596547400694006683e+03
-8.575555642311843258e+03
-7.798957032315322977e+03
-2.025738064193064247e+03
-2.130146888160309118e+02
1.305333635725791737e+03
1.576245677821402069e+03
1.669675555267496293e+03
1.629532894208642347e+03
1.027821954831829771e+03
4.945107211198657637e+02
4.035210508582932789e+02
-5.819298960737881288e+01
-1.835567592049683981e+03
-1.463778776925319335e+03
-8.220044164759043497e+02
-1.069282548735953014e+03
-1.214239785859581161e+03
-9.470124796489852770e+02
-8.887576177114626717e+02
-1.426093519632249240e+02
1.556336029490815065e+02
5.467528643566570281e+02
1.090905067378746708e+03
1.095297133565682088e+03
1.274552875104420309e+03
1.522661693294738143e+03
1.675712139088007234e+03
1.995646955199337299e+03
1.919436362093630351e+03
1.387241414050346748e+03
8.356581492214123728e+02
3.058911818149194346e+02
3.784520206882249482e+01
-1.242850372378308293e+03
-1.256871870893948198e+03
-6.890817894541921760e+02
-6.579486027661434946e+02
-3.963115618267858622e+02
-3.870962503841889202e+02
-1.533111205248878832e+02
2.708029376234932215e+02
6.434795499818040980e+02
6.427498136876696435e+02
1.394518116450795333e+03
1.865903480228347007e+03
2.234687561844759330e+03
2.433934222308031622e+03
2.171721394618187333e+03
1.659806113686837762e+03
1.375523452254032236e+03
9.876361634333576376e+02
3.039124067170859576e+02
-6.664753441350216008e+02
-8.737062458135751513e+02
-5.482863865367695553e+02
-7.975866922822158358e+02
-3.967330158191334135e+02
2.022495096451258121e+02
-8.457472216558900868e+01
6.979056521468154415e+02
1.168633861677818004e+03
1.178530937003431745e+03
1.337644730526021476e+03
1.471025132263883052e+03
1.822743972453367405e+03
2.482753947925006742e+03
2.467008227135272136e+03
2.141528899576026561e+03
1.863332650533038986e+03
1.345451160042033507e+03
1.000860176074884180e+03
3.864760770187017442e+02
-4.107239485751854886e+02
-1.319728883922274690e+03
-4.177392898870178215e+03
-5.545855669404470973e+03
-4.775156805753329536e+03
-1.696215676049708009e+03
-3.211986492795091181e+03
5.059999501575829584e+01
-2.869494738457055973e+03
-2.828266706319091554e+03
4.552992346403394777e+02
-1.549761414408277915e+03
9.463349052073337475e+01
1.349290968909552468e+01
2.055783614482155372e+03
-7.624585908631997881e+02
-2.441627446396589391e+02
-4.345283301253762147e+03
-2.964877978788916607e+03
7.030216496561087069e+02
-2.849552168666696161e+03
-4.503621455202005563e+03
-4.673142344390561448e+03
-4.631368167895207080e+02
-5.096206466980041228e+02
-3.129524587574046109e+03
-1.389837207231809998e+03
-4.712417908180897030e+03
-2.146219779752483646e+03
-1.910334210583596587e+03
-1.999720226409403267e+03
-1.055303037382348066e+03
-9.380418119808105075e+02
-1.027920550302576657e+03
1.583054143308680068e+03
2.520867552217433513e+03
2.600611852893675405e+03
2.307322231652913615e+03
2.245010093140979734e+03
1.817607599040833975e+03
3.551488816571489906e+02
-8.303661100272829572e+02
-5.099257419938805356e+02
1.594906158068987168e+02
5.548774699394723484e+02
7.532384051876792910e+02
3.676477344128025493e+02
6.951776162149150196e+02
1.457847738861406697e+03
1.529646589419804513e+03
1.368616089781031405e+03
1.517772400248876693e+03
2.112143065504796141e+03
2.733799062726669945e+03
2.957735235685530824e+03
2.475858470752996709e+03
2.142378168372869368e+03
2.149587513863366894e+03
1.470690323026936085e+03
7.614212869877737830e+02
6.329244191855112831e+02
5.000821437909482370e+02
1.788820511396512813e+02
1.253633126471238626e+02
1.304419379027482648e+02
-6.217480386943788062e+02
-8.404207398134092273e+02
-1.455138291890095843e+02
5.271116365337039724e+02
1.294398319687697722e+03
1.955514229851482696e+03
2.097249158148676088e+03
2.251335536416705509e+03
2.475325914671366263e+03
2.430099866978296632e+03
2.236630172248399504e+03
1.977930292554488688e+03
1.629993576576700207e+03
1.226802138934531058e+03
8.372993508435583863e+02
3.104322838904030846e+02
-2.108314212993521153e+02
-4.494223481794037980e+02
-6.604478003131140440e+02
-4.587737083451811486e+02
-3.313500778479119617e+02
-5.549416175219264460e+02
-1.114205516570615941e+02
8.832360828828096828e+02
1.286066202043647763e+03
1.315105856397362913e+03
1.167324887301607305e+03
1.877713707831332385e+03
2.122297449201248583e+03
2.079055390687017280e+03
2.299038987352472759e+03
1.894228076201714430e+03
1.410593352686602429e+03
1.007128212203877183e+03
6.147526192649303312e+02
2.564337182023760420e+02
-2.048958887231087829e+02
-5.081865533743109609e+02
-6.344684754186105238e+02
-7.208388714792872634e+02
-6.133102596011823380e+02
-6.828485476775688312e+02
-3.554076387107737673e+02
2.910642914385746280e+02
4.445058549606819724e+02
1.034871756296123522e+03
1.410197397462260142e+03
1.606538805750991969e+03
1.864846446735577501e+03
1.894087597356963215e+03
1.944279618469079878e+03
2.053393614824657561e+03
1.516404848659125946e+03
7.333828922729891246e+02
2.220305928268673767e+01
-8.221368812395153327e+02
-2.705666917472536625e+03
-5.872420350701067946e+03
-8.780396493189029570e+03
-9.318702835918238634e+03
-9.014360621809886652e+03
-9.388327450050908737e+03
-8.776548176937692915e+03
-7.496959144266245858e+03
-5.791683346586902189e+03
-6.799646049872942058e+03
-8.050811973071332432e+03
-6.899268956185136631e+03
-5.782956664204331901e+03
-4.832975874860820113e+03
-8.273445165440033406e+02
8.650190118397106289e+02
2.628177182461325629e+03
2.681182317034289554e+03
2.085824842524321866e+03
1.463085812012536508e+03
5.959496275940311989e+02
7.794487357415052884e+02
1.166539412994325176e+03
1.131163952074454755e+03
9.363545623039868815e+02
8.811544482309807336e+02
1.048556635338522710e+03
1.749665493396099464e+03
2.295372850715016739e+03
2.333706271984127852e+03
2.292647370720323579e+03
2.729222746201587142e+03
3.089483382887955941e+03
3.386436784445349531e+03
3.613122550118750041e+03
3.315533695936541790e+03
2.805712954373320827e+03
2.115632250418087551e+03
1.707264614336870864e+03
6.355693539109524863e+02
2.495309187038502330e+02
-2.148186020812711376e+02
-1.114502537980860382e+02
-9.646056748276181736e+01
4.416533319528797819e+01
-4.853685917607914035e+01
2.335664930455564274e+02
8.424094519943568002e+02
1.319990653578762021e+03
1.690375566819270261e+03
1.835574505097318252e+03
2.279636011272285032e+03
3.272568858534945775e+03
3.379362054918369267e+03
3.151037685593452807e+03
2.651649065879093996e+03
2.249268902084338606e+03
1.865855928417341147e+03
1.250401022284482906e+03
8.289069779023805040e+02
3.003448984613385733e+02
-3.492954359034465597e+02
-2.669273747561562686e+02
-3.835449772076552790e+02
-2.766972623231260400e+02
-2.855790068320220030e+02
-6.645645714412477219e+02
3.848289181434712418e+02
1.344821930864914066e+03
1.728040348591581505e+03
1.394441270350462673e+03
1.989003125679388177e+03
2.334797438534332287e+03
2.035858296266587331e+03
1.164063962866647216e+03
1.166319206004920488e+03
1.318284124356998063e+03
-1.550381110764706136e+03
-4.352832834547997663e+03
-2.006992672600375954e+03
-8.858495234267181786e+02
-1.926438978838779349e+03
-4.097752187473055528e+03
-2.857806020764873665e+03
-4.535578646162820405e+03
-4.115091049296233905e+03
-7.122538496955963865e+02
-1.447012952789453948e+03
-2.188405733908344700e+03
-1.551411147307985175e+03
-1.082014859839012388e+03
-1.335189930813026876e+03
1.215134942512152747e+03
-5.270592480083220153e+02
7.722527516919363961e+02
1.573049878596403460e+03
-2.250648965938989477e+03
-2.379742221996919397e+03
5.646403091280753870e+02
-2.070547127044275385e+03
-3.581282588410473636e+03
-4.144596631497341150e+03
-3.498462310413967316e+03
-5.886909110441340999e+03
-5.161942542538758062e+03
-3.413562859805304015e+03
-3.200722225265418274e+03
-1.272433939575856812e+03
-1.621704043519718425e+03
-1.451491585188768340e+03
-6.582819098555826542e+01
-1.146699398798647280e+03
1.113995724806830594e+03
1.383225201024358739e+03
-3.700698943293714933e+02
-1.618735681814769976e+02
-2.943085313760671397e+03
8.572025789639665163e+02
1.909913420367562139e+03
1.350046329764829807e+03
3.085360891939695875e+02
-1.816534491394270958e+02
-3.924594619027073463e+02
-4.159844024963879860e+02
1.087821387495886682e+02
1.358559761972935576e+02
2.172099910230709554e+02
1.072862265332780908e+03
1.700780039495856727e+03
2.078930635914858158e+03
2.400361834050816924e+03
2.822074038694150659e+03
3.059087879638051163e+03
3.295410387305610129e+03
3.236944866374185949e+03
2.710697358991572855e+03
1.734691932791531826e+03
1.797675125207155816e+03
1.320054711354869823e+03
4.479722866014590181e+02
-2.725412520807144574e+02
-1.563551859302123432e+02
1.759492916627891645e+02
5.472302109507704699e+02
7.328204973199208325e+02
9.196550258840668448e+02
7.719412104125606220e+02
1.195421885450542050e+03
1.850847850945968958e+03
1.997335130222276803e+03
2.152383099316689368e+03
2.381745125492058378e+03
3.162003187662912296e+03
3.492365725111907977e+03
3.041776957343046433e+03
2.964857523492353266e+03
2.569073100795365917e+03
2.022185940324868625e+03
1.615183758578825291e+03
9.364340196561719267e+02
2.285268768691191781e+02
-8.867632711325749142e+02
-1.927177068473981478e+02
7.073671415273447565e+02
6.888182096613520571e+02
8.966971138075431327e+02
1.213287816291487843e+03
1.955413673611723425e+03
2.163848289747910258e+03
2.344023373823614293e+03
2.123235737830342714e+03
2.253724139024189753e+03
2.840552277924753980e+03
3.680966237512511270e+03
3.531817295904097591e+03
3.191976965865681905e+03
2.959511287205545614e+03
2.432414152337846645e+03
2.093548317628166842e+03
1.826821461841399696e+03
7.772101995115108366e+02
4.857070554337004182e+02
6.163756864506117381e+02
6.821112836327333753e+02
9.338730956756121486e+02
1.068694317879687333e+03
1.009598002789230463e+03
1.175637094962566380e+03
1.836765961495508236e+03
2.024921565260756097e+03
9.915337229894112170e+01
-3.086491304026409125e+03
-6.159968457082806708e+03
-5.942328671459411453e+03
-5.989540147429386707e+03
-5.394615784741503376e+03
-5.455523515480817878e+03
-5.621247513271329808e+03
-5.658798748289231298e+03
-5.654277039704606068e+03
-4.661715528072175402e+03
-6.381992351893025443e+03
-7.461080091828467630e+03
-7.538126393730349264e+03
-7.509070931861090685e+03
-5.587962273590698715e+03
-2.892769391687126245e+03
-5.525407252720266115e+03
-5.994840280097851974e+03
-5.743061452615287635e+03
-5.520062095346864226e+03
-4.813809286497925314e+03
-4.340219461867022801e+03
-3.761291905268697064e+03
-3.936020845449440912e+03
-4.062386956516787450e+03
-4.843326118983033666e+03
-4.947811112191901884e+03
-5.361875264224737293e+03
-3.385488836741668365e+03
8.963217886956899747e+02
1.858595567265215550e+03
2.143348264204827046e+03
2.109533807497858561e+03
2.342189085536282164e+03
2.910344411776040943e+03
2.911976365607557909e+03
2.879280336138881921e+03
3.025272408614236156e+03
3.130972066813653328e+03
3.442374898576358646e+03
3.607486378692221024e+03
4.157437375488733778e+03
4.404279694730981646e+03
4.289012122342556722e+03
3.978628954058926411e+03
3.758201070340421211e+03
3.607798333515162540e+03
3.081415612069763483e+03
2.416042519245093899e+03
1.464724980499019694e+03
3.674591070837414009e+02
1.262625143866243604e+02
7.471668148879497267e+02
7.471542906069864785e+02
4.622322399295406399e+02
4.984559423499292734e+02
1.028930807162380006e+03
1.534690942451263709e+03
1.752770661510676064e+03
1.983193810598870414e+03
1.550995625215670316e+03
1.635222627109864561e+03
2.787997354990069198e+03
2.632323805648110920e+03
2.580127091796555305e+03
2.474384899007933655e+03
2.203219446765950579e+03
1.759088422884851070e+03
1.183135963362267148e+03
3.592553768155247553e+02
-4.696285099042968341e+02
-6.834202454780617018e+02
-7.517420813017631076e+01
-4.388989718171818595e+02
-3.469078880412808985e+02
1.142025746985305830e+02
3.065640250651894121e+02
1.038041959377684634e+03
9.746191895779587639e+02
8.932722634895537794e+02
1.071946032268897397e+03
1.333747982945797048e+03
1.877393006907848076e+03
2.110888442738146750e+03
1.902288572325351879e+03
1.657585332548640736e+03
1.679853145127195148e+03
1.262973569266814366e+03
5.389386138990693098e+02
