8.270264214010280739e+02
1.463638653500679084e+03
1.952821170353055095e+03
2.548692509038099615e+03
2.980336945492452742e+03
3.820821728163888565e+03
4.163168654955707098e+03
4.368438268329319726e+03
4.737696089173990003e+03
4.131924606442098593e+03
3.849146369372961090e+03
3.262364167073203134e+03
2.357567630432791702e+03
1.906766373945301893e+03
1.457960212101268098e+03
7.700749199366536004e+02
4.711792005265938883e+02
1.354157023739821284e+02
-8.702481723910942719e+02
-5.868264351732474324e+02
2.277175849477483496e+02
5.513876435245882703e+02
7.502443654026797049e+02
1.488504823619949548e+03
2.421451852826021423e+03
3.177057458265755486e+03
2.892356999636309865e+03
2.696404158469305912e+03
2.521153553887331782e+03
2.043645964895815268e+03
1.506921721076548010e+03
1.010924431517346648e+03
5.686697520342353300e+02
-7.247361087781200695e+02
-1.346246435073676594e+03
-1.599955558662389876e+03
-1.644815458315852538e+03
-2.240917265661094461e+03
-2.477744000927023990e+03
-1.205918304299254260e+03
-2.753552346812745668e+02
-1.788984607361246901e+02
2.772879627427979585e+02
8.291907746585834502e+02
1.442884115169968709e+03
2.122312699493881610e+03
2.424485022696887881e+03
2.002467560477080269e+03
1.875256499015337795e+03
1.803880794563277732e+03
1.628377793854692527e+03
6.537328904761958484e+02
-2.071961028374150260e+02
-1.368353201464470885e+03
-1.852766299559928939e+03
-2.375500472406589779e+03
-2.659537651615426057e+03
-2.620861044912332545e+03
-2.840492148845369684e+03
-2.488403529316769436e+03
-1.788599383322461790e+03
-1.266113977535106642e+03
-8.379683866776309742e+02
-1.650634847302165156e+02
9.585567135861798533e+02
1.588954612112440600e+03
1.863184864349036843e+03
2.255183129603839006e+03
2.315980984064066888e+03
1.960589066575272682e+03
1.591029690945110815e+03
1.212254847435162901e+03
6.941925719378815529e+02
-8.416600979426397089e+01
-1.032932038690094714e+03
-1.267130368709212007e+03
-1.313805393469436922e+03
-1.478015225305982995e+03
-1.447763429024206516e+03
-1.012072501203772163e+03
-9.519504505351914077e+02
-3.103794470782368080e+02
2.846491682465822350e+02
2.111499536948586240e+02
-1.519888002588543031e+03
-2.957403192573838624e+03
-4.522419355557551171e+03
-4.918951064635846706e+03
-4.208016383318285989e+03
-4.111531597258439433e+03
-2.101549662256538795e+03
1.096812018823482504e+03
7.844829108676036640e+02
4.146247157217912616e+01
-8.132456394836204936e+02
-1.368652717268242441e+03
-1.493868083177531844e+03
-1.364006362294326209e+03
-1.579065206665731921e+03
-1.876997903091872104e+03
-6.848380226892707014e+02
-5.025613572261397621e+02
-1.572517275545227164e+02
6.480902044857132296e+02
1.214444161617688223e+03
1.788000901611143490e+03
1.889586139020507289e+03
1.728022376488937425e+03
2.442427326899675336e+03
2.105019405270055813e+03
1.222894011062732716e+03
1.273984298896544260e+03
1.086116755495525240e+03
1.713360166406604037e+02
-5.573640918378282549e+02
-1.115008219269191386e+03
-1.490716083271269781e+03
-1.863513187414150252e+03
-2.109393726218977008e+03
-1.292384836334799957e+03
-6.704600122922247465e+02
2.634839336931586899e+02
7.082384553799589639e+02
1.163740073821752958e+03
1.760231952067898646e+03
2.388739231308092258e+03
2.545151518865538947e+03
2.326543094796917103e+03
2.616887826078626858e+03
2.421139474450671059e+03
1.895405841342380654e+03
1.525618819186086284e+03
9.486192197063463709e+02
1.564773119578958074e+02
-6.888177242862683443e+02
-1.067419831058868340e+03
-1.270164274633880268e+03
-1.543311191374634973e+03
-1.697026618424049730e+03
-1.392068932600532889e+03
-8.444306429941239003e+02
-5.010735305101874815e+01
6.140393283913334699e+02
1.094070265781029775e+03
1.590772430317185126e+03
1.993099023375501929e+03
2.261097346557300170e+03
2.620705681436174018e+03
3.033959715288592633e+03
2.724844755124871881e+03
2.371402828458973545e+03
1.992587824326475129e+03
1.226387009136559982e+03
3.908165245788828202e+02
-1.682134960298161275e+02
-6.457785498612374795e+02
-1.078939915478206331e+03
-1.170669477212345555e+03
-1.119978024794780595e+03
-9.808579459069370614e+02
-1.872290816894178079e+03
-3.305223497177644276e+03
-2.682676965509383081e+03
-1.972689178619702034e+03
-1.656202206992841866e+03
-4.513216368699995229e+01
-6.564606123205159065e+02
-9.781822188807988141e+02
-1.282317196489014577e+03
1.236211784146135869e+03
7.694118458616127327e+02
7.942592396417387590e+02
1.368783317278575396e+03
-1.346069541647268579e+03
-8.532605247414338123e+01
-1.895039585059954561e+03
-2.724223205461615635e+03
-1.268869353934833953e+03
-3.272980409735044759e+03
-2.902515740345647373e+03
-3.027472518036559904e+03
-6.428168088153745430e+02
-1.257572631297563248e+03
6.453778403402341155e+02
1.604008839013068837e+03
1.013371056142771181e+03
4.484440337069223688e+02
6.823564984952256509e+02
1.940097690145564911e+03
6.196819194285742469e+02
1.791492333707524836e+02
8.135024779497557574e+02
-9.903510160723369609e+02
-2.649368335696673512e+03
-3.687522282666144747e+03
-2.731756157991567306e+03
-2.834201968084713371e+03
-9.469062165052723685e+02
-1.092824509406549851e+03
-1.010906365416790095e+03
-5.991348817830329381e+02
-9.634374043017633085e+02
-4.748306159789021876e+02
9.567615458729599140e+02
1.914396871919941077e+03
2.452157690138490580e+03
2.502998342796642646e+03
2.665898347141013801e+03
2.232908525935520629e+03
2.274092522354436369e+03
2.314471947289216132e+03
2.025051222093553861e+03
1.791680392969643663e+03
1.225455727612524015e+03
5.686598176220245477e+02
-3.399473384111515770e+02
-1.627298477763811889e+03
-2.218303809927220300e+03
-2.100879018993859063e+03
-1.317052355723107667e+03
-8.128477946714122027e+02
-3.024727713637544824e+01
-4.391312245078375440e+02
-5.006457941656948378e+02
3.003226379655225173e+02
1.543858462663466526e+03
2.131988027769635664e+03
2.593734412807010813e+03
2.860057479933337618e+03
2.626906169395009329e+03
2.193357095065434351e+03
1.790396561424504625e+03
1.705990732091856671e+03
9.602047629053474793e+02
-4.650526604720689079e+02
-1.796828213484999196e+03
-2.365169090308434988e+03
-1.646106450008581760e+03
-1.091606406269214176e+03
-1.189708653525041200e+03
-1.026378143916801037e+03
-3.125949560107173397e+02
4.955913590132224726e+02
1.222242249136462533e+03
1.051231471058411898e+03
7.846859279042871549e+02
2.035453530399180181e+03
2.971548740604363957e+03
3.532030253777738380e+03
3.646860923835261474e+03
3.110101846524357825e+03
2.644673474397309292e+03
2.101447620055077095e+03
1.564485244300617069e+03
6.307839976048829840e+02
-1.707214811884736605e+02
-7.170170028233545736e+02
-1.012160973053648377e+03
-1.931178535244323257e+03
-1.987069885677477714e+03
-1.590825243766720632e+03
-7.194145463454477749e+02
-4.778970418655769663e+02
2.957847228816928009e+02
1.640623087071408236e+03
2.115621851064202929e+03
2.642848397325966289e+03
3.033287136448042929e+03
3.078945135155950084e+03
2.845826218566127864e+03
2.648912531544102876e+03
1.512201410117100295e+03
5.235941467138675307e+02
8.060740771979302508e+02
6.716813970750271210e+02
-2.675562460488986289e+02
-1.000754261909466891e+03
-2.535985045108739996e+03
-5.054244557587953750e+03
-6.937534437313367562e+03
-6.538874484531846974e+03
-6.406280665038310872e+03
-5.388772437380878728e+03
-4.394216184625805909e+03
-3.936631052463581000e+03
-3.863022577315730359e+03
-3.180367920690092433e+03
-3.652660982430600598e+03
-3.823880681953927706e+03
-3.232082333099707739e+03
-2.693186599390905030e+03
-2.838284906679493361e+03
-1.910418075800864017e+03
-8.746427611155519344e+02
-4.613951795652556939e+03
-6.707322973710943188e+03
-5.506967447677347991e+03
-2.033920011895454763e+03
-1.261105670725582286e+03
-9.515663767029092242e+02
2.669130466336880403e+01
6.766693665371490169e+02
1.119370152036151239e+03
1.629794026259482507e+03
1.719010634345907874e+03
2.234018712705884354e+03
3.109796215499589380e+03
3.912374187976321991e+03
3.338788931475726258e+03
3.273033918533148608e+03
3.055121088512064944e+03
2.305999672405183901e+03
1.777606875292188306e+03
1.439937632390117415e+03
9.149419194833670872e+02
7.405768008086324699e+02
6.867846053955362322e+02
3.835404066260464333e+02
3.458352090217190380e+02
1.306516024553700674e+02
-3.880510926624040735e+02
3.471340383010841890e+01
1.079955835446218089e+03
1.224713521806393373e+03
1.726964870175563647e+03
2.229761008190937446e+03
3.378207471693982825e+03
4.036297650246905960e+03
4.252993980175515389e+03
4.917320625833234772e+03
4.444318861195350109e+03
4.285020521667131106e+03
3.959270319321698480e+03
3.293034488735767354e+03
2.532370284114444985e+03
1.643237893326389440e+03
1.008587241886277070e+03
7.384455354654120356e+02
2.587615409312148813e+02
-7.754494222279886628e+01
-3.804177371787959032e+02
3.803051477703096452e+02
1.093886533432005990e+03
1.366417644639311675e+03
1.427819861010210161e+03
2.482072991521755284e+03
3.758219312458817967e+03
3.626094794582728355e+03
2.726634381281928199e+03
2.664072907508616026e+03
3.002294396254345429e+03
3.557276577171073313e+03
2.701933871297710994e+03
1.750134281161357876e+03
8.678664913672034800e+02
2.654673253602006753e+02
1.427418194737144574e+02
1.748820958494787092e+01
-8.121650507751868417e+02
-1.433241945866918513e+03
-1.701745923978140354e+03
2.473312015732911959e+02
-1.859509820434968219e+02
-3.270538739529726627e+03
-5.231376493521512202e+03
-4.991511485354621982e+03
-3.966893412323394841e+03
-2.906420803209056430e+03
-3.244144238506423335e+03
-3.291078453935311700e+03
-2.968135637405498528e+03
-2.908265270684986717e+03
-3.627501619235476028e+03
-4.114948731580680032e+03
-4.984554370302500502e+03
-5.725300051299753250e+03
-6.084280433027270192e+03
-3.720488872138186252e+03
-4.055965954995949687e+03
-6.618657352483511204e+03
-6.162561914878252537e+03
-5.124682483794518703e+03
-5.083991401895532363e+03
-4.460396169409543290e+03
-3.731841024286833544e+03
-3.326303784680902481e+03
-2.142740460770789014e+03
-1.339190974756333844e+03
-1.880595455839517626e+03
-1.372936575383391983e+03
-6.561912327419365738e+02
-1.610279588458552325e+03
1.617512559493021058e+02
-7.471689331578508018e+02
-3.852964970683884985e+03
-4.404712620694346697e+03
-5.087448150306949174e+03
-5.334220629387494228e+03
-2.658040938307208307e+03
4.810485925691990161e+01
7.822491689779567423e+02
1.317390591701115227e+03
2.163569601229769887e+03
2.426805501927741716e+03
2.752080159069205365e+03
3.213480929358855064e+03
3.592090185280322203e+03
3.850963836412622641e+03
4.407045065241292832e+03
5.507388196955320382e+03
5.659015215941854876e+03
5.170943246172822001e+03
4.476108427716369079e+03
3.894475194133368404e+03
3.179061752597720442e+03
2.563818100954546480e+03
1.661674794115212308e+03
1.483666305755078383e+03
1.393976789529492862e+03
6.366451267043413509e+02
3.936418612744142820e+02
9.160769127094362148e+02
1.527811384961297790e+03
2.287993725392422675e+03
2.360650715643162130e+03
2.697796365356147362e+03
2.907216896495964193e+03
3.178114516116778304e+03
3.641442458321655067e+03
3.828158304143559690e+03
3.874545406447490222e+03
3.513410814585709431e+03
2.956692851747353870e+03
2.122240296999828388e+03
1.312017859774736507e+03
6.483209607394185241e+02
-3.602116459237652890e+01
-3.909886888423482105e+02
-8.558068488009140538e+02
-9.362688005600502947e+02
-4.816034930958246036e+02
3.912731604954686873e+02
5.604873476616204471e+02
1.265129114623011674e+03
1.675069681365238239e+03
2.400107212377950418e+03
2.936719233721536966e+03
3.857717926235472078e+03
3.457760505284773444e+03
3.281185088943342635e+03
3.321061070465901594e+03
3.736524475683132550e+03
2.773392104343515257e+03
1.941332517990701263e+03
1.036178112844511134e+03
1.590453653067956168e+02
-6.671185070876671261e+02
-1.066367917779885829e+03
-1.019632417578922968e+03
-9.250079026054629594e+02
-6.726122748597018699e+02
4.075660860798285512e+02
8.215780708617086248e+02
8.634748502014340374e+02
1.281218240696731527e+03
1.851893735961534048e+03
2.531469135693528642e+03
3.192941284621115301e+03
2.004302414506438026e+03
1.048520185033241887e+03
1.871588576896267796e+03
-1.499467998724970357e+03
-4.213640733825996904e+03
-5.232942780734497319e+03
-5.675363652735544747e+03
-5.865029616495229675e+03
-6.298043910780833357e+03
-6.853404570750496532e+03
-5.434180496694172689e+03
-6.133306144389350266e+03
-6.808746625060792212e+03
-6.441590082794346927e+03
-5.813895974312467843e+03
-4.905639188187255058e+03
-4.020825417142062179e+03
-2.179378016494717485e+03
-6.131958941458215122e+02
-1.966307839600248144e+03
-2.441724412592287081e+03
-1.827478325477354019e+03
-1.597537228274416975e+03
-1.672819204729058583e+03
-1.731266224946096145e+03
-1.993032715157514758e+03
-2.747198786447018392e+03
-3.637778037448335454e+03
-4.190720870142214153e+03
-4.738095559852426959e+03
-5.338927918692184903e+03
-5.142231971621787125e+03
-2.840000127560903366e+03
4.985587068160418767e+01
1.202375871214652989e+03
1.698487187897676677e+03
2.488213166964254015e+03
2.983578658629262463e+03
3.898663203589685509e+03
4.583449310882389909e+03
3.738984238082071897e+03
3.463298352098103805e+03
3.576390848564116368e+03
3.066349742342399622e+03
2.792196663365800759e+03
2.124810418502162065e+03
1.384177092092535986e+03
5.324005641712873285e+02
-3.657153327489317007e+01
-2.617887691268246044e+02
-6.672930228305799574e+02
-6.410216494894333437e+02
-6.969858426090199828e+02
-3.372283728473127553e+02
7.634226371622489182e+01
7.377614532028861731e+02
1.351070004672698587e+03
1.756332075640949597e+03
2.493596917502303768e+03
3.451896173910650305e+03
2.974337464241111320e+03
2.591928812310370631e+03
2.742562052858523657e+03
2.572186717477994534e+03
2.221852914273045826e+03
1.676622133611805339e+03
8.308377398182461775e+02
-1.714021106940562902e+02
-8.270987281410680225e+02
-1.269403068187164308e+03
-1.921288412134236069e+03
-1.765827176080388199e+03
-1.663017853619269772e+03
-1.484815618846903135e+03
-1.198077798912536309e+03
-7.859540764543503428e+02
1.337107436916267886e+02
6.239779450002996555e+02
1.395864434600174491e+03
1.746443535404710019e+03
2.114474695766305103e+03
2.179979921631454999e+03
1.870004582711089824e+03
2.315966434577236214e+03
1.898808971930563303e+03
1.002210398031636032e+03
3.442014874722796662e+02
-4.431296875533635102e+02
-1.122035394417788439e+03
-1.560580626231098222e+03
-1.667781819744976474e+03
-1.939656525642686120e+03
-1.974169827718141960e+03
-1.642262735736676404e+03
-1.361940513462905301e+03
-5.531738942998886159e+02
8.901357950657403251e+01
8.357388565154467415e+02
1.496962613375014598e+03
2.310768033676853975e+03
2.425230825292676855e+03
2.834340278699904502e+03
3.144091178853401289e+03
2.766510849595810669e+03
2.270592804966867789e+03
1.975232143208606203e+03
1.584431568703719677e+03
9.841976965056462632e+02
1.635365011248073586e+02
-2.205067485116923081e+02
-7.860338128629306311e+02
-1.183109666108831789e+03
-1.737694034297247981e+03
-1.983799945310496469e+03
-1.241377711375230774e+03
-4.734995582730622345e+02
-1.271209673118973456e+02
4.118116456168483523e+02
1.257263217600484040e+03
2.407319666811427851e+03
2.290925696250546480e+03
1.849101951889262409e+03
1.981849097520675059e+03
1.790187824182390386e+03
1.348110858840966785e+03
8.155679867113221917e+02
1.225470316646485571e+02
-1.870967433152674403e+03
-4.393008721192122721e+03
-7.556626696454427474e+03
-8.037921953889845099e+03
-8.020870068666065890e+03
-8.211489066981002907e+03
-7.529741586152028503e+03
-6.694753192784719431e+03
-5.606519455448602457e+03
-3.091942987751374858e+03
-4.495098967620789665e+01
1.461403666544726548e+03
2.646074640642756549e+03
2.985053065388503455e+03
1.795440088514412992e+03
2.901752018371285544e+02
2.816234571514022718e+03
2.965583412581076118e+03
1.938159135051638941e+03
1.443918610249228095e+03
5.948965718261305256e+02
1.002794277050708160e+01
-8.457375784128297482e+02
-1.060578608171776978e+03
-1.159330400190804085e+03
-9.558000669746995754e+02
-4.780959311659689774e+02
-4.493556474390239259e+02
9.337396058187002268e+01
8.220766093762973696e+02
1.083855618501183926e+03
1.549662908011385980e+03
2.707453332613568818e+03
3.561209181161946162e+03
3.058964228392324912e+03
2.925677519466921240e+03
2.936349050840882683e+03
2.716938584622478629e+03
2.373403024248164911e+03
1.759496584638444574e+03
1.237347871294832430e+03
5.400528029522862425e+02
-2.826032219025095173e+02
-9.277086257102040463e+02
-1.037229564611552178e+03
-1.012239817765095154e+03
-2.678159342431495133e+02
6.010733190058310811e+02
4.523806064314155719e+02
9.950816759796074393e+02
1.392258012936678597e+03
1.621901695604685756e+03
2.631980765538065043e+03
3.457614544077404389e+03
3.474544708972294302e+03
4.331904369428977589e+03
4.284904386254823294e+03
4.126400840856653303e+03
3.489387071621368705e+03
2.866757475699680526e+03
2.205239770024207701e+03
1.648774288800317208e+03
9.284542391815931524e+02
4.692550115474424501e+02
-4.785958821190919821e+01
-9.448722256310011289e+02
-7.998152768630097853e+02
-3.626314462574870845e+02
7.387334086730086256e+02
1.062264285552971160e+03
1.550950476591532606e+03
2.087782463353212734e+03
3.062823083736803255e+03
3.256083806268818535e+03
2.836613118771972950e+03
2.822458935463809212e+03
2.175576245980809745e+03
3.870277799026527532e+02
-2.793142546512123772e+03
-5.257113371190915132e+03
-5.718840979469048762e+03
-6.523201076379652477e+03
-6.311249426662667247e+03
-6.375127616228806801e+03
-6.734803125212737541e+03
-6.675262117476797357e+03
-6.512459704772426448e+03
-5.916372061022729213e+03
-5.306930353998875034e+03
-4.731134455287911805e+03
-3.895968660360599642e+03
-2.719389375555163952e+03
3.526577406930367147e+02
-1.127588286381930658e+02
-2.155604753871996309e+03
-2.537867692294421431e+03
-2.651514401689775241e+03
-2.751480432858149015e+03
-3.021752587464735825e+03
-3.374434975198390021e+03
-3.861435181966462551e+03
-4.698786819989525611e+03
-5.113541127494574539e+03
-5.434739230465253058e+03
-4.578301661779885762e+03
-4.397262915295454150e+03
-5.638570450438702210e+03
-3.056232430376338925e+03
-1.593190046390015368e+03
-3.346440075673652700e+03
-3.462874759818360417e+03
-2.784439771890556585e+03
6.119039176895076935e+02
4.842127654057880136e+03
4.617366279909283548e+03
4.666607997749725655e+03
4.632903450360860916e+03
4.311290670741296708e+03
3.789764321047982321e+03
3.510316604278888008e+03
2.967987017190716415e+03
2.124666381729823115e+03
1.229328491316869076e+03
7.579335527128465628e+02
6.185497931067616264e+02
2.162014770976650198e+02
4.098626398551861598e+02
8.525392997034101654e+02
1.577258982603205595e+03
2.175038685570227244e+03
2.650067229860131192e+03
2.867350544958198498e+03
3.416853652710793540e+03
3.936962014945024293e+03
3.857649444930254958e+03
4.639851177113234371e+03
4.751523923939723318e+03
4.485710333832741526e+03
4.242327915825634591e+03
3.606299639707965525e+03
2.600386887079581356e+03
2.289876112566088068e+03
1.830160080649054862e+03
1.297967665982095696e+03
6.049361835950072646e+02
-2.837445506923596099e+02
-3.540573230820755839e+02
5.389838679410864870e+02
1.000388505617908322e+03
1.408017764320477681e+03
1.800310168474535203e+03
1.951102524068573075e+03
2.295188816405415309e+03
3.344835002779204387e+03
3.075817565446595836e+03
3.099218320657794266e+03
2.974201958979802384e+03
2.890988592279671138e+03
2.096182204314629416e+03
1.441829052305928826e+03
6.968969161630420786e+02
-6.956996053242639277e+01
-7.798937930355281196e+02
-1.377200294653335959e+03
-1.433418970632688115e+03
-1.306379998323501468e+03
-1.110217388896725424e+03
-2.309380202811867093e+02
-3.086043293110665218e+02
6.479869907715730903e+01
6.014530604625006163e+02
9.743033016179917922e+02
1.926341614579763245e+03
3.225629304059266360e+03
3.068124684950348637e+03
2.668858374966023348e+03
2.627829531666928233e+03
2.485047136566584413e+03
1.969475585750096116e+03
1.233949755064457577e+03
4.445481373287756242e+02
-2.027655275595209332e+02
-9.389716183848087212e+02
-1.529206427469779328e+03
-1.839493011654858037e+03
-1.947861958688847153e+03
-1.769315748126238077e+03
-1.460861359685634852e+03
-9.185143456355932585e+02
-2.042576918771850956e+02
4.009989976178313782e+02
6.602753093537847917e+02
-4.944677755017565914e+02
-2.647180181218730013e+03
-4.871868295852325900e+03
-4.272549180545189301e+03
-4.089220752459258620e+03
-4.088873592252176422e+03
-4.186537614895933984e+03
-4.405240156289208244e+03
-4.831893887088370320e+03
-5.356673104971870089e+03
-6.053651015171174549e+03
-5.492821836170703136e+03
-6.442224041767753988e+03
-6.962832637333698585e+03
-6.764736847966909409e+03
-5.582936231687139298e+03
-3.100427871528760988e+03
-4.396186483646243687e+03
-4.645278824855030507e+03
-4.116592364401943087e+03
-3.383029160935501750e+03
-2.452644156943613325e+03
-2.515421119486675707e+03
1.029712720524639735e+03
4.345722760317317807e+03
4.434616181165226408e+03
4.431357244570041985e+03
3.928887075720524990e+03
2.812202296243905039e+03
1.961333704660500644e+03
1.192215367442303886e+03
5.528134875761691092e+02
6.381442707003998294e+02
4.301602239808712511e+02
2.008235081371004469e+02
-3.258668352364651923e+02
-1.239149487239662477e+02
3.896936577203515526e+02
8.670683688190972589e+02
1.425194904558077724e+03
2.154134180018927964e+03
3.269893321650633879e+03
3.257472628768500726e+03
2.933890219429289118e+03
2.868164340585479295e+03
2.642306275563895269e+03
2.582340242627215048e+03
2.103247725683364479e+03
1.497061129458965297e+03
4.857511602752239241e+02
-4.776399322758007315e+02
-8.061696607531818017e+02
-1.269896290586276336e+03
-1.465832730435654184e+03
-1.259956421684443740e+03
-8.092972618145112165e+02
-1.668494760406617559e+02
1.964198980902652636e+02
8.066562895789820686e+02
1.182900760533369521e+03
1.787178363554238103e+03
2.222433818005752983e+03
2.281724335695938862e+03
2.652097412537210403e+03
2.757486592288718839e+03
2.662999716572503530e+03
1.973755299732369622e+03
1.116019278576038460e+03
7.636760229522914187e+02
-8.831940339330196821e+01
-6.059592049991924796e+02
-1.595299455320926199e+03
-1.983374967068953083e+03
-2.273239542131550024e+03
-2.386962611389285030e+03
-2.262453463495459800e+03
-2.034803792387835983e+03
-1.228062089756989735e+03
-8.118751056937259136e+01
4.179523867208805541e+02
8.214864842436857089e+02
1.249052629603842888e+03
1.655806359750271440e+03
1.850840757049409376e+03
2.015140784891739258e+03
1.646768783556343124e+03
1.059718841269769428e+03
8.250232694111731462e+02
8.036860826713943879e+02
4.056512755709643443e+02
-8.121833289176122435e+02
-1.777853847772490099e+03
-2.250316970264917472e+03
-2.374578373187722264e+03
-2.138668145532973995e+03
-1.896576704534918235e+03
-1.408317784416815357e+03
-9.038834043127654923e+02
-3.652794517606624254e+02
1.996200210251665226e+02
6.828705432612688355e+02
1.021537053450857343e+03
1.504604449713376425e+03
2.343052762869596791e+03
2.938947480724304569e+03
2.527259964146885068e+03
2.370991239272645089e+03
2.150135675589675429e+03
1.758730172370206674e+03
1.293713378576178684e+03
2.280601191525797731e+02
-5.722879958696038329e+02
-8.733949987179639720e+02
-1.476188540745989712e+03
-2.300724581748225773e+03
-2.039996109999623741e+03
-1.507970036004745907e+03
-7.786854764048058541e+02
-1.651003270220087131e+02
-1.391994029974980833e+02
8.296980070859886780e+01
8.424956010923272061e+02
1.615375660698761294e+03
1.637660022295464614e+03
1.575332782628082214e+03
1.638387365226953307e+03
1.493824379713700182e+03
1.019587679330983633e+03
5.246514061025887941e+02
-3.009037451697135452e+02
-1.656082920528675004e+03
-2.285001890156204354e+03
-2.280707582152461782e+03
-2.567274303591489570e+03
-2.680669614712885050e+03
-2.156928100326955246e+03
-1.529032713219769221e+03
-1.424015918265476785e+03
-1.090816780335175508e+03
-1.183781411081359636e+02
2.129651159664126325e+01
9.322317835374685728e+02
2.096402438818825431e+03
1.525090434422482076e+03
1.364370848214895432e+03
1.962991965765847908e+03
2.219262134181347392e+03
1.231822464192387088e+03
5.324058621647585596e+02
1.452075243460522813e+01
-8.732372772635418414e+02
-1.541774104804690978e+03
-1.705254914866074387e+03
-2.033774625841842180e+03
-2.170078807615286678e+03
-2.208513611559708806e+03
-1.876128031627326436e+03
-1.245802526066628161e+03
-5.794566941014090844e+02
-3.549567657840277661e+02
-8.442583994087463850e+01
8.799758292608761394e+02
1.825451644772299915e+03
1.464974888423554603e+03
1.840663763447869769e+03
1.921274645687135035e+03
1.667691288170036842e+03
1.130314986903641966e+03
6.609506528196278623e+02
-1.675831525298508851e+01
-6.076943330621201085e+02
-1.289781392696300372e+03
-1.671239693936030562e+03
-1.803125824864652714e+03
-2.174104270195576191e+03
-2.037508470933189301e+03
-1.402157664588894477e+03
-8.405633421402692420e+02
-1.195598201493662600e+02
2.000424910981930111e+02
7.091480267950697680e+02
1.403839757924874448e+03
1.753150604370208384e+03
2.136056861834027131e+03
3.431562730571317843e+03
3.343682695857762610e+03
2.843452957440090813e+03
2.524866157700281747e+03
2.342787082061013734e+03
1.867223887334500205e+03
1.127238195837113835e+03
3.367423019799081203e+02
-2.163609704133591549e+02
-7.520455316803627284e+02
-1.114311664977664350e+03
-1.796170416178518735e+03
-1.402592409696788991e+03
-6.125677128153226931e+02
-3.190669605681899270e+02
3.450047990025399827e+02
8.945676177247968326e+02
2.342653588106224561e+03
2.560289639771739076e+03
1.352525251482464228e+03
-1.409606353560255684e+03
-3.171100328337925930e+03
1.030510469372132292e+02
1.477876607809017514e+03
-1.668709042686243947e+03
-2.431790507480228825e+03
-2.960105515276708502e+03
-2.374719133155375857e+03
-1.303812437796820632e+03
-5.330308766493686562e+03
-3.388226671855770292e+03
-2.011582483975213790e+03
-3.583317492610287445e+03
-2.017426658762312627e+03
-3.270937198978949709e+03
-3.954723195124961876e+03
-3.097751869062647984e+03
9.310493030495722451e+02
5.825940051908803525e+02
7.660096348826167514e+02
4.182759418646286917e+02
1.617434817208160212e+03
1.363543033258591322e+03
7.765808210221273384e+02
-2.114574671173064644e+02
6.193651686597661410e+02
3.620230862364198856e+02
-1.104610479058040085e+02
-8.501641623042349920e+02
-1.519037213083153574e+03
-1.390081112267115486e+03
-1.460298493884305117e+03
-1.138674587603954024e+03
-4.762189097216103733e+02
4.706016631169579512e+01
7.233307131723792054e+02
1.444625122680481809e+03
2.313935422416978327e+03
3.212313559082655047e+03
2.406810927315118988e+03
2.411448026125411616e+03
2.519231640126075490e+03
3.054162133941487355e+03
2.463280812859974958e+03
1.730591116646036426e+03
9.610799306806247841e+02
2.376891425700306968e+02
-7.276170905729678680e+02
-1.506841217245208782e+03
-1.617049183876908501e+03
-1.870242381927770111e+03
-1.800429081122046227e+03
-1.575563493125840978e+03
-7.784570607882036484e+02
2.000549646550537730e+01
5.948398840133439762e+02
9.709284141960391707e+02
1.300253525893658662e+03
1.601848802875803131e+03
1.842710477560802929e+03
3.222093659092256075e+03
3.480992268534681443e+03
2.898420272170970748e+03
2.530419301026386165e+03
1.841828731477433848e+03
1.718698103340831494e+03
1.165091134027967883e+03
2.939113602549477378e+02
-1.759449462267457420e+02
-6.386213226325966161e+02
-2.026851263542682545e+03
-2.395675224909869030e+03
-1.848106141670705938e+03
-1.011090920736463659e+03
-6.259623543681911997e+02
2.464786759250517605e+02
9.601566992097646107e+02
1.684166150957325499e+03
2.061370389834990419e+03
1.849728331170507772e+03
1.880288682414088726e+03
2.182081473775869654e+03
1.874089408756941793e+03
1.478338297987293572e+03
1.262710596687835277e+03
1.066173727372323810e+03
2.757593933198191962e+02
-4.595531291176688455e+02
-1.406739254105937334e+03
-2.090914013364317270e+03
-2.109072939171933740e+03
-2.018221816797383553e+03
-1.103384473515739046e+03
-7.115726767001815460e+02
-5.718144155335818368e+02
-1.180157248793571227e+02
4.218741079442466457e+02
7.938430755086587851e+02
1.061892278297447774e+03
1.353032258400660339e+03
1.756269582316902643e+03
1.793589754783037961e+03
2.039040755178832114e+03
1.636660328352879105e+03
1.352298441632582808e+03
9.259573145523328321e+02
2.495894732922699859e+02
-8.728618836912220331e+02
-1.859387680278770176e+03
-2.194042803475299024e+03
-1.982821542000905765e+03
-1.767739576720205378e+03
-7.078038835204678207e+02
-7.310360908212387585e+02
-5.024171389113278678e+02
4.611530152688183648e+01
-7.914767184581791071e+02
-2.391158770410038869e+03
-4.213910350847061636e+03
-4.441684983217594890e+03
-4.081466105833831534e+03
-3.926316042095902048e+03
-4.021160900256229979e+03
-4.040030614363814493e+03
-4.318995045044906874e+03
-5.048007663736420000e+03
-5.000139343311463563e+03
-2.310448351357887077e+03
-1.423928294118981057e+03
-1.132592140508671491e+03
-1.080558397570899615e+03
-1.131858121148608689e+03
-2.424713480488949813e+02
1.866111553332904407e+02
5.504344954108626098e+02
7.469899594722251095e+02
1.006272874511667851e+03
1.509374436215186506e+03
2.032364491344359067e+03
2.544203456254004323e+03
3.744917640232550639e+03
4.480494739606897383e+03
4.212948633280836475e+03
3.672291031691287571e+03
3.089496694147886046e+03
2.843584929424750953e+03
2.401500479740148876e+03
1.491251908345021093e+03
3.517493823700111193e+02
-7.403525763885409106e+01
-8.710564237465329143e+02
-1.670333435786667678e+03
-1.676898549992843527e+03
-6.827178278478752418e+02
2.519242135974032459e-01
2.870221782265220440e+02
1.108559032258001935e+03
1.639888897654013135e+03
1.928126025883029797e+03
1.827230470834718972e+03
2.220225849350819317e+03
2.337130328301274858e+03
2.279957432503709242e+03
2.313749721003501691e+03
1.826484322370583413e+03
1.226148146561993599e+03
4.967598534055033497e+02
-3.516729376372400679e+02
-1.045227387816899181e+03
-1.422949319305394056e+03
-1.208835245875001874e+03
-1.490857302230213008e+03
-1.441001740095710375e+03
-9.632741728418172897e+02
-5.026600298431221745e+02
2.118610200526195229e+02
7.943765817297232843e+02
1.294957594921463851e+03
1.987558597413959433e+03
1.786220043808803666e+03
1.383003814082582494e+03
1.967897168993674086e+03
2.145974864048923791e+03
1.906280396635303305e+03
1.484723785844282929e+03
9.922390717389451993e+02
3.038748378579878135e+02
-6.453327722768058266e+02
-1.278449396579238055e+03
-1.715519128403147306e+03
-1.976498257994898267e+03
-2.081393521031593991e+03
-1.734284187649847809e+03
-1.604026424020229342e+03
-3.343678835316527966e+03
-3.634259094020729663e+03
-2.747614851500813529e+03
-3.243744312521245774e+03
3.243725550229053169e+02
1.004738252936685626e+03
-2.089579679763072818e+03
1.268394707745750338e+03
3.766944758811284828e+02
1.048362541934015098e+03
3.803339973431167209e+02
-1.418406769021734362e+03
4.161340512624767598e+02
-1.538092964521805243e+03
-3.864090513079486755e+03
