1.262676959114230385e+03
1.026777957875757465e+03
8.475254949833500859e+02
1.350950898706437329e+03
1.680127945908159518e+03
2.102110993196164600e+03
2.464995239628094623e+03
2.783800906837904677e+03
2.796546144124806233e+03
2.838335094351863972e+03
2.842200743870537281e+03
2.444168364327702420e+03
1.719264032882198308e+03
1.549549871489607085e+03
1.679059998937583487e+03
1.556775875414479970e+03
1.068747364883563250e+03
2.230154385357677427e+02
-3.541124064552254680e+01
-4.724840544488740193e+02
-4.292413366549224634e+02
-1.846718670083044174e+02
-2.057661490146984704e+02
2.425933069936069160e+02
9.806027562726123961e+02
1.145617047325823023e+03
1.129601195915379776e+03
1.344551920272711413e+03
1.561473170952767532e+03
1.340347689122241036e+03
1.279272700171957240e+03
1.113267853907665994e+03
9.693362998555068089e+02
1.205427611128459603e+03
6.276061756869452211e+02
1.949001968186392162e+02
2.143333086929524427e+02
-2.549549403674817540e+02
-7.902361062694553766e+02
-8.399263114320026489e+02
-8.686028441248547551e+02
-8.240352121251528388e+02
-7.944357629627647839e+02
-6.718675217201378018e+02
-1.932880025186201749e+02
2.503351287511467547e+02
3.069974531366156612e+02
3.637265106529232526e+02
6.065356378215850555e+02
8.494754043894510005e+02
6.675246840827894630e+02
6.266989893284613800e+02
1.560157867168093730e+02
2.084754798499702986e+02
1.030983814086261390e+02
-5.141747790562342288e+02
-1.126322203741253134e+03
-1.271377163694180581e+03
-1.742329846466627714e+03
-1.879158416713108636e+03
-1.896907801226407173e+03
-1.650636995378607025e+03
-8.263143179164300136e+02
-4.099182182540442909e+02
-2.724133548611803803e+02
-5.982217600609541819e+01
1.048205098123927144e+02
3.805510039639759157e+02
7.513425537844411792e+02
8.042059738567367049e+02
8.910996365377301345e+02
7.430525441921257652e+02
4.480595665255587505e+02
3.790841607866041727e+02
1.640906658916671290e+02
-2.639292779293444369e+02
-3.149993777652572362e+02
-6.651814652639615133e+02
-1.056488154240888207e+03
-1.185974706351963505e+03
-1.393675339048338628e+03
-1.107565996591703424e+03
-1.052728079657824765e+03
-9.542304565324592431e+02
-7.030307197351640980e+02
-7.550927489108687496e+02
-1.814478728139363966e+03
-3.721200694983853737e+03
-5.309251921419731843e+03
-5.017676626162251523e+03
-4.202556083222249072e+03
-5.658148992959463612e+02
1.282461114495903303e+03
1.062233816452737983e+03
9.054939120946424964e+02
4.501667366490002564e+02
-1.697849727297531217e+02
-1.134047622671657649e+02
1.923206006045657261e+02
-1.636078511172195249e+02
-2.513069467159541546e+02
-2.428457261908970679e+02
-1.522950708058639577e+02
1.103327091907019764e+02
4.800496627086857160e+01
7.737063128753005685e+02
1.230432730298632578e+03
1.174152154111398204e+03
1.114833093547368890e+03
1.387459599749441622e+03
1.482007371781340680e+03
1.605431789467247881e+03
1.604736831982987496e+03
1.281860076823966665e+03
1.153785091343572276e+03
1.131479356715884933e+03
5.948546710849486772e+02
-1.071198623831113679e+02
-3.914714436574280398e+02
2.873069864749977853e+01
-3.555728749404626399e+01
-3.143330947130030495e+02
2.234102150249624330e+01
3.294733998995992010e+02
7.070425757823854838e+02
1.027027264809197050e+03
1.394452643648229696e+03
1.568290522312960547e+03
1.700514559588992597e+03
1.834109200175837714e+03
1.969068060889304661e+03
1.767331813102697197e+03
1.632917187525663849e+03
1.400789372657963895e+03
1.405910459665878761e+03
1.556229888668536887e+03
1.048738369536662958e+03
3.934108434721750314e+02
1.642848755368465277e+02
1.113240866284129567e+02
3.254302174418183995e+02
3.245844421334027174e+02
2.608164797491279501e+02
2.761198833518790821e+02
1.163460614832206829e+03
1.864899871032280771e+03
2.218462164880269938e+03
2.182098890007475347e+03
2.057793779993773114e+03
2.260572915622333312e+03
2.695444593178563082e+03
2.313407259281330425e+03
1.975474747511791293e+03
1.609626251906765219e+03
1.658859061407781837e+03
1.258180673073203707e+03
8.345798529498383687e+02
8.040140317039260935e+02
4.034961635580118013e+02
-5.600472942264078569e+01
1.035067765757073772e+02
-4.638800099971167015e+02
-2.198213900990869206e+03
-4.356515930557664433e+03
-5.142754327626145823e+03
-4.670873012359017594e+03
-4.374892191101601384e+03
-3.867758457941946745e+03
-3.835390562411672818e+03
-3.761766855925821346e+03
-3.270903263386527669e+03
-3.130775496613138330e+03
-3.247382498603186377e+03
-3.092716106777351342e+03
-3.160760509488140997e+03
-3.919507728034226602e+03
-3.754951951341206950e+03
-1.506095627952357745e+03
-1.877941801558698671e+03
-4.178407992454978739e+03
-4.537556835764522475e+03
-4.789370214796347682e+03
-4.638837602272409640e+03
-4.334919098080838012e+03
-4.067555688137850666e+03
-3.995677194049767422e+03
-3.734264685560417547e+03
-3.012316324377962246e+03
-2.390803392163947137e+03
-2.372697422525898219e+03
-2.418902148289297656e+03
-2.225439200718739357e+03
5.577462996826324115e+01
-2.643001440306735503e+02
1.692350800697141722e+03
2.634788898039324067e+03
2.321990740473042479e+03
2.182964030858857768e+03
2.076744567951423505e+03
1.636325915391871376e+03
1.319730314891025955e+03
1.175969978564536405e+03
1.295045652737484943e+03
1.672003295378523035e+03
1.978865139626691644e+03
2.174732271825057069e+03
2.155603572978818647e+03
2.543504534648931894e+03
3.019479958643791178e+03
3.086538187892011592e+03
3.173701285220272439e+03
3.387943638375948467e+03
3.283309582840247003e+03
2.785876441605738364e+03
2.731019465094048428e+03
2.345673901516060596e+03
1.800769649825580245e+03
1.664300810014527087e+03
1.873311846758861748e+03
1.808814204770953438e+03
1.194760701031511189e+03
6.711443986135250270e+02
4.740183227744141163e+02
6.453845465450009442e+02
6.503028050170731831e+02
8.407168069257742218e+02
1.038671176114906075e+03
1.947343670977707689e+03
2.544308202990387144e+03
2.712677766250717923e+03
2.850823043017769123e+03
2.655615257712129733e+03
2.166057768510252117e+03
2.141150968404276682e+03
1.822820279294055354e+03
1.400139248771845132e+03
1.089086575016027155e+03
1.049591638984210704e+03
7.866781757408708700e+02
4.262940253224111871e+02
1.614381994432657734e+02
-2.068150013065031771e+02
-4.995349518320488755e+02
3.048398754232202919e+02
8.076682947672230739e+02
8.658806567202393580e+02
8.985693979162948608e+02
1.169656410515889547e+03
1.379036886090474809e+03
1.555767582214121376e+03
1.778820645899398642e+03
1.560189386944294483e+03
1.504839425969903459e+03
1.553765420532273765e+03
1.355960791186151710e+03
8.244080282476561479e+02
4.821033628848819603e+02
6.230018335695983751e+02
8.508664890087327137e+01
-3.326744097679502374e+02
-5.783157784690151857e+02
-7.638177460518255657e+02
-4.222381966023547193e+02
-3.695981454784244420e+02
-3.058389832397436408e+02
2.240096752617435243e+02
6.189650433123428002e+02
8.470264596954951912e+02
1.208218267800320746e+03
1.515549175262226981e+03
1.688984752769095849e+03
1.524461430190007150e+03
1.265976726186077485e+03
1.172538622922249033e+03
9.961813674308307327e+02
8.208554877721176126e+02
4.155612962993724295e+02
-7.097567643587326529e+02
-2.431170371397673080e+03
-5.172636588386687436e+03
-7.209197848744388466e+03
-7.313905985965460786e+03
-7.133767388583576576e+03
-6.042749690642654059e+03
-5.469851785899430070e+03
-5.408089590323366792e+03
-4.626416645044365396e+03
-4.146866186934548750e+03
-3.357391041084598328e+03
-3.352025991159618570e+03
-3.347815711221334368e+03
-3.383716517035651123e+03
-3.217722376997146966e+03
-1.298927336872751539e+03
-1.597256833339588184e+03
-4.353711117528262548e+03
-3.411368516428346993e+03
-2.282368375950157713e+02
4.026803875511119486e+02
3.093637345390127962e+02
1.338197843972955923e+02
4.840119307919707694e+02
6.489496186114686225e+02
5.636553356368556251e+02
7.911542287202612442e+02
1.316423323141659239e+03
1.627436294749111084e+03
1.658271717091059827e+03
1.875937301367466716e+03
1.958453682343869559e+03
2.252779707265947309e+03
1.831929470107686939e+03
1.759930505519652797e+03
1.408808254141876887e+03
1.292557248056059734e+03
1.333179809364029779e+03
1.194633431566638819e+03
5.179160731600971985e+02
-8.695726818056202490e+01
-3.300466277793613017e+02
-1.983218205366831910e+02
7.424690477575852299e+01
-2.973429388204265251e+02
-3.300620473986695629e+02
-5.985915746374164570e+01
3.302678266084369625e+02
7.543134175495448517e+02
1.157289831878489167e+03
1.310233143566842273e+03
1.271206013244143378e+03
1.395225104456393410e+03
1.616276244436595789e+03
1.802375798390322871e+03
1.530536000944698799e+03
1.088778882776735827e+03
9.450937833849329763e+02
6.255017222191058863e+02
3.810056852799699527e+02
-1.174041228698460202e+02
-6.476675088397322497e+02
-9.277865741885999569e+02
-7.508166869594630271e+02
-5.957780726441844763e+02
-6.185663305226055400e+02
-3.500062920865127012e+02
2.216734812641796282e+01
9.885505002941307851e+01
5.760229384012936862e+02
4.504649678514771267e+02
6.724775302840973836e+02
6.279765185372618816e+02
4.188381149371264200e+02
1.120760789001063245e+02
-3.072142035906628053e+02
-1.620977437310491496e+02
3.539557682643940950e+01
1.993230267016210746e+02
9.687879912124255810e+00
-4.435053036244833038e+02
-6.732604975511767407e+02
-8.785774462462559313e+02
-1.032429503153619180e+03
-8.418577153353503491e+02
-7.628386847742444843e+02
-7.243156679722137596e+02
-5.512488431002705056e+02
-2.866215055821700162e+02
5.357045131488167300e+01
3.993100070317974541e+02
4.226591006997170439e+02
9.246591384657618846e+02
1.057250589967069573e+03
7.364089664961428525e+02
6.412003387194724837e+02
6.126833239553695876e+02
4.768100429706813088e+02
-1.354779207461370163e+02
-2.721447379177818675e+02
-9.682085323606803513e+02
-1.304695246065080028e+03
-1.487605187822825428e+03
-1.546937503148932137e+03
-1.369708598067925550e+03
-1.070914588363370285e+03
-7.084986803307316450e+02
-4.194578186988860580e+02
-5.181607052953755499e+01
1.664609783610374052e+02
7.693871781007547952e+02
1.312948841578162728e+03
1.227166613158092559e+03
8.939919111679129173e+02
6.403874157781290251e+02
2.353923737960940343e+02
4.020201292409381040e+02
6.412312345239587330e+02
2.689804788605314911e+02
-4.327565445681730125e+02
-6.779780746878836908e+02
-9.117289803301425763e+02
-1.178027967743769750e+03
-9.529410569515197267e+02
-5.915029166406372951e+02
-4.876933366784837176e+02
-2.994847516216260601e+02
5.135147885978387450e+00
3.791156403127697558e+02
6.374296166125114951e+02
8.911112610047449607e+02
8.801721655414269208e+02
8.185871829139882720e+02
1.085309756770204558e+03
1.437316975387260072e+03
1.212598476288786969e+03
8.920859990240711568e+02
6.707628848010641605e+02
-5.240964216989551971e+01
-4.608074189919948438e+00
-4.860676588433317846e+01
-4.223027857855705065e+02
-6.845645034542134226e+02
-7.434809274034358850e+02
-1.202502425555762102e+03
-6.993083122758605441e+02
-1.903368824680252303e+01
1.792442575483185863e+02
6.515284453267864819e+02
1.145816767431092558e+03
1.496173262826084283e+03
1.698420792944679306e+03
1.800628743575685121e+03
1.811657501250490668e+03
1.725601447752273998e+03
1.464491483094601335e+03
1.307820085631595703e+03
1.783929221016814154e+03
1.465797875827701318e+03
9.673040413049826611e+02
4.444481278541663869e+02
-1.890257530580749901e+01
-1.655817885320119842e+02
2.852553109634928319e+02
4.446317149074386066e+02
3.935927406105016075e+02
3.827886906963364595e+02
5.753863368934631808e+02
1.241360652150681062e+03
1.329867579052916426e+03
1.724710993599663880e+03
1.971579542500650405e+03
2.064702506491505574e+03
2.235019546308924873e+03
2.385251372004991936e+03
2.396718510478734970e+03
2.275319895890486805e+03
1.821019742934735859e+03
1.460799654441926123e+03
1.150583431329895575e+03
8.413871800905180862e+02
7.451668952124238103e+02
1.818923706190198004e+02
2.105558050465759550e+02
3.171446282326012351e+02
4.216531558511639446e+02
1.050059502464122943e+03
1.346373370372732552e+03
1.646621467394597175e+03
1.052810082022378765e+03
-4.850949020260878797e+02
-3.175068212829330150e+03
-3.552046501965070547e+03
-3.654087118496339372e+03
-3.449134916752321715e+03
-3.394186907531456200e+03
-3.681324756755765065e+03
-3.715551993242373555e+03
-3.819865071020502455e+03
-4.329221583956699760e+03
-4.374602315408260438e+03
-4.895022197563970622e+03
-4.271505993875026434e+03
-4.420965258364225519e+03
-4.233384179560060147e+03
-1.630800373193131236e+03
-2.554279461807316238e+03
-4.239760811730890964e+03
-3.819178336479867085e+03
-3.593528540297470954e+03
-3.058772833944217382e+03
-2.756823506305770934e+03
-2.684709857993925652e+03
-2.267373184990508435e+03
-1.874814476007307121e+03
-2.098031571929321672e+03
-2.058002346342594137e+03
-2.628671101775437819e+03
-2.988042175948934528e+03
-1.988086978344744466e+03
-6.427943552490860384e+02
-2.735131715081480252e+03
-3.513168329162130703e+03
-2.656824892251608162e+03
4.696996248901137250e+01
1.373250316645694284e+03
1.747008365451454893e+03
2.149306067365756007e+03
2.415161956348323201e+03
2.722556808132290826e+03
3.068618690307437191e+03
3.339349006891278805e+03
3.187783302631414244e+03
3.267982599546222445e+03
3.541961098919643973e+03
3.533757266191430517e+03
3.205380756773468875e+03
2.509880832672582983e+03
2.136304452123245937e+03
2.072677548121740074e+03
1.557020722899160546e+03
8.232896726752868517e+02
9.815501347457771999e+02
6.398593031889699887e+02
6.831858502549857803e+02
8.865648660189527845e+02
1.186070364697506420e+03
1.360693275822706710e+03
1.791500880335599959e+03
1.964538691421708791e+03
2.079858609067334328e+03
2.050490900106321533e+03
2.123454938240928641e+03
2.217787540963705851e+03
2.259455368765456114e+03
2.210460831386807968e+03
1.582877250153752584e+03
1.342972869289630125e+03
1.214966074744227626e+03
9.928923398602578345e+02
2.716144243393032411e+02
-2.018774930485259631e+02
-3.426134359080373315e+02
-5.385975314986046669e+02
-4.637872244180704797e+02
-5.751974359051297370e+02
-3.975396947372379231e+01
2.564726934936121552e+02
5.646108681801532612e+02
7.505413385511618571e+02
1.220438534531999949e+03
1.020367402054325566e+03
1.347864059343404506e+03
1.655253537389741496e+03
1.476863505368152573e+03
1.242396412365208334e+03
1.061688187554874958e+03
6.120074884799690835e+02
3.201525158009244478e+02
-4.794196350940877949e+01
-2.503500688517209767e+02
-5.280646986879021370e+02
-4.900488332984331237e+02
-5.213097033879204218e+02
-8.908628909370371503e+02
-7.147029912612940734e+02
-2.758225640519455055e+02
-1.020361779331119401e+01
2.211620416872511328e+02
4.902608147296769516e+02
4.911629073935321799e+02
6.248275493393473425e+02
1.074284878944416050e+03
1.154520547027281054e+03
8.444637328464039001e+02
4.360842250062698326e+02
3.654607362451907875e+02
1.005953761380614537e+02
-2.075609392917003220e+02
-5.500564087068469235e+02
-1.051936026042455978e+03
-1.442168478964038059e+03
-1.180811472008102101e+03
-7.938836366913997153e+02
-8.734019539317512226e+02
-9.453825700073318785e+02
-1.002831698645951519e+03
-6.097587771330053101e+02
1.298619305976865519e+02
4.480024721664179310e+02
5.356650964712168843e+02
9.648001321908618593e+02
1.216438646776534824e+03
9.965713805633120046e+02
1.011161250955192486e+03
6.971511808334694251e+02
4.825459799919200350e+02
6.333638540096129645e+02
6.225602129712053738e+02
-2.379143075313539555e+02
-2.246106182206318408e+03
-4.932050902363214846e+03
-7.564757615444533258e+03
-7.531238180905750596e+03
-7.281562776467697404e+03
-6.967737864286434160e+03
-5.966812292584995703e+03
-1.785743798403093479e+03
9.435170716386831913e+00
2.717320001771727789e+02
1.281296237067641925e+02
7.556621621636026020e+02
1.070345022088082260e+03
1.153078989199136458e+03
1.115834624787946268e+03
1.139561340133061549e+03
1.125255482050372166e+03
9.509430972606510295e+02
7.765502789328072595e+02
4.000577612072767124e+02
1.124829272446014414e+02
-2.432745426432526017e+02
-5.932262876474025006e+02
-6.723528872066120812e+02
-2.966938209770719936e+02
-6.928414989519710332e+01
-1.231691048697253024e+02
4.446762768368581646e+02
1.237275851835340291e+03
1.420578790032969209e+03
1.284595530230556960e+03
1.308345748518287564e+03
1.743837703528308111e+03
1.867013529560881580e+03
1.942859225217427138e+03
2.027432153431768484e+03
1.539671752146193739e+03
1.216611099199137016e+03
8.411721802539366308e+02
5.423549619429455788e+02
-5.185595124259632627e+01
-6.064646576358431957e+02
-6.195134964018157007e+02
-5.730043170589456167e+02
-7.959611153048185770e+02
-4.924078823690482523e+02
-2.332850833934924140e+02
3.670391296423913263e-01
5.315480151349581774e+02
8.503036219653005219e+02
1.026651484068142736e+03
1.162600482671997497e+03
1.344164657992964294e+03
1.525334854253323783e+03
1.440072989599861103e+03
1.500416569314095113e+03
1.602393353407979930e+03
1.211965950196343783e+03
7.421230697151055438e+02
5.328667348458468496e+02
1.622322419720049069e+01
-3.548214054143208500e+02
-5.833001273485764386e+02
-5.682047695627184112e+02
-6.445167322222678195e+02
-5.062611910683282304e+02
-4.694496953903205849e+02
-1.302690251238957231e+01
3.810939175825442362e+02
9.609047723711219078e+02
1.144378739272902294e+03
1.429525103647580181e+03
1.537405459337579259e+03
1.312039318006728990e+03
6.244101217611544143e+02
-1.839363805449527717e+03
-2.236359685699627335e+03
-2.545553958833841534e+03
-1.681921022066782598e+03
-3.154728261545653822e+02
-3.362175004150667519e+03
-2.236007641464257176e+03
-1.965054317390655569e+03
-2.779322785862211276e+03
-3.295739330568650985e+03
-2.996309758033566595e+03
-1.524026939125400077e+03
-2.071880018582393859e+03
-9.888135547692560294e+02
-1.432805712585881110e+03
-1.078799460225744042e+03
1.279210494949024906e+03
7.525155065864424841e+01
1.294333148428042250e+03
4.014230871907396931e+02
-2.764190760566011704e+02
-6.641798050992952085e+02
-2.236810689468474266e+03
-1.139304959001587576e+03
-1.527700740229948451e+03
-1.441019893090474852e+03
3.376747991462160314e+01
-2.128314157028191858e+03
-1.995260967593904979e+03
-2.413071057889582789e+03
-3.567828591585940785e+02
8.868774862445103224e+01
-8.016559344157154783e+02
-9.318125745088705116e+02
1.194239326998036859e+03
-5.964586335492734861e+02
7.430927890700975240e+02
1.392906016931938439e+03
1.972983348593971641e+03
2.242353518879547664e+03
1.735032017692069985e+03
1.669036827138321087e+03
1.442353636598606727e+03
1.265984976904874429e+03
1.117938692096090790e+03
8.411901798191057651e+02
3.087476129449319728e+02
-7.241892064261018902e+01
-1.023540725069139512e+02
-6.402985063713076386e+01
1.785060004034183692e+02
2.183174164836007947e+02
3.134598857822874720e+02
8.372648346461069195e+02
1.090647632777645640e+03
1.772638843146395857e+03
2.354216405062106332e+03
2.233358104894392909e+03
2.381067748512732578e+03
2.264304730994579131e+03
1.918049130862674019e+03
1.581349818178773830e+03
1.071122070313073209e+03
3.244665413015187028e+02
3.402349476137954980e+02
6.664627742429315731e+02
4.152160496705419632e+02
-1.050179537843537787e+02
-2.459443169071403190e+02
-7.937273203472861383e+01
-6.647353252781653055e+01
-1.532382350193423690e+02
2.953079990419930141e+02
6.011758800652322634e+02
1.169349500529141551e+03
1.345818274676637884e+03
1.300539667824454000e+03
1.495554613474399275e+03
1.929816985590307240e+03
1.876400147368541411e+03
1.889284438140351313e+03
1.491372554483797785e+03
1.067289887534497666e+03
4.443730929308911755e+02
2.556123292028479170e+02
2.228349743448069091e+02
2.429648996779738752e+02
4.006813885018414823e+01
2.520146472945080518e+02
3.737437195796114793e+02
-9.580279928925509125e+01
2.152982675693673968e+02
3.200452142199752643e+02
6.324667189765023068e+02
1.166564093561394884e+03
1.109325207611444966e+03
1.222736675819664242e+03
1.574786688161120765e+03
1.457481593892578076e+03
1.531837959819975595e+03
1.652807318204917920e+03
1.665349457769098763e+03
1.203458875969791279e+03
8.461468835055841282e+02
8.003266604425214155e+02
4.460257869848401242e+02
2.821317077968773290e+01
1.883801231276558852e+01
-3.481419726846183380e+02
-2.537177370454293452e+02
2.048833352579612743e+00
2.621557803715487012e+02
4.316236642475595886e+02
6.404984256559713458e+02
8.957769743495052808e+02
2.654357902614385694e+02
-1.287548690279599441e+03
-3.703170657281482818e+03
-4.410383343934339791e+03
-4.343208382201905806e+03
-4.003674959786441377e+03
-4.021794268680408095e+03
-4.160528077023750484e+03
-3.840904752571754670e+03
-4.117943118383429464e+03
-4.622653409775468390e+03
-4.817055329965109195e+03
-4.391156238805131579e+03
-4.581970749709102165e+03
-3.953493578171290665e+03
-5.126764348376179441e+03
-4.338725407027921392e+03
-2.289416551417553819e+03
-4.325762190883975563e+03
-4.649785673587384736e+03
-3.675481387351782814e+03
-2.952822845109833906e+03
-1.336788771972538825e+03
2.298644641490472623e+03
3.233523239657441991e+03
3.309842456458575271e+03
2.917593737119566413e+03
2.358807614994268988e+03
1.892474933202383227e+03
1.558565531785399344e+03
1.358072295991760939e+03
1.073069257302883443e+03
5.645371487740690100e+02
4.534679825598629463e+02
3.628696163474125456e+02
3.987538027590287584e+02
7.091659938666219887e+02
9.201679539762935747e+02
1.355749663208233187e+03
2.028914955456712050e+03
2.162723921206775685e+03
1.817249775470139866e+03
1.949534232771129609e+03
2.218590241400429477e+03
2.325426964882661196e+03
2.375081214900316354e+03
2.216587425902481755e+03
1.943968971497086386e+03
1.298266568362139651e+03
8.064098188648285941e+02
3.963840584498145176e+02
3.224539616152784305e+01
-1.839554791976349009e+02
-5.571644983973399121e+02
-6.103949421795047101e+02
-6.306832020617405306e+02
-1.899705057643357407e+02
-5.220728641164158290e+01
3.316087327563864733e+02
6.855186696740908019e+02
1.158639197349838696e+03
9.729725773991193591e+02
1.125552386348459777e+03
1.519458606395664901e+03
1.519650193002336209e+03
1.301147312839926826e+03
1.189988033869044330e+03
8.962787524036887135e+02
5.431429948951525830e+02
6.288600223797965327e+02
2.643237041375983836e+02
-2.375382604007341740e+02
-7.346804944201691114e+02
-1.069078268162065569e+03
-1.246893317157692536e+03
-1.329060534895445244e+03
-1.599690159046082499e+03
-1.321696412983179016e+03
-6.520640187615280183e+02
-3.167769462544678163e+02
1.201857907315077938e+02
2.778583367959187171e+02
3.352916448586105389e+02
7.094733442428482704e+02
5.704138154771496829e+02
3.761345652254112792e+02
6.906778470017789004e+02
3.180519196021498942e+02
-1.367486928740682117e+02
-1.906736513365104884e+02
-3.877357244841513761e+02
-7.320018939604569823e+02
-1.425471904852068747e+03
-1.618062183794103703e+03
-1.612812897159329623e+03
-1.519774352800963470e+03
-1.375891274478736023e+03
-1.260120322866633160e+03
-6.084453317208897261e+02
-3.808804263724935026e+02
-2.704109149873386855e+02
2.239849332421538008e+02
5.653113579989116033e+02
8.846051301616888622e+02
5.528506954578795103e+02
3.590770325798938529e+02
1.142471083376099301e+02
1.434222550600573527e+02
-1.274121306164613117e+02
-2.433395519534865912e+02
-6.603392984418273954e+02
-1.311441071348815285e+03
-1.321693767724207191e+03
-1.338116633205951302e+03
-1.250721263574710974e+03
-1.118542436266787263e+03
-1.048529504905486647e+03
-8.457098735283383348e+02
-6.771037301656845102e+02
-5.704218001462342258e+00
4.094636389813273354e+02
7.323904331197071542e+02
9.670688087194386071e+02
1.042453542808842485e+03
8.486090227934959103e+02
4.374919606651699837e+02
7.660427691577195901e+02
1.141297058247718041e+03
8.132226980689262064e+02
5.327600590425211067e+02
5.238407793064932321e+02
1.824599875543773067e+02
-6.254133019180161455e+02
-9.567760085032959978e+02
-5.537551723387382481e+02
-4.033628090306461900e+02
-3.896289679260368075e+02
-2.425676998843059096e+02
8.793758138994475004e+00
2.214460065482684286e+02
7.237352176290507089e+01
6.944378134108457061e+02
9.360887350149722579e+02
1.283183089012809205e+03
1.458683309347078193e+03
1.328241030871962266e+03
1.638016765172536225e+03
1.583077593479984444e+03
1.172036572568312295e+03
6.811767806119680699e+02
4.772358430460373029e+02
3.022425126970191513e+02
1.053036431411697862e+02
-2.818144380930936563e+02
-3.112147674437947558e+02
-3.567511308436862691e+02
7.954860627891838476e+01
3.454050823893388724e+02
5.899594199555235718e+02
8.583893926283126348e+02
1.266370409456005746e+03
1.551130534413044643e+03
1.558648655739626520e+03
1.877585350211810919e+03
2.098188896529178692e+03
1.887439723997092187e+03
1.822389267547846202e+03
1.737678884754033788e+03
1.566230450174784437e+03
1.243210739717829483e+03
9.216659008739952696e+02
4.195780711750425667e+02
2.696958361200874492e+02
3.620781052680608809e+02
2.466974515026068673e+02
1.106479891819767118e+02
5.057049262220334072e+02
8.719891266164303261e+02
1.244178055559185168e+03
1.450481942399246236e+03
1.541839920421398119e+03
1.755383402701502746e+03
2.150039666383174790e+03
2.267718630468937590e+03
2.563411002771641051e+03
2.360069402533414177e+03
2.275700290005554052e+03
2.351308278658139443e+03
1.998878947230081394e+03
1.560358200048571007e+03
1.130738601944809034e+03
-7.101658919516432888e+01
-1.796936675699414536e+03
-4.669996619521957655e+03
-5.504212300584417790e+03
-5.653626774126134478e+03
-5.138192962505411742e+03
-4.391973629501214418e+03
-3.831971085988383493e+03
-3.408105064775272240e+03
-3.130409741828148526e+03
-3.065852486118260458e+03
-2.703358238488095139e+03
-2.904928930857302930e+03
-2.164530013216584848e+03
-1.899193512678289608e+03
-1.671064710263364304e+03
1.891175979727025833e+02
-1.571674623239755874e+03
-3.115459488743265865e+03
-3.393289867641180990e+03
-3.839196447436552717e+03
-4.208132878932814492e+03
-4.373135706024811043e+03
-4.349177407294362638e+03
-4.534219739323681097e+03
-4.226285281222601952e+03
-4.119319665435152274e+03
-3.809271314062402780e+03
-3.555135318133131022e+03
-2.651902713451208001e+03
-1.376499361616969736e+03
8.151047242384032643e+02
-8.070331569328496926e+02
-1.702880848066010003e+03
-1.626399983276303601e+03
-1.866579920892020027e+03
-3.164281824816187054e+02
2.028045648846592030e+03
2.642913808539335150e+03
3.021140532385848928e+03
2.920773737762032852e+03
2.104896387904556377e+03
1.467448786400110066e+03
1.366493380653079839e+03
1.078030989797265420e+03
1.066054798445739380e+03
1.413658272357650276e+03
1.688890754014012145e+03
2.001802357514250389e+03
2.357458842296406601e+03
2.594865415325426511e+03
2.883048504481996588e+03
2.850040093200760566e+03
2.812922194883353768e+03
2.695708937088672883e+03
2.618441334812443074e+03
2.720158843030817934e+03
2.579887345833196832e+03
2.204638206567842644e+03
2.011474529800791061e+03
1.450373268155884944e+03
6.883210112011778392e+02
1.633401079903174775e+02
1.784913541451705612e+02
4.398204431839464519e+02
6.363341317514574484e+02
6.481533481500096059e+02
7.784129533091495432e+02
9.972569748878423752e+02
1.396619927006127455e+03
1.671459633581667049e+03
1.807747433555919088e+03
1.930464409993820937e+03
1.864758155232251283e+03
1.872782191614023759e+03
1.688615387932370822e+03
1.509268788414905657e+03
9.907256615724768380e+02
9.359187284144470595e+02
8.049265374496714003e+02
1.457402087631401741e+02
4.848122462528675669e+01
-2.849731173476843082e+02
-3.927342610101455307e+02
-3.274496849990321152e+02
-1.761741336843055024e+02
-2.319347920184818861e+02
-2.349135318902296206e+02
-1.621753698091702489e+01
4.042602755067205180e+02
8.097388805420753215e+02
8.720089443084060576e+02
1.350077016540874411e+03
1.511004674710757627e+03
1.424777858044593358e+03
9.383863891886609281e+02
7.458146350780428975e+02
5.920891484300337879e+02
4.392418993028788350e+02
1.725267093864641765e+01
-5.868930451213054766e+02
-8.632133398012077805e+02
-8.727513441909657104e+02
-1.168494180058731445e+03
-1.366507998019812476e+03
-1.414797982216545279e+03
-1.223300828825902954e+03
-9.289833599656959677e+02
-3.908671993825024629e+02
-1.849556961433550271e+02
1.317616187402170738e+02
5.542823786054887023e+02
7.766296088644285192e+02
1.299828107289625677e+03
1.306858684844831942e+03
9.717071099676402355e+02
4.943527740910994339e+02
2.187932647431020143e+02
2.620027490040887415e+02
2.919598695134625927e+02
-4.337538043778891250e+01
-3.520426954838613938e+02
-6.500674249434699732e+02
-9.654314823887630155e+02
-1.308181266518861548e+03
-1.009342488642737521e+03
-7.899521216815514890e+02
-8.709291492829763683e+02
-1.943259107645867232e+02
6.082608476511720852e+01
1.005349523328535497e+02
-8.202156533619345282e+02
-2.626429235553071521e+03
-5.065109737425558706e+03
-5.262266181064571356e+03
-4.798948987709020003e+03
-5.343192606744186378e+03
-5.585989708914333278e+03
-4.904338782259009349e+03
-2.313306599254487537e+03
-1.619272929420005767e+02
-7.912611319338988096e+02
-1.137246902336280982e+03
-7.409578032798785898e+02
-5.374653712022942500e+02
-4.937939753764404713e+02
-3.789524881767694637e+02
2.890495810468206059e+02
6.441899953427534911e+02
7.714248869774718287e+02
9.397867179266294215e+02
1.220258421222141806e+03
1.477790136254142908e+03
1.340429731924947873e+03
1.606158956122402515e+03
1.826893170229714769e+03
1.522603392122538480e+03
8.902968446500436812e+02
8.539978777454194869e+02
8.656303418309977360e+02
4.701548294954312155e+02
9.454789267951291265e+01
-2.302180245153154488e+02
-3.511704519322018996e+02
-2.643546473573029516e+02
-2.857765857176611917e+02
-7.945030491880783075e+01
2.395847476280571016e+02
4.503215750062396410e+02
5.517586231747126249e+02
9.579420507628119594e+02
9.568611729995905080e+02
1.440500715890894980e+03
1.801836236018309819e+03
1.671857350719561964e+03
1.998564362093012051e+03
1.779951959271108535e+03
1.537002670855557426e+03
1.128658257080294334e+03
6.388839596829884613e+02
1.216695672768557586e+02
2.680064521361562129e+02
1.618883314353481637e+02
-6.469467036251931802e+01
6.425010507506206636e+01
1.516607840570316341e+02
8.252932623084720376e+01
3.098758167908740120e+02
2.857222177562268826e+02
8.881303505573687289e+02
1.120101151340261595e+03
1.064625559764220498e+03
1.398666461822684369e+03
1.752206581016844439e+03
1.781286805548574193e+03
1.445935350371964205e+03
1.222118671900911522e+03
1.136869624276779859e+03
1.399192105504049323e+03
8.440388970170803304e+02
4.283786994260252641e+02
2.332157679964604142e+02
-1.384645281590372292e+02
-4.046263574202388327e+02
-5.992671431302956080e+02
-1.045382976893290106e+03
-3.910978184235280423e+03
-3.070039000184634915e+03
-1.685503952443503067e+03
4.560055069602879030e+01
-9.187346153364203474e+02
1.624558475142388716e+03
1.109440701101168997e+03
-2.530370157384312222e+02
1.916163841699037221e+03
5.504761721899136973e+01
-1.279392329131635961e+03
-6.162048041775748608e+00
3.397714481020616972e+02
-2.405588095393911772e+03
-1.357264858152554552e+03
