2.562110076223332271e+03
2.330975374862596254e+03
2.504685676934404455e+03
2.542272737215854249e+03
2.246709734302081415e+03
2.043050194623631569e+03
1.955304086336400360e+03
1.699520106445431111e+03
1.784689418219322079e+03
1.831821345996428818e+03
1.733992014221911631e+03
1.671179196557295199e+03
1.855358605008053928e+03
1.678585929967744505e+03
1.537887985759008416e+03
1.660259529458522593e+03
1.595677081478589571e+03
1.500107602428047585e+03
1.679517185718257906e+03
1.663255199888830020e+03
1.576562742150874556e+03
1.324479048522491667e+03
1.160098219646865118e+03
1.299085959556770149e+03
1.238351442478762010e+03
9.743996794651836808e+02
9.662636375167844562e+02
6.847879421532633160e+02
4.331880137993944686e+02
6.668777417257887237e+02
1.989502461243848757e+02
7.605327772962415338e+02
6.956545728147027603e+02
7.153307905752548095e+02
1.055568771301323295e+03
9.774349191166262472e+02
7.238109151580616754e+02
7.847194748274736185e+02
4.151372749223585856e+02
4.529707174391604099e+02
7.735452586753459627e+02
9.655755647208372920e+02
1.097677754805223913e+03
1.351306638976388740e+03
1.280257642692257150e+03
9.565869276100912657e+02
7.773899380346151702e+02
7.452850019317252190e+02
7.583616638268133556e+02
7.266958263017558011e+02
7.742940706684307770e+02
1.004151715480989083e+03
9.351918127064941473e+02
8.124317902688413824e+02
7.979395770391547558e+02
7.726538430642624462e+02
6.505829046282863146e+02
8.847101951924738614e+02
5.630271739562400626e+02
3.795075140739239714e+02
3.521690560777947780e+02
4.830208964340844773e+02
4.330211829184551107e+02
4.651664176137488198e+02
4.034479207736276294e+02
1.958597178472943199e+02
1.723726440439325529e+02
3.880061888190392665e+02
4.417556362261190657e+02
1.116131770116445239e+02
2.525659722258111799e+02
4.066169124886294526e+02
3.837339653400377415e+02
1.488797413780579575e+02
3.650599088225916375e+02
5.773132107949863894e+02
5.565929377220510332e+02
1.778644564594249573e+02
2.031449036754344775e+02
5.104260351531112860e+02
4.936906274565000103e+02
-8.400781034824382232e+02
-8.898702147877605739e+02
-4.003680696119469758e+03
-6.468531458175823900e+03
-6.482406203772681692e+03
-6.843338705984227090e+03
-6.903354091507975681e+03
-6.887408660393138234e+03
-6.482553024691035716e+03
-6.302778557621181790e+03
-5.336046564116753871e+03
-5.578450286427655556e+03
-4.491935442782904829e+03
-1.188485895670477021e+03
4.348606643964557179e+02
1.107084363831011387e+03
1.223247174747883491e+03
1.165509570128343512e+03
1.034618101606056143e+03
9.135250230691672186e+02
1.125241927861675549e+03
1.185799357970518940e+03
9.612012569020843102e+02
8.924441028205824296e+02
6.695644461420356492e+02
1.085562512160024880e+03
1.319397545588732328e+03
9.111357971558118152e+02
7.407734851331507571e+02
9.482122818959226151e+02
1.022437367144406721e+03
8.955231534469528469e+02
8.474755093586597923e+02
7.542731517275893793e+02
7.379188341463982397e+02
5.264821691272840098e+02
3.149170456149523147e+02
3.501964839714647724e+02
3.943737989475174004e+02
4.004439087536167108e+02
2.164102033893140344e+02
3.372962498295316891e+02
1.331007379527787009e+02
2.938061013445200160e+02
3.834292432829742552e+02
4.549983804528321230e+02
5.725157902918068658e+02
2.530157190148349002e+02
2.745003729902954319e+02
4.710094966381045083e+02
2.585006460137793169e+02
1.110211175409122575e+02
1.915625136011123857e+02
1.010150709947613201e+01
2.996923502406826287e+02
2.693239935171241655e+02
2.760394864721337740e+02
3.028150684035255154e+02
2.076725369044569334e+02
2.056492193814641780e+02
3.677269678461865396e+02
4.219484050028140132e+02
1.483020124483576581e+02
1.298255570842157738e+02
-1.735021712636199425e+02
-6.636558900391833049e+02
-3.735760524860238547e+02
1.527336464520513459e+02
2.722747208729601311e+02
2.020635121215125025e+02
3.391209391338276191e+02
1.754321674063149032e+02
-6.694775988806382827e+01
1.911764061441561413e+00
5.909153866851411863e+01
1.595913319415282388e+02
1.594495545522548241e+02
2.206731344106370045e+02
1.292692414908542844e+02
8.123143564800325578e+01
-1.314366717727869229e+02
-3.370352593204160030e+01
1.694672460329448711e+02
1.340806409464172759e+02
-1.798969213996682868e+02
3.859335143061524320e+01
-7.846049959343025648e+01
-1.620634150219139258e+02
-1.291887584920761753e+02
2.041751793664010961e+02
1.939921830670635643e+02
1.582853368118045694e+02
1.740679658286663027e+02
-6.164137761447540953e+01
1.310115084146539388e+01
1.237179254974351217e+01
6.418374434311384391e+01
2.335107971719540103e+02
3.273884971206088039e+02
3.977838829640189147e+02
5.968791023752032743e+01
-2.128651506214185929e+02
-1.778458556696398034e+02
-8.429455566202881300e+01
-1.001901697646596858e+02
-1.057284899581339310e+01
6.751202808221702867e+01
-2.588850037722481829e+02
-2.087685938664946264e+02
-2.971229718616602895e+02
-3.769395987190804931e+02
-3.212860549916982222e+02
-2.451569149439225725e+02
-2.845563313895277702e+02
-4.404862721055164343e+02
-4.549620948873209159e+02
1.803608151535362225e+01
1.304961303411945153e+02
1.084034276043510800e+02
-9.024806917776022885e+01
-3.744967952241473768e+02
-1.602935594666517147e+02
2.113106013806581132e+02
2.023156937793937402e+02
2.737247908075298142e+02
4.094695354523740320e+02
1.325493376048184473e+02
4.801961726381825457e+01
1.847930790254732187e+02
1.048499073343488135e+02
-1.298091542070182527e+02
-1.502154570530731235e+02
-9.640288711814515921e+01
-4.338680812910937590e+01
-1.951453908537624784e+02
-1.917223899565508987e+02
-6.096677135551103355e+00
9.882539667715185772e+01
-3.258193601910053872e+02
3.087039710285481533e+02
1.864366829023606726e+02
-2.534681774907207057e+02
9.990131231439004011e+01
7.087055567873363771e+02
6.902048222617506781e+02
8.204695677595267398e+02
6.626702608435050479e+02
7.067860382405525570e+02
5.618073080005636939e+02
2.930145635376061932e+02
3.421767962540056374e+02
4.810778865655915979e+02
4.448524264586364438e+02
5.213802220164924393e+02
6.458787343960751741e+02
6.036338622404829266e+02
5.470232547295083805e+02
6.073006020736880828e+02
6.112921716191332280e+02
5.089491542776629558e+02
4.411607188402381325e+02
3.839813761381198560e+02
3.146981938251816473e+02
1.821978248577029547e+02
4.550438052217223799e+02
6.595541018949008958e+02
5.718221093700756228e+02
4.231928174463304231e+02
2.988546154079536450e+02
8.269779517019081823e+02
1.030458617727257888e+03
7.292278211949663955e+02
9.472949923491044046e+02
1.022644801103621944e+03
9.002647858237133960e+02
9.821240274482877339e+02
1.213194557713810127e+03
1.191464917450586654e+03
1.339919303876792583e+03
1.118552164294815611e+03
1.050393392826030095e+03
9.234058286963550017e+02
1.098557924068786633e+03
1.084886940541675358e+03
7.613851412245440997e+02
1.184017190554060562e+03
1.527763791106895269e+03
9.526138566558919365e+02
7.935800240758100017e+02
9.977013218145527844e+02
1.059948944877374743e+03
1.522701498250767429e+02
-2.032284923254256000e+03
-5.091732585615539392e+03
-6.052069716133404654e+03
-3.135284913970349407e+03
9.106035376622022568e+02
1.574626280977802026e+03
1.711804015606417352e+03
1.568106410527631624e+03
-3.774622849942240350e+02
-5.430848274407911049e+03
-3.016051484890188931e+03
7.579149912353971104e+02
-2.570893102159954651e+03
-5.170485058494336045e+03
-5.832832035209310561e+03
-6.066996234323195495e+03
-6.160926863792577024e+03
-5.964630271829841149e+03
-5.062128592837740143e+03
-5.121370333304081214e+03
-5.744311613340957592e+03
-5.637976479910780654e+03
-3.648313321405405532e+03
-6.783121574130309455e+02
-3.362980452401875027e+03
-4.024299798195896528e+03
2.977279186511818807e+02
1.635143278931744362e+03
1.994985790052717903e+03
2.002286523872458474e+03
1.940051249662442615e+03
1.897282448951939614e+03
1.886023743515642991e+03
1.918313630970805207e+03
1.949141001680641921e+03
1.402561472672073251e+03
1.110577042049000056e+03
1.378200302133706145e+03
1.606442067144000021e+03
1.807359939758768633e+03
1.652983922104212525e+03
1.680287841258405024e+03
1.484368083457901776e+03
1.568224691553919229e+03
1.770876395103146479e+03
1.675298557449567625e+03
1.478580727426760632e+03
1.449750674782739452e+03
1.712838923071053387e+03
1.438859965681761423e+03
1.283833132036183315e+03
1.185765618096235585e+03
1.161673634875194693e+03
1.346643896871968082e+03
1.530677603609934295e+03
1.574783907362195805e+03
1.109981453679765764e+03
8.623145578146894650e+02
1.457775316178776848e+03
1.296408318950926514e+03
9.362342469271685559e+02
7.493030453198711029e+02
8.346131815827252467e+02
9.481682811590143274e+02
7.660242360107224613e+02
8.033186667838341464e+02
9.379451379000669249e+02
7.421555684049035335e+02
5.839011638260814152e+02
6.960728179033790184e+02
4.579725770751466598e+02
3.486044035487240649e+02
3.750701577965439242e+02
1.462276310021001677e+02
2.643195327202514591e+02
-6.220534588016872704e+02
-6.877465897203745726e+02
5.631239528008842399e+01
9.510188927924946256e+01
1.935999990583817123e+02
1.746553395004391120e+02
1.442424331327515290e+02
2.613945879836255699e+02
4.631267370717072822e+02
2.054451160636088787e+02
2.634686625482940414e+01
1.058365094551937773e+02
-1.203976103209508786e+01
-3.230374419972995526e+01
-7.392899235888667420e+01
-4.597195550148553167e+01
2.635963764237886835e+02
3.798303158542318556e+02
2.317230666809574018e+02
-1.517537472328575348e+02
-1.575295519744427386e+00
-1.107753364750853109e+02
-1.753154604143018389e+02
-1.621954677076144833e+02
2.665664086273432076e+02
1.449696262876676087e+02
-4.179949830638828416e+02
-4.513196599404043354e+02
-4.000172619547176396e+02
-4.090973714850456986e+02
-3.065276880517469067e+02
-2.303416896927298296e+02
-3.155087861240530174e+02
-4.860706227803993897e+02
-4.090123185734613571e+02
-5.403470847588687320e+02
-4.911061737269590139e+02
-5.032675179559377625e+02
-2.988529871829332478e+02
-2.718874297756658507e+02
-3.203687541724432322e+02
-4.133271663001218030e+02
-5.767731391195551396e+02
-3.956764308155151753e+02
-6.540922282568303672e+02
-4.030221219179110790e+02
-3.404711920063554658e+02
-6.384806757836646511e+02
-6.120448683204582494e+02
-5.641581047504356548e+02
-3.478752094216998216e+02
-3.102143395295100277e+02
-1.068150090752337245e-01
-4.826170157637070020e+02
-7.557625318106971690e+02
-3.945474091626660993e+02
-3.859916973594557135e+02
-3.231548800713549667e+02
-3.850465165843478417e+02
-2.866616621608745277e+02
-1.560266742160923172e+02
-1.651206205735942376e+02
-4.489747979593308855e+02
-3.836428774046644321e+02
-7.681604182141367119e+02
-5.226358125785912989e+02
-2.189220688550536522e+02
-1.258097318215153138e+02
-2.506671769548331383e+02
-9.725386308620912246e+01
-4.759222633069762765e+01
2.070052875658211633e+02
5.788781951138552273e+01
-3.160051100182921004e+02
-2.608226763023864123e+02
2.036309256391731992e+01
1.354531473440123648e+02
8.143318829435924044e+01
2.944420276807806545e+02
5.031131985159151832e-01
1.526291262352027900e+02
1.635615130711096867e+02
2.213955363413653288e+02
-1.686699029734025714e+02
-2.398598912836084196e+02
-4.017505925110350518e+01
1.593468281504064237e+02
1.386500117550972959e+02
2.737416888634818406e+02
-1.856806016056673414e+01
1.602371214734649740e+01
5.846613892446246297e+01
2.867776602764472500e+02
7.887687750409013461e+02
7.055184309974483767e+02
3.351679020667013447e+02
4.273966915580088539e+02
3.404289598779532753e+02
4.143672022609218857e+02
7.992572180090647862e+02
6.738500588406183169e+02
5.731163011377773273e+02
4.579323038971667188e+02
3.014278048841568420e+02
2.737597024196585949e+02
1.696013896359966111e+02
1.691355154458755692e+02
3.539815986990213048e+01
2.193710685108720213e+02
3.197978959118568554e+01
-3.077353421728873428e+01
-6.792252653611875246e+01
6.650647789585713099e+01
4.525183438337977577e+02
2.541222018365283191e+02
1.323204929234888709e+02
4.481127811503554312e+02
4.775188961255729510e+02
4.815233412660795693e+02
6.121097708838117342e+02
7.902807332790571309e+02
6.320671813368221592e+02
4.604607615849579929e+02
5.834547050580013092e+02
6.720777211452636948e+02
6.792996197065315300e+02
3.740755087164835118e+02
5.243426555223967256e+01
-3.292531550851406337e+03
-3.988854862911745386e+03
-3.066532882906798022e+03
-2.785536453904053815e+03
6.590575325034280922e+02
8.622613689242047030e+02
7.881172355572696233e+02
1.090596106188575050e+03
1.190731156713150767e+03
1.165491456962047550e+03
3.859025724997920861e+02
-2.032968217349156703e+03
-1.751135537330660554e+03
-9.006099662036756399e+02
-6.083984884669844178e+02
-1.749498923953987514e+03
7.981213847104842216e+02
-1.694529829398461061e+03
-6.324528309226978990e+02
-1.255651733633463664e+03
-1.546108942214294984e+03
4.902106436821433135e+02
-1.434684283140013122e+03
-1.282792313365249811e+03
3.299060774956967066e+02
-2.264568700609534972e+03
-2.782220453056448150e+03
-3.570510278800347805e+02
-1.727017161471222835e+03
-1.321113422519884580e+03
3.076726203854360051e+02
8.082898080059209178e+02
7.157922196603827842e+02
7.332218448113397926e+02
5.205301465829322751e+02
3.587460421091514604e+02
8.289058853386384271e+02
9.500061992344124064e+02
6.520472828727624801e+02
6.830375950270630483e+02
6.999862116751259009e+02
9.139195941953837519e+02
8.348391389622961469e+02
5.047744092735406412e+02
5.187198679569319211e+02
9.167010579300731479e+02
1.005742888110274066e+03
7.657966519852874399e+02
3.948759754080466564e+02
4.770587358648563736e+02
8.103139022991679212e+02
8.636259492450345761e+02
4.919729391767140214e+02
5.684099945678466383e+02
3.779942976549668856e+02
5.039828891004738125e+02
6.214724828120506572e+02
3.781428078979737393e+02
2.298308757908817768e+02
3.258085376984109303e+02
2.813752700430092091e+02
-1.173830690476080463e+01
2.635266225329310075e+01
2.270564645700010260e+02
-1.799342123060490053e+02
-6.001647809030817626e+01
3.781172901231046239e+02
3.866186541262171659e+02
5.206185850972334492e+02
6.331310130204155939e+02
5.960870294773151272e+02
4.514532234964621011e+02
3.772369046610989471e+02
4.605028887649934859e+02
3.194248724215480024e+02
1.197490311400339493e+02
1.790760430472386702e+02
2.695259926155621883e+02
3.235325532323331572e+02
6.901968492631704066e+01
2.477482505123468286e+02
4.217849372208484624e+02
4.529581100392657049e+02
3.582520284744940113e+02
9.165517248038092646e+01
1.141627599598859888e+02
3.277498552713231561e+02
1.984037696189708981e+02
7.631275535911670431e+02
8.629731055910746136e+02
7.379181601142514637e+02
4.829141589226877045e+02
6.239153771634566965e+02
7.539168947183841283e+02
5.959586462679736769e+02
7.930452940571823319e+02
7.612070526288172232e+02
7.723800756992492325e+02
2.445110329892306993e+02
3.066442474628203172e+02
5.097818115727715167e+02
7.338817653436658475e+02
6.529350920912858101e+02
6.329910880351061451e+02
6.410094738588184100e+02
3.679896839663017545e+02
4.339277020816807635e+02
6.767642175567427785e+02
8.174980479712965007e+02
7.241616204288292238e+02
6.087523381961011637e+02
4.942611461687259862e+02
7.046341101010683587e+02
6.878953141814164383e+02
5.790633966307326546e+02
4.781579273936387153e+02
4.321175920334938496e+02
5.309180606056009992e+02
6.435763026296791622e+02
1.630763672525545758e+02
-1.052560951224355676e+03
-3.756341842455974074e+03
-6.740281475582157327e+03
-6.905402460992321721e+03
-7.062669146226741759e+03
-5.947127737475197137e+03
-6.339766759443442425e+03
-3.664551973842344978e+03
-5.229530299467059194e+03
-6.627687159801981579e+03
-5.937989889170350580e+03
-2.342497197719641918e+03
6.457807289306325629e+02
1.379815407587932668e+03
1.275649102538758598e+03
1.286258559856507190e+03
1.262615293722501974e+03
1.161708104363674011e+03
1.259575065641930678e+03
1.205236269788414120e+03
1.358661628916220025e+03
1.275842184759796964e+03
1.253778619901816910e+03
1.080497267570978011e+03
1.106986749011872462e+03
1.122211155399410700e+03
1.182202560451171621e+03
1.247975478875026283e+03
1.568523030127847051e+03
1.234843135310378329e+03
1.430940348596529475e+03
1.625825495947353829e+03
1.703494660346385217e+03
1.569926456866914123e+03
1.238118057409992844e+03
1.230114129801448826e+03
1.112863200100383438e+03
8.514177234427578469e+02
8.207742091125472825e+02
7.139165656637410393e+02
7.368559583036615095e+02
6.696220205404365515e+02
8.732250714020619853e+02
1.070642670450244623e+03
1.079893390754919437e+03
1.025982067902541303e+03
1.129921678151490141e+03
1.291699474966192838e+03
1.227335969284929661e+03
8.908526408916729906e+02
7.302461889766361764e+02
8.385172896410678050e+02
9.156579628674350033e+02
8.637339120454342947e+02
9.657219047711461144e+02
7.276193626710180524e+02
5.664666109055046945e+02
7.532278928839605214e+02
6.239467836251470771e+02
3.236182615913318728e+02
7.702317931639358903e+02
8.877136889820670831e+02
6.482545513187841379e+02
1.889364941278898868e+02
4.136825196984696049e+02
4.764888709567982232e+02
3.003067084209184827e+02
1.861790297656746418e+02
1.501218154759201298e+02
3.181125061911448029e+02
1.791746275073187178e+02
-2.056563113493902506e+02
-9.723528234521769491e+02
-3.256868447569518139e+03
-3.926245481233423106e+03
-1.384479658926082948e+03
-3.467593610680491565e+03
-2.356556271631373420e+03
-1.228382361739694716e+03
-3.801990407315330231e+03
-1.583377561384034607e+03
4.094399530135531222e+02
6.815041833452627316e+02
8.287987408012470496e+02
-5.617126451477497540e+02
-2.335962442691668912e+03
-2.236956766999742285e+03
-1.131715038832807522e+03
3.818121943655555697e+02
-1.278351556267186425e+03
-1.754229980490577645e+03
4.661743486080417824e+02
5.859044752192887699e+02
8.819627359602735623e+02
9.983359004155729508e+02
7.090102430396545969e+02
5.990103634686797704e+02
-2.165676988816427638e+03
-1.618979260956856251e+03
-1.505929380680934855e+03
-5.965140467107340783e+02
-1.963748704187988324e+03
-2.537666179360237948e+03
-9.142149538731925986e+02
-3.390368721423712486e+03
-3.677152763149878865e+03
-2.021555791667518179e+03
7.783963382972355021e+02
8.646820790412651832e+02
8.303332938887189130e+02
-8.766444233360865610e+02
-1.199245023457763864e+03
6.425204833044210773e+02
-1.556340985568052020e+03
-1.000812312994075455e+03
1.010293381047758210e+01
9.943782472408228159e+02
1.015019196921604589e+03
9.740563588676085374e+02
1.052446494359028975e+03
1.093168432320088868e+03
8.832478417296190401e+02
8.856338330569001300e+02
1.061354023346853410e+03
8.104203051049240685e+02
9.598027181897168703e+02
1.198482263153920940e+03
1.030438704603597216e+03
6.186636682590263945e+02
7.361368872614839347e+02
8.378775043948087387e+02
8.608964077537785897e+02
1.034158521070146662e+03
9.326281109062543919e+02
3.292813746298613182e+02
-1.348758950599007562e+02
-9.397718408712948701e+01
6.545647065369703341e+02
8.042968323818005274e+02
9.023788028199717246e+02
7.108534022517455924e+02
9.942365811348565785e+02
1.259714643797636199e+03
1.263275109292290153e+03
1.316909150003497643e+03
1.032596817741419500e+03
6.893144657930929498e+02
9.089638776903186681e+02
1.186916359866626863e+03
1.397880700274394940e+03
1.252850142556726496e+03
1.096823053067602132e+03
1.322922197187391703e+03
1.408987389163599573e+03
1.340200240742287406e+03
1.175098697396211264e+03
1.012168034594039113e+03
1.025211799398629182e+03
1.025918489418307900e+03
8.805914210289793118e+02
7.838701369732324338e+02
6.919005750294923018e+02
8.391364055371789163e+02
8.301490515476197061e+02
9.709488386937406403e+02
9.604862423662831361e+02
9.499022125788118274e+02
8.229547398172146586e+02
1.024626401528193810e+03
1.141965110936137080e+03
9.919780161771017220e+02
9.346013119686062964e+02
9.927873285964074057e+02
1.077531165920035619e+03
1.244813233515737238e+03
1.162646776460008823e+03
1.239997028788643775e+03
1.131881405274384178e+03
9.822403539822064431e+02
9.680961726544425119e+02
1.066463659854099205e+03
1.226311111400945947e+03
1.245604757521882220e+03
1.278306114122885674e+03
1.404476673062811642e+03
1.487129369889524241e+03
1.367203857901305810e+03
1.274671910349275549e+03
5.755436681834744377e+02
-8.981530986151088882e+02
-4.049436504667459758e+03
-6.291292765375052113e+03
-6.096772886634207680e+03
-5.931859248732678680e+03
-5.889533186704920809e+03
-5.122797189745591822e+03
-2.986639573129421592e+02
1.583877363405043070e+03
-1.321728312944041761e+02
-1.022829436144408533e+03
1.439874027474539844e+03
1.260019493508512141e+03
-2.566420734739121144e+03
-5.412485484410720346e+03
-5.479257732319973002e+03
-5.019661008722562656e+03
-5.332498924990151863e+03
-5.880847836809191904e+03
-5.497716104987147446e+03
-5.002128734176711987e+03
-2.504100102108290230e+03
-2.187601631284524501e+03
-5.139630481777077875e+03
-5.286208220915920720e+03
-5.496320870710719646e+03
-5.030969357531375863e+03
-1.606101115398058937e+03
1.341276349084167350e+03
1.855182071283688629e+03
2.029621756145847030e+03
2.090628321262455302e+03
2.203234807074806668e+03
2.110424293694755761e+03
1.959177430398216302e+03
1.921562852078267952e+03
2.007508781317785406e+03
2.072086262081159930e+03
2.200352413339041959e+03
1.844322870952165431e+03
1.462962057403495010e+03
1.275309079550913111e+03
1.411414434384216293e+03
1.879262334140910980e+03
1.979901048868913904e+03
1.634345039085479357e+03
1.644660018865487700e+03
1.660814538021087628e+03
1.353793978955827697e+03
1.325651106140328238e+03
1.532393786303740171e+03
1.413007454534264070e+03
1.413568508175973193e+03
1.560100889846433802e+03
1.276613246177123301e+03
1.080110607018365272e+03
1.310577060173671498e+03
1.055089367361420500e+03
8.626747347358415254e+02
9.693431013046488260e+02
7.880894136886161050e+02
6.459529306356693041e+02
9.939703945016548232e+02
9.661520915834877314e+02
7.585200597527611990e+02
5.100642792698529888e+02
2.988300800708974521e+02
5.848565662543313692e+02
5.892080634123407208e+02
4.711100779305552351e+02
3.956477842454458482e+02
5.075932124334705691e+02
1.669419712067060289e+02
1.345675700397693220e+02
3.696790675335487322e+02
4.573213403611349577e+02
-3.963475343866487037e+02
-1.383331355377181637e+02
4.494675355572756530e+02
4.518413734427723512e+02
1.964591460145512656e+02
4.347006511298432088e+02
4.444625413762525454e+02
2.776586943925921673e+02
9.231759975989588440e+01
-7.853978599881220646e+01
6.005873956691581128e+01
1.141767610608249441e+02
-1.501780925726119733e+02
-3.690226100601617532e+02
-2.803417292614894905e+02
-2.420991170803623618e+02
-3.413250800015656523e+02
-1.540166971483087650e+02
-1.014354618956986975e+01
-2.867093077322708154e+02
-1.137434580891515026e+02
-1.332147537871304053e+02
1.850440402859983902e+00
1.724828886339958842e+02
5.906882406826426859e+02
4.674916959781942865e+02
3.109152800101621210e+02
-1.860546691584086432e+02
-1.342724337249375033e+01
3.480629800212044245e+01
-6.536895047031906358e+01
-1.079365496733537100e+02
8.081645532438383128e+00
9.067445347189256211e+01
4.880946438891010075e+01
-7.249089077343113274e+01
-6.221474259327806067e+01
-2.538053041568464607e+01
4.018198805084020719e+00
6.296479762805001457e+01
2.494735102173131622e+02
2.495626514356907819e+02
1.418860970234016605e+01
-1.416810907104775197e+02
-2.502478550387821343e+01
2.311404387263480942e+02
2.167927190503068005e+02
1.999587974134246053e+02
-1.663844372246674368e+02
-1.142732702848207396e+02
-4.172256305679742638e+01
-4.296848427959757828e+02
-1.828263023777230728e+03
-1.946436032175135551e+03
-9.361925547944397294e+02
-1.865186317641211247e+02
2.175014977878599041e+02
-7.311126547378223961e+01
-1.283471288440864555e+02
5.575296873113216378e+01
-1.378577758097952426e+02
-3.581584868991169515e+02
-6.561799631218038940e+02
-4.440353787711613336e+02
-2.184502876891377241e+02
-1.436417043965080076e+01
2.993040699536827560e+02
2.412827783913395763e+01
-2.976609432713568708e+02
-7.792955434938943426e+02
-4.588509132615555473e+02
1.179791144977742334e+02
1.877919794320174418e+01
1.547058633918467940e+01
6.120988445354051777e+01
-2.550324269135287807e+02
5.287684821305984428e+01
3.299034745735770713e+01
-9.089043771238301872e+01
-2.558238095520207196e+02
2.350733071930959284e+02
2.590328885942718671e+02
1.939801106435748181e+02
6.163797747821108430e+01
1.091795270284816297e+02
2.015696474624299697e+02
7.877444085904814131e+01
-4.015446120965716403e+01
-2.872438787001606215e+02
-1.383235835014098427e+02
-1.746357107503534962e+02
-7.714561848324561311e+01
1.002463828444677318e+01
3.061960208536024020e+00
8.992610694090608092e+01
1.434065519216393056e+02
2.898308380673165630e+02
4.110363456246366809e+02
3.458302607519484013e+02
3.520688520514673883e+02
2.719550453833494430e+02
2.394948136247364801e+02
2.408040765617726038e+02
1.784177581188462369e+00
-6.874676073081563743e+01
1.147322734574761149e+01
2.022660570142514587e+02
-7.139784108800570550e+01
7.949142458056728344e+01
3.609346240290432775e+02
2.629170522843105573e+02
-8.654149315025148326e+01
1.345804277971756733e+02
1.292916209899392186e+02
-1.645785106367627293e+01
1.133420559122455700e+02
4.857091668782228453e+02
5.335986495317099525e+02
3.999895109091982590e+02
4.019630183405721482e+02
3.455410659046970068e+02
3.156717338080978266e+02
5.243324904706078087e+02
7.695294738958277776e+02
7.202749538314377560e+02
3.965866352663697967e+02
-1.695237794029528970e+02
-2.824977949107436871e+03
-1.453833283176733858e+03
-3.739133948715959832e+03
-2.246843568236402461e+03
-1.996680816504598166e+00
1.984844426555717973e+02
2.635508563024956743e+02
8.322890180070965016e+01
4.085175859265426652e+02
5.914108232142681345e+02
5.759652456259505016e+02
-1.661814605371151401e+03
-1.225976550061855960e+03
-1.942489708502211670e+03
-1.904357241328752025e+03
-2.106535641315932025e+03
-2.089992369924109425e+03
2.722589056163280929e+02
5.022070656804341979e+02
-1.901118790877752872e+03
5.372989143950364905e+02
1.322475018660641354e+03
9.554284551056217651e+02
6.921612079674448523e+02
-2.603287304652162675e+03
-2.539915259829888782e+03
-4.907129138235590062e+02
-1.988697720796521708e+03
1.531678955661954262e+02
-1.743109781103015621e+03
2.347565409879925014e+01
7.159371735743249019e+02
6.332904206118363390e+02
8.535368471483512849e+02
1.598676006690749091e+03
1.566754843810748298e+03
1.052783033591195817e+03
1.309743688865626837e+03
1.259640446891420879e+03
1.090468719181267716e+03
8.963038249718240422e+02
1.088130639808827254e+03
9.069368912402568412e+02
8.637273682191002990e+02
8.475475288741147324e+02
8.714081328633644716e+02
1.066316881618903381e+03
6.172273272605623333e+02
6.781849437438742143e+02
8.362316482963085491e+02
7.513510293150580992e+02
6.905477928882171454e+02
6.017797336186116581e+02
4.530155542594942517e+02
5.475222937199162061e+02
6.275082119619712557e+02
3.991237857395323090e+02
4.462059390136702177e+02
3.955762911564932551e+02
3.804398670575022834e+02
4.745363613627013137e+02
6.224740217477867645e+02
4.934237933280738844e+02
4.486341608848329088e+02
1.068866352600873455e+02
1.209085422647825254e+02
2.622225744439104460e+02
2.834108909609130365e+02
-1.400824111002176096e+03
-2.375847116622901012e+03
-8.175960179453169303e+02
-1.718815560251662191e+02
2.973001149290168428e+02
4.839289991147480237e+02
5.869429238844867314e+02
7.581452758880526517e+02
7.777582549037073250e+02
6.271048305212186733e+02
5.518848469467419591e+02
2.637557664248125775e+02
1.138663297088520210e+02
1.191365958136134537e+02
2.717038914784312738e+02
2.284363876909086741e+02
3.032591926224535541e+02
4.291064063010774703e+02
4.249787621049935069e+02
1.678668438042473383e+02
2.367667771799206946e+02
-1.093268090783017783e+02
-1.924405984949109722e+02
2.444691662411718625e+01
6.932972045840404007e+01
-2.267904979177366727e+02
-2.789163455714104884e+02
-2.150426061396195507e+02
-2.351994190572237926e+02
-7.442738968081447126e+01
1.032860398152077437e+02
3.149628726761476969e+02
4.405392358740905934e+02
2.950083884883037513e+02
6.764274394457801236e+02
6.587611290936023352e+02
1.699504677232141603e+02
3.860032549741436583e+02
3.489389893445317625e+02
4.787110195113262421e+02
6.643704754655902889e+02
3.008801501839587900e+02
3.882152378592094237e+02
5.354012304157480457e+02
5.304395012707836941e+02
5.292825748336912284e+02
5.689675271954566824e+02
7.335009479961876195e+02
7.748074910080703148e+02
8.968859597589498662e+02
7.867825974400883524e+02
1.069482083765660036e+03
9.889794455688563630e+02
4.492368441968023944e+02
5.052493038575749438e+02
4.070299692387326331e+02
-5.503822247088775157e+02
-2.119026974368122410e+03
-4.648888266642377857e+03
-6.717000193692555513e+03
-5.112375124568843603e+03
-5.636015778365669576e+03
-6.890838053876932463e+03
-4.918923408347820441e+03
-1.701326845166973726e+03
-2.274030645660872779e+03
3.730468542417523281e+02
1.234826093563326822e+03
1.025279636873207664e+03
9.643308647953265336e+02
9.263452708022701927e+02
5.391690520000856850e+02
6.586239763798067770e+02
1.041805958554292147e+03
9.008653107007478411e+02
8.716772156683271078e+02
1.054241981790972432e+03
9.475565181706921294e+02
7.496047741233262514e+02
9.173979912107233758e+02
1.028945890046851446e+03
1.020305794967985207e+03
6.534086942161985689e+02
3.182713879457950270e+02
3.458951853580608145e+02
3.302772975693089847e+02
3.984405380574030460e+02
4.924227261948713590e+02
7.242076899205966356e+02
7.488512728963540894e+02
6.993184533200746955e+02
6.585990508366602398e+02
7.737230244730856157e+02
7.807099917627285777e+02
5.665639214884728290e+02
2.002931914785771141e+02
1.749108582519799313e+02
2.054391125907677065e+02
-2.611273559601267280e+01
4.623034080432007897e+01
9.848612444421914347e+01
2.377177868524509279e+02
4.319235437456225668e+02
2.930672995331732977e+02
6.820804600764964221e+01
2.303990519339327250e+02
1.935997520057672716e+02
1.638140207868106586e+02
2.730905894595819632e+02
2.744232387930305777e+02
3.248397252137716009e+02
2.343604194177431044e+00
2.159653072517104420e+02
5.372998443378771327e+01
6.573580412451778443e+01
2.793615595204664714e+01
4.125386174449418064e+01
-2.143102650261081692e+02
-1.547285584695974308e+02
6.076349947211728164e+00
-1.269096042029046032e+02
-6.866914777788445008e+02
-6.112396525461469992e+02
-1.075505507574256853e+03
-3.480471266176249628e+03
-2.931174744349693810e+03
-3.285597396125271189e+03
-8.677206300935627041e+02
2.454309538221986884e+02
1.470131988380345831e+02
4.139822545788017010e+02
3.043728440923482594e+02
5.081549918808207167e+02
3.922842507913206873e+02
-2.511857284210427963e+02
-1.332428286594848146e+02
-2.288906104122638965e+02
-7.410308635054614967e+01
2.600998070585044957e+02
-5.427062821088131273e+01
3.008242140590402869e+02
1.774103018501789109e+02
4.042303353717419157e+01
6.088401091795591924e+01
