-5.784105560460719744e+02
1.389063093184648096e+03
2.057417483006726343e+03
2.657668475245581703e+03
3.478797605164278139e+03
3.932822276568405414e+03
4.021757315885230128e+03
3.469614012230060325e+03
3.068473039134416922e+03
3.237412178381665399e+03
3.186389352837755268e+03
2.778403604853445813e+03
2.068451290773915389e+03
1.860516696623729104e+03
1.586618506884293083e+03
1.140706069224811699e+03
1.256819265459000235e+03
1.493974529722791203e+03
1.786178640851372393e+03
1.850521733038056709e+03
2.115028381192367760e+03
2.202641015986884668e+03
2.406388916251240971e+03
2.404289640903590680e+03
2.396414013436380628e+03
2.592741166019465709e+03
2.522303563615140774e+03
2.517113113079329196e+03
1.938110784006722042e+03
1.082785769447751534e+02
1.508145677496880126e+03
1.706502472973219028e+03
1.262932863601449071e+03
1.201831223065412587e+03
7.652945178830418627e+02
2.879038238850712332e+02
4.896891037473014876e+02
6.281186655590419150e+02
5.036493011976735374e+02
3.974136312457365534e+02
4.378471245512707242e+02
9.396029835187373465e+02
9.407586540320199902e+02
1.279088302301375279e+03
1.517572611786755488e+03
1.734426318816469802e+03
2.260916781419054587e+03
2.407687800716235870e+03
2.139119263652600694e+03
1.944945247505221005e+03
1.670039505465130333e+03
1.048772185370610941e+03
5.377873855720689562e+02
5.499874529917706241e+02
1.585673944424033266e+02
-4.985250343041996643e+02
-6.013580721497222612e+02
-5.979499601531108510e+02
-5.032913815579285028e+02
-3.963910991841988221e+02
-1.427458775586138096e+01
2.930952416294009026e+02
7.146750431184192394e+02
1.046481913350837203e+03
1.015544661028106816e+03
1.241853442965614477e+03
1.420425402598853680e+03
1.325245281158964644e+03
1.303276552050910368e+03
1.168564268883444583e+03
1.302098683651279543e+03
9.168241387260449073e+02
3.987381282966604203e+02
1.028329729081146837e+02
-2.029232400543408801e+02
-4.725873926125157141e+02
-2.791703060786592800e+02
-4.376746798349922756e+02
-3.370576441571330406e+02
-2.073337716904306944e+02
-6.850708929560356353e+01
1.703919378580168598e+02
4.613816966442270200e+02
-3.925831462449635865e+02
-1.626461736130423105e+03
-3.881236430161687622e+03
-4.419938322555661216e+03
-4.464560004031292920e+03
-4.717103731699862692e+03
-4.422600975791286146e+03
-4.130040480836289134e+03
-4.395437329954187589e+03
-4.285832648752790192e+03
-5.014345785954235907e+03
-5.680791316606425426e+03
-6.037177856545895338e+03
-6.455591545610296635e+03
-6.428043409376695308e+03
-5.348578116736074662e+03
-2.706157543257725138e+03
-3.627764331552897602e+03
-4.055479491463614522e+03
-1.372239336284254023e+03
1.277917176356944310e+03
1.762012646869907712e+03
1.901057416471548095e+03
2.222048781709681862e+03
2.322021848139872418e+03
2.252957723183384587e+03
2.081873082128449369e+03
1.648764139565581218e+03
1.348631778018710065e+03
1.105389733968580913e+03
6.350660143043139669e+02
2.076854767003270013e+02
2.611851791360920174e+02
5.425089584633226423e+02
1.466577294813860135e+02
-2.333105174953134053e+02
3.896482833248413158e+02
6.464995964366559065e+02
9.582233687546072360e+02
1.128855919781480452e+03
1.455364393362839792e+03
1.826768946304672681e+03
2.023071615508833020e+03
2.067332470360716343e+03
1.990586783418174718e+03
2.169804460207673401e+03
1.931981752596809656e+03
1.528096850520943917e+03
1.455167616563956017e+03
1.280210135084306330e+03
6.591723049901297600e+02
2.830629419730781819e+02
-3.710095952793330554e+01
-1.233526065888134156e+02
-4.668208743498654911e+01
-2.208166916287916592e+01
-1.745194221981737996e+02
2.603153674459507982e+01
2.905482312635356266e+02
7.290613632842732841e+02
1.227581701272291184e+03
1.379137857190962677e+03
1.443737485927660828e+03
1.690399436735511472e+03
1.908217936435379443e+03
1.729129096464283521e+03
1.490252317657804042e+03
7.746003083593595875e+02
6.132261325928437827e+02
4.321962237584028799e+02
-2.205701005621021693e+02
-5.929241540368403776e+02
-9.328789932742994324e+02
-1.575958163394140001e+03
-1.857966443635337328e+03
-1.052880397740317903e+03
-7.247855160536237236e+02
-5.975829236172548917e+02
-1.902398314635049701e+02
2.412141372352945439e+02
7.177883747523202373e+02
8.045170158738579858e+02
6.704205262290508927e+02
6.605401706552154337e+02
8.298542769213909196e+02
6.963684316758419754e+02
6.100529054917706162e+02
7.009362511755319929e+02
3.070612578070957852e+02
-2.975596263849141110e+02
-5.560133733490902159e+02
-1.049286431642621210e+03
-1.038365517404736693e+03
-1.103247638397637502e+03
-1.325907747416803431e+03
-1.147371145402043567e+03
-9.256718012345669422e+02
-5.617876015127644678e+02
-1.496268573762514222e+02
-1.162053743719557701e+02
5.144864347283213135e+01
5.103270698417300650e+02
2.694907633306752928e+02
6.509300278540578120e+02
8.516378450347719991e+02
8.176335699777697528e+02
4.699002240258902248e+02
3.424845402770816349e+02
-2.396360794881380230e+02
-4.304506222165127838e+02
-7.349668882390228646e+02
-9.212068057752563845e+02
-1.538192965730956075e+03
-1.224949036787728119e+03
-6.174849095827981955e+02
-8.327831935940411086e+02
-7.378595585352933313e+02
-4.356939242748057382e+02
-2.912684166173627318e+02
2.643885126343189995e+01
2.494131605475543267e+02
5.396158714945401016e+02
8.650573358221042781e+02
8.967742986706088004e+02
8.437418719418396904e+02
5.439300076322367659e+02
4.444066992905064239e+02
5.761313658543782594e+02
4.910616777287185073e+02
1.621967383503891540e+02
-1.474468097779509890e+02
-6.558822270233428071e+02
-8.771645079821394120e+02
-7.853144805038429013e+02
-6.203286719486536640e+02
-6.012382813437690174e+02
-4.520853515111076035e+02
-4.487931541285640265e+02
-5.793658913474889687e+02
-7.381130072131395536e+01
4.910094531578152441e+02
1.060109738606613291e+03
1.189606467823890171e+03
1.405463429614070947e+03
1.364671834910347116e+03
1.236213325906332557e+03
1.086089847774072723e+03
9.662572593434330201e+02
5.456881408478247977e+02
-2.916500909692315986e+02
-5.207491671201285044e+02
-7.807144582178441397e+02
-8.275268766217384382e+02
-7.292383367889028705e+02
-3.749673246477531166e+02
-3.916302458720733739e+02
-6.133362405157739659e+02
-6.541160317189819580e+02
-3.258259057636905709e+02
4.186410897665948596e+02
4.451621119241010547e+02
4.887558705450452408e+02
7.323983375934211608e+02
1.009056820237770808e+03
1.171741758421274881e+03
1.100467737709411949e+03
1.115190582388028361e+03
9.648302613345268810e+02
5.143979759340732016e+02
1.020406744350412538e+02
-5.265359688273616712e+02
-9.382667835577864253e+02
-6.013871082065534210e+02
-7.948339545076303239e+02
-9.237320558261612859e+02
-8.338841372174116486e+02
-3.262822857625004076e+02
-1.171169653828206947e+02
4.854185072778599874e+01
-2.128365678421348406e+01
-3.761780916353470161e+01
1.085976404861782640e+02
6.053951904338374561e+02
6.887059085727934189e+02
8.474973473892443963e+02
1.456792258961261041e+03
1.349638756562228082e+03
1.226001957265460305e+03
8.308465053938537039e+02
4.141839486359432385e+02
-6.403496219037060655e+01
-5.038429653607747127e+02
-4.302445370277498569e+02
-2.462494970434936761e+02
-1.988818203843917161e+02
-2.490827084943737759e+02
-3.868948177051713060e+02
1.747001838382947767e+02
2.937370457798369898e+02
5.381960802594991264e+02
7.950711056423442642e+02
1.784065190619487282e+02
-2.123760717970836595e+03
-1.317425517101705964e+03
-8.775871793191540746e+02
-2.021224384229285761e+03
-2.262321777250213927e+03
4.620704946570933203e+02
3.719828256321498543e+02
-1.351588126339809833e+03
-2.886857524976376226e+02
-2.675322719724113540e+03
-2.752501682060335497e+03
-4.981786751984190005e+02
-2.170350903238389492e+03
-1.439064963322858830e+03
-7.492816733770065412e+02
-2.757008937009358760e+03
-2.952189130066892631e+03
-1.742858762920638128e+03
-2.466015081181016740e+03
-4.975677312573337758e+02
1.265490226299013557e+03
-2.798532558874007350e+02
1.482447398520865590e+03
3.464338873196574013e+02
-5.308767605627017474e+02
9.755072859557584479e+02
1.145612193097491854e+03
1.091459275805453899e+03
6.720393535506577791e+02
5.243507300422847948e+02
3.553926723530716458e+02
4.317156802515022207e+01
2.806903496036301817e+02
6.995670963443122048e+01
2.398065846665244649e+01
1.197951806730080477e+02
4.084634556019535694e+02
7.159840322136849409e+02
1.052363741713433001e+03
1.108666402615629067e+03
1.512892964019540159e+03
1.662082440767645949e+03
1.530253493348132452e+03
1.642423587327714586e+03
1.564626357710801130e+03
1.274854018240222103e+03
7.731069913175800821e+02
2.734141251064123139e+02
-3.482433148298409264e+02
-5.488016304976607671e+02
-6.132952527494128390e+02
-2.967303877594440564e+02
-2.640809594197770025e+02
-1.233420305719967303e+02
-4.345135542557274562e+02
-3.644450489475661925e+02
2.108551825434141733e+02
4.225188126635935646e+02
8.224277130104629805e+02
9.377574308034403430e+02
1.096622452408206755e+03
1.220958608078723955e+03
1.300785602120712383e+03
1.088183810998493755e+03
-8.398998496959852673e+02
-5.124479570600602756e+02
1.546155805447818921e+02
-9.378809840438867695e+01
-1.896284724546191285e+02
-6.689089514613109486e+02
-8.607438507282503224e+02
-8.472210334677982928e+02
-1.136006204415471530e+03
-7.274119993740767995e+02
-7.896093256462442014e+02
-7.204583388542001785e+02
-6.416677797377758452e+02
-4.634241998835660183e+02
-1.118456898036647260e+02
3.420841726203556163e+02
6.073955370336561828e+02
9.610731161733643830e+02
1.469153173677815857e+03
1.103628754718955861e+03
9.284876878944392047e+02
9.667315394845343235e+02
6.953894763536974324e+02
1.054274096959531164e+02
-5.032097515571504118e+02
-6.874977261263480841e+02
-6.144341417850744165e+02
-9.360963986140992574e+02
-1.016442191509119539e+03
-7.134895024791270544e+02
-7.882337492189665227e+02
-8.466802326420975078e+02
-1.048845396904428753e+03
-7.717364501137158186e+02
-1.443104453822605819e+02
3.754673952851310332e+02
7.195483741110059555e+02
7.919401223236491205e+02
9.096741682419959716e+02
1.175710372700334574e+03
1.013049851671509714e+03
6.637139049743606165e+02
4.776778065151149235e+02
3.269072485777264205e+02
-2.163599736392841777e+01
-4.469704028823779822e+02
-6.961365813656038881e+02
-1.010140190994877571e+03
-1.312999816460016064e+03
-1.052719618015511514e+03
-8.663017039136982476e+02
-5.967987678060870849e+02
-3.442025530187584650e+02
-9.347535335851290483e+01
5.734493544126227960e+01
-2.227489220457324848e+02
-1.551757626669104184e+03
-3.674690367079498628e+03
-4.619498171969060422e+03
-4.319224966397466233e+03
-4.588914450202464650e+03
-3.117540288061678439e+03
4.871163534978129483e+00
-1.686996191762360127e+02
1.567391929569025990e+02
1.671149983958379153e+02
-2.896413767187045778e+02
-1.654975842883056032e+02
-1.984713089702435695e+02
-3.175967348292605834e+02
-3.169214293607740274e+02
-2.994473892812505937e+02
1.168483296801994129e+02
7.069816804804868298e+02
9.099333709895140601e+02
1.198671368456150049e+03
1.171196052476152317e+03
1.063506415848125243e+03
1.116566486342270764e+03
1.507417369035460752e+03
1.576041236300581431e+03
1.686393266926130764e+03
1.713462577670322844e+03
1.246210869132530888e+03
1.057656328891223893e+03
6.867891005174158181e+02
1.695333562752324212e+02
-4.101407796172357507e+02
-2.852662402641358312e+02
-2.084055099402370459e+01
3.421630215416203669e+02
6.087384290978772015e+02
8.548629870252832461e+02
8.945658636356613442e+02
1.129803164307059205e+03
1.193594374965333145e+03
1.334915033187072595e+03
1.513793214376424203e+03
1.656244166106483362e+03
1.714304628910560496e+03
1.990926463642633053e+03
2.148122724483119327e+03
1.778861230561576804e+03
1.216144626949800340e+03
7.538876004999035558e+02
6.040589859946893512e+02
4.767096929401346870e+02
1.848201970601462563e+02
2.373510732670029029e+02
2.823352250911084980e+02
7.667702285585763775e+02
9.206515471283958050e+02
9.540020629321437582e+02
1.207815440968774737e+03
1.567100976606401900e+03
1.250876212380295101e+03
1.651166050067211245e+03
1.853979513783690891e+03
2.001337173040569951e+03
2.120222955672345051e+03
2.039657082265508052e+03
1.976664644325025620e+03
1.803271763265530126e+03
1.472467324813188952e+03
1.002225438340224400e+03
5.455226021239919874e+02
9.737458931690397890e+01
1.076556586146001138e+02
-2.735919772698355246e+02
-1.787083529652945572e+03
-3.344989333076245657e+03
-5.497335037355404893e+03
-5.223099982427798750e+03
-4.950262044452681948e+03
-4.558808251275776456e+03
-4.118675874208529422e+03
-3.642857629300182452e+03
-3.359335359727750983e+03
-3.097091089805294359e+03
-3.027096649227366015e+03
-2.866305325856165837e+03
-3.071747614365714071e+03
-3.083389147845487969e+03
-3.112262947318317856e+03
-2.012357325804333186e+03
-1.581693594995129615e+03
-4.167235649351288885e+03
-4.660979119717016147e+03
-4.579906286883538087e+03
-4.738043307297535648e+03
-4.626408186677114827e+03
-4.099912742183698356e+03
-3.870530353994312918e+03
-3.824255103599812173e+03
-3.479100126276750871e+03
-2.749009338496487544e+03
-2.367954500566471779e+03
-2.160949336935898373e+03
-2.088952432946644876e+03
-1.039198316437210252e+02
1.626167267064076896e+03
2.457342414926521997e+03
-1.397393197334429260e+03
-3.122104440637237985e+03
-3.337796886936069313e+03
-1.060438898458715812e+03
1.108965722593766486e+03
1.410394671932485380e+03
1.409897556964537216e+03
1.669460271958327212e+03
1.460103647374440698e+03
1.382875725785113218e+03
1.930781671908276621e+03
2.382775177426064602e+03
2.388936272716280655e+03
2.379261616602313097e+03
2.683713829768420510e+03
3.124354885185495277e+03
3.145192457290293987e+03
3.150248728391855821e+03
3.133522366535205947e+03
2.919913533566601018e+03
2.807566172062278838e+03
2.383519763014741329e+03
1.818658988009096902e+03
1.852050143378917028e+03
1.479800343269394261e+03
1.084730026561450131e+03
1.089849925322769195e+03
1.073139018277707237e+03
6.656463957673909135e+02
8.394394924670250475e+02
8.404366038384411013e+02
-9.189909181850068762e+02
4.167104414461767874e+02
1.292686590089829224e+03
1.842169381436797266e+03
2.133986371971221615e+03
2.406738350656600232e+03
2.474858439014842588e+03
2.605212746353502098e+03
2.501718597182270514e+03
1.952755984522000062e+03
1.789110027990084745e+03
1.681306238436780404e+03
1.360948898689944144e+03
9.067145470727907650e+02
5.085442714707853042e+02
6.756465229604858678e+02
2.468911755745708660e+02
3.616712110249033429e+01
5.926458521165034199e+02
7.460713492965077194e+02
6.013913891067259101e+02
7.378580476624805442e+02
8.092136181262129639e+02
9.206985297882484929e+02
1.283257691000943851e+03
1.430671445381524336e+03
1.281928014255677908e+03
1.283273889884333812e+03
1.172654507384757608e+03
9.379947904633994540e+02
5.652544085399990763e+02
3.004212759217876396e+02
-1.345793048964145839e+02
-5.426937601438742149e+02
-8.159904087146707070e+02
-8.564817031799565257e+02
-8.562088059316918134e+02
-1.003171849332858983e+03
-8.103981338723496037e+02
-7.368761916873838800e+02
-4.746472143938632371e+02
1.973289589883240467e+02
4.450396614957018073e+02
7.294677340853189662e+02
8.766258746885405344e+02
7.354999968388134448e+02
6.990980813568811527e+02
6.643910983545404179e+02
9.323963310220988205e+02
8.340772703692033474e+02
4.553993758756965349e+02
1.702812097974462517e+02
-1.862560309484303502e+02
-7.432415340125467083e+02
-8.796496893735977665e+02
-2.165514698256720294e+03
-3.822886774204014273e+03
-6.401767457677981838e+03
-6.906145638538077947e+03
-6.370975132370442225e+03
-6.194306929138598207e+03
-5.783154713871804233e+03
-4.882489323018352479e+03
-4.258312184007508222e+03
-4.404498553566923874e+03
-3.753151633776759809e+03
-3.998328220633090041e+03
-4.171022364727365130e+03
-4.097235420611431437e+03
-4.410945157502585062e+03
-3.852182775446335199e+03
-2.111980539592841978e+03
-4.192351679217229503e+03
-5.594341014381016976e+03
-4.677890006550910584e+03
-1.288031378517639268e+03
-1.378740017440256338e+01
1.148492974026105742e+02
2.798665026106382356e+02
7.043056331712416522e+02
8.401906621389221073e+02
1.134492781818100184e+03
1.443172749873276643e+03
1.647350092981926991e+03
1.576979192044469755e+03
1.852053103194600453e+03
2.237595070377621596e+03
2.282635305601626442e+03
1.955213987220450917e+03
1.522298320988803198e+03
1.067881843276676136e+03
8.799806448738435165e+02
5.865534277401631016e+02
2.535748437550440144e+02
7.008707902306787219e+01
-1.779055078027205070e+02
-6.444083850863468115e+02
-6.734253595809926765e+02
-2.519231165965354933e+02
-1.492443448322703503e+01
2.463034025215521083e+01
3.707712384241221457e+02
6.645127383620905448e+02
1.047857484296079747e+03
1.378840478030709619e+03
1.738480263817860987e+03
1.833785255089112752e+03
1.784778686972791320e+03
1.825507553887452787e+03
1.428989446848594525e+03
8.032178748881757429e+02
3.251725464321122558e+02
-1.615720577805609892e+01
1.422091825832504597e+01
-3.156248337029208528e+02
-7.267954585267210632e+02
-5.743679871486763204e+02
-4.792983267605480364e+02
-2.214230890116536159e+02
-1.396043344144989646e+02
-8.970809119422349909e+01
2.244044942314290836e+02
7.157041884963613256e+02
8.691400217284253813e+02
1.029747337211753347e+03
1.263347918806168536e+03
1.461838771110992639e+03
1.361587465412565280e+03
6.944611970716739506e+02
3.933265053707612537e+02
3.581916743623771708e+02
1.390155836525427162e+02
-2.198379950807176186e+00
-4.944283506855741166e+02
-7.426705176039462231e+02
-8.638999080935686834e+02
-8.251672417431121858e+02
-7.184990166714414954e+02
-6.038297279429896207e+02
-5.751262661931756384e+02
-3.163238589863822199e+02
-9.241279831240805720e+01
4.175712472121480801e+02
6.396128448514631373e+02
7.507719742652177501e+02
5.670463042869388346e+02
4.824283323439868241e+02
7.569920680200361858e+02
9.516890424898898573e+02
7.425598364589768607e+02
3.346200047873804806e+02
-2.471361157958384922e+02
-6.237643956316128424e+02
-9.282634795235918546e+02
-1.080639488427157630e+03
-1.044912387538040548e+03
-1.209045638047525244e+03
-1.213023401189899005e+03
-9.358693988616571460e+02
-1.076548841034624274e+03
-1.166053954389578848e+03
-7.833725032196243774e+02
-2.824953931805409297e+02
7.958268668712105409e+01
6.258582458412867027e+02
1.008331296224486096e+03
1.010037392763416278e+03
8.510290381812981195e+02
7.272799701198441653e+02
4.847639522630487363e+02
2.605150624828323771e+02
-2.865103420733195208e+02
-6.103372160706912837e+02
-7.959400397822273590e+02
-1.142386214517269309e+03
-1.122681566816895156e+03
-1.090807792236573505e+03
-1.240793335041922774e+03
-1.332649749606410296e+03
-1.485298735352971107e+03
-1.451773758534532135e+03
-9.090189316350424633e+02
-7.640790548896336531e+02
-7.069778706873465808e+02
-4.276860521684235437e+02
-1.241993688784254459e+02
2.314821505754787552e+02
5.553784434862482158e+02
6.504727192944984608e+02
7.587814217162929253e+02
-9.067908529249747289e+02
-2.737287820541855581e+03
-1.232686612438463271e+03
-1.157830046106279269e+03
-1.369560483874736519e+03
-1.333779850140684403e+03
-1.541651794538790909e+03
-1.659214252881966786e+03
-1.349441833937767342e+03
-1.164364768858308025e+03
-9.229825865580600066e+02
-5.502844295556561747e+02
-2.773207845785461814e+02
-1.000809664153039904e+02
2.242003992973986470e+01
3.882159496360267781e+02
3.834728094257800990e+02
5.328914402081398975e+02
5.812207907010581494e+02
6.056867572982354204e+02
2.305500799534796670e+02
-2.936886390472675501e+01
-4.921062253686028498e+02
-9.316486038473068447e+02
-1.128040473526460573e+03
-1.182327937406993442e+03
-1.114480843156532501e+03
-1.327506236103967694e+03
-1.064464051669719538e+03
-7.823674371647014141e+02
-7.471185320988256535e+02
-5.146636665446682173e+02
-2.082608634411600406e+02
1.798901751699873728e+02
5.839372675536052384e+02
1.039885215625415185e+03
1.355140031128230021e+03
9.295848429067787038e+02
7.062822832653969272e+02
4.448450975077698786e+02
1.870554469985282822e+02
1.930294160101526586e+02
-1.572362001533045941e+02
-7.168195097527221833e+02
-8.386574116320626899e+02
-8.617817987916957918e+02
-1.220242093669259020e+03
-1.032051601996457293e+03
-8.481702543797185854e+02
-6.555500121899915484e+02
-3.592526285102087513e+02
-2.830890346285773518e+01
2.363618437589190648e+02
3.217433557789256042e+02
-1.336178249263459520e+03
-1.541378510937112878e+03
-7.589078013697178449e+02
-1.339712657456099805e+03
-1.290777921814972160e+03
2.038509981175479311e+02
-6.648353764178442589e+02
-7.908323950388835328e+02
-1.693163325275272200e+03
-1.961817230191674753e+03
-1.235772072063605265e+03
-2.565081341517648070e+03
-1.175751788844667544e+03
-2.593594527801729328e+03
-2.478831234156512437e+03
-7.814521156373768918e+02
-2.244385263016381202e+02
-1.537744840202135947e+03
3.976271425599612144e+02
-1.135328377197096643e+03
-1.154621481531856716e+03
3.797541892532049133e+02
1.617863601154092748e+03
-6.313282880973684996e+02
1.093193707211336459e+03
1.333424196417318626e+03
1.108378476562560309e+03
7.640131859782483161e+02
3.223036435571858647e+02
6.129860149273338976e+01
2.979640311827091637e+02
2.982836868860991331e+02
4.428630411237629261e+01
-1.500238874584877067e+02
-1.915999751331429763e+02
2.585562486622784490e+02
2.174277726069204846e+02
-4.401503417007663188e+01
-1.646736920546459487e+03
-1.346770382123926026e+02
7.381263192275799838e+02
1.205672760571231265e+03
1.368002785478621263e+03
1.390103048018048639e+03
1.164971059030279775e+03
1.383646059165073666e+03
1.040140354572323076e+03
8.104292718845564423e+02
4.104478264025764815e+02
2.232187528781137758e+02
-7.524444054619472411e+01
-3.439391222254431000e+02
-6.248847485160841870e+02
-4.020663386593419659e+02
-4.185548667977909076e+02
-2.152768566709536060e+02
2.247669506574427771e+02
4.916000314253287229e+02
7.972546946893399991e+02
8.227499651945171308e+02
1.010095959702994264e+03
1.285223006974872987e+03
1.461142057068013855e+03
1.170923307015557157e+03
1.034565768817699791e+03
7.700462791802044649e+02
4.453561702212199407e+02
9.841556975158565024e+01
-2.457051441791930699e+02
-8.567606645664452572e+02
-1.031580900057379949e+03
-6.872926134266688223e+02
-7.709619100457282457e+02
-9.565397274820888924e+02
-6.720432572984673243e+02
-5.706164865605657042e+02
-7.862031441129504401e+02
-1.316896335518877663e+02
5.308480792975868781e+02
5.935191372279697362e+02
8.742885975078457932e+02
1.132101556949034830e+03
1.324170845704013573e+03
1.390133833203483846e+03
9.658601708228006828e+02
6.367983420676216610e+02
6.398956252841618380e+02
3.560816442060981899e+02
-2.778234174210648462e+02
-8.229208912889658905e+02
-1.430209229640284093e+03
-1.378692763772067792e+03
-1.086411248482016390e+03
-9.673308006417848901e+02
-1.126437660583807656e+03
-6.007527309076848496e+02
-5.112505860036951617e+02
-3.349044257966155556e+02
-2.217400429487726967e+02
-1.987309820765662494e+02
1.461209749485517193e+02
4.008499612806908203e+02
8.364890139680857146e+02
1.066054785508953501e+03
8.815125484359530219e+02
6.438644933238073236e+02
4.511258406344167611e+02
1.463146381186011524e+02
-6.635857412427552617e+02
-1.350585944246985491e+03
-1.362721172234581445e+03
-1.828985026989964354e+03
-1.800333198959601759e+03
-1.752776672643960865e+03
-1.586324011799947129e+03
-1.296913008769283124e+03
-1.079539658904130874e+03
-1.017222283825941872e+03
-9.089541786467316342e+02
-6.397168355261960642e+02
-1.014548199035185121e+02
4.528120409466865226e+02
9.821356375471262936e+02
1.016560656297705805e+03
6.270791011226129967e+02
4.486882895102772295e+02
1.007372817701742747e+03
1.991588368599057333e+02
-2.153929970821292045e+03
-4.734961116197596311e+03
-5.995894756803236305e+03
-6.385752984243406900e+03
-6.635493574588831507e+03
-6.606099945396947987e+03
-6.354537437856733050e+03
-5.674797684325771115e+03
-5.136846278901671212e+03
-5.100679794587894321e+03
-4.197288962371531852e+03
-1.145660526609550288e+03
1.260249087676293584e+03
1.923497445141366597e+03
2.129140583949427764e+03
2.237144934790126626e+03
2.094561534321951058e+03
1.945383914777684367e+03
1.764634094587458321e+03
1.760326612149617631e+03
1.369440729327605140e+03
6.579763308474099404e+02
2.069858685100765001e+02
1.124550443729979179e+02
4.554038530085776983e+02
7.708399479032351564e+02
6.747924728974421669e+02
6.252795126844976039e+02
9.983540854388331809e+02
1.382027076971062343e+03
1.559347544804802965e+03
2.121348224581074646e+03
2.239019640291829546e+03
2.589374846945063382e+03
2.874431675653419916e+03
2.836273221004961215e+03
2.622913613874522071e+03
2.510375519816456290e+03
2.409671350690947293e+03
1.895764137387904839e+03
1.749684016050819082e+03
1.529493738685801191e+03
1.090219480691799163e+03
8.137988487198961138e+02
6.242791703426748882e+02
5.886917917099776787e+02
6.260247993412741607e+02
6.332967542937376493e+02
8.455477196512315459e+02
1.007797292139582282e+03
1.070097623280661765e+03
1.536494484187508533e+03
1.699976590781128607e+03
1.786577660837733902e+03
2.392352850342664169e+03
2.296282039416777025e+03
2.182438761700537270e+03
2.443828308584889783e+03
2.403416936010373320e+03
2.012266118036251783e+03
1.694348169392182626e+03
1.187691822313428020e+03
6.003270527078184386e+02
2.502415243855219842e+02
1.654479898952348549e+02
7.789702112623424455e+02
9.417958321594884410e+02
8.509741653304549800e+02
9.865367557874189970e+02
1.272484670250833233e+03
1.535838003071162120e+03
1.977586330874478108e+03
2.091745433913881698e+03
2.436350963773806598e+03
1.428425733830054241e+03
1.014362898248266731e+01
-1.934433697757964637e+03
-3.669637441664619473e+03
-4.048417620792482921e+03
-4.257497292447252221e+03
-4.347053056018297866e+03
-4.841058002619794024e+03
-4.768515785552248417e+03
-4.835458947104559229e+03
-4.630867881585731993e+03
-4.202754451036035789e+03
-4.224126898056453683e+03
-4.152960293401733907e+03
-4.028213388803695125e+03
-3.676901160911385432e+03
-4.390150853250962086e+02
-5.255097951406928587e+02
-2.745421025672330416e+03
-2.699767482627667960e+03
-2.449530673262801429e+03
-2.696675660108634020e+03
-2.801245313711415292e+03
-2.871208247604802636e+03
-3.161538875780654053e+03
-3.494270425659556622e+03
-3.559450020391557700e+03
-3.771092322401546880e+03
-4.387178542802203083e+03
-4.640748364191037581e+03
-3.621815898820226721e+03
-1.470396135780704981e+03
-2.453499622399067448e+03
-4.040105849719764137e+03
-3.533225086281701806e+03
-3.346891955088263330e+03
-2.848146205440772974e+03
-2.200974444606703855e+03
1.163659065945864995e+03
3.171769090926025910e+03
3.285305283252879235e+03
3.531286185709935580e+03
3.648653699649549708e+03
3.124438250417057588e+03
2.975645260683041215e+03
2.544165741071346019e+03
2.159959794451816379e+03
1.611035880136483229e+03
1.140351212921299293e+03
1.306912460243491751e+03
1.098702231790431370e+03
7.156571788666577731e+02
1.063739508398406770e+03
1.324948929409486936e+03
1.493302135371829991e+03
1.871933539258364362e+03
1.743735993586424456e+03
1.982596131952221867e+03
2.261607427924606782e+03
2.618640405918955366e+03
2.481533552366849108e+03
2.283417652833499233e+03
2.134245331395166886e+03
2.123070059796178157e+03
1.964764917585815965e+03
1.641092443352445343e+03
9.813803354362146365e+02
6.524372910823334450e+02
4.715246794473725913e+02
2.084474170758733180e+02
-1.020358133649673071e+01
2.107661796845252411e+02
5.314627875274959479e+02
6.717058263697497296e+02
7.967050694445117642e+02
7.753854622537860450e+02
1.082408980346288217e+03
1.287031623786227783e+03
1.792381453184030079e+03
2.052895546003617255e+03
2.341800278257292121e+03
2.008157707201796711e+03
1.818959581447697929e+03
1.559966738821583021e+03
8.611347833576055564e+02
6.296311329876816671e+02
3.743492924427874868e+02
-2.669583457619335718e+02
-1.190688893450821837e+02
-3.094603330682375031e+01
-1.309637009441698297e+02
-3.789191025574521063e+02
-3.948066325187330108e+02
9.840061367208183185e+01
2.804669473639527837e+02
3.233521676100403965e+02
7.420677155527531568e+02
8.006051845590620815e+02
8.319504841817572469e+02
1.119091448392139228e+03
1.550926789860303643e+03
1.778484627013119962e+03
1.313728638509974189e+03
1.063655633702412160e+03
7.212139426510312887e+02
6.854020236207753669e+02
2.241750957816184666e+02
7.950474922708406211e+01
-5.856661044484334298e+02
-7.613506984917978571e+02
-9.315875643334215965e+02
-9.554547290249587377e+02
-8.979413272387731695e+02
-5.050585621484313492e+02
9.420691492146181645e+01
1.768409545297072043e+02
-1.197650436204621416e+00
3.590758385346601358e+02
7.736722668964980585e+02
7.485778296415762725e+02
1.767722482069321188e+02
-1.416730481818571889e+03
-4.046924516690829478e+03
-4.779820984838424010e+03
-4.974436838855961469e+03
-5.220828267407727253e+03
-5.347028703670278446e+03
-5.117059942563917502e+03
-4.737942475719205504e+03
-5.639724280194240237e+03
-6.104322554127871626e+03
-5.883754040432622787e+03
-5.766091560314822345e+03
-5.005342392267558353e+03
-4.542466579970296152e+03
-4.508476876518850986e+03
-1.811365173686148182e+03
-2.627117397549165617e+03
-3.921743541042802462e+03
-3.443228668142357037e+03
-3.361560618800936481e+03
-1.698734336857013204e+03
1.320228326434380506e+03
2.035375478294136883e+03
1.883766033999416550e+03
1.701385517797853936e+03
1.249129045031639407e+03
8.909595862084134978e+02
8.449127219051392785e+02
5.460462379652924483e+02
4.453050381963924451e+02
3.637170323867283628e+02
2.482902379647458986e+02
6.560342738234633089e+02
7.689994261190651059e+02
8.811594667117307154e+02
1.210557656042868075e+03
1.660191474158880965e+03
1.877079123112721163e+03
1.933264711182208657e+03
2.025750086466314315e+03
2.441569722426343105e+03
2.531731754356071178e+03
2.063288254767850958e+03
1.286239705430222784e+03
8.635864732552890928e+02
7.633481294356771514e+02
1.824992301048799277e+02
-4.019465201052582302e+02
-3.280089843894430714e+02
-9.566302123545122527e+01
-1.518780822821942138e+02
-1.316272140329647584e+02
-2.179068221328712980e+02
1.743162124077547617e+02
3.340693790901279385e+02
5.903682806510349792e+02
1.004200861269940788e+03
1.267593601376181141e+03
1.445619553371883285e+03
1.671263709413381775e+03
1.730426150139242736e+03
1.788206513235605826e+03
1.306889450991594231e+03
1.066668976166651646e+03
4.835096802641735962e+02
2.369551083938475244e+00
-6.017447939639549759e+02
-7.318242936273702526e+02
-6.748913582605811143e+02
-6.139401204342741494e+02
-6.659999426994111218e+02
-6.970112603216452953e+02
-7.669821636376487959e+02
-7.999507726542318551e+02
-1.022122062902985817e+03
-4.694056026667304309e+02
-2.507890434084600599e+02
2.797409352294530436e+02
6.522284635711927194e+02
7.057139076665517905e+02
9.021742536499577909e+02
6.836167183297043266e+02
3.070782345335460946e+02
4.266007352968790087e+02
1.422031378674770963e+02
-2.871467095626316564e+02
-7.094559051087954913e+02
-1.087746589822643045e+03
-1.171992122045116957e+03
-1.023204749795912221e+03
-1.055359511064166554e+03
