-1.429134407402966076e+02
1.334162014786223693e+01
2.838169649364443785e+02
1.625114054633295666e+02
-9.157566747061785861e+01
-1.514630040560585655e+02
1.168487724341885183e+02
5.936448460031018470e+01
-8.292957818622139143e+01
-3.804478979249664405e+01
1.410195675622943838e+02
8.326926857998293485e+01
3.769859982716909741e+01
-4.168799824474879756e+01
2.660600394007151976e+02
1.940003488165757801e+02
2.851109285503163164e+02
3.444318897670696060e+02
4.949734460609029725e+02
6.805474210945172899e+02
5.022066122232142220e+02
-3.401572039791572877e+01
-7.207945183188999749e+01
-9.501280108017228088e+01
-4.883289440151790473e+01
6.372510684604362652e+00
3.185012739331519924e+02
5.867391330147054305e+02
3.162297838055018246e+02
1.797106144231327960e+02
3.143277931375488379e+02
2.662410263401416159e+02
2.033894319340103607e+02
3.985157534343983343e+02
5.366375466871279514e+02
3.267403388422533794e+02
5.837491069730773461e+02
4.726227958262151674e+02
6.756390540730413932e+02
4.965795586946646267e+02
4.654485939184410768e+02
6.674272171981338033e+02
6.970708957162149773e+02
5.315707530630963902e+02
3.291178273273138188e+02
1.773901481345800448e+02
2.128209650594220079e+02
4.454623961863144359e+02
7.629671743112961622e+02
6.874328181684520587e+02
5.395930662053527840e+02
5.286958114440390091e+02
3.225041363442288116e+02
5.431302994858853026e+02
5.417349119081466142e+02
6.378940731020521753e+02
6.961675530017352003e+02
7.892485060754535198e+02
6.330002301740374833e+02
7.063761550044853266e+02
8.373703149284929168e+02
7.840147501773441263e+02
1.058282638111603319e+03
1.181142075083698728e+03
7.946510641300774296e+02
7.959097046270350120e+02
6.256212247574400180e+02
2.578459907058290241e+02
4.675854845543717602e+02
6.138788129654640215e+02
5.316991278261901925e+02
6.470298561517142844e+02
7.448628138162126788e+02
4.781867198332270732e+02
9.430065329094072695e+02
8.892849048089591406e+02
3.140125895814560408e+02
-8.947846068928143950e+02
-1.672142122445184668e+03
-4.336068496068348395e+03
-3.745553328867082200e+03
5.639115646369201329e+01
9.137492429230678681e+02
1.090568411224406191e+03
7.548571184892361998e+02
5.085496440926023638e+02
-4.393662527987626163e+02
-1.425865062753384791e+03
4.741052792482059886e+02
8.774610903502818928e+02
7.432451474324159335e+02
5.614678573178132410e+02
-6.985800287718804213e+01
-3.378796665488975577e+03
-4.802310417019940360e+03
-4.177388813749233123e+03
-2.551028796333699574e+03
-2.007218655811203234e+03
-4.220977497204765314e+03
-3.850277009030044610e+03
-3.690221155214531336e+03
-3.648633590349182214e+03
-4.078446536718000971e+03
-4.225781833279352213e+03
-4.141625625932865660e+03
-2.471000949349234361e+03
-1.187875488849179192e+03
-1.220225904017888297e+03
7.649767540772205621e+02
1.111695156421167667e+03
1.133941845630279886e+03
1.336770422035335969e+03
1.325170387006078045e+03
1.182176482437371305e+03
1.390763655859154596e+03
1.787960703761654713e+03
1.542783536270593459e+03
1.137282254145755587e+03
1.245484107162347982e+03
1.605365585552125594e+03
1.613929571915054794e+03
1.580184659047007472e+03
1.169194540163622150e+03
8.959764802498332301e+02
8.865425159238368451e+02
1.045884266528471471e+03
9.530194425705535650e+02
7.889756849510206393e+02
6.017610582700477835e+02
5.383862154033311072e+02
6.759072690881373546e+02
9.083180145944925243e+02
8.986451557737663052e+02
6.248478610499827255e+02
8.999777487066442063e+02
9.230878212884018694e+02
6.891905560985036345e+02
7.123386213838274443e+02
4.935405373901489270e+02
4.318340788669075323e+02
5.172422800539552554e+02
6.557619385779227059e+02
3.764233043182159690e+02
3.412035029062822105e+02
6.621431957892900755e+02
7.962873826017437295e+02
4.956733268469432687e+02
3.183056269458058409e+02
4.221724622216844978e+02
1.744136192416568463e+02
-3.603495929445134749e+01
1.187864766309488260e+02
1.080485095200182712e+02
-3.027361247648168785e+01
5.264062254338406177e+01
3.694378114976619543e+01
2.463278305209609087e+01
2.247554216710866228e+02
1.063270993536748392e+02
1.993364663970668573e+02
4.682083518763189289e+01
2.537691757598057052e+02
-6.558908320347620702e+01
6.153874286461494592e+01
1.211774138918440258e+02
5.332031548951876587e+00
-1.159474024064766411e+02
-3.646582075706259616e+02
-3.697780092140952775e+02
-4.453710576413758417e+02
-6.064210872976761948e+02
-5.687811704965134822e+02
-3.104180401480414844e+02
-4.115449319719696746e+02
1.893970685366514317e+01
-2.119394730784294723e+02
-4.002062996837063338e+02
-3.158612922476680183e+02
-2.018620812724807934e+02
2.537817803924110365e+02
2.620637369133303309e+02
3.099922312564159199e+01
7.859279344300445302e+01
2.718256902309328211e+02
7.273417101317794220e+01
-1.426539646887815138e+02
-1.103804742394260217e+02
1.505600686557375241e+02
-8.684328944986455667e+01
-1.995763488264366572e+02
-8.461292878718977306e+01
-2.979686144097988745e+02
-4.946989635694845333e+02
-6.637762041670076769e+02
-3.732196679605968939e+02
-2.520320077894539565e+02
-3.190906223030776978e+00
-1.377443609273200309e+02
-6.766063489709483747e+01
8.204823554459096613e+01
1.683466173510464614e+02
2.292475991954248116e+02
-9.326346552244505972e+01
1.277464788166907006e+01
2.083945625899353615e+02
1.265609628409994940e+02
-2.287621663182523832e+02
-4.035991136092167153e+02
-4.359333959681376314e+02
-7.647683311667985890e+02
-7.581837055411136816e+02
-4.711641912429435592e+02
-6.187062713844038626e+02
-1.668221379844023886e+02
-1.035424066422545195e+02
2.821161085228672505e+02
1.931670455567265208e+02
-2.744083287563023532e+02
-1.576657431651729553e+02
2.784011461251590163e+02
4.267966445805686249e+02
1.835010675368416173e+02
-3.325684798280761925e+02
7.258050690232947488e+01
-9.040490118799132446e+00
-8.245143104393041256e+01
-6.772938297597613655e+01
-7.785853776689343420e+01
1.341542024165277098e+02
2.392482676567080375e+02
1.674137461826335880e+02
9.663460777862461271e+01
9.988773086946955004e+01
1.361671776675302397e+02
4.494396832796374497e+02
5.036958655646365628e+02
4.489277682679096984e+02
4.870670392689153800e+02
6.491191658246926863e+02
4.280530210103382842e+02
5.918768241802548573e+02
4.485451368911667487e+02
5.160315321070696655e+02
3.853151549843466341e+02
1.614343736920592391e+02
7.032829503914162217e+01
4.539040885632131790e+02
2.852081474910410748e+02
2.012753023056643826e+02
3.470324301936407778e+02
5.244516797682423430e+02
4.475434422860134873e+02
1.572003945756169685e+02
2.854587965961657119e+02
3.363141001758738184e+02
5.837083703499871490e+02
7.056719070614719840e+02
9.132301084676512346e+02
8.783237413417974722e+02
9.489391727873164655e+02
8.840671577739808527e+02
8.617263182279658622e+02
5.739030163202812673e+02
5.835393271348724511e+02
6.816330931153985375e+02
6.561700325814783810e+02
3.021265433538408729e+02
3.214870297682211913e+02
5.692961242732430946e+02
6.905369923306574265e+02
4.721806289804952712e+02
4.852175902483773484e+02
5.356741004220580180e+02
5.535251745023454077e+02
7.167597654241122882e+02
7.603898317826331095e+02
5.843959010456687793e+02
4.087796051623492986e+02
5.715903280804087672e+02
5.927950461183905873e+02
9.103788747489768411e+02
-3.146642773957290729e+02
-2.693317957919975470e+03
-4.666613641468818059e+03
-4.292563733504962329e+03
-4.398129630489306692e+03
-4.398335873395264571e+03
-1.722184894113744349e+03
8.873629285136189537e+02
7.333424956396418111e+02
8.607116440331842568e+02
9.564978116041665999e+02
2.857001875458736890e+02
-1.393722644316673268e+03
8.643151031339913288e+02
9.887926635938154050e+02
8.757330809229403030e+02
1.424145663501466288e+03
-1.956294584877206200e+00
-3.539566071091683170e+03
-4.021661063078464394e+03
-4.076227525250677900e+03
-4.010261140536237235e+03
-3.496771537349989558e+03
-4.005741432997310312e+03
-3.677160046008641984e+03
-3.134024459926391955e+03
-1.307300173810378510e+03
-2.930972276191858782e+03
-3.044004482861274482e+03
-4.214050668829708002e+02
-3.235150207705619323e+03
-1.140223736011354731e+03
1.306374613675379578e+03
1.771654144802565725e+03
1.621638300951702149e+03
1.579388766351843742e+03
1.637889557958417299e+03
1.567173179224461819e+03
1.649229343871674473e+03
1.509065554286589077e+03
1.560741291014681337e+03
1.577273472472241565e+03
1.525692047907732558e+03
9.999853513143432338e+02
1.144152127591367616e+03
1.277213918305208608e+03
1.248196460041300043e+03
1.226112567109807060e+03
1.344977117968319135e+03
1.384846027158939251e+03
1.251674168566295748e+03
1.038521963904192262e+03
1.345426490060666765e+03
1.287490216650604907e+03
1.049720261785216053e+03
1.137310477244626782e+03
1.134052031471549526e+03
9.846287943978219346e+02
1.160167014953753096e+03
1.427772407862273667e+03
1.230773146767490061e+03
5.949500160392317412e+02
3.262022334079081247e+02
6.767708848093204779e+02
4.245569860789124164e+02
3.816718338750387716e+02
2.771655020689847788e+02
6.479524419903225407e+02
5.221617759313945726e+02
2.460859933490061167e+02
3.406167508797294659e+02
3.566207973747954156e+02
4.260173904235664395e+02
3.818259157070392575e+02
1.982935621534086863e+02
-1.560660811201730667e+03
-1.042082812577139293e+03
3.978388902185416782e+02
4.293375598456833586e+02
5.155255119408426481e+02
6.173840460737424110e+02
4.823647668404927913e+02
4.596817393547098618e+02
7.436010350245500149e+02
5.829274774377498716e+02
1.614299250235206671e+02
3.263780739520183261e+02
2.677234186770057249e+02
4.504034355002914936e+02
2.794103210207615575e+02
3.037347084946014206e+02
1.443564176027227290e+02
1.273400562127704063e+02
2.526286480026512322e+02
3.712164243113263637e+02
3.050776371777729423e+02
-3.074845956388925927e+01
1.257328837725076198e+02
4.115259027833623122e+02
3.166246777749858552e+02
9.101708464175737845e+01
1.527006301709383251e+02
3.836640093967951657e+02
1.869080099773614734e+02
-1.165633585825522971e+02
-4.576754660111350859e+01
5.260065406021508849e+00
8.651374905898936163e+01
-1.610036264617660038e+02
-3.492764185699885502e+02
-3.873450376118953500e+02
-4.222288912375657333e+02
-2.428911365552038717e+02
-2.323922556472845713e+02
-2.769376108188940577e+01
1.742012714183832998e+02
6.126971237621719268e+01
6.849408988096138273e+01
-1.361083726201103445e+02
-2.895455815622404998e+02
-4.318761601199284996e+02
-2.590920369828112939e+02
-2.681673196258190046e+02
-4.521273942022951928e+02
-4.900272699783212715e+02
-6.078324266782922223e+02
-5.495599495773483341e+02
-1.392366174984990153e+02
-4.048677188002890830e+02
-4.754604010020536293e+02
-5.519747912878189027e+02
-4.654362550436292167e+02
-1.518973712893916002e+02
-9.635481462724213486e+01
-2.747954327615045713e+02
-2.292459447449596723e+02
-1.878698212186387991e+03
-1.321197327764204601e+03
1.062955900207224715e+02
1.797674285957689051e+02
-2.282609855275259392e+01
-5.844297630723185932e+01
4.489003976443590460e+01
3.401717964367091440e+02
9.740197178847030557e+01
-1.634106667382786213e+02
-3.942883615726589142e+02
-1.612638078322667639e+02
-1.133622063948456216e+01
-3.852887536374596067e+01
2.331112250360691860e+02
3.765443059950326443e+01
-7.875069812198368879e+00
3.847194441491001271e+01
-1.072898547867075223e+02
-1.582009390501617361e+02
-9.323977544268740303e+01
-1.993803390420538619e+02
-1.596308595239826218e+02
-1.000301670703261294e+02
1.747323492652439114e+01
-3.551277946543676194e+02
-5.398518523744930917e+02
-3.537340785732801578e+02
-4.357382436943078687e+02
-6.986368512888705595e+01
1.858952159100989263e+02
-6.844991779083990480e+01
-2.658852384993341502e+02
-4.724086689682886231e+02
-5.250522098009356569e+02
-2.997983688180697754e+02
-1.406794597930851012e+02
-7.867490030652719213e+01
1.824614685173701290e+01
2.809757006627186726e+01
7.584267285902284073e+01
3.115225449520792722e+02
2.421867206946062367e+02
4.068061645805200897e+02
2.393585067936730297e+02
3.628834975115509565e+02
-8.159058882014636538e+01
-1.600624144906172148e+02
1.474745662053174442e+02
-3.109447955011102636e+02
-4.473508152331169185e+02
-4.317763352478460774e+02
-4.521343337532212558e+02
-4.645127870412533184e+02
-6.808367880343747629e+02
-6.531043490147204693e+02
-2.553144079238181803e+02
-2.574069233854134495e+02
-1.804031945533526198e+02
1.356706426934369176e+02
5.383390318942360153e+01
-2.358677295577609527e+02
-1.394079138430400917e+02
-7.485799135179391328e+01
1.508291763314921070e+02
1.016710234961854837e+02
1.416952820676968372e+02
2.088779085911114635e+02
-1.067647794292366115e+02
-3.652160014080187693e+02
-4.034709861765886671e+02
-4.995232808367310895e+02
-2.913804924976307120e+02
-2.209846911893565107e+02
-1.133698625296763680e+02
7.844240195561467033e+01
2.245126178595334636e+02
2.448293002554008240e+02
-4.358602104286710954e+01
6.129494959704540946e+01
5.344864681982028998e+01
7.690150259106266617e+01
2.756258125552868137e+02
2.866504208768960211e+02
4.219771780425150496e+02
1.466346480553083040e+02
1.959794909740784874e+01
2.079017320775764972e+02
3.795256519860227513e+02
2.634397974225682333e+02
4.816524374410378755e+02
7.519370399047943465e+01
6.706936974284624853e+01
7.125562044088243852e+01
-9.122898442232451544e+01
-1.840993916897285843e+01
-1.332708694173772983e+02
-1.158448196087149427e+02
1.019224992738998736e+02
1.199178080873528529e+01
1.443796818316714905e+02
4.690823286431735255e+02
6.161355258517304492e+02
5.955194896771092772e+02
3.822148803374494150e+02
9.822757684591284999e+01
-1.834344976228179576e+02
-2.478673436151380116e+01
4.113589199241936001e+01
-2.596749889064778927e+02
-2.212011823270829325e+02
-1.054883996744500649e+02
-6.448505759452116592e+01
-1.292174085494561098e+02
1.492547374618520735e+02
3.549353514355254333e+02
2.588582226180454882e+02
3.650040839115478093e+02
5.152513376366428020e+02
5.057168236124396117e+02
4.834408838753184341e+02
7.116801303907561760e+02
8.732802439440836224e+02
9.052404085117000250e+02
8.535492815913046343e+02
4.610792377325240068e+02
1.598324997534420220e+02
7.852855018065201875e+01
3.681029575040137161e+02
3.437718872949939737e+02
5.994259454146166490e+02
3.959546695757059638e+02
-6.043635745821583782e+01
7.939393974536189091e+01
1.872423370475401896e+02
8.204994640677524842e+01
6.277445460698582735e+01
3.633711436663391510e+02
5.200087104209820836e+02
6.357813211018994934e+02
7.085181451809110058e+02
6.843264140008975573e+02
5.139596845521332398e+02
6.146341505424954903e+02
8.792470765476978158e+02
6.367025837500406169e+02
4.929492336100664716e+02
4.328586311080576934e+02
4.026729152451814571e+02
4.992246131604169364e+02
5.152832458173363648e+02
6.592823780954122412e+02
5.826826444334302550e+02
4.316443031605563760e+02
2.817389968168796699e+01
4.071773254121785044e+02
5.008382561929134340e+02
6.409988136085373753e+02
8.188690209490523557e+02
7.823338178244528081e+02
7.213118277461330763e+02
1.013777251764691528e+03
1.351732804213585041e+03
1.049156231844620606e+03
1.017074465663636147e+03
1.014425090239593032e+03
8.771956351981909847e+02
8.593945578140785528e+02
8.080261746511636147e+02
8.640654981207319452e+02
8.845038850535730717e+02
1.015340531932545218e+03
7.856157298682281862e+02
7.562464632750596820e+02
7.832497009483481634e+02
7.726590089180501764e+02
8.974477305431619243e+02
5.446250590472577642e+02
-9.507940808563404289e+02
-2.201848113348129118e+03
1.724256643320694593e+02
-1.889389485902468380e+02
-3.363911124188161921e+03
-4.498460423410288968e+03
-4.205612981692543144e+03
-3.774349379520902858e+03
-3.268660261691283722e+03
-4.190560393443294743e+03
-4.327117316123070850e+03
-4.046288298949472846e+03
-3.992038830129112739e+03
-3.792388506405770841e+03
-3.358331384637254359e+03
-3.546870821097767021e+03
-3.679971605832411115e+03
-2.455614030430191633e+03
-1.773655374570503909e+03
-3.853254076673612872e+03
-3.779495522626046750e+03
-1.835268540832207009e+03
6.534277230394035314e+02
-2.140387873493351435e+03
-2.632687715826368731e+03
-6.844558940816176573e+02
1.577274244170299426e+03
-4.314496492517400270e+02
6.223930415887784875e+02
1.526778891420235141e+03
1.580751016878197333e+03
1.387295551192893527e+03
1.444451743386057387e+03
1.568201848288921610e+03
2.014605689486875463e+03
1.522655221415658161e+03
1.402361514375170373e+03
1.289751714127853347e+03
1.443869162537937427e+03
1.588728917121953145e+03
1.419318924908798635e+03
1.253637690810855929e+03
1.213744443435521589e+03
1.442668877635918761e+03
1.399386251631458890e+03
1.344898918526354464e+03
1.370267018683667402e+03
1.372557652461132875e+03
1.221718093626368955e+03
1.235791810227599854e+03
1.183794328836198702e+03
1.135729459773612462e+03
1.246609994691864813e+03
1.000478469002158704e+03
1.040364097234283690e+03
6.062630333034005616e+02
4.481862238477235110e+02
4.831660792828758417e+02
5.102048692411840989e+02
5.343260622901734678e+02
4.715562082655339964e+02
6.619437225073434092e+02
6.534872345426463198e+02
7.731917517379614537e+02
9.440956567786194000e+02
1.020229295303927984e+03
7.786161402137475989e+02
7.072648208752177652e+02
4.931884011827140739e+02
3.873874915019458172e+02
1.568324455274017453e+02
-2.684152285713971651e+02
1.626568609143867263e+02
3.940801002331556901e+02
6.384638727275032721e+01
9.889897913430516496e+01
1.244074670333051529e+02
1.383299560588099268e+02
1.186199430171663494e+02
-2.252300345915132240e+01
-1.291985504927764623e+02
1.444775527811722498e+02
-8.539262034918388622e+01
1.402095139575595226e+02
1.062915272504494197e+02
-5.116240209302711150e+01
8.384773768500186009e+01
3.963584788328643640e+02
4.373974524794600143e+02
3.099694500912867170e+02
5.420277626590526552e+02
1.905790613296928768e+02
-2.293435121883967440e+02
-4.047679366118244957e+02
-2.346469734334193049e+02
-4.159878268957922387e+02
-3.268219594489256110e+02
-2.931235759580040963e+02
-3.468765903484021464e+02
-3.200845222316969512e+02
-9.775168091266864678e+01
-1.678688218414800133e+02
5.454563580836851600e+01
1.564651096132581358e+02
2.669622262302866602e+02
1.880090152766485687e+02
3.257633173154562911e+01
-9.532753349689065203e+01
5.226884316737898928e+01
-1.363793192175811342e+01
1.998837811539103271e+01
2.412077572921504753e+01
5.177040925840498176e+01
1.558906494728210532e+02
-4.951835429556351187e+01
-5.114894379335590315e+02
-5.140364886183392628e+02
-2.751631629979085574e+02
-6.388655385604547519e+02
-6.131395605786565284e+02
-4.340193032508850024e+02
-2.784959532945647993e+02
-3.705996178073477267e+02
-3.223155057062942888e+02
-3.436685468899302123e+02
-3.476103171071858924e+02
-2.481746488616925603e+02
-1.254548466858687590e+02
-2.043723697820986160e+02
-5.569788334095967457e+02
-3.433011192783848173e+02
-7.702996269814179868e+02
-7.320146086437609938e+02
-3.614653212066773449e+02
-5.146960233121283181e+02
-4.976925773715212244e+02
-3.214777723481186626e+02
-1.770553670942447297e+02
-9.748792948340891940e+01
6.422456637091909215e+01
8.511506980511686038e+01
-4.786231210680531234e+01
-1.837125497134948660e+02
-2.664618689526854496e+02
-1.910025924112642670e+01
-2.266918459251996012e+02
-1.142401427234380407e+02
6.228518846628265493e+01
2.286253582224091474e+01
-9.255352036355030521e+01
-4.179494047676284367e+02
-7.537144679664017133e+01
1.091644560382103322e+02
-3.413764206656746296e+02
-2.859981166506448176e+02
-4.037269534834300089e+02
-1.855368225682166496e+02
-4.741833142609504392e+01
1.095793576537493408e+02
2.524412150460603357e+02
1.631716621078562923e+02
1.447172822862246448e+02
-9.887906935559055910e+01
3.234876236726059773e+01
3.543948854850992234e+02
6.192381097790907916e+02
6.658757125075144359e+02
5.082872246474561280e+02
4.664609669533395504e+02
5.413666117758101564e+02
3.910671787525894842e+02
2.755069217079138184e+02
3.196703948347749247e+02
2.595805797023115815e+02
3.291711103975558217e+02
7.846003165257316425e+01
3.074587397481733433e+02
1.631417487526885850e+02
8.549648212389315916e+01
-1.148228900869516700e+01
7.319871118497350437e+01
2.345447493369106269e+02
3.295527365834706757e+02
4.702073964248706375e+02
4.045623567919092238e+02
5.496350461890066299e+02
6.123653800051265534e+02
5.747282808199690862e+02
4.897731032290697044e+02
4.448097483052418966e+01
3.938539375617483529e+02
5.548470949126912046e+02
2.024853073951010742e+02
-1.722538044050266137e+02
-2.973707324359386348e+02
-6.568327824562377373e+02
-2.394652505326361279e+03
-2.924807049035867294e+03
-2.483316200135004692e+03
1.348239306352491269e+02
-4.293762233232062613e+02
-1.163951200021505883e+03
3.991351316175422426e+02
2.789065059830453492e+02
5.123842271290001236e+02
4.065791123625543264e+02
2.834990724703164915e+02
7.431121088304684008e+02
2.704224066341190564e+02
-1.759572661146280552e+03
-2.114833323389319503e+03
-1.785340070943262845e+03
4.958739862338507578e+02
7.478059749999796395e+02
4.235005916554212604e+02
4.119455896375245061e+02
7.341132963274430949e+02
-3.799639158101136900e+02
-1.180277826549346628e+03
5.818668450117709057e+01
-1.549585059782397821e+03
4.454294108073346479e+02
6.402483085027923835e+02
7.088378255346971173e+02
7.122530847557864035e+02
9.435189782082253487e+02
1.169642992337014675e+03
7.446337503665372424e+02
5.894469465905766583e+02
7.851077054118708247e+02
-1.137367371890991990e+03
7.304038603912825067e+01
1.383479881806190406e+02
-1.615410784147901722e+03
-8.832681113349943871e+02
-1.951218470000029811e+03
-1.922495681214236072e+02
7.696402999067862538e+02
7.494672127379434414e+02
7.392428261413667769e+02
9.199319620775365820e+02
9.195538994656735667e+02
8.552129084875177796e+02
7.258362439862561359e+02
5.584525125943424655e+02
4.410812792129407285e+02
4.897110999202322432e+02
4.893931193110089453e+02
4.141319112970264769e+02
2.008967446195891853e+02
4.766893713416545779e+02
3.145438125114514492e+02
5.545861627173032815e+01
3.541993773559408965e+01
3.044801823067642133e+01
1.234815040581942327e+02
3.214867443325542808e+02
4.287160795650482328e+02
2.192991559509594879e+02
-6.102606414167797055e+01
-5.960806975298505677e+02
-5.595923777473793734e+02
-1.826562894029545703e+02
-1.004306830488919786e+02
3.171201956467623404e+02
5.189878253149247485e+02
3.314387252296125439e+02
1.343057577705306471e+02
9.243497684094350575e+01
7.693223911051600794e+01
-8.340254361059423971e+00
-1.845205760288505985e+02
-1.194845608679071916e+02
-4.605428715242345561e+01
-5.950351242009369201e+01
-1.018765486597120997e+02
-1.851147446406098709e+02
-1.851770807176132791e+02
-2.430377555875411417e+02
-1.527082331239159885e+02
-7.103403327489363051e+01
2.028506338873370680e+02
2.788479681971724631e+02
4.029507040705811391e+02
2.886590671604429872e+02
2.305392250084913996e+02
3.464659632636827951e+02
3.774646439893387537e+02
3.755767106620632489e+02
8.875824005800035366e+01
1.379976449943584669e+02
-1.575743824082187317e+01
-1.134369412584068186e+02
-5.703571985389111632e+01
2.014187921032101656e+02
1.348043077842057755e+02
1.522948119785542929e+02
1.079460412172885100e+02
2.516685312643284931e+02
4.114331624881761513e+02
2.901763994075448068e+02
1.339635101367983907e+02
5.677128959002762087e+01
4.735936539135910266e+02
3.564237940743593640e+02
5.673102790681996339e+02
8.512019635306708096e+02
5.980924520530414839e+02
1.829618875514151455e+02
1.328060657045449773e+02
2.156664382512733482e+02
2.594885766038840416e+02
3.733425605963044092e+01
2.081653827253436475e+02
2.479528164147273230e+02
2.371798875804834950e+01
-2.656029537517512651e+01
8.010520469053409442e+01
-6.328485151664457931e+01
-4.717381121805985913e+02
-3.292692760725976200e+02
-1.358846435302218936e+02
-1.860818771787710446e+01
1.516016192368999782e+02
2.127718552584194924e+02
2.629148992453621076e+02
1.379988618365836714e+02
-9.597379410575065606e+01
-2.649736420513135045e+02
-2.650739053649647872e+02
-4.052713904067591670e+02
-1.312534882782579189e+03
-4.288896970873759074e+02
-3.803171035366379442e+02
-9.548309981796203374e+02
-1.124394943182340967e+03
-6.110224787980373549e+02
-5.087105671933486519e+02
-3.505193511681655991e+02
-3.563951780415518442e+02
-2.363496539795807223e+02
-2.753824192515250502e+02
-1.684591128036245777e+02
-2.165906024798843532e+02
-7.483266884609811598e+01
4.486006748053635818e+01
-4.150337782905499040e+01
-1.709464264027181457e+02
-1.054179018552112410e+02
-1.159034842337331952e+02
-1.142605068482165365e+01
1.090013221594825268e+02
-1.295940166914880365e+02
-3.232329943622693804e+02
-2.778969031035735497e+02
-1.455674309274760958e+02
-2.412448576316493529e+02
-6.295142689615482112e+01
-4.767770966306904512e+01
-3.024209436144666938e+02
-1.291842308535679820e+02
-1.419569378637338843e+02
-1.087270667148564911e+02
-1.734613464073969737e+02
-5.214123315709265682e+01
1.002131111161277062e+02
3.326066194981951298e+02
3.270378353036026624e+02
5.175375878475800846e+02
3.271133992686640681e+02
5.487313575378607311e+02
4.614294267193319001e+02
1.962699352157067381e+02
-2.790481948014527092e+00
-1.477876035550856955e+02
-7.867647440094927447e+01
-8.246829252147240652e+01
-1.272297370973171837e+02
-1.869553904945928480e+02
-2.636113581210958046e+02
-2.340027662863525677e+02
-5.128172386233693203e+00
3.190243284251689602e+02
3.046072663357945132e+01
1.061580078589046252e+02
-7.984126536518039075e+01
-3.603296746269984965e+02
2.459834075147066912e+01
1.457755565015803825e+02
-3.581662264078025970e+01
-4.581860914666071380e+02
-9.029903010753211845e+01
-1.291724067292641678e+02
8.818105101686990110e+01
2.742852634132820988e+00
-3.094816684974042005e+02
-3.034829564637149133e+02
-3.372353934382893499e+02
-2.437254083080577516e+02
-5.697576587926933911e+01
2.690532120402424425e+02
7.034770565053477753e+01
2.993344687742382249e+01
1.698028853559837046e+02
2.339187359349066924e+02
7.731561238087978438e+01
2.099789293241992993e+02
2.859699395767441956e+02
2.522126297612488770e+02
-2.128416248923772969e+01
-8.545799292143996695e+01
-3.563496680110836792e+02
-2.439504946922857869e+02
-1.592775275174847138e+02
-1.583327470381886144e+02
-3.051345922397283061e+02
-2.076620438579873564e+02
-4.559034893132773050e+02
-1.548723203968638984e+02
7.247266763569750481e+01
-4.593486181460641404e+01
-2.421033858828494374e+02
-8.034616861835324642e+00
1.823154256434415572e+02
8.192784437544035825e+01
4.378278011560843908e+01
3.148799632198968652e+02
3.712230765027688904e+02
3.578124462539389583e+02
5.876316730882322190e+02
2.796559289571712839e+02
3.290537049341241271e+01
1.204204554402871423e+02
2.201321229808694397e+02
-8.197667333312877247e+01
-2.098961737544961466e+02
-1.126338523557412685e+02
2.380754102809238049e+01
3.940011419371045065e+01
-3.738505538964072343e+02
-2.319569957927419637e+02
1.680678886318082164e+02
3.261680361840587921e+02
1.203683039243528015e+02
1.496922041748726429e+02
2.791122084824654621e+02
6.056582198515194477e+02
3.132415770416093324e+02
1.758588556919568759e+02
8.657893782309525932e+01
-6.261676876461180541e+01
-1.278015304612970340e+02
-1.949214086862789657e+02
1.091387588467021459e+02
7.288516349466069855e+00
-1.365762045742151258e+02
9.433005781622078700e+01
-1.958783213774513570e+02
-2.289632601850320839e+02
-9.625408971636407784e+01
-1.476238353653221793e+02
-1.370994625772347035e+02
1.053608061136738598e+02
3.206912103252947190e+02
2.519957351824125737e+02
3.860616088388999287e+02
5.302774024044065300e+02
5.144637972974331888e+02
5.394734898308579432e+02
4.240795144433206474e+02
5.804193626588453299e+02
5.705210325412297152e+02
4.433419088410474842e+02
5.398445302073727134e+02
6.570343066789006343e+02
8.861426153517625153e+02
7.338597490366275906e+02
5.382936528243170642e+02
7.203513083795243119e+02
5.650315255589715662e+02
4.584073000174936965e+02
6.025056449791728710e+02
8.272455464433336374e+02
1.130472555033727303e+03
8.883619802920146640e+02
7.298241114431643837e+02
7.990743850547677312e+02
7.802515923477085380e+02
7.449563832848107268e+02
6.832262756287225329e+02
8.851806450167471212e+02
8.346516784295057505e+02
9.007887440046274605e+02
9.643272794190374952e+02
9.202961958540039404e+02
8.537408712099154400e+02
5.497059244232200399e+02
4.461248387391261190e+02
9.820115364472296733e+02
7.273849715165748648e+02
7.132413453517663129e+02
6.756075243066384246e+02
4.403454797658029634e+02
7.136082703874265007e+02
1.138465095367123013e+03
1.088828296776373008e+03
1.083678891933807108e+03
1.035962496932595059e+03
1.032725155833720237e+03
7.799884536113057720e+02
6.027371240110772987e+02
-4.710446635014953358e+02
-3.069365141597820639e+03
-4.441247618532412162e+03
-4.565672563930594151e+03
-4.372605057560296700e+03
-4.428997544015204767e+03
-4.351847302176382073e+03
-4.045206198067494824e+03
-4.533070012972225413e+03
-4.424443412282023928e+03
-4.231313518941191433e+03
-1.778688568189880016e+03
-3.255401944631145170e+02
-2.018412473854952225e+02
1.334405212230424922e+03
1.532207168605235211e+03
1.445855698037287311e+02
-4.774673074903965357e+02
1.394049986904050911e+03
1.554162179573484536e+03
8.158930531216092277e+02
-2.636770070764759112e+03
-4.328828619111700391e+03
-3.670257764928122015e+03
-1.662039939172694631e+03
-2.868161401603729246e+03
-4.250619984326095619e+03
-4.441452305638164944e+03
-3.777602415131044381e+03
-3.620760485128983532e+02
1.098144210906395529e+03
1.336100456931286772e+03
1.249791368260409399e+03
1.507223797353243526e+03
1.526397359174470921e+03
1.552381392937189730e+03
1.337164854380398083e+03
1.072762763096498247e+03
1.207203586392678289e+03
1.020471016932614475e+03
-6.524113614453862056e+02
-1.604234557768002958e+02
1.005424745899945378e+03
1.227184096996765902e+03
1.276832787011977189e+03
8.173598913324393607e+02
9.758580288810435377e+02
8.873089209672049265e+02
8.457440878499560313e+02
7.441449259254658273e+02
1.208536516198308391e+03
1.304924127422862057e+03
1.334310826376810155e+03
1.147761902294042329e+03
1.113259641124240034e+03
1.327818171142592519e+03
1.177467637006085170e+03
1.368240621176536706e+03
1.360149159257729934e+03
1.201179271554584830e+03
1.389345863636372087e+03
1.401678350063177277e+03
1.197147969513802082e+03
1.322792960914995774e+03
1.240645797594262376e+03
1.145683766020748635e+03
1.093022752794662438e+03
6.536529282509028462e+02
3.545090504489869545e+02
5.604180594917202143e+02
8.504766634311233702e+02
8.789422107341121091e+02
8.028539702591807554e+02
8.592315023035463355e+02
8.780838458101351307e+02
8.583798250735787860e+02
6.652352040930801422e+02
4.428528164036022758e+02
4.518223540801649278e+02
2.691394389400320506e+02
5.458786347591268395e+02
5.540270578931595082e+02
6.215103863499954286e+02
2.883779958783077859e+02
7.462410503301744313e+01
1.421572105555063956e+02
-4.496592457190734393e+01
3.348133312460981159e+01
2.903557753528356784e+02
4.963723414008646273e+01
1.202934542431309097e+02
1.053259821120790036e+02
1.317739760828423812e+02
1.926416320730147902e+02
