1.083611532556064958e+03
1.536672701214462450e+03
1.674745217067440308e+03
1.554842210637942344e+03
1.339986091145695127e+03
1.316170085404357906e+03
1.061423187050294018e+03
9.327020873831255585e+02
6.309916358427628893e+02
6.073314669790433982e+02
4.997300198484075509e+02
2.431881737593851653e+02
2.567388958124330998e+02
6.213983584977472674e+02
7.081506227940276403e+02
1.087952615096419095e+03
1.179834190488560580e+03
1.275797202527608306e+03
1.215862215265671921e+03
1.554023540352260625e+03
1.394322245380746836e+03
1.359610043491002671e+03
1.536881350235761374e+03
1.240216124530448042e+03
1.191060435972700134e+03
1.130690733258608816e+03
1.096971756294388570e+03
1.010782484398981978e+03
9.253886229887815489e+02
5.656239882961378953e+02
6.320657334782911221e+02
6.982573322644406062e+02
3.623534049496398666e+02
6.237184206325378710e+01
-2.123902320257859174e+03
-1.219917951345927065e+02
7.626461575889618416e+02
9.549481873848440046e+02
9.632412895540815043e+02
1.222809221956636520e+03
1.244783231312190537e+03
1.277188280102247290e+03
1.368958033558451689e+03
1.429197914050891313e+03
1.153010961459948703e+03
9.414384341637870648e+02
1.218559111570944651e+03
1.145907601954445454e+03
1.110630610494354869e+03
1.030807564380228541e+03
8.521162868335917437e+02
7.626221237195519507e+02
6.889753330292344344e+02
6.130476976548917492e+02
9.479170391526769208e+02
7.665930647987497650e+02
9.400610893317159480e+02
1.211360738362094935e+03
1.400501741990120536e+03
1.368442072724320951e+03
1.486149098512593810e+03
1.514604417236700783e+03
1.499785405143350317e+03
1.554754446110096069e+03
1.493500570367252976e+03
1.232954122037424213e+03
9.861190225059555132e+02
9.780396403460931651e+02
8.146382416822973482e+02
3.689020477906027509e+02
1.957950874794536276e+02
3.023220406197551711e+02
4.815039987897511651e+02
2.982529160548228901e+02
2.785977030520231779e+02
4.675732545664426993e+02
6.341676162438152460e+02
9.583229634675027455e+02
8.770944813744163184e+02
1.096485522454177044e+03
1.200465644405524927e+03
1.355022462295604555e+03
1.405186325934627803e+03
1.187921762433451022e+03
1.049231554386345806e+03
1.104113820640972790e+03
-7.534199706873903324e+02
-3.769444657070519497e+03
-8.023921875973578608e+03
-9.304856280988369690e+03
-8.917273212673922899e+03
-8.349186359559833363e+03
-8.439581351298664231e+03
-7.939423794706526678e+03
-7.486691381971450937e+03
-7.517429862729000888e+03
-6.736623714351389935e+03
-7.095243145875367190e+03
-7.721217036427841776e+03
-6.634678866519489929e+03
-2.172654587528455977e+03
6.810285971800774405e+02
6.253276517208737459e+02
1.913200790060250711e+03
2.222669309503990462e+03
1.884757164196699932e+03
1.122448923422646658e+03
1.269774094112807461e+03
1.613704735822456541e+03
2.075240617935361115e+03
1.996388183383458909e+03
1.916159412316762882e+03
1.903571309935874524e+03
1.796674964984994176e+03
1.336458617026191860e+03
1.523887429670045321e+03
1.782979638451032770e+03
1.689777959911340531e+03
1.465310892920157130e+03
1.891578567096077222e+03
1.884640276455171943e+03
2.041496206004397891e+03
2.406186657020180519e+03
2.405736357872274311e+03
1.650130321356619561e+03
1.002350301705679158e+03
1.209450492374810437e+03
1.093463585605790286e+03
8.283785260293668671e+02
5.932070305337887248e+02
6.739874476740900491e+02
5.227335320758623993e+02
4.864748376211999812e+02
6.622037334656773737e+02
6.769613770708702987e+02
7.177381369037460672e+02
8.345776398682487525e+02
9.505259031081008061e+02
1.026574239809059691e+03
1.271729229709841775e+03
1.328062629746640823e+03
1.158567532429424773e+03
1.172256042222952601e+03
8.751714706153882162e+02
7.613812289048058801e+02
8.238738499591721620e+02
8.066166404765335756e+02
2.616511760982367605e+02
1.619905236800773025e+02
2.606894976093220180e+02
9.876636401256696729e+00
5.552704547501003418e+01
-3.457876808984183725e+01
-5.673034377684799665e+02
-2.535319723790859996e+02
-2.473493708298590548e+02
-1.757472993120501599e+02
6.333973613663461322e+01
-2.300307506512515374e+02
-3.159284623784048449e+02
-2.671479848728680508e+02
-1.533773800594310842e+03
-2.616874684370474370e+03
-3.702529741441414330e+02
3.189143088147313847e+02
3.007158929415695638e+02
-2.882412232429813415e+01
-2.247501912655139904e+02
-1.150575247739053992e+02
8.229313951500998314e+01
-5.176999206711401484e+02
-6.240900921085477648e+02
-5.798071132939048766e+02
-3.518093047604349408e+02
-2.941430693342608151e+02
-1.637610884307261756e+02
-1.136624126770631307e+02
1.461353957862888251e+02
1.296566286299406840e+02
1.139412527512406967e+02
3.396684919022217741e+01
-1.171801574702783171e+02
-6.353175004790598734e+01
-8.716376965209109073e+01
-1.550455545195340505e+02
-2.591422476213593882e+02
-3.244510118226885993e+02
-2.199818872524012647e+02
-2.007523127881985943e+02
-5.127834010624886787e+02
-7.350831246342254417e+02
-8.926617684359657687e+02
-1.116505738903496649e+03
-1.022625438321266643e+03
-6.640034360431840241e+02
-3.946861229447790720e+02
-4.966466103005998889e+02
-2.749066512390024286e+02
-4.544746406245398020e+02
-3.263353454223280323e+02
1.784404496304594829e+02
3.048811215507498105e+02
6.250095437872752200e+02
9.981909589468006061e+01
-6.437193400117816964e+02
-6.648375933090425072e+00
-5.094189306643222892e+01
-1.876512634732602010e+02
-3.028133760516199686e+02
-5.364498890161647751e+02
-4.145638742828662657e+02
-5.091563416600598089e+02
-6.572799543760608003e+02
-5.649708495908267878e+02
-4.492338000433934440e+02
-3.810948376810586069e+02
-2.115560310947313098e+02
-2.656564493096150272e+02
1.365742702408089428e+02
2.851351426918974425e+02
5.369957971337134950e+02
6.671430673333811683e+02
7.045771330730614181e+02
-1.057668342109776063e+02
2.480891579117530341e+02
3.612205656632306727e+02
-8.458931289112132390e+01
3.958588306725571329e+02
1.290788520742995331e+02
-1.316810478958910835e+02
-7.619467563338190530e+01
-7.729214009229137261e+00
-2.523457546595773238e+02
-2.418877572283029167e+02
2.345030342302422923e+02
2.448299412866416560e+02
2.209933614938419737e+02
5.747988729287141041e+02
9.567367835125140800e+02
1.235370104865894973e+03
1.452905147611917528e+03
1.451318650292571874e+03
1.499677770342271970e+03
1.715735479108307118e+03
1.503747981138615842e+03
1.554538097381802345e+03
1.388698480750996168e+03
1.045524562806356016e+03
7.210452222813428307e+02
8.882401658925082302e+02
9.768484270031418646e+02
6.409930104546730263e+02
5.738898678284699599e+02
7.161009567169138563e+02
9.036255454044179487e+02
1.181943129125572341e+03
1.492379865456091466e+03
1.636136132974249449e+03
1.747246692725758521e+03
1.858631742744480107e+03
1.862248820230991896e+03
1.977066683654921007e+03
2.220069712900639843e+03
1.826230992889628851e+03
1.670533508937590341e+03
1.544002204508183922e+03
1.358578696956479234e+03
1.502248901745449075e+03
1.337994575420409546e+03
1.462777386427733973e+03
1.639565891212711904e+03
1.354390882420372009e+03
1.144181573775350444e+03
1.112959470741029008e+03
1.363725908431643802e+03
1.341480078401264564e+03
1.448182155477270953e+03
-3.741341420314790298e+02
-2.945470812584282157e+03
-6.796846271932326999e+03
-7.286224936786957187e+03
-6.915617521947237947e+03
-7.265049284325387816e+03
-7.088484296212811387e+03
-2.309916086416322742e+03
1.845641558150181936e+03
1.784197194607486836e+03
1.752688634930238322e+03
1.905150892676788089e+03
-2.762527999912318251e+02
-5.870631899637824063e+03
-6.145805554691229190e+03
-9.706018600633682070e+01
6.806631141781823544e+02
-5.691627278952022607e+03
-7.391828483377516022e+03
-7.290960779756012926e+03
-6.768033263058043303e+03
-6.659994128825668668e+03
-5.406827205346889059e+03
-2.535348443049292371e+02
-1.374079194039299409e+03
-4.801438491400515886e+03
-4.418654529821537835e+03
-5.483632972851205523e+03
-3.878377499774303942e+03
1.299135744125735528e+03
2.462925516018764938e+03
2.747998856583455563e+03
2.580377228707923678e+03
2.526110772341261963e+03
2.227183860524821739e+03
1.931648557653742046e+03
1.898514069203889676e+03
2.379789006874267216e+03
2.510504786448851519e+03
2.390699568999769326e+03
2.192401875746184487e+03
1.870688562616955778e+03
2.134555729692515797e+03
2.257010572540779776e+03
1.958120539977009230e+03
2.004911391423034729e+03
2.390428583747815992e+03
2.234681682294975872e+03
2.012725305119593486e+03
1.792576920583906485e+03
1.682261394692895692e+03
1.829825131141246629e+03
1.364270116350826811e+03
1.121626653231066939e+03
1.178936715308324665e+03
1.243222850990469169e+03
9.015064234884976031e+02
9.277626405901168027e+02
1.087086665296601723e+03
1.345512339730055601e+03
1.400076590434004629e+03
1.251787665833407800e+03
1.015723665610398825e+03
1.054903213116480629e+03
1.230266860564550143e+03
1.423771782263791238e+03
9.185444485321779666e+02
8.860560650170697272e+02
1.005620357840768520e+03
8.200598325161951152e+02
6.682872796662730934e+02
1.192939410027216809e+02
-3.883588608300365763e+01
1.169008671073601420e+02
-1.713328815613266443e+02
-1.508437935742022091e+02
-2.016356407530824697e+02
1.625866567143798136e+02
-7.054083616769079299e+02
-1.153590145929536448e+03
-3.495800489936632971e+01
3.595191055010646437e+02
2.176953891640033589e+02
3.404943085293949707e+02
4.999713670677194841e+02
6.001465730895622528e+02
9.140687338532301283e+02
8.316512682174949305e+02
5.738659292267213914e+02
1.367404038467234955e+02
-6.267492041607780351e+01
-1.683990001215379095e+02
3.059560013053456018e+01
6.331906394114598413e+01
-3.602197604934677315e+02
-6.340338136419518378e+02
-7.411231056318299579e+02
-5.824387400817746538e+02
-9.159779000280356058e+02
-7.508241167531334668e+02
-7.179146531618756626e+02
-5.832410584578080943e+02
-3.658130849956427255e+02
-3.156220268113420389e+02
-3.126270600636980816e+02
-1.408172319514705180e+02
-1.082616471075756692e+02
-2.359545739905835546e+02
-4.228955275335211468e+02
-3.540629862045184950e+02
-4.794898825408074003e+02
-5.461934278700057348e+02
-5.031899582767622974e+02
-4.464904189714230824e+02
-6.040703674377130028e+02
-7.509803974774358721e+02
-7.772227199710492869e+02
-5.678032901828692047e+02
-6.057458224976983274e+02
-5.500614356509070149e+02
-5.977714426580121199e+02
-6.688523457438583364e+02
-5.833029662457560107e+02
-6.914415619028555682e+01
5.160027686774748901e+01
-2.260824826775476595e+02
-2.802290956772527579e+02
-2.347976731403976771e+02
1.061714064563331732e+02
5.116549433334394621e+02
1.116428067786445979e+02
-1.273937929929882785e+03
-1.319095083620185278e+03
-1.037809294076509161e+02
-2.230966185562253088e+02
-3.090542806728849428e+02
-2.295895591891629977e+02
-7.380285725058294588e+01
-6.997787256799847455e+02
-2.403920631402893378e+02
-1.606307741047416471e+02
-2.444515629204190645e+02
5.241051020896372847e+02
3.747103951564625390e+02
7.654901552060078984e+02
1.046498935411520961e+03
9.486924616749448660e+02
6.330075361941436540e+02
6.514394935150942274e+02
6.869632595799723731e+02
1.766128990759287092e+02
1.303322738216483003e+02
2.800507582153564954e+02
-5.124868019508675587e+01
7.445332629546683734e+01
2.311058836585382608e+02
-3.229879414716401698e+01
-8.179791013709306924e+01
1.566278284017502642e+02
-1.020467848121750478e+02
2.241671537997169423e+02
6.002584704350330185e+02
4.912239093551389715e+02
2.650412991069176201e+02
4.287227998339492956e+02
7.802477365608064019e+02
7.475818134241476400e+02
6.606681121986159724e+02
6.575014788966934702e+02
5.261249842923789402e+02
2.335220536503888411e+02
1.766567768358530088e+02
2.155415568179211618e+02
2.351340982932773898e+02
7.938537127728336884e+01
2.142745158899797104e+02
-1.512052230376793316e-01
-1.719287035886624153e+02
-1.630322524375662567e+02
-2.554887096212955555e+02
-1.613325268221179272e+02
2.044980061067098021e+01
4.528300420108454318e+02
7.218774587397225559e+02
6.236207962451511548e+02
5.619500443648490773e+02
4.589061416931938879e+02
3.224810161876299617e+02
1.076917541679454757e+02
3.615491469573684640e+02
1.650016534492682467e+02
2.220765150474109930e+02
3.558062942516400540e+02
2.311486367587373252e+02
-2.099376705304536301e+02
-3.839179363075840001e+01
3.517857817488329601e+02
3.116018881528594306e+02
9.300241158549461318e+01
3.620157882241249467e+02
2.686655152315410078e+02
3.949473476444210860e+02
-1.221228493572099865e+02
-2.635186040767622444e+02
6.767583434316086368e+02
-2.603185081369986165e+03
-7.336385460502073329e+03
-4.226941917206837388e+03
-2.493769258484299371e+03
4.961549412823043781e+02
-2.623194368730550650e+03
-1.523828295526033116e+03
2.682625374761894363e+02
2.021056355445278427e+02
2.026484652094406727e+02
2.639272882952236046e+02
-2.311031387783473292e+03
-2.606214636659185089e+03
-3.100642930721610810e+03
-7.462991030649582171e+02
-2.858140269556947260e+03
1.738090144913457493e+02
7.425784195104178025e+02
8.641656486117576605e+02
7.106091124741036538e+02
-2.594072977926012754e+03
-2.757860832280276099e+03
-3.356710202697146542e+03
-1.127622015218384604e+03
-4.198644941358309552e+03
-1.911749412899389881e+03
-1.645866145446183737e+03
-1.017050763883530863e+03
-2.255329762746537199e+03
-8.066062611864697374e+01
-2.326048807705186846e+03
-8.185208959986312038e+02
5.639822229661172059e+02
1.228439576778195942e+03
1.481878831202870515e+03
1.491317222150383031e+03
1.748777615031362075e+03
1.660243812050129009e+03
1.651762990159709261e+03
2.007342103243366182e+03
2.130010624041419760e+03
2.206790072082141251e+03
2.039636434478480396e+03
1.744594789417577431e+03
1.556617932602252949e+03
1.699688041357514976e+03
1.413885915634242110e+03
1.249209406963942911e+03
1.219626322898105172e+03
1.111117362524469172e+03
9.807171071625689365e+02
8.464518295529900342e+02
8.234037634271638808e+02
8.385238241423586487e+02
8.580183494304857277e+02
9.800228623473968810e+02
7.434963842906312266e+02
9.765073979085379960e+02
1.277186257036606094e+03
1.406284125643718426e+03
1.270269661767642901e+03
5.563490769739164534e+02
8.350068717364997894e+01
1.284655824190753037e+03
1.070716415719188944e+03
8.083579439844163517e+02
9.014719461940662768e+02
9.065002575504927336e+02
2.387592708878281655e+02
5.277737859523532507e+02
7.372623143832025789e+02
4.331413539648764868e+02
5.974350127289026204e+02
8.992336935984426418e+02
9.931358073687597425e+02
9.915460406983437451e+02
1.039156864830434642e+03
7.712967311065626745e+02
1.149677248839916729e+03
1.307391685686592155e+03
1.480207221496803413e+03
1.504075452571765254e+03
1.366002291613953048e+03
1.151850728690232927e+03
1.234544448030245121e+03
1.259051261440031567e+03
1.116355680448805742e+03
1.090444934400946522e+03
9.712907531043089193e+02
8.528216489336926998e+02
6.190186576084707895e+02
4.998919832296828076e+02
9.734691632599199238e+02
1.052729844981776978e+03
9.115927552880912117e+02
1.149101201592138978e+03
1.116241630333033754e+03
1.237978306541906932e+03
1.326280127482460330e+03
1.596148536873244439e+03
1.339604353212371961e+03
1.143627285461992642e+03
1.437208608991858227e+03
1.526287466201801408e+03
1.221950252876132708e+03
1.152158875507859648e+03
1.208855780021075134e+03
1.175041309354556915e+03
5.657125443397603703e+02
2.928054888525143156e+02
3.473287786107134139e+02
4.252731079648033301e+02
2.926354172491605823e+02
7.364500202838828500e+02
8.126961402032916340e+02
-3.726414520053011756e+02
-2.787558966206050172e+03
-6.999073658811918904e+03
-8.050121966103055456e+03
-7.744772862344324494e+03
-7.790024346281649741e+03
-7.724856973562989879e+03
-7.773282299330804562e+03
-7.620273602040086189e+03
-6.964858301063480212e+03
-3.918066054413156053e+03
-5.267788216681423364e+03
-6.315089857195725926e+03
-4.832003223218358471e+03
-7.041528157531724901e+03
-7.677589892263690672e+03
-4.009233433818444610e+03
2.605225252332484160e+02
5.256957074874186446e+02
1.269293957672066199e+03
1.983325977033199251e+03
2.279773834101534248e+03
2.568664671971503594e+03
2.470018591311992623e+03
2.087871327227689562e+03
2.128255820941798447e+03
2.242200349804881171e+03
1.974695255171667213e+03
1.997742837460481269e+03
1.965351036594435072e+03
1.486513840534452129e+03
1.312273904775738629e+03
1.182671865533174696e+03
1.314727314132942638e+03
1.299420552499983614e+03
8.047997308839577499e+02
6.438394307995096142e+02
7.705836958158113248e+02
1.122060268039166203e+03
1.368292169807447408e+03
1.347277392657690370e+03
1.448035282926605305e+03
1.545605627176076950e+03
1.484030400246984300e+03
1.277361124669916308e+03
1.393609628084889209e+03
1.519773536823385257e+03
1.284914907271626134e+03
9.840571017569783407e+02
8.471981384763131473e+02
1.035359103520375584e+03
7.405911110044607994e+02
6.139101575215292996e+02
5.813502984486199239e+02
3.648933995790077347e+02
3.625753082895442958e+02
7.943739709395933346e+01
-5.475575977783930348e+00
3.108769925462974584e+02
2.454780582565208533e+02
1.973285064068252268e+02
3.894784932365166696e+02
2.690105930549065079e+02
3.029578256408561288e+02
4.373382687072189583e+02
7.791414583166329066e+02
9.383470461083809369e+02
6.719344507136235052e+02
3.452203840152424164e+02
3.242222267304244951e+02
4.772922866883015303e+01
-4.901859574910278070e+02
1.575235251202288111e+02
6.785561513276257983e+01
-1.612194884285348280e+03
-1.462577038994299983e+03
-6.302317450340963205e+02
-2.870959934384127905e+02
-2.562115179970984400e+02
-7.406043390453626216e+02
-5.341953937083217170e+02
1.449592559953657371e+02
2.798980276114105550e+02
-8.830544228407246976e+01
1.739105019390769868e+01
2.449548683104066242e+02
3.784126471054802323e+02
4.948305624156608360e+02
7.517618160038408348e+01
-1.675287581917603177e+02
-5.325556627011047084e+01
-2.550321770223687849e+02
-4.148581809943756298e+02
-6.097046093185551854e+02
-5.915782974519187292e+02
-6.844690899079554356e+02
-8.043679795393729819e+02
-9.963403818693290077e+02
-8.332955597007061215e+02
-7.992214680091672108e+02
-4.111118482565900081e+02
-5.501891423066009423e+01
1.400559452447077149e+02
-3.384687344905444917e+01
-2.127292189492995362e+02
-3.959190647066962043e+01
1.515413462603580683e+02
6.867164222638591298e+01
1.857916162367945958e+02
2.268667842366125740e+02
8.691516098407193169e+01
-2.660458027193823227e+02
-2.960915174230623848e+02
-3.692124425342005907e+02
-4.284092305935840841e+02
-4.557160682346722638e+02
-3.811373182666822572e+02
-3.457362796929024853e+02
-3.604988196553595685e+02
-3.034760375542174415e+02
-1.986876592186919765e+02
-7.311446808011891108e+01
3.622959258776261038e+01
-5.066989538286709660e+01
9.116413224801776494e+01
2.546978694342781750e+02
9.786085132347105286e+01
4.266968438050947299e+01
3.371260105180834898e+02
3.381625213705375472e+02
-2.462266987035629029e+02
-1.800661100554409870e+02
-3.426443971134796929e+00
2.462230094191574636e+01
-2.339212767210883896e+02
-4.420666113663071997e+02
-2.798713640639648474e+02
-3.163675538918316192e+02
-3.216673415834951015e+02
-1.149901112705661262e+03
-1.109955369589590646e+03
1.892568742222008780e+02
5.183688395776554216e+02
4.212791929959799404e+02
5.901684803839059441e+02
9.290216257071932660e+02
1.191636544799735702e+03
1.260311146823446279e+03
9.539339584061563073e+02
1.068594737614003861e+03
8.951988095295818084e+02
5.806078317510962279e+02
3.527568688900845473e+02
5.598371416928065400e+02
4.934809033426524820e+02
4.610413400283990200e+02
8.732113495041792248e+02
6.400147526884621811e+02
6.500695778779528382e+02
6.717864498165844225e+02
5.837923448049854187e+02
8.254817830874055744e+02
9.776209500923935138e+02
1.364277022725616007e+03
1.595639146873957543e+03
1.544310623886144640e+03
1.691278362439514012e+03
2.213698007295258776e+03
2.156449748671674115e+03
1.782533187711522260e+03
1.867677186711015793e+03
1.914854536136320576e+03
1.552584874217678816e+03
1.675325111306420467e+03
1.369919172382699344e+03
1.261201162694163031e+03
1.116599723695729153e+03
1.265027990587282147e+03
1.277345658009957106e+03
1.096534216603972936e+03
1.021558357515185548e+03
1.225369444828258565e+03
1.577961219238688727e+03
1.651317095232059728e+03
1.957466574938122221e+03
1.893408638442484744e+03
1.566085304608194519e+03
1.706461575607033637e+03
1.796608722023585415e+03
1.543475340278759631e+03
1.228080538173503101e+03
9.953795520409382789e+02
1.194394483451375891e+03
1.490982076511496359e+02
-3.503505200420424444e+03
-7.689471841872637924e+03
-7.945749021872597041e+03
-7.917344907024043096e+03
-7.682234670174300845e+03
-4.834456348448118661e+03
1.310964761087865782e+03
2.174040339959501580e+03
2.188775554461331467e+03
1.977353548314517411e+03
9.888025393041187954e+02
-4.684066696132817924e+03
-7.131162729647388005e+03
-6.611461440679406223e+03
-5.940978745626150157e+03
-5.331709515896809535e+03
-5.762550605220467332e+03
-6.210558435380095943e+03
-6.041741032047029876e+03
-4.709048714395461502e+03
-1.819486702561714765e+03
-2.258005944808154254e+03
-5.976569219159090608e+03
-7.018167545213613266e+03
-6.697796231565402195e+03
-6.435367434209690146e+03
-6.275935824788963146e+03
-6.139406652574196414e+03
-1.307774106962854376e+03
1.649991708391933344e+03
2.925955490797701714e+03
3.206146370815423325e+03
3.447601950523172491e+03
3.457340084287888658e+03
3.457390284553844140e+03
3.556803145761823998e+03
3.554623486913475517e+03
3.222877757800276413e+03
2.912585656934635608e+03
3.032797437093429380e+03
2.922508075965820808e+03
2.494781707973634639e+03
2.723646708553364988e+03
2.555113781751234455e+03
2.409265135886012558e+03
2.453122667041230670e+03
2.175695030621049682e+03
2.216030690255416175e+03
2.127205221570533013e+03
2.179287923302163563e+03
1.864282116010968593e+03
2.188229120236819654e+03
2.403185966202956934e+03
2.353205458128926693e+03
2.518310576146482163e+03
2.372552385816201877e+03
1.795017826673587706e+03
1.524682403048652986e+03
1.373577298510160517e+03
1.093742181974209416e+03
1.128222471054695461e+03
8.360226130385667602e+02
6.371203652094176277e+02
7.336513172630433246e+02
7.807021225080937938e+02
1.021567366901958849e+03
8.594299019032241631e+02
9.381846672090247239e+02
1.028921910980267967e+03
1.015698489287663961e+03
8.725164812674261157e+02
6.553859312939349593e+02
3.152658667263651182e+02
9.579606258276382960e+02
1.148805543087328942e+03
8.247746295651274977e+02
9.079041546930784534e+02
5.923898230023460201e+02
-2.491280206928000496e+02
2.234299931538726298e+02
4.216561216109711836e+02
1.260907291199095539e+02
6.647058817595357993e+01
-3.112779908554385884e+02
-5.661530707069042592e+02
-4.421428789276945395e+02
-3.362148768455170398e+02
-1.383205737733146066e+02
4.353663799855743122e+01
1.243629924113453313e+02
1.261733179126664197e+02
4.019608963180211276e+02
2.957522374356730097e+02
-2.838771966257069934e+01
-2.550184896217592012e+01
1.513895306913422303e+02
1.442919351069922413e+02
-1.577452550327339864e+01
-3.328119683451913033e+02
-5.088303976836384663e+02
-4.888745925265407095e+02
-2.869466422932139835e+02
-5.290550383714628424e+02
-9.392090122456078234e+02
-1.009404662967417380e+03
-9.636414029427241985e+02
-7.019211882597680869e+02
-6.682331258701318575e+02
-7.546337742981786505e+02
-5.581010560622303274e+02
-2.986056647365992944e+02
-2.511639037889635802e+02
-2.347949642842788194e+02
-1.115236508237621820e+02
-1.433730546208886096e+02
3.465664065660323701e+01
-1.024490011955470550e+02
-4.137200035110250838e+02
-5.051846982240263628e+02
-4.907934889682701964e+02
-3.275915053446794900e+02
-5.966798846529599132e+02
-7.640483717135500683e+02
-1.014703161683823510e+03
-1.021694628699193345e+03
-7.520063243883253108e+02
-4.316787555473435987e+02
-1.777204252162133002e+02
-3.661907261928427602e+02
-2.253124560287510121e+03
-1.839452417498722980e+03
-1.102069607068331294e+02
2.754970671950948145e+02
1.107251979064617871e+02
2.284631391256534698e+02
1.795803502683905606e+02
-1.929162313889170548e+02
-1.247916274260287992e+03
-8.695772018863747235e+02
-1.348914627812674780e+02
-3.088917286882572739e+02
-1.507661521414684103e+02
-4.443862826816828004e+01
-3.756260289864263200e+02
-5.546300657616530998e+02
-3.894769255219776483e+02
-1.331826132033869783e+02
-1.978033790793411981e+02
-1.013542180792556593e+02
7.613603164687071967e+01
6.663350501930665359e+01
4.231754644924002946e+02
5.527369479127589784e+02
6.412416782040978660e+02
6.946967751415782004e+02
5.610955307688096809e+02
3.674220706585127232e+02
5.235992774358912811e+02
1.976306575284957034e+02
-5.865180808641814565e+02
-1.638521990626040292e+02
-4.487477284835436064e-01
8.969840193972174802e+01
-1.384850090956803399e+02
-1.589780871069025352e+02
3.622245370842729528e+01
2.180944513092743762e+02
5.806224012472908953e+02
6.078013172671440998e+02
5.016281504778383464e+02
5.830673624415493350e+02
4.141064485268798308e+02
5.917368025071111788e+02
1.021975481712807778e+03
9.798000212489012029e+02
8.501883057985226060e+02
8.771512091395464950e+02
8.216600571356433420e+02
8.036812511725061086e+02
3.211941882962069599e+02
3.202122673827516905e+02
2.327288716186951376e+02
4.472939639327889694e+01
-1.776213938928457248e+00
7.419567921065022631e+01
2.276177152898011968e+02
3.695137851233412221e+02
2.818790069130178608e+02
5.472364184194091763e+01
-1.099494083324608766e+02
3.788721149776491757e+02
5.591977938505823431e+02
8.459822986983199371e+02
8.562594071154252333e+02
9.490639846796535721e+02
8.423790891023675158e+02
7.181767985320481102e+02
6.575042501022389843e+02
7.883692372369065424e+02
5.956998273146540441e+02
-5.534651222287344581e+02
-4.285144004073289580e+03
-6.654250707924383278e+03
-6.613740921378706844e+03
-1.910758801788137589e+03
3.727485823601368224e+02
5.948099556664108150e+02
4.074507747011688821e+02
-8.635951484724512284e+01
-2.816632100890918537e+03
-2.921328090535685078e+03
6.561803820589034331e+01
1.243199259577825615e+03
1.366450368583375621e+03
1.215373676046072433e+03
1.002988160311731576e+03
-1.956717467014677140e+03
-3.657511988444241524e+02
1.296920238108495823e+03
-7.227528546265857585e+02
-2.395709342634837412e+03
-2.549343125529294412e+02
-2.881403962693812900e+03
-2.791019548061318005e+02
-4.000046463492790735e+03
-4.266204227420408643e+03
-1.928596808419911213e+03
-7.442135676456463216e+02
-5.133993076997679054e+03
-2.020914807830537029e+03
-1.201018015438030716e+03
8.877553955361652243e+02
-2.184550305551581914e+03
-2.077970795383756467e+03
1.083525034178923534e+03
1.809991214789949709e+03
1.166390093830781780e+03
-2.255234041635373160e+03
-3.459013946413183476e+02
9.614116490772121324e+02
1.252675892332531021e+03
1.309933754912869972e+03
1.247213755935726113e+03
1.207532039901654343e+03
1.137857920494263681e+03
1.029142586367163858e+03
1.261262854252067882e+03
1.547335262147619460e+03
1.312730524339466911e+03
1.045279672052648493e+03
1.399100696261692747e+03
1.315822528639595021e+03
1.745773825306276194e+03
1.644001997142806886e+03
1.871436230111183477e+03
1.798228201326087856e+03
1.925246223572369445e+03
1.340725822721825352e+03
1.384608171070064827e+03
1.454939156471609522e+03
1.458522670279362046e+03
1.395501333269990937e+03
1.030487367614345658e+03
5.034378064029658049e+02
-5.305819767416422792e+02
-1.005280710322876701e+02
8.246074908229121547e+02
1.105903116488598926e+03
1.165786493491751571e+03
1.271864503318308380e+03
1.341353763549850100e+03
1.187081344914884312e+03
1.385786055217850389e+03
1.587907191929963119e+03
1.433999859825258909e+03
1.061665192469567501e+03
6.965408120229060387e+02
8.362156746837459877e+02
1.033827298224799279e+03
9.580312482675858519e+02
6.042675262638557570e+02
6.427313541719731802e+02
2.252300651899964521e+02
4.760560911329428677e+02
5.069098246225233311e+02
3.842869546829890055e+02
5.022259172035978736e+02
4.601193875530378250e+02
7.889225836142287562e+02
9.275086489766308659e+02
8.219048924856272151e+02
1.021126821516075097e+03
1.287107591302547917e+03
1.456858570693693082e+03
1.244392598818214083e+03
1.244698501477417267e+03
1.355741810225299560e+03
1.521468646403497587e+03
1.329961734029113586e+03
1.119144074307863320e+03
1.205029824789875875e+03
1.252603946692696809e+03
8.518170453655285428e+02
7.207037164633214843e+02
4.702340163746949884e+02
5.754366705002456683e+02
7.462883070212545817e+02
8.097760612614758884e+02
6.578625558858846034e+02
8.645752407479621979e+02
1.031901084731631954e+03
1.323843542182958572e+03
1.656424288135804090e+03
1.414671112500734580e+03
1.345540831489505536e+03
1.335030214185850355e+03
1.193158628083330314e+03
1.240904584628535531e+03
8.728243559506202587e+01
-1.573726294892503802e+03
-4.962153825867173509e+03
-8.632020928003372319e+03
-8.388360647847239306e+03
-8.674094450194917954e+03
-8.555250467556592412e+03
-7.891832904228704137e+03
-7.567843172435064844e+03
-7.172267211343386407e+03
-6.967118232998148414e+03
-6.674510568571354270e+03
-6.522175443613262360e+03
-7.095256458728215875e+03
-4.668393513952205467e+03
-3.283848706022240094e+03
-5.708616544594662628e+03
-2.540686570558336371e+03
-2.809218031163657088e+03
6.598218702799757693e+02
1.751671405727405954e+03
2.055178790562066752e+03
1.948353351322205071e+03
1.871226851668249537e+03
1.654769599623066142e+03
1.524985561146607324e+03
1.590862275029735656e+03
1.744454562584119230e+03
1.584748487553011046e+03
1.473757477341172034e+03
1.571483813788177486e+03
2.001997280904332456e+03
2.134308855426038463e+03
1.984396462239696575e+03
2.162259262713719181e+03
2.546926303786207427e+03
2.412414198617660077e+03
2.416753053581614040e+03
2.144967034440201132e+03
2.164051600799152766e+03
2.118001198463107357e+03
1.744857697084351457e+03
1.577657676252205874e+03
1.516383035234941872e+03
1.364033547176745742e+03
1.266600719250355496e+03
8.211322514549657399e+02
7.876607507023117023e+02
9.302076931228464218e+02
9.167385660308010529e+02
9.522625334995523190e+02
1.242835006376968295e+03
9.494629059690594204e+02
9.481964492904171493e+02
1.084037785175935824e+03
8.460041544709079062e+02
6.191189517524890107e+02
9.913855901452061516e+02
1.294831511172382989e+03
1.015478065693014059e+03
7.333516168430631978e+02
6.144605366046016570e+02
3.568131202562426552e+02
2.654113522609317215e+02
6.725095190254565125e+01
1.863245785888367436e+02
1.406582877715595430e+02
-1.996856555292020516e+02
2.534690716343005192e+02
5.829617272088331674e+02
1.632480557659231168e+00
2.675586810743984074e+02
3.767997719644587278e+02
3.737292076124345499e+02
1.131404800733258753e+02
-2.871324537360216596e+02
-8.526905441769596337e+02
-1.288070926336046114e+02
3.596415961679826410e+02
-1.684419541756429680e+03
-3.489680533644031584e+03
-5.054977415598484072e+02
-1.553468909916796648e+00
1.680027151785349986e+02
-6.292211522092878795e+01
-2.943305123105442931e+02
-2.352274265892517349e+02
-2.527680348486207720e+02
-3.788117522916291477e+02
-2.799808079988956138e+02
-4.564373466253301359e+01
