2.313536233772637843e+03
2.016838074574808843e+03
1.968911209838724290e+03
2.204803367947884453e+03
2.324550114477485295e+03
2.045208751095497291e+03
2.346838963545506431e+03
2.669489252543909060e+03
2.549184716136905990e+03
2.502941349063666166e+03
2.445823994798060539e+03
2.380844893968990618e+03
2.248089821648839461e+03
1.956588452319863109e+03
2.067359570589424948e+03
1.866435946652841722e+03
1.642849564705426701e+03
1.211634926716532163e+03
1.480771158944669423e+03
1.217332370560534173e+03
1.185352972388489889e+03
1.157839839211086201e+03
1.434874951768397068e+03
1.431445043313734459e+03
1.348596109828772114e+03
1.256435190374289959e+03
1.023708847643555146e+03
1.062701023975746466e+03
1.179152943483874651e+03
6.547428442308691956e+02
8.424738228570679439e+02
9.283158221313647118e+02
1.001354198985023118e+03
1.379671957292880506e+03
1.256187504472650062e+03
7.257930450552457842e+02
5.664265287456006490e+02
8.423958339002484763e+02
7.550538891917979072e+02
4.154135274724640681e+02
3.213904388041767106e+02
3.328650785842913820e+02
5.255101722472262793e+01
1.451001050921830995e+02
5.404978592277579992e+02
6.528845694468207057e+02
6.372342546245333779e+02
9.755550980723007797e+02
1.083852471073073957e+03
1.072080863523483231e+03
7.442928153088340650e+02
7.025152427373416231e+02
9.067253511779175597e+02
6.599191418706441254e+02
2.400763742739664224e+02
1.231822643254405421e+02
1.332782902839693691e+02
4.732027231436826753e+01
-6.670112988986903702e+01
-4.077754413215221234e+02
-1.839469184277056968e+02
-3.232278877459300475e+02
-5.606700325048344666e+02
-4.202252987834057762e+02
-4.293392063937038472e+01
-1.107613190628605793e+02
-8.374547450000780202e+01
2.971109051540045130e+02
5.747689101232913345e+02
4.832542662565661544e+02
3.135203027447236650e+02
3.345633800821099726e+02
2.023746505423400208e+02
-2.909843949566197452e+01
-1.318607687617962085e+02
-2.828767960860072321e+02
-6.892642448847150263e+02
-6.310406876698525593e+02
-3.502026240399599715e+02
-5.167646977460539119e+02
-7.607053876204982998e+02
-8.091788813611119622e+02
-1.933132826663358401e+03
-4.553589587352415947e+03
-7.468593189746647113e+03
-2.576164659824840328e+03
-4.493291155139011607e+03
-8.456959074068274276e+03
-8.058240150167770480e+03
-8.013220692155518918e+03
-7.233841622541888682e+03
-3.019127506735924726e+03
-3.971409713924147127e+02
-6.909511127382580220e+00
4.546698693445345043e+02
5.953893703294858142e+02
7.402823429808610172e+02
6.862961661604525716e+02
7.323530182396426653e+02
8.904609475189131444e+02
8.936081287525788639e+02
9.038004898009452290e+02
8.009537295676767599e+02
5.960766034025907629e+02
5.141389407889047334e+02
9.811015272629479114e+02
1.085993751197975371e+03
1.012763167748621754e+03
1.066382635573590505e+03
1.504847857694333925e+03
1.439136596493930710e+03
1.324229547837406471e+03
1.273108556790745524e+03
7.847279194602093639e+02
9.140657946448480971e+02
9.011287512995120323e+02
4.808843303839919372e+02
7.242572195843198415e+02
8.922612530222953637e+02
5.138803812559054904e+02
5.370642563519345458e+02
9.508529142481911549e+02
1.052228818940622887e+03
8.921661719970759350e+02
7.476461516712946604e+02
5.496725567729379236e+02
4.592321890340691652e+02
6.523488960568338371e+02
1.127009838568726082e+03
1.207168374612945854e+03
1.386804394583896283e+03
1.553945831437963079e+03
1.302609991866599330e+03
1.053738920287037672e+03
9.663657768644457065e+02
7.884768200416147010e+02
4.540263608241904194e+02
3.430772696774396309e+02
3.965943043666340486e+02
3.185280892967211344e+02
5.788693858260192115e+01
-1.724301212873491295e+03
-1.962018421923767846e+03
7.396996759728738198e+02
8.688784812213374380e+02
8.665658917244470558e+02
7.877575714591392853e+02
9.524463164309088370e+02
1.173627518597122616e+03
9.613306933469555133e+02
1.145566571841902487e+03
1.293346166449315660e+03
1.003687155977582279e+03
7.015632251834641693e+02
4.970312157514331375e+02
7.070955721122484192e+02
-7.032951085273274430e+02
-5.270099308991675571e+03
-4.827375126946084492e+03
-1.869055691560542527e+03
-7.421181577418847155e+02
-2.537571907393634319e+03
5.496172829552482426e+02
1.068497687250393710e+03
9.380576471685940305e+02
2.472580398153737065e+02
-2.108847748451993539e+03
-8.962477766109873301e+02
-1.827882864484648735e+03
-1.294718039404350066e+03
-1.852806220031298380e+03
-1.553089607057450849e+03
1.167412682556406480e+03
9.487293012666225422e+02
9.498979753638611783e+02
1.051920339604771243e+03
-9.131864565499465698e+02
-1.529439357869423702e+03
1.261660044789936279e+02
-4.371299295534785415e+03
-4.274851685248603644e+03
-2.203447303103651848e+03
8.339086295681507863e+02
9.462304726785082494e+02
-1.823469808204270294e+03
-5.651557345831575958e+02
6.371954167214404379e+02
-2.413389830116725079e+03
-2.268892378443911184e+03
-3.732300216156194892e+03
-1.862333155216050429e+01
1.222383510672816342e+01
-1.846806786455957763e+03
3.622958152239052652e+02
-2.246479905650230648e+03
-1.930616263380022986e+02
1.017502454346522654e+03
1.155194155386260491e+03
1.245081776714071111e+03
1.144156894954483505e+03
7.964335767063606681e+02
8.308604538878620360e+02
1.260467730274550831e+03
1.417292872970693224e+03
9.593097296954283593e+02
1.054540503710647044e+03
1.177020723373343117e+03
1.004760524869760729e+03
1.388849549431218747e+03
1.375417133469975397e+03
1.674650201561048334e+03
1.633405083569768749e+03
1.218470265922002000e+03
1.013773882475320420e+03
1.098373567084968045e+03
1.346518861489922529e+03
1.286195637058057855e+03
1.016447751906199528e+03
6.783022418843901278e+02
2.547048812941411029e+02
-1.109081351352450156e+03
-3.431230363758806106e+03
-2.873816836216419119e+02
6.671261961943522465e+02
5.881349071599130411e+02
-6.474297996460151126e+02
5.359158753003448510e+02
8.753319231382109820e+02
8.568870910109463921e+02
8.955422947097439419e+02
1.043437616276366953e+03
1.384928060389500843e+03
1.299298803661615011e+03
9.416423710171735593e+02
8.724702979750060194e+02
7.047365462356925718e+02
6.403243084418470517e+02
4.939938237424251497e+02
4.929548067522173938e+02
5.596066121691662829e+02
8.725921329350474025e+02
1.063429172402496988e+03
9.323404366017413167e+02
9.804599250532705810e+02
9.428558038167542463e+02
1.147306830853993006e+03
1.370707967575223620e+03
1.283228801846454189e+03
1.252586813029793802e+03
1.329710220749828977e+03
1.285588609145295550e+03
1.446223021855022807e+03
1.633624854590244468e+03
1.445653505667258287e+03
1.336363162254001963e+03
1.050792548418783099e+03
1.080877539559141269e+03
9.375452621092777008e+02
8.578771758092181017e+02
7.108147899179901970e+02
4.113161426601078574e+02
2.053726058396805456e+02
4.889911809613956848e+02
8.081438513351558868e+02
9.828283068227422064e+02
9.630311460837198183e+02
1.048733307599113459e+03
7.129385617644273907e+02
9.486473355125650642e+02
1.123839646278662713e+03
1.075527073139295226e+03
1.125668974999405918e+03
1.321277936468902453e+03
1.481325100574363660e+03
1.265797891207292196e+03
1.079706141534810513e+03
7.310584592665351238e+02
6.967970415335131520e+02
9.729069457099252531e+02
7.173731440234768115e+02
3.302126250055421224e+02
-1.879587615074243331e+03
-5.480012801477287212e+03
-7.812040745300477283e+03
-6.994679148954219272e+03
-7.129979429144740607e+03
-6.720898283160529900e+03
-7.262386669910762066e+03
-7.425419943085876184e+03
-6.976075487914316909e+03
-6.827360462722436750e+03
-6.993242100058181677e+03
-6.256677032951840374e+03
-5.218733900120874750e+03
-4.842035407902388044e+01
-4.272695398441474936e+03
-6.422553478801688470e+03
-2.485978697925940196e+03
9.440551537194348839e+02
1.623552892433485795e+03
1.381505552699666623e+03
1.559916575847223157e+03
1.798807404907021692e+03
1.524198331133127795e+03
1.467058677787368651e+03
1.326438128361107601e+03
1.600384270393132738e+03
1.788939582784794766e+03
2.059099407155836616e+03
2.102877837907473804e+03
1.919322409407883242e+03
1.612407199908232769e+03
1.803165332803441515e+03
1.585605040490288729e+03
1.530771812478300490e+03
1.797694090928728201e+03
1.738382802129276115e+03
1.430826410897192773e+03
1.126070346710024978e+03
1.335132236704826028e+03
1.152022450183672390e+03
1.063744489068860503e+03
8.703724378493877794e+02
1.068877505965694581e+03
9.442811260342832611e+02
9.736350528390643149e+02
9.599970186789475974e+02
9.263948969999398741e+02
1.008815836376755669e+03
9.772737753418875855e+02
1.073841926003428171e+03
9.725821618719388653e+02
6.354739617580779623e+02
5.866000034214183643e+02
6.449219041285056164e+02
5.004549388734969284e+02
5.542524415323296125e+02
1.273143202676703396e+02
9.253957838648094025e+01
7.103854386257494014e+01
-8.795489398776457790e+01
-1.610984950389551784e+02
-3.039152575078621226e+02
1.241079474883681684e+02
1.301796435576534634e+02
5.908235509026724230e+01
6.888943507744652095e+01
2.349680254222679210e+01
-2.143133782714380970e+02
-6.233135525450589967e+02
2.194880408071900888e+02
3.439044479861540253e+02
4.469456542255599061e+02
3.325848975240112964e+02
4.853649253455855295e+00
4.576347327435556878e+01
3.032147813998260233e+01
1.554964204342597611e+01
-4.475430434518167999e+02
-8.192272742105724603e+01
-4.755436396681400311e+02
-9.194213557010720024e+02
-4.805831057266228186e+02
-4.239870886826465153e+02
-3.306231957054723125e+02
-1.594787818387316349e+02
-7.756723632416428416e+01
7.614707850533410749e+01
2.486922769521442547e+02
3.260508058713353989e+02
2.872925237763446376e+02
1.973735739982400901e+02
2.172892436201500175e+02
3.106589199324722372e+01
-1.163173131328799599e+02
-2.468702256466446556e+02
-5.855391647672606723e+02
-5.413797980783998582e+02
-3.094414527730675104e+02
-2.096875095810729874e+02
-2.571079004358049929e+02
-4.967176989841359500e+02
-5.325066912223900317e+02
-2.834782627900842726e+02
1.235281378292723709e+01
-2.033329133529218513e+00
-1.226626244952480818e+02
1.384660718372160773e+02
2.883721016590561703e+02
4.806282600196752242e+01
3.045398028212882195e+02
5.637281539297189283e+02
2.506434315488438642e+02
1.663021198436830446e+02
3.336435943234592401e+02
8.466398211965108089e+01
-2.846245348334214782e+02
-2.672539703783712639e+02
-4.073026177627729680e+02
-7.625690584726795578e+02
-8.663354073346989708e+02
-7.135322768708667809e+02
-7.032044146459621743e+02
-7.133886284293284916e+02
-5.011108430777601370e+02
-1.853980055918223684e+02
3.872736297730433108e+01
1.692381645335451594e+02
4.671273659317778879e+02
6.953921462786885286e+02
8.519993963876310090e+02
8.459063304778339898e+02
9.250399562727758394e+02
4.192865616343862030e+02
-3.637640813037252201e+02
1.076889569614767908e+02
1.231699608815467570e+02
-1.072773974363993119e+02
-1.333996773831411815e+02
3.196097476774585289e+02
6.106976984419360406e+02
1.727811843302095269e+02
8.580888317073480209e+01
-5.817798465858182766e+01
2.237407623769949225e+02
5.898704485163162872e+02
5.747340832126914165e+02
8.335647681682203256e+02
8.083487297835843037e+02
9.388946638029865426e+02
1.021179888219556801e+03
1.062169946243838240e+03
1.073816497072790298e+03
8.132632367426170958e+02
5.424018227351721180e+02
4.740330920547637561e+02
2.475701482908868911e+02
3.995315310289429362e+02
5.230192831804955631e+02
3.616940084484943441e+02
1.900177298943197002e+02
2.387360183034789785e+01
-6.883099359891936331e+01
-2.016771997978775488e+01
2.469289704661585745e+02
5.394799937079803840e+02
7.416801884611159039e+02
1.194932577236000270e+03
1.295521175130045322e+03
1.491582863233512626e+03
1.352839915226885523e+03
1.623535288854363898e+03
1.550368862597835232e+03
1.332411061739457637e+03
1.611601582653641344e+03
1.555029409290950298e+03
1.586536560346610031e+03
1.181410778192935368e+03
1.060460764762681265e+03
1.175509577985072610e+03
1.036585966626323852e+03
1.035698557461370228e+03
9.158464539546866945e+02
1.060007013857682296e+03
1.294154587331602897e+03
1.391277746436411917e+03
1.607406449192081936e+03
1.280519683423064180e+03
-6.853826395218001153e+02
-3.265262656752074690e+03
-6.729124817211955815e+03
-6.904972861905383070e+03
-6.959813915527945028e+03
-6.914656881547270132e+03
-6.293491435108817313e+03
-6.247325821750335308e+03
-2.232181933180320812e+03
1.757940686749969700e+03
1.323366974691088672e+03
-1.853183514087114190e+03
1.066430302867898263e+03
1.986166729767291372e+03
1.979099177681613583e+03
1.677009848997217659e+03
1.786978297439047083e+03
1.746052220286199827e+03
1.801242790590026289e+03
2.323562990580370297e+03
5.320210961317783358e+02
-5.520327295339956436e+03
-6.500465867922594953e+03
-5.775403317249815700e+03
-5.904076032762331124e+03
-6.326472567691545919e+03
-5.567592308022683937e+03
-2.612428551556393359e+03
-8.479861333323527788e+02
-5.014257330158933655e+03
-6.548200897872696260e+03
-7.015778851337679953e+03
-6.605958652864305805e+03
-6.103721892004691654e+03
-2.921042135644619066e+03
1.591080504201779149e+03
2.563696017242335529e+03
2.482863686621524721e+03
2.371616269898489463e+03
2.609976988729439199e+03
3.472945007126814744e+03
2.529528544962356136e+03
2.487801828486037721e+03
3.000782016952483445e+03
2.793501617445072498e+03
2.160993801592268937e+03
2.343295749309998882e+03
2.209408929570012333e+03
2.024385252339345016e+03
1.823259316596760073e+03
1.420062717015575572e+03
1.383754201472051818e+03
1.645393822439910082e+03
1.525021962069136407e+03
1.354678961012536547e+03
1.361352796679091171e+03
1.543091678580074586e+03
1.563904146620212032e+03
1.696837870137117989e+03
1.879938837967586551e+03
2.101216408140632666e+03
2.033675488376840576e+03
1.574344741072199440e+03
2.048203236717351501e+03
2.318313261052493999e+03
2.165626915305626426e+03
1.860337911592110004e+03
1.734902656875301318e+03
1.634059043951309377e+03
1.284631160961936530e+03
1.076819552385853967e+03
9.778440121503106184e+02
1.061497584457146331e+03
5.517608921180948300e+02
-2.573476872793709163e+02
1.841408226802752779e+02
1.041699277794811223e+03
1.007279091829974277e+03
1.248550631245385148e+03
1.468550126181066616e+03
1.779284931550685997e+03
1.431685122438939516e+03
1.312700352293190917e+03
1.287655090293181956e+03
8.834524412525715888e+02
6.983627763206137615e+02
8.300388246745059178e+02
5.605509576150838029e+02
3.297669792594461455e+02
3.416504158753404568e+02
2.501426905901736859e+02
1.092291990955202863e+02
-2.750328271982703541e+02
-4.556775223069881804e+02
-3.416700762664455624e+02
-2.210536315653014015e+02
-1.088707781835621802e+02
2.969392963377842989e+02
7.393693715246718057e+02
3.604395669184368671e+02
3.451500084880788677e+02
2.894900832679743985e+02
4.724928450209629318e+02
7.671367994061790796e+02
6.743676630153343012e+02
7.012026455128357156e+02
6.816863119586441826e+02
4.177853715553482630e+02
3.114540568296698666e+02
2.317225172482135633e+02
4.065871635713548358e+02
-4.795993833354067704e+01
-2.209645961632349440e+02
-7.442250513868117423e+01
1.936526501379978242e+02
4.433002158171100859e+02
3.914694878512298715e+02
-5.089122152835854251e+01
-1.047372476311865626e+02
4.468905763300816147e+02
3.779810231076004357e+02
7.455789345326539888e+02
7.536853802298771825e+02
9.142212149221250002e+02
1.031183237202240207e+03
6.475470869266468981e+02
-1.554644429215673654e+03
-4.609460092276993237e+03
-7.833909699901750173e+03
-8.559003045814230063e+03
-8.353763070414395770e+03
-8.282187125022945111e+03
-8.743375232457516177e+03
-8.443297925548944477e+03
-7.646944267171063984e+03
-7.507372340433307727e+03
-6.158597929452163044e+03
-2.148592655021399423e+03
5.356638866157691155e+02
1.189010115281751951e+03
1.634453639961806402e+03
1.600105097351831091e+03
1.546902496137220851e+03
1.511594531337106218e+03
1.488569530014148540e+03
1.395737348281225422e+03
1.191975528757442135e+03
1.066272054715320564e+03
1.209561720600108856e+03
1.069863585623143990e+03
9.921642645622063128e+02
1.005402349796806448e+03
8.075887468949459844e+02
7.266984110602006695e+02
7.987135228386383687e+02
7.646041989111893145e+02
9.333402626034131799e+02
8.369326304943878085e+02
1.070384743893021778e+03
1.309665276233464283e+03
1.348777205211211594e+03
1.212723715642986463e+03
1.437501286917293100e+03
1.548101447964231284e+03
1.828519192022240759e+03
1.797724327394822922e+03
1.576693808876642606e+03
1.593388424101388864e+03
1.510802813043577544e+03
1.221945810300786661e+03
9.668234991785116108e+02
7.614066508687756141e+02
7.276574524496270442e+02
9.385642288872352310e+02
5.941607588978349668e+02
4.614356115062248591e+02
7.703412833285472061e+02
9.588990990483142696e+02
1.343146200880238439e+03
1.075046884329598470e+03
1.029555192024487724e+03
1.188706275358189032e+03
9.355453871530082779e+02
9.890377002759063316e+02
1.357198469083209602e+03
1.389023670360757478e+03
-1.494495095590188384e+03
-4.913639114556647201e+02
7.224549296194882118e+02
1.129918103903622523e+03
1.203969814303165322e+03
1.002657344433741855e+03
1.006056374438893954e+03
1.099097259416183988e+03
7.597785203527183739e+02
7.460825986149716300e+02
1.017009982926246948e+03
1.195594270782708008e+03
1.235825944908307520e+03
1.100706185910784825e+03
7.382321584320466172e+02
-3.054516768887442140e+03
-3.396531619150267034e+03
-1.206001378429582019e+03
-1.520568428790586267e+03
-2.324234877411987782e+03
-2.648131310902937003e+03
3.336752452226838841e+02
1.478174622850994638e+03
1.509389043406780274e+03
4.773601816970800087e+02
-2.184920631836089797e+03
-2.450424386423166197e+03
-2.501989874343052804e+02
-2.361237704667737034e+03
-2.471429557206751724e+03
-1.420836159179123797e+03
8.165670285727054534e+02
8.417788719198902072e+02
1.028833863840544154e+03
1.129722151408207083e+03
1.164437166616141212e+03
1.211035806193673579e+03
1.541564576828835470e+03
1.009993734986533354e+03
-1.748638162944759415e+03
-7.993572377340934736e+02
-2.293165481213290605e+03
8.998397550531184663e+01
-1.884893966244177136e+03
-1.050820522360368614e+03
-3.527881146381079702e+02
-3.304781557899183554e+03
-3.268809298917052274e+03
-2.054872662862845573e+03
-2.677948546479641209e+03
-2.653063965072001338e+03
-2.761175233975664469e+03
-1.993297022438697013e+03
-2.733393937240225569e+03
-2.595480829110667855e+03
-1.601506107780124466e+03
-2.002427186117320844e+03
-1.015327730120120350e+03
-2.089160153711151906e+03
6.100904502651601433e+02
1.881456601556152009e+03
1.631923299942180392e+03
1.678450687781651595e+03
1.267086349891540976e+03
1.438829630900884013e+03
1.516686979270926713e+03
9.996464797344532371e+02
9.197030128322167002e+02
9.298678981165194273e+02
1.091011963085543812e+03
9.861297353509082768e+02
9.344812908653206023e+02
9.604125423350725441e+02
1.252113262165096103e+03
1.750410059015142451e+03
1.912147910332439324e+03
1.941413120476089944e+03
1.629173456667964274e+03
6.104947767716480485e+02
-2.160787420552316689e+03
-2.739926719517201946e+03
-1.347921490778177713e+03
5.231942446638214506e+02
1.140217701172601892e+03
1.345383321831625381e+03
1.004144797765590738e+03
8.163164496919351905e+02
7.144910858896095078e+02
6.013732356496202556e+02
5.724527355535308288e+02
7.129226104085848874e+02
1.012881822828101804e+03
1.001343820351446539e+03
8.512289563391306046e+02
1.164466879038376192e+03
1.535142169979296796e+03
1.603284602343948791e+03
1.629760803805099613e+03
1.363329247810941979e+03
1.143032369848342114e+03
1.062341919864548800e+03
8.060592548549253706e+02
7.861436637754644607e+02
5.655365392932085342e+02
5.951761761273928641e+02
3.320283702762806115e+02
-5.175907064839439187e+00
7.647595659092110054e+01
3.910348203076459299e+02
5.994584612447514473e+02
6.986961870144942850e+02
6.156746902058604292e+02
7.525303068054093956e+02
8.071610516361796499e+02
6.725284821934289994e+02
8.886760540446518917e+02
1.080623656472428365e+03
9.693184959778236589e+02
1.058758793949252549e+03
1.023928583650236192e+03
1.059793905137182946e+03
6.554122875167278153e+02
7.327227614773131563e+02
9.226581094303543296e+02
1.152259098677518523e+03
9.935014733363110508e+02
5.673622916607213256e+02
3.738499806934666481e+02
4.149494834357647619e+02
5.096136837719371329e+02
4.888614607383997281e+02
3.476753808394775547e+02
2.130560223529711834e+02
-1.099928226405077112e+03
-2.304380573366830049e+03
-5.245294379316975210e+03
-6.306632294752610505e+03
-9.234118212403834605e+02
1.255353886318190916e+03
9.206920755602370718e+02
6.555944997517733555e+02
8.010653845391711911e+02
-1.762909435637461002e+03
-2.226397420039405915e+03
-3.778408798745541844e+03
-5.819723632485907729e+03
-2.812291546960074811e+03
5.336322299023329379e+02
6.141039112259626336e+02
8.681103594137499613e+02
8.236429544642442124e+02
7.486684876127785628e+02
4.212712919948926356e+02
-4.422551623391189423e+03
-8.196788832779664517e+03
-7.847402392010522817e+03
-5.377395515883253211e+03
-6.857936139060058167e+02
8.384564023885676534e+02
1.215362290839915659e+03
1.252913700862161022e+03
1.168117116913375639e+03
1.267006361291705844e+03
1.060597428258271293e+03
1.161848319497912371e+03
1.144793439511641282e+03
4.634556067640165793e+02
6.448356406643285936e+02
5.749147835472888346e+02
5.216694735627251021e+02
2.711853405429517352e+02
3.874861772487306553e+02
6.095864416026706749e+02
7.944945098208278296e+02
7.131986016663662440e+02
6.047420670130625240e+02
8.781618245221762891e+02
7.604789639837365485e+02
6.257063367639999569e+02
5.758437026833199752e+02
6.619327947922472504e+02
6.389577716967426113e+02
5.380010090279054111e+02
2.710497699191233778e+02
5.108496839316401861e+01
4.751248518393419999e+02
4.312177177835030193e+02
-5.960631463576182654e+01
3.369320887879329263e+01
-9.087049325874227179e+01
-4.423290994795829079e+02
-3.636231396392627175e+02
2.482672472977603491e+02
2.283869226127744412e+02
1.437248413997432408e+02
1.273180762143160507e+02
3.752512918957864372e+02
3.147008308850726053e+02
3.558260812537077982e+02
3.407172946470250849e+02
3.102229115795891516e+02
4.662924795552608543e+02
1.609493430470053852e+02
4.923890227407704145e+01
2.370830715592746287e+02
-2.249373836384341985e+01
-3.924090673726927321e+02
-4.488028158656780988e+02
-2.439895366887807029e+02
-5.888719003859929444e+02
-1.339322311674315870e+03
-4.072364143741856424e+02
-9.750003792326869245e+01
-3.469009433458420517e+03
-1.483735651060879036e+03
-3.582249804454602327e+01
2.986050255193689509e+02
2.336076534055984268e+02
3.885123859532867527e+02
2.562956389533712809e+02
-4.016191260759457293e+01
-6.389877332271419164e+01
-4.790569629837478516e+01
-8.812663420373451117e+01
-3.559413236124111535e+01
-2.413128871728060005e+02
-6.132554976489036562e+02
-6.494427636778575561e+02
-5.088483261744343622e+02
-7.154781154025599790e+02
-8.243379887647141686e+02
-6.144014448801932531e+02
-4.716735984575280440e+02
-2.371732467513510585e+02
1.481496957079107517e+02
6.528824039932794676e+01
1.802230690065673002e+02
1.689648155764319313e+02
1.255230065478344841e+02
1.818910450881339500e+02
2.170793075952051652e+02
1.530965781645369646e+02
-8.104347948065454332e+00
-1.435213416105115698e+02
-3.412695683527914525e+01
-1.119370308001448109e+02
-3.730085901632749597e+02
-3.913531014968706927e+02
-2.659632231739280428e+02
-8.935591882211159076e-01
-2.071274593824939529e+02
-5.866783110346395915e+02
-1.805656569083413103e+02
1.582415671307742571e+02
3.506996741165881417e+02
3.207556249993473898e+02
5.554285035634883343e+02
5.719526678975340701e+02
8.230363811899215989e+02
7.185753394784971988e+02
4.060245433826181483e+01
-3.128823404067381375e+02
2.840978642274875483e+02
2.735115725093761512e+02
3.853193286007920051e+02
1.865529510247241944e+02
-1.908302808393262353e+02
-8.882026778224544117e+00
-2.667941883166117467e+00
-9.924263008328811964e+01
-5.385941097817033096e+02
5.910777298536154944e+01
1.163662188714352794e+02
-3.248805645616021593e+03
-1.079846159024365534e+03
1.134525758925356286e+03
1.649907530001116811e+03
1.405507833832235747e+03
1.428048070043209236e+03
1.581297269683480408e+03
1.399717768264989445e+03
1.219168100909139184e+03
1.169702818475782806e+03
7.599419255353287781e+02
3.659948853206386730e+02
9.499826321457009044e+02
9.897879827274579156e+02
9.494156432377405963e+02
9.083122861047523884e+02
1.174052920042311371e+03
1.176439403820024381e+03
8.853215602638915698e+02
8.236985412238012714e+02
1.167543402403986192e+03
1.188768885328104034e+03
1.394355077759610595e+03
1.537297787619505016e+03
1.541843661516895509e+03
1.747946552448389184e+03
2.017172147375832083e+03
1.856003507398704187e+03
1.651892942109768001e+03
1.617180606071454577e+03
1.597680794697301508e+03
1.518585736783879838e+03
1.579463197112399712e+03
1.499729867904289904e+03
1.571989100170781512e+03
1.456436319475057189e+03
1.306969057299413862e+03
1.239323898735504372e+03
1.407690965020879048e+03
1.911189955257658539e+03
1.781804891112465384e+03
1.839307232068090343e+03
2.111794408103434307e+03
2.273968835216976004e+03
2.403845510375444064e+03
2.153520717017075640e+03
2.138923660078598914e+03
2.156085079025856885e+03
2.031986691736875173e+03
1.919603890113485477e+03
1.779957717088949039e+03
1.582012287753552300e+03
-4.822408212250554698e+02
-3.987827440226701583e+03
-7.049745564222481335e+03
-7.421989208697803406e+03
-7.112548209564413810e+03
-6.085443560236767553e+03
-6.957700778085108141e+03
-6.713326851756064571e+03
-6.106295226503761114e+03
-4.885585234139842214e+03
-5.070357645370655746e+02
2.681500816222681806e+03
2.353694146451025517e+03
-2.240322658868410144e+03
-4.214691794430268601e+03
-5.020156510112970864e+03
-2.626764618676032228e+02
2.854659495223322210e+03
1.410798835579920706e+03
-4.945261179372497281e+03
-5.827482945205341821e+03
-3.457854208657235176e+03
-1.704371091873465048e+03
-5.235034016806450381e+03
-6.133794142211267172e+03
-6.295598328251273415e+03
-6.013466989422053302e+03
-5.482377057699962279e+03
-5.195260928508528195e+03
-5.142094137890432648e+03
-4.946829125745465717e+03
-4.750431092313441695e+03
-5.092863022142680165e+03
-5.017101529617116284e+03
-4.570124869466224482e+03
-4.433881066664695936e+03
-8.853469283746709380e+02
2.694537377034637757e+03
3.056793691318685887e+03
3.431446456329287230e+03
3.458495136556784928e+03
3.393955742543303586e+03
3.336900547956761329e+03
3.410391664850820234e+03
3.107451065207280408e+03
3.075111483349656282e+03
3.110439831102532935e+03
3.049430317569795079e+03
3.275143158119739383e+03
3.402633130301776873e+03
3.439922265299378978e+03
3.121075325323579364e+03
3.443135745864070032e+03
3.526160298610843256e+03
3.223166567706706701e+03
3.213162973404721470e+03
2.933189916376516067e+03
2.595326162412435679e+03
2.690602072480216066e+03
2.611072550901335035e+03
2.127743044780468608e+03
2.038631185608084024e+03
1.915803056378081010e+03
1.591312421980916042e+03
1.778196019963010940e+03
1.693583735648205220e+03
1.673443993556534679e+03
1.835037807945741179e+03
1.637540898941270598e+03
1.414295380862640513e+03
1.600331884353265650e+03
1.438741396595972219e+03
1.434854777972318288e+03
1.356806219567735525e+03
5.118868622717695303e+02
-1.459009277433558964e+03
-1.301775991733810997e+03
1.047831569141905447e+03
1.021468561130128137e+03
9.185499821729425776e+02
9.285924879752743664e+02
8.376674858462920383e+02
3.768635394359680504e+02
2.112451911771013044e+02
8.312270559395267355e+01
1.025000990972402519e+02
1.082114749773531059e+02
1.427169496244176798e+02
7.239885171691700805e+01
1.780330894357589955e+02
2.858616560166102545e+02
3.988756217609411578e+02
3.819895182992610785e+02
6.311604396359953171e+02
6.883891593266430391e+02
1.376953629615913428e+02
9.605111296387516973e+01
2.504699760581364103e+02
3.079964431350545624e+02
3.305658506419120499e+02
-2.178607900214444371e+01
-3.670757974892237030e+02
-3.333344597119714194e+02
-3.675746908592508930e+02
-2.367738093561701191e+02
-2.909437264206703730e+02
-3.960578351274064630e+02
-1.271402366116688682e+02
2.097632591240710838e+02
2.366780380866959774e+02
1.106150404780411947e+02
2.785654934278059613e+02
2.774719876431429384e+02
4.303505008217782120e+02
3.691864765655341785e+02
6.597812484695472790e+01
-1.683048072862036122e+02
-2.071218680741838014e+01
-2.422059546358989479e+01
-2.828661788569995679e+02
-3.826966733216513035e+02
-5.426748325724802271e+02
-8.518119591596247346e+02
-7.571993247721006810e+02
-6.738974551368835364e+02
-8.768533862770792666e+02
-9.521028399079591509e+02
-7.656928998848495667e+02
-7.446529797236596551e+02
-4.649585341074575240e+02
-2.116602070288471680e+02
-1.168082213166437100e+02
-1.414106811543487829e+00
1.354877446207406422e+02
7.189561944807499572e+01
-5.512327612384210624e+02
-4.989139889868795308e+02
-5.717502941136034167e+01
-1.640832620947147973e+02
-1.321604920071949891e+03
-2.166735080666740032e+03
-3.504525359676732933e+03
-4.081967331660607670e+03
-3.942238714535590134e+03
-2.557340859135014853e+03
-5.949712566881618159e+02
-4.215737485161866402e+02
-2.398170068378659835e+03
-4.506680272737415180e+03
-2.629111621085795832e+03
-4.525181703930430217e+02
8.208818004395108403e+01
5.270787902944855574e+01
6.329208639615286103e+01
4.648082469011300759e+02
4.412428632452562169e+02
3.705627207462476917e+02
4.337988562367896748e+02
3.398963201734771360e+02
2.018022894993626153e+02
2.344945541868017074e+02
1.799753707382473920e+02
2.352117946461062559e+02
-5.085515760691399834e+01
-3.272147615136136096e+02
-6.890420641141150782e+01
3.910293620111933706e+02
3.706244166781216336e+02
2.448247039029949406e+02
4.806501987154256881e+02
5.981223480059313715e+02
6.591887332605784877e+02
8.908185813151020511e+02
5.640387284872772398e+02
4.288808226738065628e+02
1.081303475307478948e+03
1.168272394699567940e+03
7.557546927693389307e+02
7.447805410058314237e+02
9.503253819852998276e+02
9.093440185450224362e+02
5.678180271772835113e+02
3.448117939552323605e+02
2.423332830885347846e+02
3.173356888323715452e+02
3.437900127605844318e+02
2.856987669347866472e+02
4.440936410346673142e+02
6.259577681422335900e+02
1.057290165138004795e+03
9.930622640015202478e+02
1.057245652048180091e+03
1.180028255064956284e+03
1.023459049178519308e+03
9.313701563229325302e+02
7.278047242866737179e+02
7.907558568996820441e+02
9.662286820331059971e+02
1.213273477028395064e+03
9.498398901396052452e+02
1.009378304109041551e+02
-6.134915491386904023e+02
-3.969471572167994509e+03
-5.049811866042971815e+03
-2.467569369907858345e+03
-1.916357661095487174e+03
8.535281054597082857e+02
-1.728924270049410325e+03
-1.117740190249717216e+03
2.781024465666964716e+02
-2.307409679930352922e+03
5.577399716702650494e+02
1.327596542834176944e+03
1.225174476220421866e+03
-1.683542575678188769e+03
-1.884720025219883439e+02
-8.725887792316065088e+02
-9.999599363697001309e+02
9.234421001948778667e+02
-2.364384355164152112e+03
1.715872737844196649e+02
