3.058393272302682362e+03
3.221207686107953577e+03
3.518936867602259554e+03
3.596630764041069597e+03
3.319313830610309651e+03
3.228021834761788341e+03
3.041821519365801123e+03
2.787735276853960841e+03
1.935727852653907803e+03
1.315825134268251077e+03
9.740720647578249327e+02
1.117482407313321573e+03
1.199034777596894401e+03
1.526763498587058848e+03
1.789719486967717557e+03
1.679928827810938628e+03
1.330450689735225069e+03
1.838298883029802028e+03
2.192514315932751742e+03
2.017238968604195634e+03
1.905597273517903432e+03
2.137645622420368454e+03
2.182245294595769792e+03
2.059401679359940317e+03
1.897268747655292600e+03
1.883948136764124683e+03
1.799527584136739733e+03
1.142918011249164920e+03
9.051093070326496672e+02
4.611403416301504876e+02
-6.196770612186458749e+01
-4.492620152543647123e+02
-1.747677698166136508e+02
-1.704006023205941744e+02
-1.692630574846802745e+02
-2.604538956217016334e+02
-1.025853589239694230e+02
1.323162350860830827e+02
5.238644656236872379e+02
8.012790984905464029e+02
8.375795508390882560e+02
8.627175411625582910e+02
1.378720772499497343e+03
1.561494955146916936e+03
1.592032816269847672e+03
1.385277864096608482e+03
9.432382805883371475e+02
8.119774733501901665e+02
9.014973899925847718e+02
7.571988366692380623e+01
-5.213583592321969036e+02
-4.517909560937448532e+02
-8.560051273023800888e+01
-5.327758069791440221e+02
-8.212963872027376055e+02
-7.631947895595742466e+02
-4.664296778530293182e+02
-4.506970334961646785e+01
1.108885292040573773e+02
3.135376217635238731e+02
4.148227221452368099e+02
4.947491479993217922e+02
8.343327107594593599e+02
1.138582973783254602e+03
1.383406570556139968e+03
1.042857565227082887e+03
8.609450476971857142e+02
6.465908982257618618e+02
2.147301400316139848e+02
-3.206276371779140959e+02
-7.344744450418011184e+02
-8.458468878208230990e+02
-8.628039632849704503e+02
-8.463501096225172660e+02
-9.434892656779250046e+02
-7.042541045094562833e+02
-6.236771283736657097e+02
-4.998039446538724633e+02
-1.686087308327900587e+02
1.158919425576396662e+02
-9.730631114494691758e+01
-1.157178739189380622e+03
-3.018745738311492005e+03
-4.878064866015800362e+03
-4.800154478086242307e+03
-5.109990692114605736e+03
-5.123615525074336801e+03
-5.378061236347264639e+03
-5.736317075947028570e+03
-5.925464919778541116e+03
-5.835524192338530156e+03
-5.035543351022813113e+03
-4.234653756903338035e+03
-1.607576045205913715e+03
-2.601455869659230302e+03
-1.070179946648572468e+03
1.796217252482382065e+01
2.329862978731520968e+02
8.921879369422215404e+02
1.376302069730194034e+03
1.524290061348586278e+03
1.617188140606598836e+03
1.676989989167595468e+03
2.015692914371374854e+03
1.832243591296735076e+03
1.602653395917551279e+03
1.310924215245432606e+03
1.259024056151883542e+03
6.619211771322785580e+02
2.415974657884024737e+02
2.170434264479163460e+02
6.817942944955643725e+01
-1.290159168233310538e+02
1.247159954623221090e+01
-5.539264666005011861e+01
4.637756018733133345e+01
2.488126868292058305e+02
5.898996256326491903e+02
1.112658586753859709e+03
1.367058253380138012e+03
1.639077646365743021e+03
1.637732107510840024e+03
1.806011683389961490e+03
2.001950511103714916e+03
2.284544310089703686e+03
1.910783422489745817e+03
1.299620364438458182e+03
1.406110688882301247e+03
1.442245651313128064e+03
8.900126880603545487e+02
6.784136136145267528e+02
3.313739651106229758e+02
1.208713528745113450e+02
-9.307572291578975410e+01
-5.542202509883048833e+01
-1.422061539301851063e+01
1.152609080621508930e+01
1.032883528091630978e+03
1.207841779240484357e+03
9.594038651776371580e+02
1.181603933681440822e+03
1.151455759465180563e+03
1.356002110065501711e+03
1.698240625378490677e+03
1.887190341634180413e+03
1.432843658800836920e+03
1.445213228514769298e+03
1.397308565366284711e+03
9.630717303052222178e+02
7.075559345896205059e+02
2.627923536057705860e+02
-4.102485896740349745e+02
-4.995763591360679925e+02
-8.617179633954198437e+01
-4.220563577716422969e+02
-1.155174125051076771e+03
-3.103487526800863179e+03
-2.602069461988412058e+03
-1.791798985789496555e+03
1.563387696445757058e+02
5.442967031825041886e+02
-1.644864732487527590e+03
-7.641495354087215901e+02
-2.345100431844900015e+02
1.323101166638155064e+03
-2.103343843910379007e+02
-5.397618768863993637e+02
-5.161780657328084772e+02
-1.104652037695472472e+03
-3.791377490961722856e+02
-2.030608921740088590e+03
-1.359069561683254278e+03
-1.327519177007909093e+03
-2.168970368691570457e+03
-2.723432821558300930e+03
-9.138472718134253228e+02
-2.270159750768273625e+03
-3.165390405643203849e+03
9.049963389520137014e+01
-5.834744688622853346e+02
-1.633305258358028595e+03
-5.179860296834589235e+02
1.287559306072783329e+03
-2.606729390725803910e+02
1.525303010396257378e+03
5.334868022199724464e+02
-2.319115221927466337e+03
-1.509435611852569082e+03
5.957409846460368641e+01
-1.744148772903608005e+03
-1.054633305299666972e+03
-2.351862937373431123e+03
-5.138372516424419700e+02
-1.132535497959707300e+03
-2.073997084615205949e+03
-1.338228218491692132e+03
-1.430204533706970551e+03
5.050859720963669588e+02
1.099651753314101143e+03
1.465539657711059135e+03
1.840781847805253619e+03
1.627362188053716636e+03
1.476240077353434344e+03
1.524440137408256533e+03
1.757004607540656934e+03
1.672960715016275117e+03
1.704253092522377528e+03
1.477976071175126663e+03
1.509194631765709119e+03
1.157957417808969467e+03
2.720976961612279865e+02
-6.637346072852744783e+01
-9.435061594133343021e+01
-5.779832974976348936e+01
-1.777169412012907799e+02
6.185181014496514962e+01
1.129021700125920944e+02
8.634348491886397881e+01
5.992503076665144590e+02
2.226823349988407301e+02
-7.764144584340136817e+02
1.418868656848098681e+03
1.777597285214843168e+03
1.575685142990718077e+03
1.504353150363353961e+03
1.629580617066296099e+03
1.527036316924669563e+03
1.382829321266797251e+03
1.071989728008812335e+03
4.814690324289254590e+02
1.652547790960339000e+02
1.893047298567746850e+02
-6.044175061033939755e+01
-4.049406135123458057e+02
-1.362406339064974929e+02
6.355650807401280389e+01
1.094800304121022663e+02
4.404587936849173957e+02
8.373692762565150360e+02
9.626631163427713318e+02
1.148992606083546207e+03
1.178199759490342785e+03
1.388469600014085245e+03
1.711801402136628667e+03
1.796163711082780537e+03
1.979498964765249639e+03
1.997585082184161820e+03
2.155569449395219181e+03
1.984378253043650375e+03
1.193901436105806852e+03
5.990551390233126767e+02
1.718284540396730904e+02
1.111377326860629040e+02
2.339997079049199158e+02
1.143694464498024530e+02
-5.802368232992939134e+00
1.765390649819842395e+02
5.673272674931085930e+02
6.796110656119069517e+02
9.433544817338097346e+02
1.076496293813125703e+03
1.276051260564918039e+03
1.597009042500228816e+03
1.995375831212833646e+03
2.019156341116791509e+03
1.674363555821158116e+03
1.614989982274272279e+03
1.390008947828160217e+03
7.113673238183256444e+02
5.510423544606288715e+02
4.819684540429349227e+02
3.412899934030336624e+01
-3.314400641790380178e+02
-6.047135646966295326e+02
-4.967918150127032959e+02
-4.006737268896817454e+02
-1.793494690768101805e+02
-7.557744026244544102e+02
-2.231946066755952870e+03
-4.712866935444720184e+03
-5.217525405821313143e+03
-5.200898752826085911e+03
-4.239003500784934658e+03
-3.460859659186580757e+03
-3.329489095082916265e+03
-3.623760368014471624e+03
-3.446601721528185863e+03
-3.725073573042623593e+03
-4.501217757298533797e+03
-4.603075517741855947e+03
-4.795714454075936374e+03
-4.883104668206266979e+03
-3.992040269185473335e+03
-2.489695277115403314e+03
-4.617064805056618752e+03
-5.398162893589937994e+03
-5.057964576802777628e+03
-2.459417244478678185e+03
6.714931009907638781e+02
1.540757639053625553e+03
2.037424194974583315e+03
1.915499929407225864e+03
1.893002755061721700e+03
2.354008925823119171e+03
2.689521442414522426e+03
2.559555313123443739e+03
2.623164060461258487e+03
2.381381537394902807e+03
1.789146208732292280e+03
1.345443307117531276e+03
1.054358147605280919e+03
7.029057629805644183e+02
7.300839013292543314e+02
4.079194384659567163e+02
1.994286231331574584e+02
4.596327522910751782e+02
6.275455002443417243e+02
6.972162209408048739e+02
7.756760228267364710e+02
1.433933959393784562e+03
1.521045765058680217e+03
1.630044035224004574e+03
2.163000184860534773e+03
2.100936277550640170e+03
1.837876225268987810e+03
1.850876496509960589e+03
1.746955935191834897e+03
1.488153674759232672e+03
1.145503251301179034e+03
8.940035921916415873e+02
7.476463210479415693e+02
5.314898530574967026e+02
2.315583697838933119e+02
-9.311965351750808395e+01
-3.105381855601593202e+02
-5.106828415289195391e+02
-4.415083602305326735e+02
-1.419136245429970131e+02
5.072521682969039034e+02
7.210793174039962423e+02
6.766417611931261717e+02
7.548404450501136580e+02
4.806639009261537012e+02
6.330369936880113073e+02
1.115081983616591742e+03
1.122006796188359203e+03
6.648375437566694472e+02
-1.738857951913747613e+01
-2.145744756825648437e+03
-7.300743416119448739e+02
-9.956256157213118740e+02
-1.382297256447551263e+03
-2.587293335217806089e+03
-3.749586865226143800e+03
-7.881446045145170274e+02
-4.139566218759678691e+02
-5.419843376340919576e+02
-4.441816497138936484e+02
-3.485237413120548808e+02
-1.419688084687205958e+02
-4.053972832933522596e+01
3.088262456030345220e+02
6.011794555839214809e+02
8.245408816606549181e+02
8.549175554358744193e+02
6.923189971863449728e+02
8.887382991156189291e+02
6.011636792769625117e+02
1.336292434002988898e+02
-1.878459564934160539e+02
-4.153080720023942831e+02
-1.020785475673589758e+03
-9.682722660457039865e+02
-1.221798967319949725e+03
-1.150341019033780412e+03
-8.899129811620102828e+02
-7.485180300980656511e+02
-5.491563576193123026e+02
-4.247853104183002415e+02
-9.140869820993869155e+01
4.697898157386430995e+01
1.603872174828543962e+02
3.682764095435386764e+01
2.913196219425291815e+02
5.668057938272635283e+02
8.092551382601405976e+02
1.036711285339556980e+03
1.074143348223535440e+03
6.335645445093419994e+02
-5.076585797652995780e+00
-3.887891521981196661e+02
-7.016251507376092604e+02
-9.386151704579249326e+02
-9.637725740839870241e+02
-9.561864384771396317e+02
-1.052804840474314688e+03
-9.906493886566827314e+02
-5.917490798471262679e+02
-3.311306038774849299e+02
1.171845695574707804e+02
6.531688995761414844e+02
8.908325108496272833e+02
9.771908487159336119e+02
9.551820926909963418e+02
6.637501233080068914e+02
7.459201736634219060e+02
1.251638969068697179e+03
8.588704721151244712e+02
4.586169464426798754e+02
3.798173822010692220e+02
-1.566306103917562780e+02
-6.157264302662487125e+02
-8.064251538609757972e+02
-1.308662233146078734e+03
-8.178237529185378207e+02
-1.958311192697986769e+02
-3.045488015461066311e+02
-4.007954028956982029e+01
5.772618666094219719e+01
4.486263830221886337e+02
9.676952363670558270e+02
1.026808143322690967e+03
1.276101374855444647e+03
1.699344938373124023e+03
1.692638626454041287e+03
1.716838050220928153e+03
1.570991383895237732e+03
1.358987505288378770e+03
1.315762272619499299e+03
7.882727461465788110e+02
4.472857456608594617e+01
-1.261957143471339435e+02
-1.086400659837318159e+02
-3.124631825843405863e+02
-9.664023621593833013e+01
1.105373164394848402e+02
5.504701168818334054e+02
7.308538629107154065e+02
1.071717870944557262e+03
1.229737754411851938e+03
1.362190886577608580e+03
1.534916856602274493e+03
1.628105361893461804e+03
1.791580882659106692e+03
2.276439124462002837e+03
2.422522761065918530e+03
2.167751489870830483e+03
1.995187185678660171e+03
1.783861230019038658e+03
1.513305147458318970e+03
1.232908307598038846e+03
1.030509002486938698e+03
8.551494903078121297e+02
5.186717526359985868e+02
3.291280613258715562e+02
4.454660469618734737e+02
8.565930282227069483e+02
1.190476823673353010e+03
1.291183719347489614e+03
1.561689212963488217e+03
2.010985254234758258e+03
2.288037515576656460e+03
2.288871125130575820e+03
2.289476838915337339e+03
2.064848815538714462e+03
6.909858369490809764e+02
-1.959097834742051191e+03
-3.626399741306280248e+03
-4.110940343314578968e+03
-4.348768174335265030e+03
-4.270901588860980155e+03
-4.861307314519110150e+03
-5.060024711835570088e+03
-5.290050472500635806e+03
-5.012371478232199479e+03
-4.378051430661693303e+03
-3.794944471184870963e+03
-4.367030563552721105e+03
-4.392499793306089487e+03
-3.377258160231315287e+03
-1.515233717759062529e+03
-5.463978042869501905e+02
-2.169767159551686291e+03
-2.344319710049616788e+03
-2.096006877255292693e+03
-2.342820886311317736e+03
-2.233711640981511209e+03
-2.093682189482552531e+03
-2.608746586424800626e+03
-2.863878284266820629e+03
-2.706038986562301034e+03
-3.386245574313910311e+03
-3.754499332116885398e+03
-3.457767857362355244e+03
-3.241051489793293968e+03
-6.953285301938076373e+02
-1.386541971605709932e+03
-3.562675795352588011e+03
-3.512660949741927197e+03
-3.186445604601208288e+03
-2.772053099303289400e+03
-2.118402358267469481e+03
-1.145486084666420311e+03
1.570754214952226448e+03
3.025325508925039685e+03
3.781297430479063678e+03
3.568741335332389099e+03
3.399678642557465082e+03
2.839149413765481768e+03
2.796148881600622644e+03
2.460714341134877031e+03
1.951850068823320498e+03
1.752605250441044518e+03
1.430974238270302976e+03
1.834941451770649564e+03
2.326626302411249526e+03
2.130059965866399580e+03
1.909284387524395925e+03
1.874360302808677488e+03
2.009323651997915931e+03
2.344174124086820484e+03
2.345982052984604252e+03
2.507822208265794416e+03
2.721720950073819949e+03
2.960708071272910729e+03
3.107879328788195835e+03
2.872239856527975007e+03
2.516834232129431712e+03
2.346666808719943219e+03
2.305712238433392031e+03
1.919972349762800150e+03
1.511615557073614582e+03
6.467298819071968410e+02
2.962946636395219002e+02
3.614739763538823922e+02
2.933697058453580553e+02
2.151370975286050680e+02
3.916708178800992073e+02
5.410047770280223176e+02
3.491391351003217665e+02
-1.005993126289192560e+03
-5.043147192761778115e+02
8.402804735610083071e+02
1.427793069656521993e+03
1.555361928883466135e+03
1.809916903709424105e+03
8.102733595532685058e+02
-1.353142663917600714e+02
1.463056623690602009e+03
1.160293953363840501e+03
8.652989547038881710e+02
4.094227007084142542e+02
-4.349651019481378889e+00
-1.731334346602438075e+02
-3.841149337553019336e+02
-3.522649093250918213e+02
-1.053587197240465798e+02
-5.955458610764624439e+01
-2.868803654898494528e+02
-8.736744726714960052e+01
2.159783330829248200e+02
8.021411125702395566e+02
9.061802782035632617e+02
1.299082742247675469e+03
1.291877782026676414e+03
1.165590295553713077e+03
9.961936156289106066e+02
7.396612921918869006e+02
3.970317050938262469e+02
3.262605579239256599e+02
3.643430730723309807e+02
1.362433602111324262e+02
-2.380718147184118720e+02
-4.655927352092209617e+02
-7.093606981536229341e+02
-9.513720808834852960e+02
-8.156914759180789360e+02
-5.802398613860182195e+02
-3.490146558075004464e+02
-6.411486662144368154e+01
1.165058536351616425e+02
3.919156504148436397e+02
3.170576895293245911e+02
3.488839051133965086e+02
7.114272547227213863e+02
8.146512635678508332e+02
4.195625340684925959e+02
1.791111864435252130e+02
1.832839781151508589e+02
2.506795648147253530e+01
-4.645626866771511345e+02
-1.039662552729408162e+03
-1.542243658884884326e+03
-1.728344506091422545e+03
-1.368006465410095643e+03
-1.376290889157145784e+03
-1.283162124449802832e+03
-1.076619386361570832e+03
-1.857699955048603897e+03
-4.095397418446898882e+03
-5.925700827219067833e+03
-5.851707331487396004e+03
-5.652438100262173066e+03
-4.915882738863083432e+03
-4.451955209380666929e+03
-1.632575471116499784e+03
6.609527553232641139e+02
9.127369663890086713e+02
9.037404182916770878e+02
8.780196183761034945e+02
2.275411387645181094e+02
-1.290663081766563778e+02
-3.466554140384733387e+02
-5.292250537620531077e+02
-7.087686578223833749e+02
-6.103288339985217590e+02
-6.989291660914850581e+02
-7.115808931341604193e+02
-3.322855743584092920e+02
1.069188980211801834e+02
8.129728013212368296e+02
9.738884630326164142e+02
9.766647309803421422e+02
1.059296789595421842e+03
1.385779516631797605e+03
1.888117972763647913e+03
2.164271882698627451e+03
1.814217290600101251e+03
1.599983374042207970e+03
9.974997167400440503e+02
7.957804278577067407e+02
6.467659085638819079e+02
2.143960192699584297e+02
-2.413218842965972044e+02
-4.554020334504024277e+02
-5.338850609051680749e+02
-4.157707651393482706e+02
1.199669401918531264e+02
3.083356039914037297e+02
5.263153544865597269e+02
8.419104813999041426e+02
8.851206949393179002e+02
9.999388203162390028e+02
1.157357830532325806e+03
1.527377696075582890e+03
1.551063755147771190e+03
1.628426361356183179e+03
1.489416558626656524e+03
1.153028019704462622e+03
8.032334745505047522e+02
6.390562397190651609e+02
7.144647603448755717e+02
3.185049270899936005e+02
2.481904192766710366e+02
-1.515492521084531177e+02
-3.347211506712835671e+02
-3.704254479799236606e+02
1.737537543156976128e+01
3.647952739787181144e+02
7.840608054355614058e+02
8.509955923218710723e+02
1.233605394133147456e+03
1.499900808243941128e+03
1.458829914627606968e+03
1.489473883896992447e+03
1.679854022325286451e+03
1.547922108408158465e+03
1.046733085902271796e+03
9.583009631739977294e+02
5.236707066994719071e+02
-2.619169720532744577e+03
-4.470318247574488851e+03
-2.629723465104821571e+03
-2.676338432864335118e+03
-3.244189220197670238e+03
-3.701265651187854928e+03
-2.855579785507247379e+03
-1.561107227920535252e+03
-8.707751124348319536e+02
-1.722596397232564868e+03
-4.385534615407772776e+02
-1.131611461951905767e+03
7.792471118441715134e+02
-6.829129354137357950e+02
-4.411097250023310039e+02
-8.243570378643704544e+02
1.220427290685643584e+03
-2.397029668481411591e+02
-7.337817902441639717e+02
-2.312830408256989813e+03
-3.275794863046973205e+03
-3.177722766179453629e+03
-7.345984784971440149e+02
-2.235431795693682488e+03
-7.411833355412544506e+02
-1.856898707831235015e+03
-2.548537065074915972e+03
-1.481083370625582347e+03
1.035141651185086715e+02
-2.697742281107473445e+03
-5.668225746546038408e+02
1.575268281137274244e+03
-2.934516489165000053e+02
1.327076564229446149e+03
1.957839844733478458e+03
-4.113409008261367461e+01
8.721619773894874470e+02
-5.592422739018977609e+02
4.696328788982731908e+02
-1.033228317603007554e+03
7.271787017697574811e+02
1.398876677617502310e+03
1.076838498701325307e+03
5.730298804684640572e+02
4.904446394703737724e+02
2.631303938780750968e+02
2.700742130348700698e+02
2.152453053594709047e+02
3.436956373619275951e+02
6.514508439129108410e+02
7.755332190781106192e+02
1.305943850956799679e+03
1.824740208926780497e+03
1.826037142183432252e+03
2.048760087621015373e+03
1.986965944092177779e+03
1.755755146667309873e+03
1.779083641502907994e+03
1.664037815021347342e+03
1.373528224319369656e+03
1.064567540935974193e+03
3.511224676616317879e+02
4.900731444077710535e+02
-6.357718486397014601e+01
1.373019865728459479e+02
-8.740431007001706121e+01
-1.137868414178044816e+02
1.901045813353567837e+02
3.623754733343267844e+02
4.281062156654431874e+02
9.050642932183895937e+02
1.125339561281169154e+03
1.427971811920921709e+03
1.677927777822468443e+03
1.854166334078603768e+03
1.824726508148481344e+03
1.837581649601648451e+03
1.969678998288406547e+03
1.770084348954912457e+03
1.487708191403015462e+03
1.120497809561917393e+03
7.514444855209560501e+02
4.633558211571950665e+02
8.590725730982226693e+00
-1.600242501327388993e+02
1.691692914521124749e+02
-1.081912822569427135e+01
2.551604717829728770e+02
3.681014387208045378e+02
7.169470046175520110e+02
9.505817504860099234e+02
1.387135788432739218e+03
1.632399816291755769e+03
1.763384552241013353e+03
2.045050665377536461e+03
2.169373540849773690e+03
2.582285857011917869e+03
2.379793123395943439e+03
2.277898926175978886e+03
1.885595906749041205e+03
9.288294001246615608e+02
6.534962984937986903e+02
4.295643555326559522e+02
1.060413789695480773e+02
1.449688898624756064e+02
3.802907574260955812e+02
3.140064841893629364e+02
3.340802759914835747e+02
4.285070390034706520e+02
6.493012617911341522e+02
5.904216246599630722e+02
7.248394601279987910e+02
9.085711523520035371e+02
1.351653999652028460e+03
9.610899065477530030e+02
-4.651436255929127128e+02
-2.803068096095211786e+03
-3.461679426477323887e+03
-3.514988391509132271e+03
-4.206970055368578869e+03
-4.153683326983765255e+03
-4.410163639111764496e+03
-4.667428594113739564e+03
-5.176475481788837897e+03
-5.228342548615063606e+03
-4.457005528320500161e+03
-4.779404332170063753e+03
-5.041459646289215016e+03
-4.693313145068430458e+03
-4.052001932734070579e+03
-2.021476858879016845e+03
-1.437727179765127403e+03
-3.035749730908425136e+03
-1.752431409693977912e+03
-1.672747446727295255e+03
-1.894906798876400671e+03
-2.782773690990845353e+03
-3.214340185195464528e+03
-3.062584031220237193e+03
-3.497513471194934027e+03
-3.913110414358508933e+03
-2.675382325068066166e+03
1.376612633305631732e+02
1.132013358026636070e+03
1.272698030689330380e+03
1.012752241300612582e+03
1.154156222169240891e+03
1.035950676377682839e+03
1.225111574712504080e+03
1.475675988388976293e+03
1.859679563441643722e+03
2.221172408718506176e+03
2.355207012882117397e+03
2.265807747255797494e+03
2.631994258972084026e+03
2.940771252451323562e+03
2.943148511535093803e+03
2.598180727814836246e+03
2.349861730015827106e+03
2.285230990773963185e+03
1.678317887993746808e+03
1.147150768502461005e+03
4.577571886222108901e+02
3.691185217654267490e+02
5.402309605032357922e+02
8.612900596649583917e+01
-2.241603156699694068e+02
3.184241240143720688e+02
6.978965002286657864e+02
5.793417790647283709e+02
9.378003703428697690e+02
9.482790250827644059e+02
1.358796788255723413e+03
1.513435820393388667e+03
1.692259089237996704e+03
1.878251746919146626e+03
1.945424554691779576e+03
1.604860044884188483e+03
1.284587128242508015e+03
9.365835790215759289e+02
5.428254640256087669e+02
1.727085239252156157e+01
-1.638065800831048477e+02
-3.143767685442743414e+02
-5.693815054032316993e+02
-8.947657765997806791e+02
-3.333619458082526421e+02
-2.100692922826078188e+02
-4.830313208635445221e+02
-9.372275362249782802e+02
-3.346845661590422765e+02
-9.335787957565483453e+01
7.168231131091927466e+01
4.914672461041777751e+02
6.301158874313186971e+02
8.414256597309607741e+02
6.964658610414576287e+02
4.174844928554097692e+02
1.293328665086976059e+02
-4.190030784413048082e+02
-4.375186422511839055e+02
-7.291989006760220491e+02
-9.570809280899188707e+02
-1.176152410723470894e+03
-8.203518196044265096e+02
-5.827287699273175576e+02
-8.643004978019212103e+02
-9.490667612870759058e+02
-1.044961815115974332e+03
-5.559506418791941087e+02
-3.050017908879634092e+02
3.085011131845774202e+01
1.726061700159684449e+02
2.742561819509033967e+02
5.178801117798665246e+02
7.024863770259053126e+02
9.980955288076053193e+02
1.068665893255042192e+03
7.482120414204509871e+02
5.587566467285879526e+02
4.003397650988685541e+02
-2.801111634772848902e+02
-7.065982088440455300e+02
-8.991433272800081795e+02
-9.138189729993874835e+02
-1.400557217029012918e+03
-1.429375027213032354e+03
-1.293350517648316099e+03
-1.121496203354867475e+03
-8.997799117846705030e+02
-7.541752541110701031e+02
-1.827240112258789964e+02
3.446121329518053926e+02
4.628296279464277632e+02
5.098889318185912884e+02
1.728011404877782127e+02
2.735621507664178580e+02
-4.793075176933505332e+01
4.632074599267394888e+01
5.073790965827071204e+02
4.711645070016161299e+02
1.956292572868015611e+02
-1.406234152724159003e+03
-2.796468441603931296e+03
-3.279147379689536592e+03
-8.203017182592030849e+02
-4.819636042730578538e+02
-4.571262247110623207e+02
-1.882969166703180974e+01
2.049234609324911105e+02
5.171411952570045969e+02
9.427889381836297389e+02
9.108084079165254252e+02
8.871830465524458305e+02
8.229324750114346898e+02
1.435015400113797568e+03
1.409436833896244025e+03
8.833791473578530713e+02
1.084761048060309804e+03
1.075254467779448078e+03
9.209306214332787022e+02
5.167690369452601544e+02
-2.366597448758032129e+00
-2.675156417076054254e+02
-2.197037995855314705e+02
-3.317790550430273697e+02
-1.668600144569962538e+02
-1.240745633130759416e+02
-2.827410436498134416e+01
5.850683946027774027e+02
7.334660766447523201e+02
6.285192348418195252e+02
8.165293063926850436e+02
1.174269413252900904e+03
1.425689377772611351e+03
1.406805310441666506e+03
1.675816367589581887e+03
1.588656984336058258e+03
1.544969551282127668e+03
1.493791060637039436e+03
1.591122159478163667e+03
1.092905532131305108e+03
6.991694505963212123e+02
2.079335238393139775e+02
2.129536187545210169e+02
-1.079698703317970043e+01
5.724592021558910915e+01
3.383931068201086418e+02
4.815870356835150687e+02
8.742193781375842718e+02
1.044110837391273662e+03
1.406125593961836103e+03
1.689319513150555849e+03
2.261673121634573818e+03
2.597373864137821329e+03
2.660982769538250523e+03
2.444857062523955392e+03
2.495754338089956491e+03
2.418779342969839945e+03
2.154975967829327146e+03
1.672261527183340604e+03
1.477559255704824182e+03
1.221845049781357829e+03
6.900717843547259918e+02
6.242468357941157819e+02
5.943476990854846918e+02
8.473427470935733936e+02
8.732490639924440075e+02
1.770324867678701821e+02
-1.110295186270202066e+03
-3.398683695673206785e+03
-4.474130792105422188e+03
-4.172619693089511202e+03
-4.035159999940229227e+03
-3.349748311917772298e+03
-3.355347894301152792e+03
-3.164983918576222550e+03
-2.690635678443215511e+03
-3.158228202089637762e+03
-3.448826102428726244e+03
-3.071349160751425188e+03
-3.576865998211555507e+03
-4.056372053279914780e+03
-3.830873959608637506e+03
-2.395373703729935187e+03
-2.229913821926456421e+03
-3.858428924820036173e+03
-3.942919899830447775e+03
-3.817344300874292912e+03
-3.529684604430607578e+03
-3.451911725765936808e+03
-3.335982270790695111e+03
-3.136879493650639233e+03
-2.925577997973278343e+03
-2.437078676788587472e+03
-2.629335187080229844e+03
-2.599318867465893163e+03
-2.390967660110750330e+03
-1.550271178773435167e+03
1.735770191524288748e+03
1.648231276025169791e+03
-9.268970099106364842e+02
-3.421641386688636430e+03
-3.907965304562572783e+03
-3.877880768725877715e+03
-3.742334495818743562e+03
-2.388290719646274738e+03
8.002494589114418204e+02
1.709290727564493409e+03
2.342913686685540597e+03
2.904170494431190036e+03
3.038081896283329115e+03
3.049680626209644743e+03
3.079970958052258084e+03
3.171032650287231718e+03
3.756917720875570467e+03
3.818697975092482011e+03
3.544449072609539144e+03
3.260093678471829662e+03
2.557703692961627439e+03
2.455299340378398938e+03
1.946880057983734332e+03
1.758449951589151169e+03
1.544052382349627806e+03
1.103728981563178650e+03
1.188457956360120079e+03
1.028255788045315740e+03
7.041887670489961693e+02
6.752724860787186572e+02
9.225610044915340495e+02
1.225042496143742028e+03
1.593744603434880901e+03
2.040766184178268759e+03
2.383462619196092419e+03
2.678793679810184585e+03
2.862749199924246113e+03
2.781400620814516060e+03
2.719742420138074976e+03
2.344816957608687972e+03
1.966617729859557585e+03
1.303200918433325569e+03
8.845039480090430288e+02
8.804655335826367946e+02
5.141476594927913766e+02
-2.343511377010196028e+01
-1.124103391362574911e+01
1.428006870783349882e+02
5.029179895595869709e+01
1.333864109861393388e+02
2.983751006114172242e+02
5.791338790113338746e+02
8.048202566058466800e+02
1.024373324493203882e+03
1.239714320273480780e+03
1.433809463171884772e+03
1.354728035185324416e+03
1.576547648090956500e+03
1.501320438371350747e+03
1.354034482069479736e+03
1.172484897082653106e+03
9.125496185875081210e+02
5.702249460625395159e+02
9.455927051836812325e+01
3.249877986848154876e+01
-2.009392844731900141e+02
-6.827986144402954096e+02
-6.680757981665576608e+02
-6.168227859055506315e+02
-2.490315910622301487e+02
1.703544812919597291e+02
5.103430535210689527e+02
4.938945778625995899e+02
5.210049767293622835e+02
1.132707824264618239e+03
1.142999232786580933e+03
1.113863884774429380e+03
1.215299645054782559e+03
1.298315318402362664e+03
1.358886578537384594e+03
1.191035992922476453e+03
6.876965558398966323e+02
1.968388906924610069e+02
-3.265122128274774127e+02
-5.883670513637795239e+02
-9.868364651258933691e+02
-1.074927316850868465e+03
-9.336290460893775389e+02
-6.699988263246700626e+02
-7.370096249184491626e+02
-6.936924057337116665e+02
-8.901164089461381934e+01
2.639986648726757039e+02
2.143087084662502946e+02
4.349088934111109666e+02
4.388315165402705702e+02
-4.129209812085347835e+02
-2.067385001674444538e+03
-4.649574501676727778e+03
-4.806488522827812631e+03
-4.909166637242027718e+03
-4.472643757120666123e+03
-4.773927729091963556e+03
-5.269032669422465005e+03
-4.999091487065577894e+03
-5.250072969066338374e+03
-5.479964356400289034e+03
-5.798740776066728358e+03
-6.068509281280292271e+03
-4.625261591472311920e+03
-2.482003416589764129e+03
-2.527972014798506564e+02
-9.555987345723343651e+02
-1.206444189972706909e+03
9.956747189575886523e+02
1.555756826051083408e+03
1.877787676336521145e+03
2.090788135648121624e+03
2.297722501847608328e+03
2.100580143942635459e+03
1.597312850618830225e+03
1.720945564368411397e+03
1.463455951458595337e+03
8.837895668004734944e+02
4.369014446658462134e+02
1.617561187402708356e+02
4.382414136922922587e+00
2.237351623649753378e+02
2.087920964547358551e+02
4.165285687126819312e+02
2.889836228704523364e+02
4.832095375081621569e+02
8.591829018551421768e+02
1.030884886691411793e+03
9.462683832858733695e+02
1.047344111104615422e+03
1.107167971271003125e+03
1.644716074082536124e+03
1.497971358229542375e+03
1.456972620805754332e+03
1.396723056502193685e+03
9.252095446344412721e+02
1.137397239786059345e+03
1.384285731325127699e+03
8.828596250993216472e+02
-6.587323886003470363e+01
-5.619550277887663015e+02
-5.583883430772410748e+02
-6.651453053079295614e+02
-3.802888811249304126e+02
2.282230805273532894e+02
4.084417380326096350e+02
7.573656625186873725e+02
1.301035614714635585e+03
9.124738358811472381e+02
9.457023883436087317e+02
1.639659637687686654e+03
2.003322023738445296e+03
1.672720607854223999e+03
1.657883928562790061e+03
1.521871966991278441e+03
1.182662838042406293e+03
7.453028976974003399e+02
2.969379352916577659e+02
-1.164843653305525208e+02
-4.111320252938472208e+02
-4.570079668754977433e+02
-3.011006915800821844e+02
-1.024258318819397431e+02
-5.398618339959124057e+01
-1.566548015607945956e+02
-7.242837640229623730e+01
2.707060735717732882e+02
7.837325247113820978e+02
9.756948768502228404e+02
1.262632341772540258e+03
1.560515332439005306e+03
1.635353710556765691e+03
1.269158283126095057e+03
-7.220190516387878006e+02
-1.816154060228428079e+03
-2.268251378366435347e+03
-4.953345176114236210e+02
-1.234399711857890225e+03
-1.059452948562044185e+03
-3.144675542567366051e+02
-2.665435117428037756e+03
-1.465402171195379879e+03
-3.563334098537523914e+03
-2.101186861946841418e+03
-2.795886690600212532e+01
