2.375197320022907206e+03
2.820945650144376941e+03
3.200343458376438775e+03
3.608378426163544646e+03
3.569094399076847822e+03
3.399565858699754244e+03
3.781922802076037897e+03
4.099152028027640881e+03
4.082288058374234424e+03
3.557384241131443105e+03
2.770513349257266327e+03
2.248758547726565212e+03
1.560036843635664354e+03
5.654007593389134172e+02
5.369439458433641903e+02
7.764032557516011934e+01
-7.104251237430635229e+02
4.378054570011301507e+02
6.553356897429222272e+02
6.221564901621875379e+02
8.952953250413027035e+02
8.987683591037643964e+02
1.724929849981898315e+03
2.134929704208723706e+03
2.057885755325779428e+03
2.058761255185670507e+03
2.056612397940233677e+03
2.279578579405852452e+03
2.333711951070120904e+03
2.141988306300964268e+03
2.034503033364609564e+03
1.305392505366899741e+03
3.488315785752354259e+02
8.194233016193661001e+01
-5.183655142976024308e+02
-1.370000121095004260e+03
-8.003793999999948028e+02
-5.864386614427211271e+02
-5.150041880761646098e+02
-2.211858685132493179e+02
-3.848801812704939493e+02
-2.747066435853610642e+02
1.428961129463869213e+02
4.295345300077297566e+02
4.344453051570732782e+02
4.946995015879488165e+02
1.090331677334973392e+03
1.442477998410680129e+03
1.597073896405857113e+03
1.130125082680586274e+03
4.426367328205801073e+02
1.567187690882570017e+01
-1.978894866086759805e+02
-4.430464031173804074e+02
-1.007769476408898981e+03
-1.467095298745406581e+03
-1.746969114236141422e+03
-1.375403717939577064e+03
-1.107530011603150569e+03
-1.080289996776951739e+03
-9.926811586766534674e+02
-1.198649064450125252e+03
-2.671627558163733624e+02
1.457692215631624322e+02
1.713138614833961171e+01
2.459059710904762710e+02
4.801211116979792450e+02
7.648109303355696511e+02
7.388800013252894132e+02
5.493170124469760367e+02
4.831169861523599138e+02
7.285036616452789993e+00
-2.462260814709741226e+02
-5.545015512475140440e+02
-1.092539748756795234e+03
-1.139401804977174606e+03
-1.271136209490468900e+03
-1.404761918417681500e+03
-1.763361925753821652e+03
-1.401963951981530727e+03
-1.203628339451572629e+03
-1.021253180530378813e+03
-1.575337883411098616e+01
-2.297274111719571632e+00
-1.848889024932141410e+03
-4.688599456535021091e+03
-7.797420960682653458e+03
-7.565314176250802120e+03
-7.788384995845683989e+03
-6.684695748073512732e+03
-1.066312801887398564e+03
3.147618311603323491e+02
4.055018447320955488e+02
-3.571645588787220049e+02
-4.913487673235427451e+02
-1.591173439866004401e+03
-2.377546085896583008e+03
-1.348396418020747205e+03
-2.740426737606802590e+02
2.151960234215040302e+01
1.723168104711640467e+02
4.503814130242810165e+02
1.138630389689757067e+03
1.831985187055127653e+03
1.844414678336000861e+03
1.632941049947349256e+03
2.265507274281485024e+03
2.980121366800925898e+03
2.699704239567995955e+03
2.396201555611042750e+03
1.841475416185867516e+03
1.162532248448622568e+03
9.564535462401836412e+02
-3.696415599127855245e+01
3.161803307910667513e+02
5.979180226811207604e+02
1.371489954997441885e+02
9.185304454794852802e+01
4.620235184076825590e+02
8.416177110877309815e+02
8.935441131804536781e+02
8.798769642056269049e+02
1.851625433937695334e+03
2.199677194512265032e+03
2.446932422389299063e+03
3.033449510142310828e+03
3.252209433810938208e+03
3.269238206997759335e+03
3.269432005823486634e+03
3.372760087559953263e+03
3.261228663395633703e+03
2.493808252581479337e+03
2.263515648348891318e+03
1.585230556360087576e+03
7.718935407909277728e+02
-6.950636813718777773e+01
2.519766517792224931e+02
5.003560080363529892e+02
5.995655671422382511e+02
9.665812667950968944e+02
1.341362590390397372e+03
1.456006304387065029e+03
1.840571854195726701e+03
2.638000237187669427e+03
3.155306897226521414e+03
3.182405547686344107e+03
3.242333791220801686e+03
3.774232082269697912e+03
3.109984533492326591e+03
2.742519403184999192e+03
2.619931474087139577e+03
2.355247767098188888e+03
2.375384934905434420e+03
1.755330021126472502e+03
1.036096468275532743e+03
1.067660061319101942e+03
6.589881039091928869e+02
4.351490177520254292e+02
3.961372875646401894e+02
5.649274566742722072e+02
-2.245510040555424496e+02
-2.294205533546184142e+03
-5.795803568054528114e+03
-7.130435314790696793e+03
-6.411148279769983674e+03
-5.781962352742745679e+03
-5.619826326267756485e+03
-4.891594051465986922e+03
-4.810278613450515877e+03
-5.036927831748645076e+03
-5.400479585874113582e+03
-5.577931673630366276e+03
-5.759229922947176419e+03
-6.462390662599016650e+03
-6.182455949143534781e+03
-5.977414557870256431e+03
-3.159237313051007732e+03
-4.556894089720951342e+03
-6.991342420933819085e+03
-6.634584255487165137e+03
-6.078541394560686967e+03
-6.178209298961534842e+03
-5.427507248300842548e+03
-4.901395890715341920e+03
-4.057849477297038902e+03
-3.458784987963227650e+03
-3.461203324269052246e+03
-3.327042504235620072e+03
-3.546294849019917365e+03
-3.931912869236339702e+03
-3.268860667122021368e+03
-4.801070258561201740e+02
-4.610572794117660123e+03
-1.278265452804023653e+03
-3.043101362109812271e+02
1.301341772288267293e+03
2.265719596776390063e+03
3.125882164069081227e+03
3.325805599869052458e+03
3.077550214896183206e+03
2.864148689196105806e+03
2.809653070503261006e+03
3.702176910989966018e+03
4.150748705599119603e+03
4.280371414194740282e+03
4.264059642577914019e+03
4.602866815755790412e+03
5.007854744016056429e+03
4.984004459891332772e+03
4.837334359804796804e+03
4.336928622888531208e+03
3.691738951839000038e+03
3.234666117623490209e+03
2.720788721161030026e+03
2.316273129932109441e+03
1.140727417619800917e+03
1.193905940052901769e+03
1.671724925607086334e+03
1.916241336385902514e+03
1.951407077763128882e+03
2.333263411597301456e+03
2.389906901935719361e+03
2.515343539517534737e+03
2.589591331833790719e+03
2.481426650674479333e+03
3.192061352147670732e+03
3.661598063357938372e+03
3.719122361137041935e+03
3.986530273496835889e+03
3.933198862302373982e+03
3.249512833442556712e+03
2.635908981879801559e+03
1.949202478530080953e+03
1.761221866717441799e+03
1.800023641371002668e+03
1.023596083762306648e+03
4.728305597409583925e+02
3.297820150095025724e+02
5.254273732000518748e+02
7.547470830954633811e+02
1.462729190985464356e+03
1.673357685506295638e+03
1.806997600828547093e+03
2.306148702854601197e+03
2.434130558564086641e+03
2.716769276753707800e+03
2.875982897374234653e+03
3.039613090565988841e+03
2.891537306650294795e+03
2.748715297211929737e+03
2.401185161596943544e+03
2.033872784760887043e+03
1.405813483331595990e+03
1.131998090872804823e+03
7.863109966181914388e+02
-8.271821592605633100e+00
-1.195825453413265222e+03
-1.285275261930302349e+03
-3.066995620344861209e+02
1.529016084146775825e+02
3.484675442466940467e+02
4.599905602517583247e+02
8.405815598861056515e+02
1.341213625981635460e+03
1.642827939455399928e+03
1.616377939625852378e+03
1.908900376542092090e+03
2.441455816533663437e+03
2.211985587009907704e+03
1.930450088045611892e+03
1.777835527439165844e+03
1.051107527414332026e+03
6.003194336266199116e+02
3.154185684153837883e+02
4.220057146639901902e+01
-1.560284956983947723e+03
-4.305059288950196787e+03
-8.614093967102706301e+03
-9.754412677660940972e+03
-9.308116678073087314e+03
-8.360160850997668604e+03
-8.419515678393667258e+03
-8.337230189153249739e+03
-7.247257404840256640e+03
-6.795598448676288172e+03
-6.594277918245171350e+03
-5.756320461043442265e+03
-5.716806676678044823e+03
-5.401710201883281115e+03
-5.325639198309914718e+03
-4.958870310071646600e+03
-2.181441752739895492e+03
-4.539292244011488037e+03
-6.980593891817196891e+03
-7.636362351470007525e+03
-6.684574891622232826e+03
-3.055271690403511457e+03
4.445966480806808931e+02
1.219029482219024885e+03
1.229957661349619912e+03
1.305404547789614753e+03
1.194416665315269711e+03
1.512993530165131460e+03
2.565116615717055083e+03
2.819808427699289950e+03
2.789082298186489425e+03
2.924983090818626806e+03
3.237597444182540130e+03
3.219902235390040005e+03
3.107888406576882971e+03
3.292488425523434671e+03
2.677773269355267985e+03
2.191806566616610780e+03
1.683557419115898483e+03
9.839547358945546875e+02
5.790211246003781298e+02
-1.572136355819733353e+02
-4.757666685075578812e+02
2.543379406960002598e+01
5.742977659510701187e+02
6.038805789787583080e+02
7.662387472643596311e+02
1.085463926625312297e+03
1.635638239221195818e+03
1.877717655556439240e+03
1.997722096388716636e+03
2.059662766760487102e+03
2.555631261755969717e+03
2.509679540319072657e+03
2.060744553069821905e+03
2.001839331900850311e+03
1.805009030647079726e+03
1.508303106271820070e+03
1.066721018799340300e+03
3.532815712231356997e+02
-4.379697729936866608e+02
-1.709052493130694529e+03
-1.769937953363031056e+03
-5.626047644559397440e+02
-6.950953508288558851e+02
-2.583046924796154258e+02
-2.040319712053681371e+02
-2.801656554904500354e+02
5.773597950180785574e+02
1.284354275385759138e+03
1.324217881023432483e+03
1.016849701806724852e+03
1.258889745233616395e+03
1.437948374882031658e+03
1.373860836762638655e+03
5.744476564810958052e+02
-4.693575975282664103e+02
-1.207394372025970824e+03
-4.976445172925105567e+02
-8.512852537255482730e+02
-1.425302679549862887e+03
-1.783675970453537730e+03
-1.255348695837872583e+03
-9.812994161489340286e+02
-8.675067707518979887e+02
-7.049754680193121885e+02
-4.706269801513959692e+02
-2.483611825686261056e+02
3.577542310787576980e+02
7.467205285293923680e+02
9.956429048789004810e+02
5.705037115753760872e+02
6.243560165634453369e+02
1.120319313845221814e+03
9.853045050780719976e+02
8.734241202290061210e+02
4.415600384993457510e+02
-1.183063142619749328e+02
-7.140699958681323096e+02
-6.088065195019322573e+02
-9.085627536002110674e+02
-1.943324268236030548e+03
-1.729077297211202676e+03
-1.443779628049719349e+03
-8.675277967637122174e+02
-8.682461096779545642e+02
-7.579322352256907607e+02
-3.786215705517409447e+02
5.217408971800990685e+02
8.341663307714890152e+02
6.176776661113325417e+02
8.202493270851334728e+02
9.718783466046312469e+02
1.003632250546073465e+03
1.279435868056836853e+03
1.089349422918438904e+03
6.513815435625051578e+02
3.594819017889633983e+02
1.955492369865451678e+02
-1.804584101295047844e+02
-9.385620912328051872e+02
-2.261788484283946218e+03
-2.064168332030744750e+03
-1.465698008460092069e+03
-1.058438442199208339e+03
-4.744531594624727404e+02
-5.757439844295860212e+02
-7.723541306105108788e+02
5.209184538351203173e+02
9.399432836943543634e+02
3.597142674886395639e+02
5.391930449713962616e+02
1.403289910066818265e+03
1.544029200107351699e+03
1.270397825647393120e+03
1.198359730171177489e+03
9.758519958475102385e+02
5.518266935726627480e+02
2.642522641245821546e+02
2.170813283107709140e+02
2.925442287175297551e+01
-1.877353283365788229e+03
-2.525788529806994120e+03
-8.220165125618731281e+02
8.928879744471561253e+01
2.702135131605183460e+02
2.246117219259303113e+02
2.223462213162327714e+02
9.574553961866801046e+02
1.521850651401851565e+03
1.685554737133130175e+03
2.035481366598594605e+03
1.900569700471367014e+03
2.207864686974477536e+03
2.636308357967967368e+03
2.581747932784935074e+03
2.061161676021878520e+03
1.517736713766327512e+03
7.367428578920084874e+02
5.763110314058250196e+02
1.537670042905470780e+02
-1.061636513538538793e+02
-2.375196355976679570e+02
-1.129002746373895683e+01
3.604272356709716405e+02
6.256098750287793564e+02
9.651419769794126751e+02
1.254999170102445987e+03
1.752250174129115976e+03
2.126792260190183242e+03
2.416595004125435935e+03
2.246699275854015013e+03
2.528136694187056037e+03
2.977291451874219547e+03
3.054627505675276552e+03
2.846933838458296577e+03
2.489273065036190019e+03
2.057133240275058597e+03
2.049441194924731008e+03
1.566244313609299752e+03
1.068466116931004763e+03
1.330959325037214285e+02
-4.486267892541128788e+01
6.375759716465930751e+02
1.211214456905335510e+03
1.743092537369847378e+03
1.726210079241894164e+03
1.959596921381339371e+03
2.636234068362184189e+03
3.006091691066000749e+03
3.035131583944275008e+03
3.846380966852195343e+03
3.699850359516082790e+03
1.289559948073311034e+03
-2.108510131007593372e+03
-5.636371260611904290e+03
-5.392069805414278562e+03
-5.887517776581139515e+03
-6.373804678937735844e+03
-6.466970840493844662e+03
-6.942018311279387490e+03
-7.957960940324918738e+03
-7.723832859881421427e+03
-6.928600333626222891e+03
-6.035277639547818580e+03
-6.448807922735937609e+03
-6.197179644542930873e+03
-5.410407804535882860e+03
-2.785369900581674756e+03
-6.571273104977022967e+02
-3.935762790463737019e+03
-4.615833508025655647e+03
-3.976503448582122928e+03
-3.277715992276847828e+03
-3.653479789606257327e+03
-3.781838754880661327e+03
-3.591771162819716665e+03
-4.003155396693539387e+03
-4.475986915886280258e+03
-5.112294419514528272e+03
-5.334073832862579366e+03
-5.819287406724139146e+03
-6.558969957276911373e+03
-2.311035786212650237e+03
-1.752419236528739930e+03
-5.241114218509749662e+03
-3.931007048263307979e+02
3.155734537513681062e+03
4.569493121204661293e+03
4.914208533561381955e+03
5.107930528419337861e+03
5.542748282468603065e+03
4.513701926534425183e+03
4.311863360016572187e+03
5.235313408069785510e+03
5.041070917170100074e+03
4.766200868854869441e+03
3.744752497590770872e+03
3.559876862064736997e+03
3.095520245058377895e+03
2.854598173852638411e+03
2.106225635467729717e+03
8.624657491803204721e+02
1.001380307773393383e+03
1.754022689150138376e+03
2.201421821116899991e+03
2.062655382735303647e+03
2.064837690170623773e+03
2.774043006984045405e+03
3.255292498299835188e+03
3.245681573193325221e+03
2.749289393877179918e+03
2.880133300101012082e+03
3.601372583821080298e+03
3.527051377716916249e+03
3.020187974810929518e+03
2.547756165979590605e+03
1.660067508278692003e+03
1.605280881279026516e+03
1.195603550530756593e+03
5.028814715255751935e+02
2.259705509796899889e+02
2.577301454545987625e+01
-6.616118640547400673e+02
-6.570268021431094212e+02
-1.762557622606120447e+02
1.238029824971512767e+02
2.624282771590334207e+01
-1.075834615929783467e+03
-2.817521269665652653e+03
3.352069810240519701e+02
1.104450913583937790e+03
1.173258235013386184e+03
1.802483679728056131e+03
1.805482754232959223e+03
1.409351874730404916e+03
1.212019563245599102e+03
7.564934110399801739e+02
4.527142575589177795e+02
4.022989243524457947e+02
-2.227409087490056550e+02
-7.263032064388868321e+02
-9.863854342370011636e+02
-1.289975119010211301e+03
-1.293071874801601325e+03
-1.168684958158452901e+03
-1.045769934358063665e+03
-1.086306959495875162e+03
-3.981814302173635269e+02
1.686800026708653206e+02
7.971815432938556114e+02
3.753272386796658111e+02
2.361335299342602241e+02
8.026976741956956403e+02
1.010004160810100643e+03
8.120156319496130664e+02
6.697344468368817161e+02
4.781941686720994085e+02
-1.705765039439031341e+02
-5.606313013837449262e+02
-1.251048708724631751e+03
-2.017873506827002757e+03
-3.078080887632657323e+03
-3.011672035630397659e+03
-1.979675277471750405e+03
-1.504116793859723202e+03
-1.271005477990475811e+03
-1.395370625396059268e+03
-4.781633669474302906e+02
5.505849061441256254e+02
7.208566042939170302e+02
6.006772092396297467e+02
3.259515261323913933e+02
7.787001720318971820e+02
8.339198924106300410e+02
7.345747103020031545e+02
5.316868756414326072e+02
3.902061579539166587e+02
1.010982418869032671e+02
-3.547429379876991788e+02
-8.944953178123355428e+02
-1.489079274398222879e+03
-2.176574895970829402e+03
-3.738015212813279049e+03
-6.469440001497303456e+03
-9.886947334479691563e+03
-9.400556765765306409e+03
-9.056236413689743131e+03
-8.177008617224101727e+03
-2.276000036561197703e+03
1.270820671801913932e+03
1.736409885929419488e+03
1.546713737540973625e+03
1.986767410392276815e+03
2.528622096522349239e+03
2.377061959201432728e+03
2.398014754356194317e+03
1.683440941480508855e+03
1.126332527060736311e+03
5.685672212892271773e+02
4.191068152864323793e+02
1.485754506420234833e+01
-3.792791597736290896e+02
-4.334200149654114398e+01
9.659824848959085841e+01
2.754687412088307497e+02
6.752245463191363797e+02
5.238675865652317043e+02
4.134805468401430062e+02
1.449944688503844191e+03
1.658129198039597213e+03
2.297062577013773080e+03
2.649705385123893393e+03
2.683050849935727456e+03
3.250050162738660219e+03
3.145653777406312656e+03
2.733741759168047338e+03
2.438288214503201743e+03
1.860334115617364432e+03
1.590741095432667407e+03
1.032440071991523382e+03
8.603124440745019683e+02
6.103359826270731219e+02
2.575249324443923911e+02
3.047831140822220277e+02
3.460295717985908936e+02
7.542535066808216015e+02
1.096469074334371044e+03
1.326682445755391200e+03
1.838931611644012037e+03
1.989135619597717323e+03
2.578229092002233301e+03
3.277212004021143002e+03
3.376070752670083039e+03
3.509806932574743314e+03
3.329341806494182038e+03
2.943658864067039758e+03
2.720762101862799682e+03
2.406685997369933375e+03
2.149316917159897912e+03
1.635602698123153914e+03
1.028507821177343658e+03
4.429734411199027591e+02
-1.079974900373251785e+03
3.516919135071706251e+02
1.315819649709633040e+03
1.503435677940565256e+03
1.805695391301388327e+03
1.539573118658199064e+03
1.808003888257162771e+03
2.752006852535415874e+03
3.138606150964139943e+03
2.931794024299644661e+03
3.269602570898476642e+03
3.251084432518389349e+03
3.229163104660492991e+03
3.092804749196428475e+03
1.933011912769864693e+03
-8.629314490944891531e+02
-5.304131843944339380e+03
-8.168821584656009691e+03
-8.258968491540919786e+03
-7.634550380605721330e+03
-8.108524200298832511e+03
-7.927872186045381568e+03
-7.561605206940456810e+03
-6.704695793815152683e+03
-6.566083978172160641e+03
-6.847724522851366601e+03
-5.720545698870819251e+03
-4.456600050692871264e+03
-5.081849591135919582e+03
-4.418228528744622963e+03
-4.665804766191459407e+01
-9.290869766569054491e+02
-4.035486867178247849e+03
-4.305871474396598387e+03
-5.086210605988488169e+03
-5.575477183504621280e+03
-6.014662419420639708e+03
-6.244807050158889069e+03
-6.234862940253195120e+03
-6.671791801446471254e+03
-6.986586119754722858e+03
-6.315191298949631346e+03
-6.123579823782298263e+03
-6.090730965678875691e+03
-5.077577250324318811e+03
-1.385045911101552292e+03
-2.065101820659301666e+03
-3.624704297022086848e+03
3.171576193639921826e+02
4.951553999205925720e+03
5.158560527551662744e+03
4.600269187978567061e+03
5.304645725190620396e+03
5.038734269446967119e+03
4.532593246433047170e+03
4.393366796898537359e+03
4.617971484458493251e+03
3.655311005908254174e+03
3.097444600663685378e+03
2.470381323966483706e+03
2.295193224964569708e+03
2.567907440031780425e+03
2.969518341662856528e+03
2.763083626026915681e+03
2.974683323538874902e+03
3.121257023640132502e+03
3.470052219685998807e+03
3.860104473656985647e+03
4.147536836243208199e+03
3.960488701301756919e+03
4.006038595539794187e+03
4.078317095518115821e+03
4.213357093971326321e+03
4.238144090508746558e+03
3.873702269659792819e+03
3.330092503992266302e+03
2.752260970195065511e+03
1.798139908381647047e+03
1.235758178047354022e+03
2.921411207385082776e+02
-3.267786742427229569e+02
3.470258140665461610e+02
-3.434243323570235020e+02
-2.479199169217002691e+03
6.257058264871858455e+02
1.062513241078252577e+03
1.996185529763092745e+03
2.431693364966731224e+03
2.402118027196806906e+03
2.513485764557907714e+03
2.976763689494190658e+03
3.258013765056488865e+03
3.098199658765267031e+03
2.860333622299914168e+03
2.699393618278518716e+03
2.127366313767348856e+03
1.647307106354725647e+03
1.358985070304297778e+03
9.672782044264916976e+02
-2.286687395963161009e+02
-5.492413930522479859e+02
-2.381196254445642353e+02
-3.758353872207413904e-01
-4.417402754129255982e+01
4.334170454569186290e+02
5.814252698124900007e+02
9.399711944138902027e+02
1.377972719407050590e+03
1.719323771028442025e+03
2.165068120953709695e+03
1.995191211466318919e+03
2.464809683783279070e+03
2.560811599976050275e+03
2.002176026279701546e+03
1.783879349928463398e+03
1.401942639903096506e+03
9.303895433874475884e+02
6.420901229500981344e+02
1.079552718460251270e+02
-4.150040379553157095e+02
-6.177596037923409540e+02
-2.553408055644611920e+02
5.116947846357194862e+01
1.507782760692242618e+02
4.375069921696861570e+02
2.783821794655947883e+02
7.693993909758545442e+02
1.348493775133412100e+03
1.613683388378999553e+03
6.689524060841733899e+02
1.413274340133070382e+03
1.962757514394083728e+03
2.114273256824837517e+03
2.132838127162706314e+03
1.050468004864310842e+03
-1.712917866266131341e+03
-5.579294764159250008e+03
-8.848664804834543247e+03
-9.304133978295112684e+03
-9.618769159532108461e+03
-9.548563237382604711e+03
-7.753536734280142809e+03
-8.229581331524257621e+03
-8.772618493809575739e+03
-8.839082806281325247e+03
-8.430793636108399369e+03
-7.387584711699826585e+03
-7.187579187366879523e+03
-6.861786061757598873e+03
-6.401164741254268847e+03
-4.242754360199510302e+03
1.064544302513545972e+03
2.864658504758222080e+03
2.528533832046791758e+03
2.487194432351672731e+03
2.223622442038916233e+03
1.529831785073613219e+03
8.607963249423386287e+02
6.244925816037500681e+02
-1.109479906477962530e+01
-1.090985500168157614e+03
-8.251551023103936586e+02
6.753569018906198380e+02
7.045154564379358817e+02
5.283346182908341007e+02
7.749584488569279301e+02
1.459402618358074051e+03
2.045589464959422457e+03
2.056558459504557504e+03
1.709330368993402544e+03
1.962903295180083433e+03
2.233317777652890527e+03
2.213630628625875943e+03
2.128790700905363337e+03
1.722844812107997541e+03
1.222836516614935590e+03
9.278106177520431856e+02
5.906827049729320152e+02
3.943490928921140153e+02
2.387388629009792496e+01
-7.087414536516469070e+02
-6.904220676048923906e+02
-2.352335865472195167e+02
-1.231785020680191280e+02
2.208261269482309217e+02
1.783977311135186383e+01
2.709541567912102664e+02
7.981438107109148632e+02
1.136450043533968028e+03
1.909908207632466656e+03
2.378504651412918065e+03
2.167320489341738721e+03
2.091391604285820449e+03
1.588751872780516351e+03
1.338409918556193134e+03
1.145238697427603711e+03
6.672792329842397976e+02
-5.929092920575081394e+01
-6.170454205315127183e+02
-9.168576797869798156e+02
-8.329800024411154027e+02
-8.263405712703203108e+02
-1.389948612433056496e+03
-9.811536830215461578e+02
-6.576511089324535533e+02
-1.301635663844486089e+03
-1.460080091597888895e+03
-8.783623220749996108e+01
9.280144825971327691e+02
7.834688297723170081e+02
3.925324577695571975e+02
6.563105537209233944e+02
1.028831543412091150e+03
1.574099317457734969e+03
1.569065617964496369e+03
9.977930782763814932e+02
6.142664431312919078e+02
-9.454103424417542101e+01
-7.556081074283298449e+02
-1.620892129871328962e+03
-2.037424596893885109e+03
-1.419169311784854244e+03
-1.137108602094358957e+03
-1.379308045472066169e+03
-1.219719242455901622e+03
-8.883422167918630521e+02
-2.930287294546552630e+02
1.752746254273050397e+02
5.464576163800064705e+02
6.945561726353815857e+02
7.066089735126149662e+02
9.696394495021619377e+02
1.261713894520255053e+03
1.450747659993972320e+03
1.063728396339450910e+03
2.876202857885434696e+02
2.445049842291272455e+02
-2.585578145167215212e+02
-7.496876686958391929e+02
-1.501920750056365250e+03
-2.354327865544848464e+03
-2.403874286044571818e+03
-1.439537931741544980e+03
-1.035407189295404805e+03
-7.094171038041787369e+02
-3.876521898408793163e+02
-1.470838296536859673e+02
6.363739910503778674e+02
9.446338072110147550e+02
1.133717665253176847e+03
1.167613779827514691e+03
1.080324368901046455e+03
1.174864455974448674e+03
1.398171910935409869e+03
1.360226467493953578e+03
1.029994028014462629e+03
4.684909324093125065e+02
1.917636445616146545e+02
-4.194838022574543288e+02
-1.442206679105540616e+03
-1.567431476405748526e+03
-1.237234780624041605e+03
-7.835704201995398535e+02
-5.755049114225123503e+02
-4.541529986413115694e+02
-2.615298032437273150e+02
1.974636182400111863e+02
1.179770578776025559e+03
1.297339770496417714e+03
1.078097265149977375e+03
5.119174153874600961e+02
1.542808818286568112e+03
2.228060261990957770e+03
2.398020093356918551e+03
2.400598397291846595e+03
1.846612974743203267e+03
1.283885272361737862e+03
5.934640787313308010e+02
2.052245845565958859e+02
-2.079039598015206707e+02
-5.499495766587747312e+02
-3.959685937069566535e+02
-3.897724947954488073e+01
-2.121366691474429160e+02
-3.748996573332908611e+01
2.352684427307567887e+02
6.917148473825799329e+02
1.407192251735483524e+03
1.835346722786031023e+03
2.307382585015573113e+03
2.519051859145375147e+03
2.813391270888278541e+03
2.943300059408052221e+03
2.453702144588597093e+03
2.291567273336073868e+03
2.112835259716689961e+03
1.647463349435435703e+03
1.353381053566242144e+03
1.189438168604498742e+03
7.156651326771783488e+02
5.312102121088221338e+02
2.785246560707666958e+02
4.223363323922841914e+02
9.311243301280454716e+02
8.198515784425019319e+02
7.733185673568090124e+02
9.845634804115401266e+02
1.832334838283490399e+03
2.277552682672741867e+03
2.321171838977019434e+03
2.516223372138456398e+03
3.633700820994196874e+03
4.024495511193907987e+03
3.650500734994524919e+03
3.580825818468922989e+03
3.217491609208407226e+03
2.729460209458622103e+03
2.289612560502639099e+03
1.755895605812030453e+03
1.193282161080591322e+03
7.868094923309944306e+02
-1.335894750319005482e+02
8.080621338888333867e+02
-9.432768202037780156e+02
-3.919566376275997300e+03
-7.416715037848527572e+03
-7.427685967245011852e+03
-6.838522686115696160e+03
-6.137254058713958329e+03
-5.460932707329367076e+03
-5.109498165112866445e+03
-4.935888622514409690e+03
-4.495102743444039334e+03
-4.409146697540490095e+03
-3.771925475503368034e+03
-4.254560897109223333e+03
-5.382072401269564580e+03
-5.908047016939719470e+03
-3.864800327826658759e+03
-2.293277273001361664e+03
-6.777247025688921894e+03
-7.122122101226943414e+03
-6.778730266114743245e+03
-6.639103526856930330e+03
-6.570173071277743475e+03
-5.988768399464195682e+03
-5.421895604893074960e+03
-4.546543662694226441e+03
-4.175691834716682934e+03
-3.867283140904032734e+03
-3.417277078924337729e+03
-3.386551118655387654e+03
-2.928102184146537184e+03
6.320684657152506816e+02
6.601042092186487764e+01
-3.513096568950184519e+03
-3.953211468020133907e+03
1.186200039125862986e+02
2.784443327630519434e+03
3.018250120444544336e+03
2.374122676391782989e+03
2.488100603457458874e+03
2.823230682160668039e+03
3.004529707101401982e+03
3.284052908690681761e+03
3.335950363549121448e+03
3.248289597408394911e+03
4.042147644937261248e+03
4.455505212781619775e+03
4.534474032978050673e+03
4.720156259756521649e+03
4.832619975594337120e+03
4.761884012083957714e+03
4.488021417697460492e+03
3.975093922480167294e+03
3.617214370983084791e+03
3.254413681218302372e+03
2.801706567058904511e+03
2.218095918572770643e+03
1.784653920560635243e+03
1.341438411550712317e+03
8.145002481300467707e+02
1.023943304078967685e+03
1.441766731392757265e+03
1.730160284031138190e+03
1.579053045401948793e+03
1.174796501764735012e+03
1.862218957039534644e+03
1.969342378546258260e+03
2.176259023524213717e+03
2.489982431636909951e+03
2.338625778257123784e+03
2.826354313446618562e+03
3.037364750370735237e+03
2.737053735472573862e+03
2.269270070342155577e+03
1.953077020086945140e+03
1.072518173346118601e+03
4.384095334159961226e+02
-1.511097149709196401e+02
-1.269941200053844796e+03
-1.999016914404748604e+03
-9.863706796325391224e+02
-5.669836475223686421e+02
-6.187872472209938906e+02
-4.567316502098941555e+02
-5.477242223051810015e+02
5.373107719601297276e+02
1.060807014028996718e+03
1.296850177086372014e+03
1.309557772825675329e+03
1.131958459935614428e+03
1.363056133335360755e+03
1.222887358220237047e+03
1.060488114721723377e+03
8.398103351914447785e+02
3.319500905083385192e+02
-1.280661748484448026e+02
-3.783488369889910246e+02
-1.199025789185701797e+03
-1.859975101348310545e+03
-1.841175076318836545e+03
-1.432663382458669048e+03
-1.272479755169666305e+03
-8.906014659164694649e+02
-6.800112209132645376e+02
-5.625295323952902891e+02
-6.923847830443136786e+01
5.998241025370988382e+02
6.876431104887317360e+02
8.101873338504142339e+02
1.123521121352346427e+03
1.393625740711339631e+03
1.451418573429474918e+03
1.066915713780230362e+03
8.791298309155214383e+02
2.400332701572923497e+02
-1.423879668446745086e+02
-5.722453987191740907e+02
-1.045607041924230998e+03
-1.563490653286158704e+03
-2.024962389908973591e+03
-1.857998209039950552e+03
-1.511638933761644012e+03
-1.195905838173518077e+03
-8.188065668251595071e+02
-1.073435320591655000e+03
-5.698008833691545760e+02
-2.905322456594064295e+00
5.482050590435784443e+02
7.645144783695794786e+02
-1.455983485122300635e+03
-4.446377983409200169e+03
-7.484733590904922494e+03
-7.558010640670857356e+03
-7.912278364738298478e+03
-8.445625597422853389e+03
-8.495133046641989495e+03
-8.273891368560291085e+03
-6.730904322717029572e+03
-1.878277361372246105e+03
-1.772095419878600978e+03
-2.339267807835889471e+03
-5.128581221976381812e+02
5.489188901362394972e+02
7.760232690621618303e+02
9.726025590961539820e+02
1.481616726155924198e+03
2.216911934402433417e+03
2.743384986413731895e+03
2.773962802095624284e+03
3.072668023108647049e+03
2.848474618001228919e+03
2.725313406951351681e+03
2.467116921824444034e+03
2.604818760696256504e+03
2.419439955177652337e+03
1.883869859339953337e+03
1.229970093152837990e+03
6.507030693756204300e+02
-3.669728714010258273e+02
-1.281130554207792329e+03
-6.618226541038774258e+02
4.388694992607061067e+02
7.799005642085372756e+02
9.032648567131305981e+02
1.071917574022186272e+03
1.554856753700471700e+03
2.623049694908730089e+03
2.931383386643612084e+03
2.658810154755692565e+03
2.093379911662343602e+03
2.417107652842103562e+03
3.542869431204332614e+03
3.711662230416757666e+03
3.481413567238822452e+03
2.718139386043960258e+03
2.381821993538757397e+03
2.348337236957472214e+03
1.567585913066539206e+03
1.341554663817093569e+03
5.722474140390060029e+02
4.856120857014949479e+02
1.261645169629980273e+03
1.259205256614682867e+03
1.439385565056529003e+03
1.424227618223861327e+03
1.801685818353548711e+03
2.623755668903494552e+03
3.074420513355506046e+03
3.294620959495889565e+03
3.167405043300592297e+03
3.478784945059925576e+03
3.589732543740983147e+03
3.181262396389056448e+03
3.588335632339294079e+03
3.467944806678310670e+03
2.854040263793040594e+03
2.568633640246433970e+03
2.319721698850794837e+03
1.759320012214429198e+03
8.684375740971099731e+02
1.024092096152177646e+03
1.555282846589062274e+03
1.659920744550686550e+03
1.236114750276958375e+03
-7.840178991837683498e+02
-4.122445782664929538e+03
-6.143285415776242189e+03
-6.053525834554774519e+03
-5.960127305589137904e+03
-5.149017699415451716e+03
-5.169174144609368341e+03
-5.042567040742379504e+03
-5.333142998887843532e+03
-5.772896818943894687e+03
-5.316838922857774378e+03
-5.535970461023140160e+03
-5.868287025970028481e+03
-6.234777959804113380e+03
-6.132387446399201508e+03
-2.851095218507541631e+03
