-4.435609171693881194e+02
1.150556072179404623e+02
-1.231583404799585196e+03
-2.525463971210608179e+03
-3.098576710170163096e+03
-3.244894190583162981e+03
-2.876434069249066397e+03
-9.220267312168400053e+01
2.002833878013785124e+03
1.997711168395967206e+03
2.283436671788685544e+03
2.126015035376600736e+03
1.956444977629436607e+03
1.823769129949263061e+03
1.729130080498990765e+03
1.709515834437448575e+03
1.507632909370005791e+03
1.375682862459799935e+03
1.095152601637877069e+03
1.066939638499170542e+03
1.414772061671227675e+03
1.242597031394407168e+03
1.024537412402072732e+03
7.944996980357523171e+02
1.108032464549085944e+03
1.508330572591744840e+03
4.295448955267629572e+02
-2.539301687490034055e+03
3.947647942224569420e+02
1.406905834516172035e+03
1.177221215535768806e+03
1.324264401538855509e+03
-7.356695177143764113e+02
-3.782595494954959122e+03
-4.883374413508692555e+02
-3.985307528281571763e+02
-2.248627199549194302e+03
1.110952750568269778e+02
1.047815483509861906e+03
1.213951126280422386e+03
1.299348736097759911e+03
1.415025501723821435e+03
1.175590267616591973e+03
9.323611828257669458e+02
1.042731074475267860e+03
1.253487905985141424e+03
1.101548648661516154e+03
1.311591456447478322e+03
1.665570843460313199e+03
1.772781376354008216e+03
1.832380062556605026e+03
1.730119051920097945e+03
1.389782185025548642e+03
1.221547456620794037e+03
1.285302868765186076e+03
9.830133157949746874e+02
7.706824069085581641e+02
5.102932142887249256e+02
4.628356527902713538e+02
5.633136624615150367e+02
6.477491499064457230e+02
7.420960296423310183e+02
6.453425123503285477e+02
4.034979799326154080e+02
4.706001208063034369e+02
1.041630986646516931e+03
8.915739355628577414e+02
7.494535606916140296e+02
8.552752245233863277e+02
8.609779208746313088e+02
8.835984174997348646e+02
7.721729922609515597e+02
8.816616601844938259e+02
8.480428832347490697e+02
7.053564527437771403e+02
6.236039455284251289e+02
7.767476144620623018e+02
5.617708287424675291e+02
3.276086232329320183e+02
3.353188936300766727e+02
3.828616528409789908e+02
5.982171123263757408e+02
4.914598796298020034e+02
5.715580161500867007e+02
3.045130131113264156e+02
-1.776678824011758309e+02
2.479987167030040496e+02
6.855395808854540292e+02
1.839330131704172118e+02
-1.378797682656959068e+03
-3.298692813228652085e+03
-7.358700022498885119e+03
-8.210985864917016443e+03
-7.989367849807633320e+03
-7.676874683014212678e+03
-7.378241562646761849e+03
-7.566692881955006669e+03
-7.668350372177177633e+03
-7.150188998534607890e+03
-4.460043101177808239e+03
-2.108829107034230674e+03
-2.421702480326036039e+03
-2.132895622775396987e+03
3.966228885629493561e+02
1.533997141348423156e+03
1.777438193664710525e+03
1.505777288386853115e+03
1.335834731216013779e+03
1.583632761568931983e+03
1.792264975619190182e+03
1.843735452069679923e+03
1.729058726240652732e+03
1.594200897462161493e+03
1.727145363069469795e+03
1.244929131902095833e+03
1.070541469376166333e+03
1.019988949096963211e+03
1.117270307043571165e+03
9.503588746862991457e+02
8.112814728808604059e+02
1.286036964058627518e+03
1.018633102825852347e+03
7.960824818778016834e+02
9.883610979676968782e+02
1.122510396081947192e+03
1.107505374395037961e+03
1.097369038439703218e+03
9.541358706633600377e+02
1.190831979583191924e+03
1.570440940807781544e+03
1.606979367613530030e+03
1.391437490898743818e+03
1.036785352046541448e+03
8.721140369726566632e+02
8.254125390993121982e+02
5.416709345016751058e+02
6.218602044461060814e+02
6.280066519041471338e+02
1.951257683001539363e+02
9.323307300295847710e+01
-1.046473537921082908e+02
1.484811059055368787e+02
7.060604283567086270e+01
-1.623483190617537630e+01
2.498479088293785111e+01
4.262673086229146406e+02
5.996363915217264093e+02
6.891189352541729249e+02
6.816978058922343280e+02
7.974286520453567846e+02
8.453087515133292982e+02
6.553784748455144609e+02
5.025967296905888020e+02
2.303412715455547044e+01
-2.793736262611865868e+02
-8.604127096345457630e+02
-4.798243725769302728e+02
-2.980107789570633372e+02
-2.658326886144554351e+02
-4.763654060047548455e+02
-7.655537435588333892e+02
-6.905584663831723446e+02
-1.884986583612875677e+02
-2.701884539744788185e+02
-2.355787720686699629e+02
-1.967213730761372759e+01
1.425498827912361719e+02
1.980513008753473798e+02
1.328866827432824493e+02
2.371006052005948561e+02
2.876863809588488721e+02
2.906338643863795141e+02
4.599655045002749603e+02
9.167943073738388193e+01
1.791106264435463169e+00
-1.646793378930565268e+02
-3.976928375584436708e+02
-2.782462652269664432e+02
-5.383767681654331909e+02
-5.790908845332314741e+02
-3.434007377148906244e+02
-4.052576223319286441e+02
-4.656230559800829383e+02
-2.845494745961191256e+02
-7.379989273410119495e+02
-4.989476271454295215e+02
-4.636053775009504818e+01
-1.236642006541079475e+00
5.739169954667063678e+01
1.665507716208273905e+02
-4.776684847502443709e+00
-1.455699152081805607e+02
-1.938233426649139233e+02
-5.145386276816489044e+02
-6.096758419252828389e+02
-3.922929477448820421e+02
-4.241709094414147785e+01
-1.410353693759976181e+02
-3.501367469241903336e+02
-5.807138886838502003e+02
-8.867978001370826178e+02
-9.533422375471855048e+02
-7.743345506882266136e+02
-4.927927061376727238e+02
-2.485741132901634955e+03
-5.272182682718014803e+03
-3.165126970915676338e+03
-2.887556193101479948e+03
3.305922830183452561e+02
4.032929714130145271e+02
4.876236413019461793e+02
3.516916706604464480e+02
-1.948783112084315690e+02
2.269579854083194164e+02
4.082553211592454545e+02
3.850286072329723197e+02
-2.976130303237064822e+01
-3.911283516829461178e+02
-1.403040768368161935e+03
-1.954361201409078888e+02
-1.571491171602987151e+02
-1.677689289586359109e+02
-7.628097847785015517e+01
-6.400693414747520364e+02
4.048966296213110354e+02
9.235676519562086924e+02
7.911303368278228163e+02
8.641739468725061215e+02
8.392042938048690530e+02
8.904984841550158308e+02
7.881142143943518477e+02
7.785250304169165929e+02
8.792673739005194875e+02
8.971467378734334943e+02
5.999687823824406223e+02
6.270418695643803630e+02
6.365789413488895434e+02
5.293421708414232398e+02
3.901590088299209356e+02
4.505047597455768482e+02
4.600066503407396112e+02
4.567532581682979185e+02
3.272341783532970680e+02
1.977189914735084812e+02
5.644372436115963865e+02
8.249948665152272724e+02
6.121656390490272770e+02
7.987077969606237957e+02
1.078236808067553284e+03
1.170360290525209166e+03
1.063535030215756706e+03
9.674583702159134191e+02
1.217248336717545271e+03
1.437127345843757439e+03
1.488440460348879242e+03
1.137636723565861757e+03
9.899190167738262289e+02
6.997177913528731779e+02
6.921632044482937545e+02
8.373934884574548505e+02
7.993606315967665523e+02
9.130020563549059034e+02
1.008296317066700794e+03
7.341318664079655036e+02
6.743142835632709193e+02
6.838481595771891079e+02
8.868101423068541180e+02
1.019168321836654172e+03
9.739312563212984060e+02
1.067082632728343242e+03
1.354586523514683449e+03
1.531425560926635171e+03
1.431621708885960288e+03
1.449150471161002088e+03
1.530991416859648552e+03
1.466127984093059013e+03
1.164508339621461346e+03
3.591068161532542149e+02
6.289718850772505903e+02
8.590507412898765551e+02
6.473565823743153942e+02
7.558180871244303489e+02
9.083533324755162539e+02
8.412250320883288168e+02
8.846222800191333135e+02
9.859438487685108612e+02
8.174066782179880875e+02
5.640538365611234894e+02
1.139826308273884251e+03
1.274925880518864915e+03
1.429446232294176525e+03
1.653883182884972484e+03
5.564751161064829148e+02
-4.157602628894867848e+03
-7.755690085868348433e+03
-7.613726721343161444e+03
-7.402672461167762776e+03
-7.477534422904221174e+03
-8.321311286743208257e+03
-7.487962640060179183e+03
-6.423460303214802479e+03
-7.238841072229930433e+03
-7.295092531613980100e+03
-7.258204052147811126e+03
-7.268145551208533107e+03
-5.098945518547326174e+03
-6.885840352478176101e+02
1.076969833892033421e+03
6.497527615531148513e+02
2.145787352384401402e+03
2.398078997265308772e+03
2.437651903200515335e+03
2.314521730558829404e+03
2.175703943940981389e+03
2.166234452359108673e+03
1.905112055998382402e+03
1.875332364977631869e+03
1.721952654777197040e+03
1.385954508620929346e+03
1.184362767795407080e+03
1.411218627900979982e+03
1.429548430823033186e+03
1.351330247175570094e+03
1.300631903824069468e+03
1.378478748834898397e+03
1.170879034889798504e+03
1.061875776795190632e+03
1.671491185771010123e+03
1.589789101659495600e+03
1.278790605149431713e+03
1.424523863841362754e+03
1.759997266367109660e+03
1.808220805895705780e+03
1.672251431767643908e+03
1.158113187592780832e+03
1.332862316127362874e+03
1.264523351379412361e+03
8.651137499717547144e+02
8.296359603631154869e+02
5.231618501859411481e+02
4.576640157938205107e+02
3.411815139590780177e+02
2.073234206631730459e+01
1.921050827930418166e+02
1.256091152575300782e+02
3.255992341834132731e+02
-2.586261800707850966e+02
-8.903434865218146115e+02
-2.645312302679374170e+03
-2.546554836709566189e+03
-3.257038450660142644e+03
-1.338582229488663415e+02
7.209723098312194907e+02
2.886602727328760238e+02
-2.808628156573826118e+02
-1.360201582514733865e+01
1.645269229862503835e+02
1.832818690105606265e+02
-6.230450358273580491e+01
-9.824167455339255639e+01
-1.997883876284415976e+02
-1.328469112641702452e+02
-2.033466817996961424e+02
-2.882074012950380961e+02
-1.554370571821149269e+02
2.896948750572710907e+01
1.510237026839708108e+02
5.207882349797773713e+02
4.492832943756417308e+02
3.274854847106596480e+02
4.094171851896983299e+02
3.191690722350708143e+02
4.087410381511781452e+02
2.751044548277409945e+02
-8.734270833623051900e+00
2.432462215782119586e+02
1.800572365926858822e+02
3.664682527704238879e+01
-1.109058294809472045e+02
-3.656038210588967559e+02
-2.874796452266944584e+02
-5.195273168965111381e+02
-5.517015670693027687e+02
-3.349819063811555111e+02
-1.343647409775363997e+02
-1.288793693988945392e+02
1.204512002602168650e+02
1.966603455462157797e+02
1.067968414470509657e+02
3.318606633949873412e+02
2.248364234951555716e+02
4.107232895953578691e+02
4.654201426091249516e+01
-2.467860746442171944e+02
-4.052380192483086034e+02
-2.437937819833057631e+02
-1.674711746350192811e+02
-2.412502041811165441e+02
-5.592050449183842602e+02
-6.973609598107457259e+02
-5.636884395441877587e+02
-6.922117837797436550e+02
-9.309886808277092314e+02
-9.490143996275996869e+02
-7.503292508585070664e+02
-4.019181807288996424e+02
-4.207886036480699659e+02
-2.469681069874664274e+02
-5.064691802731222197e+02
-3.353115910128728387e+02
-1.369509370050615644e+03
-9.160083759699646180e+02
7.181566382616637156e+02
6.918040712935633110e+02
4.360316346215286103e+02
2.809527824039776078e+02
1.234114930792043623e+02
2.743798202303497078e+02
3.087927035010600321e+02
2.095569035071208646e+02
4.457612518730159650e+02
3.852467586224892102e+02
4.568105218499663920e+02
4.536888920568599701e+02
3.632513940278930704e+02
4.191830512471424868e+02
4.872068285294554357e+02
4.246972472192744590e+02
6.154002985013925127e+02
9.320986780255644817e+02
9.169711332847703034e+02
8.101644897718050515e+02
7.682044552452894095e+02
8.622627653361789726e+02
1.138640679431237459e+03
1.172936864121752251e+03
9.192058934794574725e+02
5.705817047380719487e+02
7.768123062633953850e+02
3.728647821268227176e+02
2.327044187817750469e+02
1.473630422100821136e+02
5.717347450123787667e+02
6.967278290923337636e+02
7.051072891621129202e+02
1.077471637558637894e+03
1.123493663539652516e+03
1.183205244681591921e+03
1.301699445101244464e+03
1.482611242752827593e+03
1.723924002750992713e+03
1.771953563497439745e+03
1.794489410424680955e+03
1.525425668244570488e+03
1.277799971090662893e+03
1.058088663442561483e+03
9.628771969550322183e+02
9.629363960029959344e+02
8.806150909579531572e+02
1.019452834024151343e+03
7.736144942831273283e+02
5.924148590558385195e+02
3.747720356679768088e+02
1.882671311927583417e+02
6.790125558542650879e+02
1.051708344213961027e+03
1.209565428551435843e+03
1.166558252915886214e+03
1.273736254903084273e+03
1.382079824936165323e+03
1.383480390129133184e+03
1.531975654934574322e+03
1.472553509382134280e+03
1.427232629189756153e+03
1.374984325767285782e+03
5.589494207073190637e+02
-1.619113449652641975e+03
-5.527138496860391569e+03
-7.988074925358989276e+03
-7.892000125253636725e+03
-7.493856597844970565e+03
-6.039743688799706433e+03
2.883440244193033664e+02
1.628457686938720144e+03
-1.538412056134248360e+03
-6.240261995565134384e+03
-5.122053004152389803e+03
9.092098634726060027e+02
2.112528411620628049e+03
1.093873432986380749e+03
-3.219700406345245938e+03
-3.586113384749962734e+03
-1.635436595540172902e+03
-5.265686366396472295e+03
-6.271787567350962490e+03
-6.174785034191579143e+03
-6.003659632895470168e+03
-5.475390846246708861e+03
-1.197949382626155057e+03
4.486646003121826993e+02
1.769485243634479502e+03
-2.555513600607798708e+03
-6.452335153928724139e+03
-6.133885480428076335e+03
-6.149190067815298789e+03
-1.768222426463825741e+03
-2.709953056579921395e+03
-5.971361066027191555e+03
-5.982406343316883977e+03
-4.607079577738913031e+03
-2.593556573824699285e+02
1.745784046996214556e+03
3.396415074493264456e+03
3.179542005623365640e+03
3.307219122704413167e+03
3.597429566372694808e+03
3.320158280256142007e+03
2.979479154229557025e+03
3.001403219819844253e+03
2.401962132813407607e+03
2.387196547599544829e+03
2.745106534173015916e+03
2.585761769412088142e+03
2.611149701929665753e+03
2.599289655342327023e+03
2.590226286730146512e+03
2.347016049490443493e+03
2.076636068518766933e+03
2.404123189094711051e+03
2.503535034068105688e+03
2.631922579003603460e+03
2.583293079150261292e+03
2.249666630263821389e+03
2.158087591743179473e+03
2.413666789557062657e+03
2.071354989565543747e+03
1.946130549604433781e+03
1.561014611813203828e+03
2.310454437779015393e+02
7.392563247047637560e+02
1.567678538596973340e+03
6.982969082500746936e+02
1.301219123424857116e+03
1.529486672527473729e+03
1.478083336598123651e+03
1.659729651570988153e+03
1.465731765216395161e+03
1.182217549945170049e+03
1.236236102673557525e+03
1.453764061529629544e+03
1.674498537614765382e+03
1.745191341737223183e+03
1.710526179782723375e+03
1.486745646711125346e+03
1.243587788528024248e+03
1.044034120081954825e+03
1.055205451761567474e+03
8.291736335299647180e+02
7.840544382349396528e+02
3.574793836621461764e+02
5.406147509561859579e+02
4.614792232746899572e+02
2.740555001646758342e+02
2.760458759369756763e+02
4.325283112700567472e+02
4.216347035571991455e+02
3.882150497662145199e+02
7.233291010779925045e+02
6.920276701654011049e+02
6.522878100092616478e+02
7.411330290615767353e+02
7.635537240546417479e+02
6.205843925057682782e+02
9.942074677915859411e+02
9.384072116929677350e+02
6.922146983029701914e+02
4.296143103807972352e+02
4.625682207545406754e+02
5.030767254923172231e+02
4.261494367487256341e+02
2.877726941651852712e+02
1.219388970772080683e+02
4.667805077537078517e+01
-1.060278655018870921e+02
5.675117541636414131e+01
4.140339962743556157e+02
7.178600934588984046e+02
6.552163634592287735e+02
3.210532492489507490e+02
5.673999005385818464e+02
3.632486085145515631e+02
3.876239870025079313e+02
5.724212244874665885e+02
6.696647679413534888e+02
6.063919765047626242e+02
7.705551391270025761e+02
3.241460955713927206e+02
-5.788550883863981653e+02
-2.330453719008975895e+03
-7.205639599950322918e+03
-9.363460460604424952e+03
-8.556950740691991086e+03
-5.149157382123819843e+03
-6.235076631310893390e+03
-7.939514720063483765e+03
-7.994457130408445664e+03
-6.873058904352412355e+03
-7.050290108349970978e+03
-7.816479665084078988e+03
-6.696525532500373629e+03
-6.583328059724958621e+03
-6.107897112430705420e+03
-1.608305092961822083e+03
7.104382433345925847e+02
1.132282666337265709e+03
1.917271109525183647e+03
1.812349830700323309e+03
1.765514288959868964e+03
1.614717736034362360e+03
1.699932426851788478e+03
1.443156988156658599e+03
1.387378959235738876e+03
1.226577247263299341e+03
1.529713083984519471e+03
1.761752204843163327e+03
1.407743487184614423e+03
1.347665369736813545e+03
1.624439017849236961e+03
2.029104460046683016e+03
2.048636055950398259e+03
2.168045036527234515e+03
2.160374047461315058e+03
2.152522387386741229e+03
1.993479094027549991e+03
2.009279050576521058e+03
1.848856835818320405e+03
1.533217762688947460e+03
1.105340508447433194e+03
9.872517100103133316e+02
1.074909713854639676e+03
1.017273115364553291e+03
9.263054122888225947e+02
7.040166542864031953e+02
5.663891711870061272e+02
7.954123054717048262e+02
8.681248407998525636e+02
9.145345608961285961e+02
1.123626189694082314e+03
1.455332981997111574e+03
1.203703101750504175e+03
1.250779588101325317e+03
1.160524867767884189e+03
1.217922082608160508e+03
1.588966303969614955e+03
1.675616404428012402e+03
1.246789707758966870e+03
1.288424991343415286e+03
1.336554475564789755e+03
1.253505223868944768e+03
1.277295064873977935e+03
9.019224146223318712e+02
7.933707169981785228e+02
9.686165911303210123e+02
1.015675087749444060e+03
8.886186446110962152e+02
7.247696566390342241e+02
1.447247199119265701e+02
6.014216740901487128e+02
5.676788149366129801e+02
-7.375682223115761644e+02
-7.810855066855119730e+02
1.067099849107994260e+03
1.241923187424649768e+03
1.285408297083338994e+03
1.171535797956366196e+03
6.333128257600060351e+02
1.052756230075731537e+03
-2.101648524229025554e+02
-4.205411023632915203e+03
-5.528032730019283917e+03
-1.476966648954567972e+03
-5.831982899410758137e+02
-2.892738815284144039e+03
3.241517095136394033e+01
4.802533308941058294e+02
-1.489215273742824820e+03
-1.618959403384642883e+03
1.084018721447066355e+03
-2.088274916725010826e+03
-3.374819901448100154e+03
2.413775653183266741e+02
-9.896648388709846813e+02
-1.122955666726144273e+03
1.494537162438117321e+03
1.327854170904053717e+03
1.074954155001086974e+03
9.918832537681545318e+02
1.042642133771072167e+03
7.622244360829699872e+02
-1.623894862192668143e+02
-4.817156101491309528e+03
-1.588114592222322472e+03
-1.735239188360105572e+03
-1.383498465309585526e+03
8.460868558847046188e+02
-1.169442996603094571e+03
-4.027108267718887419e+03
-2.510877700082665797e+03
-2.909734201250751084e+03
-4.407672096714143663e+03
-5.951636894309682248e+03
-7.596185307053965516e+02
1.203810526811965786e+02
-1.953638908235539247e+03
1.059315410458478027e+03
-1.203737134400728564e+03
-1.214783936740955141e+03
8.541907168068387364e+02
1.012176966288040717e+03
8.682035392617190155e+02
9.042733974992328285e+02
7.073405174378510765e+02
7.014038833525578411e+02
5.805169451953146336e+02
1.107715166579909237e+03
1.131980072074436066e+03
8.443269699888465993e+02
1.017762935420785766e+03
1.012299055889498959e+03
9.089303273409660733e+02
4.236219142261738284e+02
1.037254831151468125e+03
9.591728124087228480e+02
7.658443438878406369e+02
1.288131478775560936e+03
1.012909403258373459e+03
7.220087987355193491e+02
8.244084237975495171e+02
6.758986301629237232e+02
5.330223750962949225e+02
4.043914794847647727e+02
1.310653251346563195e+02
3.825508861335358688e+02
3.720804273183044302e+02
3.815666891823613014e+02
-5.563432975636063205e+00
9.758296422711570983e+01
8.712984576870932187e+02
1.014335291710133333e+03
7.864749707014279920e+02
1.282173508476809275e+03
1.008252000162293825e+03
9.564736490914995102e+02
9.361607678845026612e+02
1.108106564430123626e+03
9.299062334584368728e+02
9.191650510881023592e+02
8.684304252738261312e+02
4.573767398938681481e+02
4.899822160004824809e+02
3.137396702724556121e+02
3.458682535475876989e+02
3.441659967281037211e+02
8.876756446924184729e+01
-9.182814311095345516e+00
7.339164360584658198e+01
2.309716145969596255e+02
1.915921248001374124e+02
3.763464861485236383e+02
4.650792753581404213e+02
7.739933180182162005e+02
8.250253864915149506e+02
4.783479008396079735e+02
5.319933612527444211e+02
5.528540275140168205e+02
6.568296409923580086e+02
5.359725844118112263e+02
1.672505170478495984e+02
3.795875301076048913e+02
3.130131664087429613e+02
6.653675029888121628e+01
-2.038150032245923740e+02
2.592467031917041353e+01
-1.522086775973200474e+02
-3.182129066682108487e+02
-4.121472687227993106e+02
-7.899865583598260343e+01
1.342629385746707840e+02
1.296359336722077273e+02
4.215869007491602360e+01
4.178173825248387629e+02
9.435679308155336003e+02
9.544451615546304311e+02
3.944498939019344448e+02
2.055782104654977616e+02
1.678716736126005742e+02
-2.879667333354359826e+01
-7.534079724445114152e+02
-3.767470259792464731e+02
5.417226232794937602e+01
-1.288927000546589738e+02
-3.844932954271300332e+03
-4.911645732785754262e+03
-4.701234378418508641e+03
-3.909692396778404145e+03
-5.215056815501246092e+03
-1.952341388766640648e+03
-1.604549358765654006e+03
-2.259675551335104956e+03
4.292693543476968898e+02
-4.136887357860551901e+02
-2.963529202346168404e+03
-2.716278236508476311e+03
-9.109460251818678671e+02
9.154957601304239461e+02
-1.511982699334290373e+03
-2.198357775497861439e+03
-2.949692169071855915e+03
-1.420978639564454852e+03
-3.241828608070008499e+02
7.566037692286911920e+01
1.485594778860966869e+02
3.285200319386803471e+02
2.145125316108205311e+02
5.575130419367894774e+02
4.155583484808670391e+02
4.826398999325332966e+02
5.277670555255610907e+02
7.519262976187271761e+02
1.005142725083385812e+03
9.433815254528153673e+02
1.061646640762426841e+03
1.093930275234185046e+03
1.121261894949627504e+03
1.015640486144445617e+03
9.660409174848250586e+02
7.864425894323347848e+02
6.758508541512425154e+02
7.202562904027868171e+02
6.796718171133732085e+02
6.061004550425961952e+02
1.894882910196706689e+02
2.981637438640056459e+01
2.600964172890866166e+02
2.583449779402403692e+02
5.625970091633934089e+02
7.757858102685921722e+02
1.050966082075736040e+03
7.771235126793645804e+02
7.022506813162681283e+02
8.963462478963762123e+02
9.964352069317782252e+02
8.504897207666984968e+02
8.015121553671954189e+02
7.945690236502754260e+02
8.637395771269420948e+02
1.027324264905988230e+03
7.131650113925193182e+02
1.770248184416935260e+02
-1.189522545323072791e+03
-9.910676233965050130e+01
1.376949479678493731e+02
3.067903669671996454e+02
2.270552785135487852e+02
3.175660672233119044e+02
2.093607894927044413e+02
3.872595458316602617e+02
4.273941060694002090e+02
5.947286723944027926e+02
9.039820017629936046e+02
6.804205824141245103e+02
9.558867791305351602e+02
9.891668770840566367e+02
1.141284083258856072e+03
1.108241832346244792e+03
7.650367488562577591e+02
5.226268817272487013e+02
5.420315340671959348e+02
6.212211999946720198e+02
3.792191251340621534e+02
1.639952565557157698e+02
3.855183134810935712e+02
5.058203678809880444e+02
-4.207630267455873252e+01
-1.361965875560534016e+02
-2.105990538931056903e+02
-1.892366741440411886e+02
4.468768932742635798e+02
6.097524267699831171e+02
5.333780766655642083e+02
1.029775627300183714e+03
8.589283906703369667e+02
7.248711350886493392e+02
7.796235796919584118e+02
1.048169011740163569e+03
1.150513223829740582e+03
1.158605285223698047e+03
8.374488419212368626e+02
5.270442430695005669e+02
3.224023377333520557e+02
-1.214568064787281259e+02
-1.995781360759269489e+02
3.090813983393695139e+02
4.875081456730132459e+02
1.796786603987871160e+02
-8.042310888150139192e+01
2.812602386927227940e+02
3.606718962383303051e+02
6.558540293021194429e+02
9.718266436424551102e+02
6.605213220745957869e+02
-1.265037417751824250e+03
-4.521790387916897998e+03
-7.987782859204179658e+03
-8.000988642756476111e+03
-7.983434971752404635e+03
-7.818085191666445098e+03
-7.622925954112371983e+03
-7.516015645281942852e+03
-7.589360062909181579e+03
-6.431910295205600960e+03
-7.117030991145890084e+02
1.232270775631307515e+03
1.318011638749937674e+03
3.547134320001515562e+02
-2.007131513682626576e+02
8.317935813085257450e+02
1.426150563544230863e+03
1.253201522855209305e+03
1.282027553950629681e+03
1.334660678423835407e+03
1.345156929632234096e+03
1.381516277488759215e+03
1.310651262080938068e+03
1.412709127235816140e+03
8.729822530565190846e+02
9.443166834018988993e+02
1.044253181265424473e+03
1.076981376545375497e+03
1.103779333190994521e+03
7.312308660425594553e+02
5.804526446440989957e+02
9.536659901053199064e+02
9.517841745499742956e+02
7.905606645051205987e+02
8.094560916897859215e+02
7.783816968552781645e+02
1.133941509293922081e+03
1.105495124073504940e+03
1.041974664511946685e+03
1.221123229461398523e+03
1.326162535867460292e+03
1.277130113372821597e+03
1.308000998829605123e+03
1.146767020318802906e+03
1.146457650772879560e+03
1.389140041647828866e+03
8.691571469926810778e+02
9.029104823529287387e+02
9.506215916077668453e+02
5.862662668570554843e+02
6.476723374799395287e+02
3.901872416901121596e+02
4.939530288080695755e+02
5.446121644782626845e+02
5.173161163896577364e+02
7.581955742174424131e+02
1.014257872443984638e+03
1.130968365941972934e+03
1.222597040351215128e+03
1.204388005168776999e+03
1.211960459176798622e+03
1.534688058468213512e+03
1.594448145415183490e+03
1.404033938536646929e+03
1.349585454547357813e+03
1.171194398666594225e+03
9.587877503622315771e+02
5.354089728929586727e+02
4.780417144408324361e+02
5.847105321783195677e+02
5.053566514323704268e+02
5.369790025792692632e+02
4.526507971182854249e+02
5.773473740818723172e+02
3.200712039016516428e+02
-6.512332365148297413e+02
-3.831342401503175552e+03
-4.039393423059121233e+03
4.794103654370297818e+02
1.332481913974242389e+03
1.259725028170750875e+03
1.234189998085769048e+03
1.309739019377301247e+03
-2.005599535128058903e+02
-2.167687756388375419e+03
-3.166769575987638063e+02
-2.569523518249380231e+03
-1.020228206847026513e+03
-4.239836744288668342e+03
-3.022344174857788403e+03
3.673147668981035849e+02
6.151454165103909872e+02
6.290941168057196364e+02
8.041278253128743927e+02
7.092954984162896608e+02
6.586279653430062808e+02
2.810928758544448556e+02
-2.557255889771780403e+03
-1.335444326293883705e+03
-2.262464615503995446e+03
-4.405330560247990434e+03
-3.760179013720804164e+02
-1.764547125823873557e+03
-5.609060240527118140e+02
-5.306059062715036134e+01
-2.544043806593594127e+03
-2.838832706677739225e+03
-4.444667272260604705e+02
-9.009133412859619057e+02
-2.635199607145572372e+03
-4.602975317000700102e+02
-3.450220370767551231e+03
-2.493975527552940093e+03
-1.578538626935666571e+03
-2.536952620922971164e+03
-2.728193296669402571e+03
-3.549319832400377436e+03
-1.834281346473273288e+03
2.239836998161431723e+02
1.153417459275262900e+03
1.268008051232845673e+03
1.411741024319189364e+03
1.726637634021549957e+03
1.522712376105863541e+03
1.153926173646074631e+03
1.026279659025900855e+03
1.236790264111290526e+03
1.041453066044383377e+03
1.027215404430342232e+03
9.541068275931888820e+02
7.021316428969452090e+02
3.903103356339577203e+02
5.135640919113607197e+02
4.758937237585732873e+02
6.262980999476856141e+02
8.526814825160453211e+02
9.429673529351903198e+02
8.981377332825217081e+02
1.056515423163575406e+03
8.563161471509017701e+02
-1.086337329868396324e+02
-1.225169993532117360e+03
-1.808190223967910470e+03
-1.328047026155691356e+03
7.711305694860612903e+02
-3.586880860947145493e+02
-1.970460133870611571e+03
7.218460733512557681e+02
8.181628931200187935e+02
9.026441618241644846e+02
8.592574108193691700e+02
8.702639553582129111e+02
9.462559700196665062e+02
1.032357179322847514e+03
9.096952948485803745e+02
9.150117911473607819e+02
1.175545494880626620e+03
1.155672127531678370e+03
1.239795068624407804e+03
1.511564547607661325e+03
1.643223865752381016e+03
1.709169609937348241e+03
1.589286331281510456e+03
1.310601118616828217e+03
1.346045865693867654e+03
1.123632697811307935e+03
1.216015912518509367e+03
1.304379247774790429e+03
1.005619224685787344e+03
7.857761214569662798e+02
7.186763941805523928e+02
5.332866642529977526e+02
6.345942741896716370e+02
5.556201135639619224e+02
6.643093722353421526e+02
9.706682016232614387e+02
1.032702446466503943e+03
7.833884685703535524e+02
8.497428244950573344e+02
1.280747079371314157e+03
1.547388647357445279e+03
1.507664443742561161e+03
1.490592331807718438e+03
1.310149928136704830e+03
1.393304171829944380e+03
1.483040639935601348e+03
1.227361035135310203e+03
9.742846206760719951e+02
9.098041210384966462e+02
7.348372881210472087e+02
6.994360119320260765e+02
3.685930151231361833e+02
2.802564626335452544e+02
2.334078038769766579e+02
3.231053503924846382e+02
4.053454635414605605e+02
7.460888238794457266e+02
1.100340376568735792e+03
8.971085175313052105e+02
9.343671807945107730e+02
8.311421660485248140e+02
6.134610244484190389e+02
1.513003039513750991e+02
-6.333952250333337588e+02
-4.228636674854280500e+03
-8.193047071015749680e+03
-8.196924732607973056e+03
-7.886284241748059685e+03
-7.747114538758261006e+03
-7.730382334955322222e+03
-7.907154182124511863e+03
-8.512405860435512295e+03
-8.262126638973069930e+03
-7.898296821393404571e+03
-6.136932338451552823e+03
-1.313045869858655351e+03
9.394081833889440531e+02
1.388440134408183894e+03
1.471072238658328160e+03
1.747296956705214598e+03
1.982121580280914259e+03
2.003585592428893960e+03
1.970707093141807945e+03
1.746498845635067028e+03
1.713932834168046838e+03
1.850067779353396872e+03
1.627923690185219584e+03
1.178469597600200586e+03
1.253724385551392970e+03
1.458743893530029482e+03
1.160512003343597826e+03
1.134045279630077403e+03
1.074354558985715812e+03
1.064401528263457976e+03
9.082543222315898674e+02
8.599443675188003908e+02
7.594230562043081818e+02
9.467818796777589796e+02
1.261031458870977303e+03
1.212181441578830572e+03
1.541255999438119034e+03
1.482289362410383546e+03
1.328270260850127897e+03
1.100257389778442985e+03
7.902857317583784607e+02
7.493530983687020353e+02
4.875180300498532233e+02
6.667529473881751301e+02
7.010154871409031330e+02
6.373560830338551568e+02
5.488707102368144888e+02
6.285275303363602006e+02
2.063371728522174635e+02
1.143384270138831482e+02
4.525355144407799912e+02
3.019515837347861975e+02
2.015326229100474791e+02
2.894159121009865885e+02
2.047727928140362224e+02
4.910200938863962392e+02
2.900163361957662005e+02
6.687418587722904704e+02
8.312005814193994411e+02
3.965207119382514520e+02
6.158006198112728669e+01
2.113342133637847837e+02
-3.781473497089974103e+02
-1.130195237329757902e+03
-2.739578950063232242e+03
-8.344012762983910534e+02
-2.115716817445525066e+02
-1.861843912319801575e+02
-1.613451691196225113e+02
-1.701999054992633376e+01
-2.851658281828867985e+02
-3.237646582637186157e+02
2.172148010764830133e+02
2.898052688626602276e+02
1.309671107033561270e+02
-6.263751148821588899e+00
1.631138330600166739e+02
3.631601154474924442e+02
4.258412833950840763e+02
4.111841026131266972e+02
5.751807208602189121e+02
7.228478897445573921e+02
2.652338432074245134e+02
-1.167278202022255158e+02
-1.420488016981423129e+02
