-3.123149894802620565e+02
-4.005148354288353971e+02
5.329570361167628079e+01
1.012093108258049142e+03
1.328972032319967866e+03
1.568933453056597955e+03
2.216997706078350802e+03
2.428193577776341499e+03
2.497539254382624677e+03
2.735064346201749231e+03
2.758658367249459388e+03
2.624222673207038497e+03
2.228818732964175069e+03
1.702667449996817595e+03
1.488068512646020963e+03
7.721860608543300941e+02
7.693541946537958154e+01
-6.888577954952776281e+02
-8.744954849805367303e+02
-6.341272893256025327e+02
-1.022491145388950372e+03
-1.039593827021755715e+03
-9.242300978555005031e+02
4.264988309606599728e+02
1.132450513472114835e+03
8.949512245136654656e+02
1.102172328152402997e+03
1.704727267358632844e+03
1.853323873390674180e+03
1.860221243675871392e+03
2.227258358916089492e+03
2.449813943655858111e+03
2.244415660095110979e+03
1.855829172252889748e+03
1.486609459855442310e+03
1.173680301354441553e+03
6.138622900690782558e+01
-7.026517124522683844e+02
-8.149988666356034628e+02
-7.571199402576143029e+02
-1.159107062216556187e+03
-1.058006410190065480e+03
-5.180729303641746810e+02
1.311610221289813012e+02
8.269239301121245944e+02
1.122975524729184144e+03
1.272416909329495638e+03
1.337899766148128492e+03
1.332513642118855842e+03
1.785259818664248087e+03
1.809128951962511564e+03
1.601359151408847993e+03
1.381870523249894404e+03
1.405414235124608240e+03
1.373090938991287430e+03
4.098802246362766368e+02
-6.512168461201140417e+02
-1.722253215394760218e+03
-2.043261046549940602e+03
-1.555290885893861059e+03
-1.358437477398380452e+03
-1.363670966966277774e+03
-7.949211112661570269e+02
1.538271306358258528e+02
8.535609573600219164e+02
1.115286866574292162e+03
1.581064920649134365e+03
1.895872035789709344e+03
1.870661013785575506e+03
2.102475992091822263e+03
1.911244968849108545e+03
2.159961924094809547e+03
1.982709671454185582e+03
1.762480812114792798e+03
1.524347677834965907e+03
7.932553297282488529e+02
-5.400785412354144910e+02
-3.416562762571960320e+03
-6.482205118930191020e+03
-8.836096837217794018e+03
-8.811264828776604190e+03
-8.676651854302248466e+03
-8.024259820712323744e+03
-7.020041177402493304e+03
-6.327036732920986651e+03
-5.791195344448187825e+03
-5.438450766897452922e+03
-5.692570393237846474e+03
-5.522998569972121004e+03
-4.694654462127246916e+03
-1.155717785130772910e+02
2.109337144831747082e+03
2.859064594271290389e+03
2.526622638156248286e+03
2.304997234802643106e+03
2.081112828227313457e+03
9.219888794918091435e+02
1.095860241966054502e+02
2.018602232090344728e+02
1.181077207056393519e+01
-1.456274650123456240e+02
-1.443241142810112443e+01
2.424484138154439563e+02
6.760833269410924231e+02
1.483451681246926000e+03
2.010529769364022741e+03
2.406343688397979349e+03
2.511936328403799507e+03
2.839298799307156060e+03
2.825376160124149010e+03
3.007197588883343542e+03
3.103786633605554471e+03
2.689156798286997400e+03
2.453312434298227345e+03
2.196255760471698068e+03
1.407989735770633843e+03
6.304939182486403979e+02
1.527455323768965343e+02
-4.053039793700008318e+02
-6.796653737555169528e+02
-8.503920120419634259e+02
-6.344280464198852769e+02
-2.974949146194556704e+01
6.446886126846069374e+02
1.017926180417050318e+03
1.471939266881683125e+03
1.860738733389807521e+03
1.999355947089479741e+03
2.230844583008124573e+03
2.596223670901773403e+03
2.745456218528715908e+03
2.724547664291597812e+03
2.608548889459326801e+03
2.481526894094499767e+03
2.040450882345707214e+03
1.266293814506836952e+03
6.170444189733676694e+02
-2.303189128318767303e+02
-1.189914590785470409e+03
-1.323768358304747835e+03
-8.618324315042567605e+02
-7.659375783855655300e+02
-4.408192669382281679e+02
3.265384176962152907e+01
5.061480881999117969e+02
9.276709852335299047e+02
1.480233760371264452e+03
1.545848467493681255e+03
1.362585933615982412e+03
1.569394990004859665e+03
1.469277271114197220e+03
1.673251428196544566e+03
1.491347529895133221e+03
-1.658398803354948768e+03
-3.471956477812192134e+03
-2.495350611606843813e+03
-4.906396557568356798e+02
-5.107828178250520637e+02
-1.114828734354291782e+03
-1.155801641960499637e+03
-3.741747308078227434e+03
-4.099593495831020846e+03
-5.436289096882787817e+03
-1.002809089606265388e+03
-5.831416103617623321e+02
-3.212276594589918659e+03
-8.671581871317724790e+02
-1.085799838846854527e+03
7.758104384725216960e+02
7.767202269066640383e+02
-1.469098921174947236e+03
-4.356269856764097312e+02
1.816129206617337786e+03
-6.937996196443410781e+02
-7.554059450378355223e+02
-3.125741689292468436e+03
-2.166809442358727210e+03
-1.229605556305958544e+03
-3.187152878669422080e+03
-3.323470477644232687e+03
-2.561587035374817788e+03
-1.089532301038139167e+03
-4.974276560298542790e+03
-2.130782344298595945e+03
-6.669944840644652686e+02
-1.371890663386337792e+03
-1.275468611874418457e+03
1.607267591868151385e+03
8.683525637615455253e+02
1.457556811893501845e+02
2.563500261323028553e+03
1.165741678496522269e+02
1.499861992942356892e+02
-5.312254425867570262e+02
-4.320688016784521892e+02
1.257429211668678363e+03
7.172185140791871163e+02
-1.827218881905067178e+02
-5.964215718564149711e+02
-4.758833028407310621e+02
-5.661778100154748472e+02
-2.753054520976845652e+02
3.617457391323508773e+02
9.129941033693766030e+02
1.259483245480315190e+03
1.518167193707744445e+03
1.984956770027226185e+03
2.216854831930375440e+03
2.096021341817802295e+03
2.206951191701611151e+03
2.097160718460295357e+03
2.084217047316267326e+03
2.292614703571112841e+03
1.716491670773410760e+03
1.734639589375590504e+03
1.191371506001970829e+03
3.895378523450920056e+02
-7.305851645167219033e+01
-7.713662720748792481e+02
-1.081343238326032861e+03
-6.622479807289748805e+02
-2.140838651616007269e+02
1.614359308810886375e+02
9.281226796071304079e+02
1.814152119953181682e+03
1.807985261520608447e+03
1.737873515594093988e+03
2.053130899404710362e+03
1.895622832290599263e+03
2.172292129564137667e+03
2.452808587722387983e+03
2.487535385715646044e+03
2.356447200988914574e+03
2.197476014841283359e+03
2.424778759006956534e+03
2.312000311749164666e+03
8.764000138564612143e+02
-1.421055813807545292e+02
-6.146592642729751788e+02
-7.436895772390454340e+02
-6.989403245466279486e+02
-6.254159295552732374e+02
-3.531387635764835409e+02
6.008293963469698156e+02
1.388836853730118492e+03
1.392875995262043489e+03
1.470888370356226915e+03
1.803393697321516129e+03
1.940480171288432757e+03
2.198153818342960676e+03
2.397345769547474447e+03
2.633028295221125973e+03
2.456258615954277502e+03
2.216021428604767607e+03
1.760299577010353460e+03
1.499040568296284391e+03
9.291888887885965005e+02
3.617413265642547913e+02
-2.813278323617846581e+02
-1.117088623967389822e+03
-8.436373285545922727e+02
-5.049353931171607996e+02
-8.295259038644140048e+01
7.052967133496940733e+02
1.180826212389730017e+03
2.006666806567859567e+03
1.562796822503026078e+03
-5.687397347855513772e+02
-3.192952625663123399e+03
-5.251853070818715423e+03
-5.151445058842570688e+03
-5.119760229309511487e+03
-4.649741456078497322e+03
-4.778398892841120869e+03
-5.066729165036799714e+03
-5.304759916394280481e+03
-5.539534391922089526e+03
-6.451073465944540658e+03
-6.913360614105990862e+03
-7.844347312989503735e+03
-7.821219280525148861e+03
-5.673884660435180194e+03
-2.042808649715681781e+02
9.245710753090427261e+02
-1.810278599996052890e+03
-1.549786927014601133e+03
-3.907946641765929144e+03
-2.287795374485117009e+03
2.817706276033907216e+03
3.305595262260294476e+03
2.145874081189925164e+03
5.725647267952082302e+02
3.233673190384467034e+03
2.689293318622034803e+03
-1.165472053538692165e+02
1.971068673113919203e+03
1.756137941986179158e+03
5.907437530553991110e+02
-4.584172923892252584e+03
-3.972632922417317786e+03
-5.346204634290158992e+02
1.778532253521761675e+02
3.038280476606964271e+02
1.283392619054674924e+03
2.076601233691282687e+03
2.324504870453984950e+03
1.922091494739607015e+03
1.850427847880188210e+03
2.251597389514894076e+03
2.513585877498217542e+03
2.601362957274844121e+03
2.514987399843089861e+03
2.603514667804766304e+03
2.744008984963148578e+03
2.683536811781134020e+03
2.138077517026652004e+03
1.010585679308251201e+03
-2.819222887576960375e+02
-8.353943868577837293e+02
-1.082877253773649500e+03
-1.376403705125379474e+03
-1.598927065640707724e+03
-7.643729772563999632e+02
-2.566649244231555826e+01
4.692380931929075700e+02
1.242414253086471263e+03
1.644869408233141939e+03
1.465691435384135048e+03
1.467879503076632773e+03
1.956460594160748769e+03
1.896457052230101453e+03
1.682762466287510506e+03
1.551392158258764312e+03
1.284578808139198372e+03
1.383724856247644084e+03
7.709485909484784543e+02
-9.575807235300226239e+01
-7.485695841613721768e+02
-1.485470834859167326e+03
-1.558470712709219015e+03
-1.903590529052766669e+03
-1.853735131914095291e+03
-1.680018790228598846e+03
-6.823456289741352521e+02
-2.235955680946840403e+02
3.172610693957108197e+02
4.562518858957647012e+02
7.572583066826323375e+02
1.117119023520201608e+03
1.620857208144910373e+03
1.694484769045802295e+03
1.532983464712050363e+03
1.480378125505864091e+03
1.182747059745446222e+03
1.015105789513917443e+03
5.083952437652507115e+02
-4.363889996389921180e+02
-1.340234608946677099e+03
-2.158152101073800623e+03
-2.120176546343715927e+03
-2.087322661680083911e+03
-2.063615078933058612e+03
-1.869011925893025818e+03
-1.139496566233769499e+03
-2.500086851041698139e+02
2.074721503769697222e+02
4.969577713195373576e+02
8.414648524896265371e+02
8.049967121334678950e+02
8.865529653780000672e+02
1.114156151201700823e+03
1.173759568008554879e+03
1.160378136597631283e+03
1.039004433409200601e+03
8.135892108226462369e+02
4.301683148882756313e+02
-4.022838434211192862e+02
-1.089786250203801956e+03
-1.630395549871278718e+03
-1.834173603576139612e+03
-1.586156128285361319e+03
-1.588354235690212363e+03
-1.482812647280540887e+03
-9.994839866980813667e+02
-3.203317030857331815e+02
1.716235720975640220e+02
2.903405397819533391e+02
5.258421779027601133e+02
7.561376428911615903e+02
1.299150418608322525e+03
1.493869743408293971e+03
1.497286371323654748e+03
1.783410062264011685e+03
1.463198738696247347e+03
-3.973553335936519488e+02
-3.138280700301242177e+03
-7.123654731600597188e+03
-8.091553236224543980e+03
-6.134020286153431698e+03
-2.033107942162788959e+03
-1.508811676779580011e+03
-1.112190668829102833e+03
-9.112713817806314864e+02
-5.600809676878749315e+02
4.013470348628120519e+02
5.940480547736276549e+02
1.100964042979507212e+03
1.291121669415744464e+03
1.816531440505334103e+03
2.090095446569001524e+03
2.214029327482465760e+03
2.165245070609736104e+03
2.079479539404964726e+03
2.143542016825444080e+03
1.938539898407029341e+03
1.774479605065607075e+03
8.682882028577676010e+02
4.515438936407795723e+01
-6.391470719883682250e+02
-6.855591170476185425e+02
-5.136213594907699189e+02
-5.200932686184104341e+02
-1.357127329757722691e+02
2.001234957145472890e+02
7.075825988012120433e+02
1.670480888038855710e+03
2.244921289179154428e+03
2.589057355824413207e+03
2.755641007154486942e+03
3.072490868679694813e+03
3.453939414760261116e+03
3.334771684769467811e+03
2.993139473467466814e+03
2.685745499888464110e+03
2.533561105133381716e+03
2.272795230237753003e+03
1.717264399167465626e+03
8.868652875470655772e+02
9.447549089868820715e+01
-2.905100395231559673e+02
-1.346484987431120146e+02
-5.288362636109000192e+01
2.419506148671796666e+02
3.478194614876958326e+02
1.036433674974227870e+03
1.472112756824634971e+03
1.904888643842145711e+03
2.288441366314258630e+03
2.361130900814059714e+03
2.642784200673788291e+03
2.964422524409227663e+03
3.079976975678645431e+03
2.868279013132805176e+03
2.637466353453176907e+03
2.558554169630547676e+03
2.359520930303898240e+03
1.404289484283642878e+03
7.698697241503053874e+02
6.322449171527922118e+01
-3.437179889184695867e+02
-1.949302125478191385e+02
-5.503929907954766350e+02
-2.202158449144404585e+03
-4.878178813531313608e+03
-5.604362118256015492e+03
5.502702724362158051e+02
1.308739252234680407e+03
-4.125881665870689176e+03
-4.170594502923210712e+03
-2.382453966383682200e+03
-3.326365016296927934e+03
-3.952432344665837263e+03
-3.482545530671320648e+03
-3.676655825789438040e+03
-3.668783031603877134e+03
-4.218861753865488026e+03
-5.080939364024260612e+03
-5.165061402757982250e+03
-5.455210238372417734e+03
-3.307389290712074398e+03
-2.526625057117629240e+03
-5.263943412413223996e+03
-5.616250292462275866e+03
-5.218440809405435175e+03
-4.859524948589209089e+03
-4.255414947226435288e+03
-3.971089319797300050e+03
-3.565499799673179950e+03
-3.308633058402983806e+03
-3.017474236489764735e+03
-2.389985956427047313e+03
-2.693171997064302104e+03
-3.120996952396215875e+03
-2.367322216457471768e+03
8.768768424831093853e+02
-6.244111189146989318e+02
-3.733220065336630796e+03
-4.626534022243052277e+03
-5.306282068797912871e+03
-5.683474004020887151e+03
-5.546187851598186171e+03
-2.028393611099346572e+03
1.874025824659176578e+03
2.897121562622566216e+03
3.298950482551862933e+03
3.682576482379854042e+03
3.995009848239467374e+03
4.175314361484850451e+03
4.321511095171539637e+03
4.294648270768790098e+03
4.460771958854559671e+03
4.806909725779088149e+03
4.669066633039390581e+03
4.696299150681745232e+03
4.492651563359900138e+03
4.112169228788596229e+03
3.211882019319456049e+03
2.265734948722586523e+03
1.656747629945492463e+03
1.417959341580183718e+03
1.082314164403844416e+03
1.111823801191600069e+03
1.187491998521775713e+03
1.838478792804774002e+03
2.443900390169399998e+03
2.779893286711184373e+03
2.955480238794562865e+03
3.041804783723907349e+03
3.352909323334790315e+03
3.482807489611888286e+03
3.458505552935935611e+03
3.594031600777715994e+03
3.672429439171025933e+03
2.746804789079344573e+03
2.161006685794253372e+03
2.277035528384761619e+03
1.299022327909438900e+03
9.029120858751892911e+02
2.215127623286484493e+02
-5.674997455353292253e+02
-3.886799910924001438e+02
-5.910745240475317530e+01
1.940570316057903995e+02
2.822606330396708358e+02
7.332802585785854035e+02
1.194715032938524473e+03
1.339950067122976634e+03
1.562111880407993567e+03
1.693254546938084786e+03
1.900022002592431363e+03
2.476608050218652352e+03
2.396246576285862375e+03
2.202539920404091845e+03
2.355776894488177277e+03
1.961089813449328858e+03
1.472545524267522069e+03
1.087668785599037619e+03
3.681859288404987751e+02
-6.197724514055965983e+02
-1.048193998781180426e+03
-1.233185080071424636e+03
-1.169766748740083813e+03
-1.056925935407163479e+03
-7.395551004568444569e+02
2.133461545417306411e+02
7.637000690145623594e+02
8.775236142743281107e+02
1.421833405376345809e+03
1.317651886659352158e+03
1.300932320856124306e+03
1.519600553385629610e+03
1.747654889541848661e+03
1.926110709001032319e+03
1.761989936876568208e+03
1.699342395007456616e+03
1.252068535092223783e+03
4.180965576395593075e+02
-4.635708427829594598e+02
-1.334978996509696572e+03
-1.491225286097967683e+03
-1.555333751716660572e+03
-1.383339849145393373e+03
-1.206309446622946098e+03
-6.372285772525270886e+02
1.319892497044927211e+02
5.853351238239982877e+02
9.347868874263438101e+02
-7.356531791292603657e+02
-3.869989067212402460e+03
-5.997227907886022876e+03
-5.702431700698418354e+03
-5.132663328024416842e+03
-4.920864486191054311e+03
-5.220006316285921457e+03
-5.599147882455339641e+03
-5.865300210121544296e+03
-6.222541534718878211e+03
-5.726882326978831770e+03
-7.109341651022543374e+03
-7.908949660422530542e+03
-8.193830831436756853e+03
-7.973942163381610044e+03
-6.674307764244789723e+03
-1.878927545040478435e+03
3.717208717223319070e+01
1.372014445964054403e+03
1.860647112733014410e+03
2.043038858835501969e+03
2.367193097867933375e+03
2.469134579532361386e+03
2.760835112046881022e+03
3.050237093844004448e+03
2.890362644268273016e+03
2.732273502254613049e+03
2.595931658332591269e+03
2.011347435977904070e+03
1.256491712132445173e+03
4.483265069344034828e+02
-1.801781599570070398e+02
-8.340195918447519716e+02
-1.113241947826379146e+03
-9.029091982087678616e+02
-8.329847447411609664e+02
-2.604198554753382950e+02
4.827728523407126318e+02
8.336498137924321554e+02
1.780248927970691057e+03
2.296569069088825472e+03
2.516647487852530503e+03
2.588480514519955250e+03
2.250024894064953514e+03
2.252320479480003996e+03
2.259380028365100316e+03
2.241267629795357607e+03
2.049974783837908490e+03
1.688521762465619531e+03
1.202897518603256231e+03
4.630479198030580505e+02
-6.950190977409039306e+02
-1.196279334027870846e+03
-1.254745314629298036e+03
-1.199437545368051360e+03
-1.207317354226697034e+03
-7.483338752831946294e+02
1.255538876837006228e+02
3.363757965945273440e+02
7.541500635246466118e+02
1.082946054199039736e+03
1.475823103690407606e+03
1.700755480483720021e+03
1.851702016826119916e+03
1.668737482696904863e+03
1.532998132173357590e+03
1.444685778726898434e+03
8.208677803970737159e+02
4.737845232076286806e+01
-1.177735755368262005e+02
-5.794154392947491488e+02
-1.010869938499133355e+03
-1.190119466005952972e+03
-1.901171042850163303e+03
-2.121106849278027312e+03
-2.323749254486667724e+03
-2.035149305527745810e+03
-6.332464963445196418e+02
-1.810303052186180821e+02
2.066117643471638416e+02
7.476749895926648151e+02
1.218165667838514310e+03
1.221128431661231389e+03
1.351563442493047887e+03
1.413336639052629607e+03
1.531778696835852998e+03
1.722894613128235733e+03
1.339618135859178665e+03
8.889910271993106790e+02
8.966655283719328295e+00
-9.094935776434551826e+02
-1.539341988572338778e+03
-2.018606284771778064e+03
-2.280298066630193716e+03
-2.193449098438168676e+03
-1.928066411304861504e+03
-1.755083366044648983e+03
-1.124502802815948371e+03
-6.072445787820159921e+02
-6.827263760058897901e+01
3.463804441879880187e+02
5.747930013553921071e+02
5.599741701404138894e+02
8.379087906303269619e+02
1.250599535440872614e+03
1.294045001487997524e+03
1.385285251716123639e+03
1.265352246416741991e+03
8.192164858856881438e+02
-3.214404982946398093e+01
-8.817839954254598069e+02
-1.585707060129220963e+03
-1.880947337209146326e+03
-2.603497216480066527e+03
-2.408432275996537555e+03
-1.649719798977632081e+03
-1.300374323356341847e+03
-9.173730915538519639e+02
-2.936911724919648918e+02
1.026687374736091982e+02
5.886650979397192032e+02
9.933258321837666927e+02
1.307675325825387290e+03
1.433677549502529473e+03
1.753264017849145830e+03
1.698383978503493381e+03
1.617140894548939741e+03
1.492517476893510775e+03
8.455157884360917251e+02
5.020733147619488932e+02
2.230685429894766401e+02
-9.644940720159196417e+02
-1.526482003572125222e+03
-1.157796511885516338e+03
-1.499619943759890930e+03
-1.507601237634537711e+03
-8.363753406072157759e+02
-6.238460440929609518e+01
2.439544165072609871e+02
9.002859996149068138e+02
6.030873016605115708e+02
9.074185552611094181e+02
1.296148243689729725e+03
1.473054837822544187e+03
1.981241388833911515e+03
1.985635548304170925e+03
1.911448355705445692e+03
1.962189670250372274e+03
1.721964226329527719e+03
1.323464983366394790e+03
4.688839897001908525e+02
-5.115251657901537214e+02
-7.080316891527709231e+02
-1.032583104750421626e+03
-1.092416767959589833e+03
-7.603833359729346739e+02
4.215577659390852716e+01
6.103838494430594892e+02
9.202358281627817860e+02
1.351783157111166474e+03
1.859916725243416067e+03
2.214682495281668707e+03
2.511092980964776416e+03
2.914944862783380813e+03
3.226894355250786703e+03
2.988634254552954189e+03
2.650930786068500765e+03
2.855487281173232532e+03
2.798531196292406094e+03
2.072777246550675500e+03
1.162245003294368644e+03
4.297451203192926528e+02
-1.768192136241620744e+02
-2.806059802319313121e+02
-1.365558017265729234e+02
-1.104857332724806724e+02
3.584741230750663021e+02
8.822545758632693378e+02
1.310846895458881590e+03
1.921286085081074361e+03
2.287597555172152624e+03
2.481721580032465681e+03
2.625656687402697116e+03
2.846329831889178422e+03
3.094740982249064018e+03
2.987919315180726699e+03
2.811883533122822882e+03
2.632627288036890150e+03
2.788143865213155095e+03
2.368413550915519863e+03
1.425408943490406728e+03
4.480907248120959139e+02
-2.675751183337132488e+02
-2.217636287009082480e+03
-4.420130962225965959e+03
-7.393043220574083534e+03
-7.318314286600087144e+03
-6.999917546721738290e+03
-6.130856815087968243e+03
-5.852097355515065829e+03
-5.609584146275875355e+03
-4.934319895024022117e+03
-2.796290148455054805e+03
-3.408420178150147876e+03
-4.080898940738938109e+03
-3.938524287437027397e+03
-3.752140752516678276e+03
-3.704864982446448721e+03
-3.587675085523816961e+03
-9.735438027649649939e+02
-3.566562620501124002e+03
-6.373736493942457855e+03
-6.858020009345728795e+03
-6.414392933772614015e+03
-6.819894238497736296e+03
-6.209501721385680867e+03
-5.627155693108222295e+03
-5.017858522486868424e+03
-4.485528902171275149e+03
-4.312123021092898853e+03
-3.736605284301600022e+03
-3.316897926979416297e+03
-8.079384031735917233e+02
3.205241522373828957e+03
3.985672230766765551e+03
4.127411785405685805e+03
4.340474610678203135e+03
4.248935237642055654e+03
3.969866366739151090e+03
3.392297738965534336e+03
2.592213594064800873e+03
1.479626491494567745e+03
1.056557376112173642e+03
1.035009129442668382e+03
6.739565646473015477e+02
6.244475844421361899e+02
8.945715059291783291e+02
1.625347785130737975e+03
2.347859230635508993e+03
2.558168032257535287e+03
2.868351577028387055e+03
3.139433555698193231e+03
3.194470963623921762e+03
3.763497908537383410e+03
3.936521016750388753e+03
3.675629338978326814e+03
3.591871350898608853e+03
3.170307738323560443e+03
2.844977898188761628e+03
2.543878304952623239e+03
1.875004741643183706e+03
8.723924069172870759e+02
-1.579256355922929060e+02
-5.489804441322625053e+02
-7.057966504405017076e+02
-3.022549564483337576e+02
-9.314170659467299274e+00
3.952383083142496503e+02
1.162569078324896054e+03
1.333615491588679333e+03
1.325293702760757469e+03
1.580761880319381135e+03
2.126252253536410080e+03
2.284768668122398594e+03
2.328337691791184170e+03
2.174978970303619008e+03
1.743702888101377766e+03
1.601456862224014685e+03
1.429367648723849925e+03
7.584719187186055933e+02
3.717815012761807338e+02
-1.074520380676565701e+01
-6.531564075445638764e+02
-1.431794017418366820e+03
-1.754332005419457346e+03
-1.008832672991101163e+03
-7.534350030034030397e+02
-5.101104264541166344e+02
4.031612774458467356e+02
9.724300541622558285e+02
1.065698214586354652e+03
1.137972875115692432e+03
1.530305814002048464e+03
1.349662355174294817e+03
1.203016544757655765e+03
1.539455607399489736e+03
1.502003230108686012e+03
1.074677464315785301e+03
8.384336985293605267e+02
6.662989386887360297e+02
-6.374770148229465860e+01
-7.807613698291457922e+02
-1.111735596919822683e+03
-1.628719279588784957e+03
-1.936759079683776463e+03
-1.727847346063244231e+03
-1.363043168182428417e+03
-6.023000260211031218e+02
1.334259633345432690e+02
1.741370807263405140e+02
5.018536767784451058e+02
6.916080165458475904e+02
1.027377570041819126e+03
1.112112225386769524e+03
1.337773626863682239e+03
1.570384173465337199e+03
1.417931370937294105e+03
8.913902595128566873e+02
4.938057195621852884e+02
9.013836817357774578e+01
-5.796393672818394407e+02
-1.179614273801317040e+03
-1.825805431304612284e+03
-2.168272372520637418e+03
-2.416143258932268964e+03
-2.311357146286182797e+03
-1.764927497090022598e+03
-6.958751723098209823e+02
3.557796865022905308e+02
8.207862055878611329e+01
-1.609997249636307288e+03
-3.852453805905379340e+03
-6.582290044119716185e+03
-6.750559428869251860e+03
-6.225284525474061411e+03
-2.345455984229783098e+03
1.537867578859645846e+03
1.506640993330030142e+03
1.286828937406758541e+03
8.433774046414682743e+02
-3.676576321915430299e+02
-3.553541743933187149e+02
-9.617611354812183890e+02
-1.454952495175256445e+03
-1.791087580641637715e+03
-1.076169247466109937e+03
-6.651737829749225739e+02
-5.561209413042648748e+02
-1.410273525363624856e+02
2.561163389587027268e+02
-1.854633619514793054e+03
-2.732750751237913178e+01
1.120998093517424877e+03
1.201255363575694901e+03
1.605463063068390511e+03
1.832593825417716062e+03
1.607687422353528291e+03
1.628717134105682362e+03
1.550649091220408309e+03
1.135417065460983395e+03
2.580005597127470764e+02
-4.326639027673614919e+02
-7.506504953719571631e+02
-1.520965279243881014e+03
-1.647685804534203271e+03
-1.203826993838294129e+03
-1.085435139405206655e+03
-4.514663260944108174e+02
5.910589941913879386e+01
3.372249800995023747e+02
7.649094471700229860e+02
1.050129762075844155e+03
1.508900789232197894e+03
2.034206174036528409e+03
2.086018814269621998e+03
2.147321575507773105e+03
2.056125789221149716e+03
1.898456855959884479e+03
1.569289515165622106e+03
1.186578726701254709e+03
4.613515504896491848e+02
-1.250776725664919553e+01
-6.020728526272475847e+02
-8.422742234494004379e+02
-9.401769641613208250e+02
-6.638460145450881100e+02
-6.162529781964354925e+02
-1.313470871083157760e+02
6.698914002085882657e+02
1.313459367369483971e+03
1.509367199973171864e+03
1.092645476583146774e+03
1.311308851688844015e+03
1.766319381882175776e+03
2.425685118290591618e+03
2.882482296752521052e+03
2.645642038059098468e+03
2.169203724561701165e+03
2.105249203308851065e+03
2.063724317225498453e+03
1.483554882243475276e+03
3.198181875557758644e+02
-5.295304961064068721e+02
-8.005550713724902607e+02
-1.494268145647625943e+03
-4.828687502255754225e+03
-4.678751981223468647e+03
-3.002335866906254978e+03
-1.037443603247318379e+03
-1.973101992879169757e+03
-9.472580514777570215e+02
-8.789251634644681417e+02
2.308972318930902929e+03
5.284146489969210734e+02
3.637381863860611730e+01
-1.495096461444054285e+03
-1.224984393578299887e+03
-9.162335658764824302e+02
-1.657809528049443543e+03
-4.027790355801540159e+02
-1.636060047430366694e+03
-3.164931017894088328e+01
-2.959624628515421136e+03
-3.269009190826172471e+03
-4.169784216105252199e+03
-3.634934289555081250e+03
-3.502449261344511797e+03
-3.152281457128799957e+03
-2.245393992788848664e+03
-2.142778706567715290e+03
-3.117343192825112965e+03
1.160905870441793468e+03
1.230032830610146448e+03
-6.109475138578146698e+02
8.809222321979984827e+02
-6.973191396471128201e+02
-1.408613205043743847e+03
-2.089291512678691731e+02
1.948750598555515126e+03
2.774647124527058963e+02
-1.134828127247602879e+03
1.918606871650763992e+02
3.645721840490962791e+02
-1.837684184832455401e+02
-7.111727935236119720e+02
-7.766343034533050513e+02
2.587395853578665594e+01
7.274025513423714528e+02
1.334992871932611251e+03
1.444677952591705889e+03
1.503483932374811047e+03
1.912417727115209118e+03
2.108518412157884086e+03
2.104837476728303045e+03
2.309329774750392971e+03
2.725972354387669384e+03
2.794790311028772066e+03
2.789814479257139283e+03
2.442022772334816182e+03
2.124391104067232391e+03
1.324045211265868375e+03
3.583573336664657631e+02
-1.586287775555896076e+02
-5.501103004308547497e+02
-8.710520420449852281e+02
-1.014528868349971390e+03
-6.675293625054380300e+02
-1.910161437460810703e+02
4.579812876605743668e+02
9.582985943658654833e+02
-1.208886017194554142e+03
-5.084862320994701577e+02
1.098460053033205213e+03
1.707013490027393118e+03
2.105070122589840594e+03
2.444327189708984861e+03
2.306736617833912533e+03
2.040773621404710639e+03
2.082481366556839021e+03
1.993692824072881649e+03
1.476306321932137280e+03
9.343846956839349787e+02
4.688029310246482737e+02
-4.224330694335008047e+02
-8.474017096034964425e+02
-1.049120495262556915e+03
-6.915735418995395776e+02
-2.207770004607081376e+02
6.734309644209278076e+02
1.282623112286590640e+03
1.371683577231335903e+03
1.610865418864217190e+03
1.623031801387582618e+03
1.684128798063259865e+03
1.763086207110203759e+03
2.226928155816034632e+03
2.275653460203337090e+03
2.278271277056537201e+03
2.153822738199763080e+03
1.804192399743115402e+03
1.357364977077861795e+03
6.903574178112585287e+02
1.681084435693243222e+02
-2.134636026221009217e+02
-7.594347353019843467e+02
-1.069816569491859127e+03
-6.315736906073323098e+02
-2.357076794237389663e+02
5.257764791038422345e+02
1.031889417714838601e+03
1.277625346203576328e+03
1.807018296708780781e+03
1.994068890927878783e+03
2.250736287068969432e+03
2.356034366795376627e+03
2.561928013373010799e+03
2.301411565545724898e+03
2.236504009820278952e+03
2.169234121816133666e+03
1.657616136055642755e+03
5.275854021901799342e+02
1.051254041649693534e+02
-3.728407032102297762e+02
-9.103412164304992302e+02
-2.080404432437212108e+03
-4.673089022574779847e+03
-7.274335500839682936e+03
-8.368073491061421009e+03
-7.136342889956160434e+03
-6.544172644844003116e+03
-6.019521874270421904e+03
-5.434384655890620706e+03
-5.115716716829763755e+03
-4.852642191417487993e+03
-5.288950594081172312e+03
-5.310585649881351856e+03
-5.045682284069825073e+03
-5.032261068206710661e+03
-4.523270600490456673e+03
-4.231691640335890042e+03
-1.583543283176579052e+03
5.201577289763737326e+02
2.743494645799538603e+02
-9.499773582429401131e+01
-2.468644215519633178e+02
-9.332000536945851366e+01
2.386493756968791331e+02
6.991297331607577235e+02
1.424165929910099976e+03
1.686752944691151924e+03
1.521990495129602323e+03
1.888897345108149239e+03
2.257466552939904432e+03
2.671719553722889486e+03
2.530657935950535830e+03
2.536283259627112784e+03
2.559596888189062156e+03
2.381688080242572596e+03
2.196589945267039184e+03
1.991289329994138598e+03
1.522814454181307610e+03
8.401544277469459985e+02
6.428751808875109930e+01
-4.218176269395585223e+02
-5.181166166317766510e+02
-6.076403099382698656e+02
-7.933311323205390408e+02
-5.618513349092012277e+01
7.588636920824079652e+02
1.249856864198525273e+03
1.309851429716206439e+03
1.675901724124731345e+03
1.951027498151819827e+03
1.734247237020629882e+03
1.637624643112467766e+03
1.744164063634148761e+03
2.229873006057977364e+03
2.053797427833533675e+03
1.831991675973183419e+03
1.631495439710491155e+03
5.192977143999606824e+02
-2.635931014373633161e+02
-7.871810502311554956e+02
-1.404475288474002809e+03
-1.960503108506509079e+03
-1.804301746357004504e+03
-1.536734328668746457e+03
-1.284673820767705365e+03
-5.450319105968753775e+02
5.025581531714890815e+01
1.802481611346728982e+02
5.281405530919436160e+02
1.108664401801464919e+03
1.206986417968528713e+03
1.166104660449631410e+03
9.708532455395036322e+02
1.262244044008015635e+03
1.383414283342422323e+03
1.249336353217502165e+03
1.035025172382364644e+03
4.064818689030435053e+02
-8.113040714175830317e+02
-1.554396562120550243e+03
-2.069739674164881308e+03
-2.498335282759879192e+03
-2.978181923514907339e+03
-2.202258158675697359e+03
-1.583344918247604937e+03
-8.236977403561127176e+02
-6.022619864997476498e+02
-3.289271324563536609e+02
-1.866685394023699303e+02
2.865148070625842252e+02
5.886693953231284695e+02
9.797486489220406156e+02
9.157327540538852872e+02
1.065653872852910126e+03
1.089610720469819626e+03
6.656085599141443936e+02
3.535862539701517449e+02
-1.974166188666894470e+02
-7.564339105486361632e+02
-1.669507360242717141e+03
