1.813151188780724169e+03
2.478520673367521795e+03
3.213685742901197955e+03
3.671708331232023284e+03
4.252638145692387297e+03
4.785520824956144679e+03
4.583429203494716603e+03
4.212378448217651567e+03
3.705365852051897491e+03
2.812441664770110492e+03
2.245599147997821547e+03
1.710871085797721889e+03
8.741731602435340847e+02
5.518240671406600129e+00
-9.460344567305559167e+02
-9.484863084898435091e+02
-9.148075156556450338e+02
-1.215962199000937062e+03
-3.709475575110905083e+02
4.331665711794634177e+01
8.388174796692535438e+02
1.452641278369962947e+03
1.776896771176350285e+03
1.927712914743206738e+03
2.835337339044202054e+03
3.171733664594978109e+03
3.410644990595552372e+03
3.259566572468567301e+03
2.728648173461065198e+03
1.657531310393325157e+03
7.393251663258598683e+02
-4.825740518658657408e+01
-5.853412898346015254e+02
-9.756814123292851946e+02
-1.524183291288463806e+03
-1.734768466345761453e+03
-1.886479553905886860e+03
-1.575337400503427261e+03
-1.545257315185662492e+03
-1.252326200416230222e+03
-4.638449904292906467e+02
3.634645284056474566e+02
9.926978409176625746e+02
2.019795082947246328e+03
2.671723423030496633e+03
2.773506893784587191e+03
3.151176577341723714e+03
2.804679564532479162e+03
2.083035699342498901e+03
1.355245795329119119e+03
6.372936123029999180e+02
7.612486783673153923e+01
-2.033255163769279648e+02
-1.094057943243846239e+03
-1.478072422797907166e+03
-1.704422375676100728e+03
-1.771074678934663552e+03
-2.038040395851154244e+03
-2.112390494911077894e+03
-1.552102697177578648e+03
-8.801197295487534120e+02
-5.984299901873981753e+02
4.439830034307450433e+02
1.533194079911410654e+03
1.912181583656660450e+03
2.006943080578761283e+03
2.132555103654516643e+03
2.417929432379340597e+03
2.293030466198677459e+03
1.511859560777268825e+03
8.963486784672654721e+02
3.644426511186581763e+01
-6.149093879124012574e+02
-1.775701376312515777e+03
-2.282963883426072698e+03
-2.478765147070669627e+03
-2.625082025196869836e+03
-2.682983045531083462e+03
-2.214484145105555854e+03
-1.767540352117393013e+03
-1.366273640193152005e+03
-6.006307085626948492e+02
1.184507942865265591e+02
9.690108320020967767e+02
1.311008893229820387e+03
1.801454132564218980e+03
1.861416559820427665e+03
-4.718240600659004969e+01
-2.923399696292698991e+03
-5.866216199870686069e+03
-4.883718429616175854e+03
-1.654925110710507397e+03
-1.457892076741607070e+03
-1.967657573419483242e+03
-2.435224338505655851e+03
-3.455687897735205297e+03
-3.857184335762900446e+03
-3.094588288847446620e+03
-2.175979474301676419e+03
-1.417368255242632131e+03
-9.066441363474946229e+02
-4.428986908488474796e+02
3.788249177441429651e+02
1.581616683982077120e+03
1.996484648389933682e+03
2.496438264630844515e+03
3.320433112385157983e+03
3.372481642810247649e+03
2.739535981828697004e+03
2.101598423385518345e+03
1.174596430411749907e+03
4.455299155337534671e+02
7.932713913465288158e+01
-8.890590827037888175e+02
-1.554678710932805188e+03
-1.763558895652202182e+03
-2.077720112926405363e+03
-1.868192310015175735e+03
-1.946976186744667530e+03
-1.644109498989731946e+03
-8.366009509394375527e+02
2.605500157350151085e+02
1.116417200523373594e+03
1.714994083036944630e+03
2.120353314399807914e+03
2.208505142727603925e+03
2.231465192484586623e+03
2.156178833107640003e+03
2.390644060472221099e+03
2.022831720959186214e+03
1.209693614234916367e+03
6.182587231398445056e+02
3.025007926432244858e+02
-5.635943927588415363e+02
-1.185123132464015043e+03
-1.325126703717415012e+03
-1.871592576432772375e+03
-1.593543675615469283e+03
-1.310986358430807513e+03
-7.159331841381404047e+02
-1.233513347969628882e+02
5.957561282126933975e+02
1.507406430599195119e+03
2.411717804709218854e+03
3.055704678187732497e+03
3.424351065659800952e+03
3.294707579481873836e+03
2.868802038589003132e+03
2.207613708069084623e+03
1.931112292449889310e+03
1.488298327034420936e+03
7.122029473947565066e+02
1.027609502062693707e+02
-1.970649378021202267e+02
-3.292775455817999273e+02
-7.749280037723842725e+02
-1.226027571432285185e+03
-1.617567209727652653e+03
-1.438551732808283987e+03
-1.245965280431740666e+03
-1.301764711346287640e+03
-3.623961049182794795e+03
-2.980378415189760290e+03
-1.363040026558240925e+03
9.610127931350419885e+02
1.889799507374340237e+01
2.629630758909187080e+03
1.923229211448520118e+03
-1.373184350685108370e+02
1.774975910233622244e+03
-1.036883699152138661e+03
3.086203883856297736e+00
-9.751710985126276228e+02
-4.002633790636083631e+03
-5.884316128296630268e+03
-3.850252589152060864e+03
-4.688427995660788838e+03
-4.379846202657014146e+03
-3.348519818853395009e+03
-2.903405291852940536e+03
-3.604782126796366697e+02
5.472994585354662149e+02
1.708912250306498663e+03
2.590457632412642852e+03
3.007034571551110275e+03
9.536723770516466629e+02
1.968431382238721426e+03
2.177256809140229507e+03
1.008135492814264126e+03
2.706095263505024377e+03
-5.328864909232765967e+02
-9.328254242890219530e+02
-3.346735134334167469e+03
-2.465604203301182679e+03
-2.444464502532752249e+03
-3.993350144199376246e+03
-2.104261775836556353e+03
-1.566141023850855163e+03
-1.436041742956365169e+03
-1.176068510916715695e+03
-7.301077599924382184e+02
2.791748319113899512e+01
1.155018255593372942e+03
1.785224025612852984e+03
2.659588796891512629e+03
3.027158625421918714e+03
3.113955683288698310e+03
3.037965485041121610e+03
3.005209218224462347e+03
2.689670818027726455e+03
1.913355442641361378e+03
1.180235414923149847e+03
4.312508566445978886e+02
1.063306435722879115e+02
-4.535230236778082826e+02
-9.311113900827062935e+02
-1.283133397942439160e+03
-1.462772019026365342e+03
-1.529128040291864636e+03
-1.073203664583131967e+03
-5.249371328740331819e+02
1.186951390214235289e+02
1.059729709393692019e+03
1.816163863664010705e+03
2.489077164528488083e+03
2.564286402291171726e+03
2.087995915669350779e+03
2.396230241011875933e+03
2.377139017384162798e+03
1.767599477827322062e+03
1.098029731308661439e+03
9.324592690370774335e+02
5.313329698065061848e+02
-2.215905225162507293e+02
-6.495202595328755706e+02
-1.058348215886803246e+03
-1.700072218338682205e+03
-1.301928872223624239e+03
-1.467644169525541429e+03
-8.512036282130252403e+02
-6.186083340074294483e+02
2.713530783767480514e+01
1.019043965123686917e+03
1.780146559401203831e+03
2.568490352912718663e+03
2.955045812086907517e+03
3.290739480702498440e+03
3.164497480270795222e+03
2.721219950056032758e+03
2.408894271759984349e+03
1.980449346518627635e+03
1.145802026889274657e+03
3.828664177764216561e+02
2.116756794715009846e+02
-3.097739265303228535e+02
-7.175526158181199889e+02
-1.155697311896554311e+03
-1.508305552232753598e+03
-1.020342927329222221e+03
-5.768151466805149994e+02
-1.317402421487663844e+02
3.008845313989928627e+02
9.250922843870876022e+02
2.011938778134904169e+03
2.579448886651184239e+03
3.077686299450518618e+03
3.296668294357074501e+03
3.517347481222462193e+03
3.219701429795113654e+03
2.733733028653338351e+03
2.167414965363392639e+03
1.239731219798541815e+03
3.536107125718310726e+02
-1.570091145183751848e+02
-9.790860494844591813e+02
-1.499737767125280243e+03
-2.022959407689161480e+03
-2.409797262764624975e+03
-3.976230302814495644e+03
-6.337228360484348741e+03
-7.733749013333233052e+03
-6.995828291040949807e+03
-5.026442130018334865e+03
3.174183771234067990e+02
2.129800741986458434e+03
7.547696833396458942e+02
2.764349804062808744e+03
1.405550020559278437e+03
-2.892656580656269398e+03
-4.107259032747206220e+03
-4.853258682984077495e+03
-5.519641529031922801e+03
-6.317430099975473240e+03
-6.958723838506499305e+03
-6.927563136464231320e+03
-7.047920772980108268e+03
-7.083818417030841374e+03
-4.782269391727316361e+03
-2.136258589274266342e+03
-9.147604598024142888e+02
-2.848166653314508494e+02
5.655844600378370615e+02
1.529545940894928208e+03
2.297090825847262295e+03
3.339296945895140652e+03
4.206221130946781159e+03
4.176912517963215578e+03
4.055381568619757672e+03
3.461610750225297579e+03
2.891570580480046374e+03
2.264363018498843758e+03
1.166966248282046763e+03
6.803171528546610034e+02
5.493887390428033086e+02
-4.227935306942737270e+02
-1.003209839145229580e+03
-1.474891695476863333e+03
-1.665807321287258901e+03
-1.238941371411096952e+03
-3.623299216853237112e+02
-6.692736355095917133e+01
2.613578572961627629e+02
1.484565309108705378e+03
2.401735004853545888e+03
3.080879079176292180e+03
3.439063279265781148e+03
3.683357751874556470e+03
3.388810475785133349e+03
3.018451059046069076e+03
2.601266470313679747e+03
2.004307402205663948e+03
1.106564361569978018e+03
6.819997525124583717e+02
6.459829555021617864e+01
-6.426187838626233315e+02
-9.546904056583258580e+02
-1.693580900641437438e+03
-2.097250667459087254e+03
-1.932701331515460197e+03
-1.230891851987269092e+03
-9.598209591952968367e+02
-8.014814068591888372e+02
6.405368658797222281e+01
9.448519829617169989e+02
1.453278137866754150e+03
2.207639217231906514e+03
2.424022326491618514e+03
2.351206104925236559e+03
2.049061576550859627e+03
1.936947112376986070e+03
1.662557448385352473e+03
8.097939626972755605e+02
-4.483053157555493158e+02
-9.356995170179096704e+02
-1.407491362129688014e+03
-2.094779460207646935e+03
-2.589490736092090174e+03
-3.126643699025413298e+03
-2.639175567643301292e+03
-2.101094963631463543e+03
-1.530438875089074827e+03
-8.151243717352473368e+02
-3.201394159147688470e+02
4.584758451080081159e+02
1.132830217952302064e+03
1.505022702216247353e+03
1.801094243020962494e+03
2.447061733320931580e+03
2.278913666516575177e+03
1.641604196118549226e+03
1.065167071948453668e+03
5.995812907396309583e+02
3.083977452488337789e+01
-8.160856895937633908e+02
-1.434266622722437432e+03
-1.803704901433153282e+03
-2.245402994233053050e+03
-2.917394233220375099e+03
-2.783717666550884132e+03
-2.744386531928611930e+03
-2.088366786908261474e+03
-1.398634204247897515e+03
-5.291522385070795735e+02
2.341313825095647587e+02
1.182235683467535182e+03
1.741119860584802154e+03
1.599803283254252619e+03
1.870344633205423861e+03
1.681722475875516466e+03
1.812880338356412040e+03
1.323856000237417902e+03
4.885925278554830129e+02
-1.459974137359913300e+02
-1.063898147064221803e+03
-1.613251957383569106e+03
-2.025079323148213689e+03
-2.321371602692872329e+03
-2.553177703049510910e+03
-2.786530184868006472e+03
-2.451430295664379628e+03
-1.674938331594288456e+03
-9.410669132070140677e+02
-4.148170992266726671e+02
2.559163081243246438e+02
1.410180607937816603e+03
2.022934507026819119e+03
2.180149075394819192e+03
2.530819674064111950e+03
2.039913102912016711e+03
1.865402404556047486e+03
1.684237435953426484e+03
1.003355701431948660e+03
2.807512460516564943e+02
-3.046573179592153338e+02
-5.978801818353886119e+02
-1.252988769106101927e+03
-2.041105825632555025e+03
-2.930320521300925975e+03
-2.289174798077312062e+03
-1.541855569692415202e+03
-1.317577685999990535e+03
-7.305005600126693253e+02
-6.240451405514478722e+01
1.062635141422326569e+03
2.050787950137465486e+03
2.505880731098618526e+03
2.730760263748627949e+03
3.244866673040774913e+03
3.137756785730601223e+03
3.007651525536786721e+03
2.390620419322905491e+03
1.696604124678811786e+03
1.280110243820869528e+03
6.234988266949667377e+02
-1.106246374567713673e+02
-5.981675458287486435e+02
-8.621804968504526414e+02
-9.817534662639388898e+02
-1.326950622972547535e+03
-1.054832156056433860e+03
-5.844305820902467303e+02
-1.437205543453316636e+02
8.884583866125146869e+02
1.858835336815703158e+03
2.588672839899812971e+03
3.022849767543128564e+03
3.266396896528536217e+03
3.597389132665813577e+03
3.702907729916650169e+03
3.537892627510363582e+03
2.944972216481060968e+03
2.158531152990120518e+03
1.212421856206047778e+03
9.812176239759618284e+02
7.092485148577269456e+02
-1.136087804479152084e+02
-6.094406607937376066e+02
-9.362966743652500554e+02
-5.652236483528616873e+02
-3.812812597644442008e+02
-2.504286244870236828e+02
3.433174906609133927e+02
1.269978309622775441e+03
1.834605438570002889e+03
2.493248794554403048e+03
2.994918015140625812e+03
3.492607738955999139e+03
3.946341230202212955e+03
3.575102442013646851e+03
1.729910853686579003e+03
-1.389267100351972431e+03
-3.645436134245986523e+03
-4.131632038885929433e+03
-4.720849731090230307e+03
-5.808144778987698373e+03
-6.589540643501238264e+03
-6.673054746272831835e+03
-6.709724519821770627e+03
-7.186526483374936106e+03
-6.898454119894526229e+03
-6.176614109229341921e+03
-6.296933147850500063e+03
-5.545091472861449802e+03
-4.578134562362675752e+03
-1.907204203108487491e+03
5.948082155306818777e+02
-1.495907220749840462e+03
-1.248300886066536805e+03
3.019495983829040142e+03
4.577477775091883814e+03
4.268701997300905532e+03
3.360143450089287853e+03
-6.902080716071222923e+02
-5.001354217046939993e+03
-5.916350625866543851e+03
-6.140130064104604571e+03
-6.550748435177835745e+03
-7.175179422170984253e+03
-7.271405298984213914e+03
-7.305423260191671034e+03
-6.729210404250346073e+03
-5.223750548053746570e+03
-2.459852243775302156e+02
2.359176492262331067e+03
3.378799479156271900e+03
4.568962232908048463e+03
5.372719952394028041e+03
5.596095091288985714e+03
4.806139778676047172e+03
4.464893601947787829e+03
4.514296719601954464e+03
3.993411824015678576e+03
3.495233958709554372e+03
2.469778372159809351e+03
1.710091270665877346e+03
1.133115774368942084e+03
1.648688946093823802e+02
-5.846546491523398572e+02
-7.994043157066892036e+02
-9.023312557594824739e+02
-8.074609919349373968e+02
1.122744822576730144e+02
1.058940102784885312e+03
1.902607973593103225e+03
2.704331156551397271e+03
3.406189564750043701e+03
3.796209057643886808e+03
3.874457952330111766e+03
4.052013567475694799e+03
3.577916616989863542e+03
3.323142708590887651e+03
2.804727272001244273e+03
2.032652394760412108e+03
1.079931065692108859e+03
2.485737090187823242e+02
-5.063076792186811872e+02
-9.346006019651409815e+02
-9.542946066731195742e+02
-1.068483578071040483e+03
-1.100257129376552939e+03
-8.759437089491609640e+02
-1.742888373990853665e+02
2.309638810387867522e+02
7.585941689167279947e+02
9.348750233953877569e+02
1.410013134397402837e+03
2.032094020521102266e+03
2.719232701107166122e+03
3.548447237319220221e+03
3.158699651409590842e+03
2.587025707171560043e+03
1.933335666609168584e+03
1.054644045398073331e+03
3.699430731595114139e+02
-1.078286474495017586e+02
-4.797835582189073307e+02
-1.013031931744181179e+03
-1.876605378209278342e+03
-2.181580806266629679e+03
-2.047908535991316512e+03
-1.761523054989515458e+03
-1.357511713348700141e+03
-5.468532252828205174e+02
2.435756963809786555e+02
7.908164270254827670e+02
1.054915322349222379e+03
1.816832275754011789e+03
2.669604988865197811e+03
2.729347509994279335e+03
2.334955108476490295e+03
1.694374286806106966e+03
1.089674153424278757e+03
3.938210946418460026e+02
1.176763980799927722e+01
-8.415399136321676679e+02
-1.706145662975632376e+03
-2.095117438106167356e+03
-2.173445193909917180e+03
-2.288140533086866526e+03
-2.126266658461732732e+03
-1.843815759439341718e+03
-1.307765650733103030e+03
-8.200914598818068271e+02
1.552091727296568990e+02
1.020183896594908106e+03
1.636856941804249118e+03
2.010242271448634256e+03
2.546364322105569954e+03
2.638228631177568786e+03
2.235790692062869311e+03
1.793051125635645576e+03
9.999516627574764698e+02
2.914267977120333626e+02
-2.954961294122431354e+02
-8.218612695183099959e+02
-1.070761382629474610e+03
-1.336275386648973154e+03
-2.337386104203150353e+03
-4.798098640455877103e+03
-7.806495759115957298e+03
-9.281576755660282288e+03
-8.894309129176897841e+03
-8.424726263933946029e+03
-7.197838009216694445e+03
-4.592616586485931293e+03
8.459850672646856538e+02
2.293954829824602712e+03
2.386294193992864166e+03
1.986036825276783702e+03
2.359189661717707622e+03
2.525665406636926946e+03
1.526426403436191777e+03
1.181446145185982004e+03
1.666700195216086797e+02
-3.329086143485588991e+02
-7.044416913093182302e+02
-1.190964450060391528e+03
-1.461518468682634875e+03
-1.599123108932086780e+03
-1.994705617442182074e+03
-1.847332780825929376e+03
-1.247067092678879362e+03
-2.168764663865007947e+02
6.712283983927277404e+02
1.527236032701143586e+03
2.133191547911124417e+03
2.466157765922033377e+03
2.651121302722386190e+03
3.163057591167267219e+03
3.212955972547480997e+03
2.821801822861820710e+03
1.996565945052983125e+03
1.389176401397517793e+03
8.905880257449701958e+02
3.247993771350797942e+02
-5.512671341710919251e+02
-1.226587289997858534e+03
-1.778216875941862554e+03
-2.201191693915090582e+03
-1.981531239821878216e+03
-1.464296940788625989e+03
-9.254525748517249895e+02
-5.449616572408953061e+02
2.531810220036330463e+02
1.168968357295693295e+03
1.882444326928215787e+03
2.758586581469492558e+03
3.338451911003706300e+03
3.487076882201544322e+03
3.604408122306153018e+03
2.836466056001390825e+03
1.905250085654365421e+03
1.597794102916736165e+03
9.380138642171066294e+02
2.288282043231650107e+02
4.323490738930145483e+01
-5.368178759597286671e+02
-1.259383632800748501e+03
-2.097465350754332576e+03
-1.884974262600208476e+03
-1.036994358430999682e+03
-6.656028787204809305e+02
2.232780469424288228e+01
8.988944188005374372e+02
1.348031229302785277e+03
1.900844519802804371e+03
2.499338179591593871e+03
2.897475506259377198e+03
3.307372864236641362e+03
2.931997628410559173e+03
2.677352908124731130e+03
2.362398100355196675e+03
6.541685970733195745e+02
-2.724334254980086371e+03
-2.894076887790219644e+03
-2.289209870280038103e+03
-2.778768699831336562e+03
-3.939726278656833074e+03
-5.347059689612100556e+03
-3.552784865207741859e+03
-1.832920103433544909e+03
-3.726440974343596281e+03
-3.498305286631360559e+03
-1.846478544850470826e+03
-1.657971128342037218e+03
-1.570089664066259694e+01
6.413620058516698919e+02
1.674300469442490567e+03
7.581473170642441346e+02
2.258905252298327923e+03
9.957842374783524519e+01
1.651474615640333639e+02
-4.913874149909667608e+02
6.349731507019305354e+02
2.211923830985391817e+02
-1.957165260255294186e+02
-8.468124314767272836e+02
-1.293075407035183616e+03
-2.241510688953111639e+03
-3.773157916772085628e+03
-2.297970183495307992e+03
-3.583951703773545432e+03
-1.109072708004532842e+03
-2.384290227874017546e+03
1.894257148766851913e+02
2.371484983807710876e+02
-1.311089091468122660e+03
1.834758155667834217e+03
2.033721459358760285e+03
3.038448739952667097e+02
2.045076595994992658e+03
2.403391088805740310e+03
2.070847076714610012e+03
1.477403078115059088e+03
7.820509961507436856e+02
-9.425179348803651180e+01
-7.635443795568887708e+02
-1.228796953784210700e+03
-1.796017114320712153e+03
-1.928272017017293138e+03
-1.466509371951282446e+03
-6.187146529832613169e+02
9.016614070834162931e+01
7.171208460818812682e+02
1.167132886697513641e+03
1.844320679717607163e+03
2.596844996690183962e+03
3.138796129842342452e+03
3.280173632503614499e+03
3.575789820263496949e+03
3.261699896850102959e+03
2.587175678085956861e+03
2.079172778618730263e+03
1.065675415308104903e+03
2.996377037732458462e+02
-1.299806740495232589e+02
-2.366194856368852015e+03
-4.254168068210763522e+03
-2.761851949696477277e+03
-2.403220408473250700e+03
-3.385294688500902339e+03
-3.637237608836414893e+03
-2.185109415961622290e+03
-7.546938985811975442e+01
9.366904510028711002e+02
1.565658387798103377e+03
2.404889141793062663e+03
3.068505956092024917e+03
3.422251430559703749e+03
3.170206333088876363e+03
2.908632767061775212e+03
2.665448891320409984e+03
2.191610605608172591e+03
1.334073561971944400e+03
7.518696673253856488e+02
3.259004158515265885e+02
-2.667801564088820214e+02
-9.312667494219498394e+02
-1.634726239490807757e+03
-1.589414346551061954e+03
-1.515030333229372218e+03
-1.157702114481648323e+03
-2.885893925741834209e+02
4.842784721705173752e+02
1.162973474613297640e+03
2.040539604389536635e+03
2.411965043977343157e+03
2.893259981786322442e+03
3.017448701017053281e+03
2.823510313350202978e+03
2.815455613291315785e+03
2.532286692283016691e+03
2.079915419819174076e+03
1.113364596916926985e+03
2.735977847106773311e+02
-1.744436954079545501e+02
-8.118160900601286585e+02
-1.462534628010472261e+03
-1.756645118654666476e+03
-1.779180447176700454e+03
-1.448173123622590083e+03
-9.316171906520764878e+02
-6.925181556777804417e+02
-9.183652151513547324e+01
7.374439894664847088e+02
1.757339657175347384e+03
2.529922618179142773e+03
3.102151065429534356e+03
3.344063546740979746e+03
3.321677241399510876e+03
3.107990368217065225e+03
2.485002882040767417e+03
1.493705421773928265e+03
5.810144017691926592e+02
5.785943172198006579e+01
-4.207430414922811224e+02
-1.223845233271350708e+03
-1.824455276159040068e+03
-2.772585082539489576e+03
-3.631239938102803535e+03
-4.846461022658648290e+03
-7.967166888419859788e+03
-8.386340280502217865e+03
-7.291972033150979769e+03
-5.995078371795169005e+03
-5.484695804533897899e+03
-4.543732551751610117e+03
-4.153141653602225233e+03
-3.784910377207912916e+03
-3.494992449064628090e+03
-1.118392529644274191e+03
1.351902975044673667e+03
1.784855025481871735e+03
1.384434041913191777e+03
1.066861504094164133e+02
-5.154329792872176768e+02
-4.179790675188529576e+02
-1.088986322467869968e+03
-1.656353432540237918e+03
-1.569111557106329428e+03
-1.054320209550551454e+03
-4.139233020839202482e+02
-3.668700695906977671e+02
-2.018873960264333078e+01
1.315164254816763787e+03
1.994257229824918795e+03
2.453156208213483751e+03
3.007920072035456997e+03
3.540544028737897406e+03
3.610090307766568912e+03
3.256539082161955776e+03
3.028934771274773084e+03
2.588294606802260660e+03
1.816642274438593404e+03
9.169189082037439675e+02
2.190884192878501153e+02
-4.618692257894810496e+02
-9.159935689913653505e+02
-1.215260088087728946e+03
-1.470594084211874815e+03
-1.581056650421908444e+03
-1.399602037913159847e+03
-9.611649567885109491e+02
-2.036926066833395907e+02
4.968256012250829485e+02
1.320433046378520430e+03
2.268238167859509758e+03
2.600262226985686084e+03
2.642577912471913351e+03
2.742266683622633536e+03
2.733314812917604741e+03
2.276694341985686606e+03
1.574409239983753650e+03
8.714275501856590154e+02
1.167127787456445560e+02
-8.255871181370472414e+02
-1.472319455790063557e+03
-1.772337783692132916e+03
-1.908702690654737580e+03
-2.435379748940661102e+03
-2.756443531677861301e+03
-2.533061508090936513e+03
-1.994415917160371691e+03
-1.235962021910450403e+03
-2.958441201327688077e+02
5.498409452741340147e+02
1.303077737642821830e+03
1.932881754913716350e+03
2.279373025251562012e+03
2.313528954925272046e+03
2.407453090422374316e+03
1.806143749275853452e+03
1.059569179121786419e+03
7.707963791052823588e+00
-9.734908728853198454e+02
-9.450395373359597215e+02
-1.086928240152420813e+03
-1.819209059143777949e+03
-2.224866356223103594e+03
-2.647931953232979140e+03
-2.583405343754117439e+03
-2.465271025028665463e+03
-1.815506937387463040e+03
-1.049038285690519388e+03
-2.068982633885743212e+02
6.999037819145629555e+02
1.378548410233800041e+03
2.126031566974398174e+03
2.429360456863346371e+03
2.205576801473710475e+03
1.708625930549925897e+03
1.000497593932189375e+03
5.841708987686141654e+02
2.486596500318181029e+02
-2.740068471128021201e+02
-6.169186356160702189e+02
-1.685145502001054638e+03
-1.927696908758210611e+03
-1.800581146556094836e+03
-2.192820952830049919e+03
-2.219454554120523426e+03
-2.033518344497432281e+03
-1.683971312446114780e+03
-1.082848477025748252e+03
-2.851384447789264982e+02
4.721243969620093139e+01
2.962121292892792894e+02
8.899005516531927924e+02
2.257304801599778330e+03
2.900352485569711916e+03
2.611110149629189891e+03
2.200533767218763387e+03
1.627504584533678099e+03
8.090640973987766529e+02
-9.983251631397391179e+01
-1.620738053333383633e+01
-8.181785569664137938e+02
-2.210828861211342883e+03
-2.554155508093114804e+03
-2.056207200953391748e+03
-2.169024583193187027e+03
-1.829581601679613641e+03
-1.165945329965266637e+03
-1.007115657747814566e+03
1.149314747067627280e+02
7.361908125353061223e+02
1.459709241975697751e+03
1.916433032438195369e+03
2.388318584628418193e+03
2.566341157664372531e+03
2.842845090833435279e+03
2.616736263953286198e+03
2.037770218755925725e+03
1.122082764450564810e+03
6.864992546080910643e+02
2.996322106375441052e+01
-4.506365973325313803e+02
-7.216738547007097395e+02
-1.028515926805484696e+03
-1.274378856767647903e+03
-1.507701987718773125e+03
-1.460115820724557807e+03
-1.232881320380706256e+03
-5.962446861568753320e+02
2.272351544353331292e+02
1.298478105862895291e+03
2.134381538243294017e+03
2.465117701805505476e+03
2.834552515234056045e+03
3.293827581485834799e+03
3.304563980890428866e+03
3.034026695072773236e+03
2.358981203237809041e+03
1.959259174490982332e+03
1.302138777152434386e+03
5.913946627799336966e+02
4.101906238277821330e+02
-9.972513469689283738e+01
-6.883895586836054008e+02
-1.143787817508720991e+03
-1.316961568095057146e+03
-8.611822525454932702e+02
-3.079201724324651082e+02
2.786475091437862375e+02
8.890168067349393368e+02
1.722741176043705764e+03
2.537941082001129871e+03
2.963010882897209285e+03
3.462235410906046582e+03
3.564713468516907596e+03
3.548406507606052855e+03
3.614191046938110503e+03
2.900068266312458036e+03
2.306074911635432272e+03
1.970140241449670611e+03
1.056206483960295827e+03
3.451976674434864094e+02
-1.818969934254474197e+02
-1.861732802329987067e+02
-3.365883983018286472e+02
-7.961560598282536603e+02
-6.898775103946584295e+02
-3.047358189352751765e+02
-7.647396558313270134e+02
-1.243889693939211384e+03
-3.056149235084645170e+03
-4.909462150116082739e+03
-4.148759317815422946e+03
-3.746028254001310415e+03
-2.760256667365109024e+03
-2.077398090495600172e+03
-2.312475063881929600e+03
-1.921541436861046350e+03
-3.099364932310225413e+03
-4.723953397904097073e+03
-5.285614767109724198e+03
-5.755223176821491506e+03
-6.199731077138844739e+03
-7.031197361375126093e+03
-6.777718518623728414e+03
-3.858365541617967210e+03
-5.202053411609061186e+03
-2.393726496370420591e+03
1.203622992457603232e+03
1.303016290206328222e+03
-1.631454055094385694e+03
-3.017695567588805261e+03
-2.762673750662002931e+03
-2.281382755754626487e+03
-2.429756237499483177e+03
-2.350734883294648625e+03
-2.994319461430843603e+03
-2.761512172124709195e+03
-2.849307514434480254e+03
-3.823661896332205743e+03
-3.686542788813505467e+03
-4.449886174251105331e+02
7.969772818155015557e+02
7.683628272999740147e+02
3.311674111633265625e+02
4.834309093583887602e+02
2.461882594669568789e+02
2.754534112816530751e+02
1.043304858189522974e+03
1.854781998949600165e+03
2.662990104619027989e+03
3.235962010215246664e+03
4.258741430499563648e+03
4.515398562874234813e+03
4.729981603923809416e+03
4.694605145922264455e+03
4.485268832815297174e+03
3.692969609471066633e+03
2.885717463200350267e+03
2.472519148574891915e+03
1.960381923044709765e+03
1.146289171161293098e+03
5.382459931706142697e+02
-7.674267505328373318e+01
-3.566135688676280893e+02
-6.503844411204853486e+02
-5.300518408002627666e+02
3.440906806430115594e+00
3.251476466559807363e+02
9.980740801060992453e+02
1.748224185765896209e+03
2.341573794430619273e+03
3.101437721051147946e+03
3.925000457795831153e+03
4.085367474110878902e+03
3.779549113295304778e+03
3.611525866083069104e+03
2.797297091961864680e+03
2.030953655617295908e+03
1.620655748868719002e+03
8.900722729952414056e+02
-3.539429418342653548e+02
-1.053171387378382633e+03
-1.269333642608210312e+03
-1.097528711182105553e+03
-8.718324704495774995e+02
-7.702668782358846329e+02
-6.756036203849441790e+02
-2.799965781905805216e+02
7.337274430592657382e+01
6.567301675873385420e+02
1.265151900860127398e+03
2.254483078563545860e+03
2.893841943371911384e+03
2.899366100705794452e+03
2.925879260036085270e+03
2.694384849906498403e+03
1.961810595312386113e+03
6.380688299212837364e+02
5.321895454126424738e+02
4.491641846981553385e+02
-4.750612627614591474e+02
-1.102566578070750893e+03
-1.567363731854847629e+03
-2.074424410584350881e+03
-1.969735360853644579e+03
-1.840420352470329590e+03
-1.520469054888521441e+03
-9.268009906149191011e+02
-6.254359769676190126e+02
1.346517919850174110e+02
7.814830843825628790e+02
1.307086169823240198e+03
1.732479682560725223e+03
2.759693596029597302e+03
3.282712140416709190e+03
3.126526059285557494e+03
2.713098888386295584e+03
1.544427475412165677e+03
5.334596082258909746e+02
1.381401794171018480e+02
-7.965627940685309341e+02
-1.501668441998252320e+03
-1.848254561056272905e+03
-1.993379411735090571e+03
-2.054038364941856798e+03
-2.268247879970363101e+03
-1.923068431523752452e+03
-1.695536726753699213e+03
-1.270622941192174267e+03
1.274621942962055776e+01
1.094530534722836819e+03
1.673731394349055563e+03
2.382351419788099065e+03
2.436422366284299642e+03
6.289776773151302223e+02
-2.045055038503767719e+03
-5.033683989048259718e+03
-5.970963674800402259e+03
-6.394961838533402442e+03
-6.492713957847628990e+03
-6.873264956505054215e+03
-7.965693757323631871e+03
-7.910004589862513058e+03
-3.645268089849811531e+03
-1.862564918699061764e+03
-1.881926728203435232e+03
-1.533326898440258901e+03
-1.281776187354085778e+03
-9.122703355187865100e+02
-4.668590061716785726e+02
4.365233546333747654e+02
1.742845670840556068e+03
2.805156464716691062e+03
3.445521449838371609e+03
3.511944738583697472e+03
3.374383527555698493e+03
2.836722067997126032e+03
1.833900383059182559e+03
1.277908675672815662e+03
7.097009248344049865e+02
-1.271603250593129530e+01
-6.163973566619026769e+02
-1.263403984629401066e+03
-1.289775800939023839e+03
-2.020539119009763908e+03
-2.737738555565150818e+03
-1.546404256783761639e+03
-6.955086846222714030e+02
-2.240504204832781454e+02
1.007008678269889970e+03
1.751731119304927915e+03
2.348119121591173098e+03
2.278221801698456147e+03
2.446024230462791820e+03
3.135480812849459198e+03
2.802628904645249804e+03
2.160432764017735281e+03
1.761867056728670605e+03
1.434872088075144120e+03
7.644276376860610753e+02
1.235378611934655169e+02
-7.148637031139576266e+02
-1.045791261021647415e+03
-1.424220379272976515e+03
-1.723205016329346108e+03
-1.552773018808689358e+03
-1.044886578187015857e+03
-7.305087822437048999e+02
-1.656396263982535402e+02
2.516478216604757563e+02
1.473433884468145607e+03
2.419784154468170982e+03
2.655745531071800997e+03
3.319369348233590244e+03
3.489676021014017806e+03
3.362669768727699193e+03
2.926270775510613930e+03
2.392539131855982760e+03
1.742526142527950697e+03
1.066194385655033784e+03
4.014182332780686693e+02
-9.750911541508232361e+00
-9.093135883452554253e+02
-1.498345020019405865e+03
-1.636755547265606992e+03
-1.404593670987396990e+03
-9.468504215033927949e+02
-7.325193976813686731e+02
-8.755668171314669053e+02
-2.956978407751606483e+03
-2.874651144951331844e+03
-5.825516014337190427e+02
1.913746735032775632e+02
2.431167814908406399e+03
2.220867571905544537e+03
9.274541733643144426e+02
1.835977379143229655e+03
-1.580516713625116608e+03
-3.901244124121466257e+02
6.261181335933861192e+02
-2.155733810389338942e+03
-1.260675280826589187e+03
-1.558733902360205093e+03
-5.952927756102769308e+03
