-1.323428231198369929e+02
-7.457007849314223904e+02
-9.463716847693457339e+02
-8.912963648236700465e+02
-5.403884883289955496e+02
1.044241372913482451e+02
9.791604392244269093e+02
1.450823279671220007e+03
9.584625686789393058e+02
3.530782161261575993e+02
2.497177624885680700e+02
3.473587185270366149e+02
6.679281727039184489e+02
9.134646496911749409e+02
1.265039529740996841e+03
1.600678299407480836e+03
1.771391503014957607e+03
1.251195346283205936e+03
4.560862173711655601e+02
2.151272768838335026e+02
-3.205718772946993909e+02
-7.089581551033222695e+02
-7.192133913321086993e+02
-1.059376731591648195e+03
-1.282367109993132317e+03
-5.280791489201185414e+02
7.764264932140727069e+02
8.690283848436386052e+02
5.727642525140316820e+02
2.906439210081754823e+02
2.379398054221394148e+02
8.657131097415250451e+02
1.101832038364946129e+03
1.279257470155183910e+03
1.479764349152075283e+03
1.732510088674719782e+03
1.840946923524445538e+03
1.280061378111999602e+03
3.976002965567104184e+02
-1.494614129629670742e+02
-6.506470114791312653e+02
-1.052810707738755355e+03
-1.476800996782164702e+03
-1.640764440078766484e+03
-1.549652790231778226e+03
-6.963593879289434199e+02
2.041488428189075819e+02
8.738500109908167133e+02
9.397680963119804574e+02
7.139202251584562191e+02
5.353003531350177582e+02
6.048680985694991250e+02
8.985709260027119853e+02
1.038414533624408932e+03
1.578432277269298766e+03
1.981724039373915730e+03
1.900276657279707479e+03
8.930845081249703981e+02
-2.898832276118685058e+02
-9.736456816870919511e+02
-1.160212791596526131e+03
-1.626666790993486984e+03
-1.976105471512377108e+03
-1.840549723514511925e+03
-1.467890998201633010e+03
-6.890131270971785398e+02
2.310383423161609073e+02
1.033232595592400912e+03
8.375788615570008915e+02
2.551192048340787153e+02
1.628250728638034275e+02
1.147057404278701966e+02
1.947168032214409266e+02
4.338182554254732963e+02
1.109063346107100188e+03
1.546484606464383205e+03
1.447110962043514292e+03
1.099907017456521771e+03
-2.571487975008694775e+02
-9.960532396819354517e+02
-1.180797289879818209e+03
-2.282501948943900516e+03
-4.619285441643640297e+03
-7.309136805519114205e+03
-7.073986283310873660e+03
-5.829816264125439375e+03
-8.135627571732178467e+02
1.371747800653831291e+03
-1.440874032977418665e+03
-4.695429180972023460e+03
-3.902926925736883732e+03
-2.421358124289509760e+03
2.842530316219059046e+02
1.297883967399367293e+03
1.460538628511472780e+03
1.918240458553649432e+03
1.856994021704221723e+03
2.006840384841983678e+03
1.165705020062655421e+03
5.945911925287757640e+02
2.854389850300960916e+02
-3.998042334335498822e+02
-6.792487429497545008e+02
-5.118874245748664862e+02
-2.776787881623222916e+02
4.664441953135882954e+02
1.100544431718343731e+03
1.752570988027096519e+03
1.722492948176312439e+03
1.071358020017373747e+03
8.221454423211820313e+02
8.638515694092077410e+02
1.076387982641634835e+03
1.362766724456628936e+03
1.878035422397461616e+03
2.427187642871033859e+03
2.350279617563830016e+03
2.032301398795424802e+03
1.446216627813817695e+03
8.589841308917476681e+02
1.886000096416218241e+02
-2.739989614155599043e+02
-7.658637249233499915e+02
-1.036098254598015728e+03
-1.095596420096507472e+03
-6.003176237344275705e+02
2.047888332102371578e+02
9.266745431794528258e+02
1.161364435875602567e+03
1.163901157748416153e+03
8.052961099199542332e+02
9.585377933890187023e+02
1.299579759803713387e+03
1.183374368033586279e+03
1.488955151425822351e+03
2.040340949967286178e+03
2.417614014266270260e+03
2.281744920714328600e+03
1.314718239735818088e+03
5.925702234726445568e+02
-1.327499211318909715e+02
-3.263467471173181593e+02
-1.101275879265123649e+03
-1.612556638070139115e+03
-1.249143375326603746e+03
-5.329166149852919716e+02
-3.028663573579130457e+02
8.849883890141703660e+02
1.451700030965500673e+03
1.470267358537373866e+03
1.137697693413210118e+03
9.409913089052616897e+02
1.257094252558235439e+03
1.607972132760150771e+03
1.987652257585506959e+03
2.112210341587317089e+03
1.527652399308870827e+03
-1.634950154339419214e+03
-3.596582008018407123e+03
-2.089315885199681361e+03
-1.928195663896711267e+03
-3.156225862352457170e+03
-3.244480411080600334e+03
-2.928037468947417437e+03
-1.838795493399550878e+03
-3.199659713921874300e+03
-7.415884789980741516e+02
-9.376206183373448084e+02
8.612255688743850897e+02
-1.355041989763020865e+03
-1.658427658640222035e+03
-4.102863515407489103e+03
-2.175342877177422906e+03
5.380689915699038011e+02
-8.476089511393412295e+02
3.416579299702174808e+02
-9.210575396758263196e+02
-2.444736104793224968e+03
-1.034419359946558416e+03
-6.610984727680590822e+02
-2.445811553625817396e+03
-2.641537845574934636e+03
-2.047347521889830887e+03
-2.966374750144698737e+03
-2.996536263178424178e+03
-9.217479692851904929e+02
-9.379308300728157519e+02
4.499023080738029421e+02
2.016719211696989760e+03
1.906579744322953957e+03
9.745197312071162514e+02
-1.227462880532060808e+03
-3.833925923699410987e+02
-1.282310383516625734e+03
1.259811959598015164e+03
8.330064595810343917e+02
7.279887144911843855e+00
1.649690943930859021e+03
1.618213698204286402e+03
1.008889057801905551e+03
2.266553597293921030e+02
9.745003797482051766e+01
-5.177299371094428579e+02
-7.619521176189889502e+02
-7.011967697884052768e+02
-1.923740340365855559e+02
7.975393538436832159e+02
1.928579464735297961e+03
2.030723717406654259e+03
1.349874160694376314e+03
6.530506473167132526e+02
4.844172845524722675e+02
5.820342231406281144e+02
7.919149426259906477e+02
1.543038310477748610e+03
2.062459991421432733e+03
2.284267732827248892e+03
2.228398238054965987e+03
1.311872312246129013e+03
1.947280491899250592e+02
-3.790069604718567575e+02
-6.111883129633561111e+02
-6.519895580877099519e+02
-7.268752954160917170e+02
-9.153702877801978275e+02
-9.216441236772175216e+02
-4.747831229728162157e+02
5.356233255854268691e+02
1.050188845438432736e+03
1.134129929576647328e+03
8.232774558762160950e+02
7.529261952085430494e+02
8.629495504009363458e+02
1.202074341959086723e+03
1.594472903400988571e+03
2.025391592624758914e+03
2.286564615368950399e+03
2.128043076248469788e+03
1.540669320904644337e+03
4.387834380172426449e+02
-1.997888357476925592e+02
-4.881031951992845279e+02
-8.094594900155943833e+02
-1.137250148171955288e+03
-1.113946198673702838e+03
-6.955654913730094222e+02
2.192276067834799278e+02
1.146375356958733164e+03
1.394490664430491734e+03
8.235895472675114206e+02
5.487422766060726644e+02
3.668454280414903792e+02
8.218404480283479643e+02
1.355718458372665964e+03
1.750483202890965686e+03
1.919183530253099889e+03
2.427796805340782157e+03
2.391368571679169690e+03
1.447885394199755638e+03
4.313149176331021977e+02
-1.443592513087338887e+02
-6.832192893191185021e+02
-1.169341270682705272e+03
-1.581839221872392500e+03
-1.331647737360754945e+03
-7.966683559368442502e+02
4.511292757572668393e+02
1.593698962234403552e+03
1.812007172307042765e+03
1.398060975171440532e+03
1.037879587638291014e+03
9.994805071580930189e+02
7.318081843711736383e+02
9.408141353866016061e+02
8.775018202329603128e+02
1.050868622112836874e+03
1.526948737851683745e+03
1.435772011442224084e+03
8.343330218401820275e+02
-1.639407869697835451e+01
-6.013621101645304634e+02
-6.976273260108970362e+02
-1.066329261470089023e+03
-2.647579981464960838e+03
-4.578423199136862422e+03
-6.801479015769132275e+03
-6.226804755247367211e+03
-5.042497079521012893e+03
-4.770576945413928115e+03
-4.759997974649250864e+03
-5.084719248776979839e+03
-5.629743171836326837e+03
-4.631089676178699847e+03
-1.014813572928067288e+03
1.101107003234899139e+03
1.533720578448696870e+03
5.530070916162684398e+02
2.000710585750691806e+01
1.478744670736293529e+03
7.542419805717210011e+02
1.044570543482216465e+02
-5.786282112123794832e+02
-6.091321422204752025e+02
-6.131280568299954439e+02
-4.565465983272680432e+02
-4.732988163537497428e+01
7.756200951021986612e+02
1.411308865077508699e+03
1.495754629236020719e+03
8.699681005696820648e+02
2.259959587417771445e+02
5.648315305886437727e+02
9.194676530068942384e+02
1.114900037813892595e+03
1.192177662311559970e+03
1.484327809806044797e+03
2.009369855363407169e+03
2.172308670480871569e+03
1.520211185065247264e+03
3.360672675685360105e+02
-2.751460081275600942e+02
-2.984177913856939881e+02
-6.408226780342398570e+02
-1.244404047639179225e+03
-1.327156610959174486e+03
-9.689366552582798704e+02
-4.086748109164830112e+02
6.356204904260492867e+02
1.268965622293939532e+03
9.274043200878033986e+02
2.549344519374045035e+02
2.005583178276057765e+02
7.833144466688306693e+02
9.042157276014346508e+02
8.172607773045292561e+02
1.079511630682462965e+03
1.756011180636322706e+03
2.051785494672154982e+03
1.538930800230940349e+03
3.715850508560357639e+02
-4.582288473685539429e+02
-1.245759529743324492e+03
-1.789012230681475330e+03
-2.208172987513913540e+03
-2.175080063192080615e+03
-1.589053378089056878e+03
-8.371443007678503818e+02
-4.149535688809685325e+02
4.456320243305396502e+02
7.477287777542213689e+02
4.832966486289410000e+02
-2.745970885323860671e+02
-2.489820758597336692e+02
7.821060603630686501e+02
9.476162029842606671e+02
1.265616387200302825e+03
1.310167738270150494e+03
1.276292052465042843e+03
5.050749543333762404e+02
-2.784908863316185261e+02
-1.108450230731035390e+03
-1.618829882654855965e+03
-1.507667835729040689e+03
-1.828021500250901454e+03
-1.922906912095421603e+03
-1.358197887510353894e+03
-6.468440203464077740e+02
5.491401860235836239e+02
8.697586020534906766e+02
8.870427517368973440e+02
5.709857724666225067e+02
2.616134141703250862e+02
3.059528181768080231e+02
3.909691419889297777e+02
4.486398559930422607e+02
6.909664959858038173e+02
9.819837629627384104e+02
9.137613775825856237e+02
7.773123055871927818e+02
-1.374067328157160830e+02
-5.584020399053764550e+02
-9.236619400804477209e+02
-1.118297098409123009e+03
-1.724412740127394954e+03
-2.175988630332913544e+03
-1.966977984145556093e+03
-9.543675892842387611e+02
1.168581113679683057e+02
9.886996084411615584e+02
1.077172715938244664e+03
3.293291969840324782e+02
-4.618624408376638257e+02
-1.144858387019718720e+02
6.243945024692543910e+01
1.118833350046650139e+02
5.718733025240310326e+02
1.143406303501196589e+03
1.169515278179792176e+03
8.411780250872657234e+02
1.854073911029497310e+02
-6.708233372673580561e+02
-8.425941432004094622e+02
-1.346031332737576577e+03
-1.638143458020857224e+03
-1.214054519414548395e+03
-8.857602176675919736e+02
-4.901994956441392333e+02
4.396580560066376506e+02
1.121849682051657055e+03
1.001296317443199769e+03
3.889861620259873121e+02
-7.709543676185330696e+01
-3.699821684307882492e+02
4.233382719973964754e+02
1.050956229402935151e+03
1.380752620017201707e+03
1.431638442734332102e+03
1.850696197617669668e+03
1.886129663198486469e+03
9.655409246995712920e+02
3.329250740433280953e+02
-5.559542140547639377e+01
-7.319617159615532387e+01
-3.849301515352997853e+02
-7.328592872204950481e+02
-7.369576577739950380e+02
-4.469265981608008360e+02
4.657858030467040749e+02
1.556554887856677624e+03
1.639122576953704083e+03
1.048312102907966164e+03
8.181894419513652110e+02
1.260722473578427525e+03
1.717089969163793967e+03
1.946316855464439413e+03
1.990886765536537268e+03
2.296972714325824199e+03
3.049874995467780536e+03
3.219211268263342390e+03
2.043027536583358142e+03
1.029315227642098307e+03
2.012959077788647733e+02
-8.155790875121610384e+01
-3.781419067024741594e+02
-5.045335831767068271e+02
-3.656105848297074203e+02
4.675487355708353903e+02
1.470970512062653825e+03
2.234677966596356327e+03
2.640534439963077148e+03
2.403666102608225174e+03
1.895917627165281829e+03
1.776455709613500403e+03
2.224065285080246667e+03
2.397604621152536765e+03
2.818288050681051118e+03
2.884032010148820518e+03
2.618893640806803432e+03
2.770815142052805186e+03
2.006806898364051222e+03
1.246859186050059407e+03
5.288968152263283855e+02
3.384171446654220006e+01
-2.438184531896504836e+01
-5.358427452664122939e+02
-2.438489870212652022e+03
-4.445221506298136774e+03
-4.559007765658800963e+03
-3.958856803816701358e+03
-3.397779661748457784e+03
-3.742755778281573839e+03
-4.313824206430870618e+03
-3.724951026913105579e+03
-3.901164565723734540e+03
-3.735470740836310142e+03
-3.280894651109920687e+03
-2.907420584501745452e+03
-2.821774931912582360e+03
-2.716075580556276691e+03
-3.530391151779480424e+03
-2.563707831805897968e+03
-2.055995040563987004e+03
-4.498273150582098424e+03
-5.087612264424285058e+03
-5.663086340767455113e+03
-5.480663833192526909e+03
-4.873280272917862021e+03
-3.830832206657498318e+03
-2.655308763938299307e+03
-2.594673631740775818e+03
-3.037921340144061560e+03
-2.989999545022762504e+03
-3.341898641625482469e+03
-3.237594087746241712e+03
-2.656134671311322109e+03
1.235543897955573811e+03
3.858537493445475320e+03
4.079861116775037317e+03
1.759532399350113565e+03
-2.338426576918793671e+03
-3.753949299900273218e+03
-4.603075610816627886e+03
-2.724829152861996135e+03
4.317377258416403265e+02
8.955791063666147238e+02
1.302799650927298444e+03
1.901533487430750711e+03
2.708856651690150102e+03
3.394817559545310360e+03
3.421380640581877287e+03
2.950578526014705858e+03
2.595474894953035346e+03
2.464110889039598987e+03
2.699469373836597242e+03
2.855584123512358929e+03
3.138510231077066237e+03
3.748270318018513990e+03
3.941963440745036223e+03
3.767643645942172498e+03
2.546344425662771755e+03
1.845104166181391520e+03
1.444896786015121961e+03
1.240735212459145487e+03
9.245355641618430127e+02
4.052505375767541409e+02
3.049938524646626092e+02
6.039012928830546798e+02
1.608036761244077752e+03
2.322390927494922835e+03
2.562069453507035178e+03
2.211079551531221114e+03
1.326490900534628281e+03
1.283245853440774908e+03
1.330335691166925244e+03
1.457725385804218149e+03
1.731663147653104716e+03
2.468235573158885472e+03
2.758502902938186708e+03
2.385530663220612041e+03
1.278334049055934656e+03
-1.932954927479419666e+03
-9.342768462290339357e+02
-5.195327692413094383e+02
-1.167903727440343800e+03
-1.434534524975728800e+03
-1.410293712934090536e+03
-7.821080580050884237e+02
7.615882084501048155e+01
1.016715481478892684e+03
1.302176550682224388e+03
1.133159747407378973e+03
1.010647134629483958e+03
6.879578649422574017e+02
7.223303148296569134e+02
1.056856504768847344e+03
1.625268210356544159e+03
1.907608541333419225e+03
2.238988005933179920e+03
1.879330045759608083e+03
5.655991562388413740e+02
-2.522434381300131463e+02
-1.172190398478441693e+03
-1.424274874846136754e+03
-1.832567224756552605e+03
-1.990123893782292726e+03
-1.896899807761791408e+03
-1.376809705478848855e+03
-4.198052030166966802e+02
5.170061890542630181e+02
9.706644830803321611e+02
8.571947939932442750e+02
3.776264320288013892e+02
1.289727917585320824e+02
1.131980870187631467e+02
4.552436478544319129e+02
5.541011299729879056e+02
6.598317919076208682e+02
1.094418085952274396e+03
9.778353391515098565e+02
3.701076014518769739e+02
-4.697541235604481926e+02
-7.617830669986876728e+02
-9.550520570928009647e+02
-1.148656155108598114e+03
-1.411700428083260704e+03
-1.241215509366571951e+03
-1.108117745419609264e+03
-5.513090693236989637e+02
3.461374310063922053e+02
8.461413282568636305e+02
8.317926675133396657e+02
1.811487487880956238e+01
-3.029477196903188201e+02
-1.224904342913331590e+02
6.464662494449100016e+00
3.923316951539041142e+00
-1.082110852608081359e+03
-3.425640164339110925e+03
-5.423616974367099829e+03
-5.763083926250556942e+03
-6.284088548548646941e+03
-3.059671256309073669e+03
-1.326907468783525928e+03
-3.923936435759815140e+03
-4.745925203917627186e+03
-2.309691648265264121e+03
-1.370173228295120680e+03
-2.053684685845300351e+02
1.064701687408949283e+03
1.422967696220617199e+03
1.164356438592665882e+03
3.668930221952659849e+02
1.135622358726936625e+02
6.836577361624914317e+01
4.992307024837678568e+02
1.095142320691131772e+03
1.544059050578116739e+03
1.719060229873535263e+03
1.977147363563780118e+03
1.406194447477949097e+03
4.992020270755665479e+02
3.521704057832486683e+02
-4.800212824214536056e+01
-5.843962443809629121e+02
-1.040093846366387652e+03
-1.041080959994300429e+03
-1.083288048874907645e+03
-4.617102261591069805e+02
8.746467377170348527e+02
1.390774702793260758e+03
1.346672870498315660e+03
8.333743836693372486e+02
4.788374339690103625e+02
7.579876928254030872e+02
1.396828187743720036e+03
1.446293549292885245e+03
1.611428782914867043e+03
2.264225841603869867e+03
2.269706855131119028e+03
1.368884992067857411e+03
7.267842807494998851e+02
2.644075350610053761e+02
-2.713161884633202021e+02
-1.099510487838190784e+03
-1.495267031065426863e+03
-1.357608256238457670e+03
-7.634461833422930113e+02
2.173251564750502212e+02
8.457226155604504356e+02
1.504692934186850607e+03
1.565252311039874257e+03
1.140389800960306957e+03
7.950932236250408778e+02
8.533701851059805676e+02
1.335204068703242228e+03
1.616609406544075455e+03
1.994577680283789277e+03
2.604178505178322212e+03
2.426387351625241990e+03
1.983219968952811314e+03
1.219709323449424119e+03
1.658164582318753446e+02
-5.244770169623618585e+02
-1.103174688645862716e+03
-9.004314107899996316e+02
-8.592281104882912359e+02
-4.924396619848440650e+02
2.669688971632842822e+02
9.040386610011044013e+02
1.403804975025999056e+03
2.411800595903179101e+02
-2.031786958479471195e+03
-1.977063842859557326e+03
-1.570610965537363199e+03
6.355370143904716542e+02
-8.296684747059906613e+02
-1.872160841803255153e+03
1.240927920148691612e+02
-2.297880948107936547e+03
-1.238068074315911417e+03
-3.059435179397674801e+03
-2.091979108842159803e+03
-6.776894316962528819e+02
-3.221603413079664733e+03
-3.435838666305879542e+03
-2.144471756881037436e+03
-1.032356494955380185e+03
-2.702405312920416691e+03
-2.004593365479971681e+03
-8.679489223039009858e+02
6.865772264190728720e+02
-1.134968275542896663e+03
-1.449535029396974323e+03
3.018653768589177844e+02
-1.125855723282408007e+03
-9.186946125260034250e+02
-2.161533720959222592e+03
7.836323596944885139e+02
-4.615213858571654271e+01
-1.291874956572146857e+03
-1.874518393680611780e+03
1.789212761881585720e+02
3.204049157222685267e+02
1.128528420775998455e+02
-1.433781015510700627e+03
-1.860516894753873657e+03
-2.266275566089170752e+03
-5.949500334512913469e+02
1.232516948043874436e+03
5.211770552912327759e+01
-3.611576242096849114e+02
8.287169026900519384e+02
6.057427902199510754e+02
9.689606131136164322e+02
1.412372148149327359e+03
1.675912859882916109e+03
2.369628398025404749e+03
2.673539214659040681e+03
2.692666560359430150e+03
2.535017979462556013e+03
1.925600655784446417e+03
9.924598842233913274e+02
3.697274983543856592e+02
-1.675412377593855240e+02
-4.675218430039570308e+02
-6.983111193838428790e+02
-5.078994098911142032e+02
-7.421627058943310828e+01
8.978125564362112527e+02
1.479075677641613083e+03
1.804680077463800444e+03
6.526095810418278234e+02
-1.242178709257547780e+03
6.092451107384166562e+02
1.446837668335115495e+03
1.594618151186480873e+03
1.816764704066575177e+03
2.257165728320245762e+03
2.567910364544989079e+03
2.368216521427526459e+03
1.705974006718476858e+03
7.661714211358984130e+02
-1.412536862001819031e+02
-5.353624590744396983e+02
-9.403277104205544674e+02
-1.003228524930293133e+03
-9.729251809248054315e+02
-3.003444559460098731e+02
5.626214350090800735e+02
1.626839036749868228e+03
1.481063059069707833e+03
1.282437807203363718e+03
1.231725173444074471e+03
1.290940762766742637e+03
1.522226617411688267e+03
1.645755259785549470e+03
2.307650006602502799e+03
2.556727464892754597e+03
2.665034436364388512e+03
2.404325341912797285e+03
1.258494252682909973e+03
2.688913893057078894e+02
-4.877827053865374296e+02
-6.057028537373347490e+02
-4.789619010016754146e+02
-5.435702366941801529e+02
-3.885254061468485247e+02
2.462360639564373344e+02
1.014749556303155032e+03
1.763961632710073445e+03
2.190835554897428665e+03
1.875407641759369881e+03
9.236790940491638366e+02
9.235878916793666349e+02
1.109139183336555107e+03
1.270279249244247239e+03
1.522067418314383985e+03
1.733448090268314445e+03
2.181444070589476723e+03
2.148047556333538978e+03
1.170271587890980982e+03
2.331226024139971287e+02
-2.314641795415537899e+02
-4.405454641999145338e+02
-1.031260676989797730e+03
-1.033605437270646007e+03
-8.695616085791010619e+02
-3.870557027031898087e+02
-7.860147763900248492e+02
-1.448485235223669406e+03
-3.890458949551058140e+03
-4.560918718641182750e+03
-5.123863650203850739e+03
-5.328348073236351411e+03
-4.599360246441558957e+03
-4.223890748721547425e+03
-3.866940937855029006e+03
-3.825256073389298308e+03
-3.610113820965625109e+03
-3.344507387917742562e+03
-4.464339886717790250e+03
-5.096644670907100590e+03
-5.377469871188515754e+03
-4.424894755646790145e+03
-7.159625115143272751e+02
6.228881562604782118e+01
-1.052088049601596595e+03
-3.830030741517020033e+03
-4.499528442409583477e+03
-3.771557656403749661e+03
-1.364090081148964373e+03
8.090473232768880507e+01
6.439083519565946290e+01
1.442406759490135300e+03
1.777966974295374939e+03
2.271046708070218301e+03
2.322721443440345411e+03
2.680958376974719158e+03
3.023829932116707369e+03
3.095324573456564849e+03
2.368462496337253924e+03
1.576240050352603930e+03
9.256527792006862683e+02
6.127030643207954199e+02
-2.557373978402865191e+02
-6.176621281588152215e+02
-7.550335617827411170e+02
-5.207371019472931266e+02
3.762711782276467147e+02
1.516011629516087623e+03
1.945517344602491903e+03
1.507804039361655214e+03
1.105940982709562604e+03
8.799201718071076357e+02
9.877288679635701101e+02
1.263367445601039890e+03
1.559872881803004475e+03
2.187289658106395564e+03
2.730646749298374743e+03
2.668983540621372867e+03
2.103336962852504712e+03
9.597533522558921959e+02
-1.097729627606012457e+02
-3.232589496014102792e+02
-8.097285430859702728e+02
-1.543261919900169687e+03
-1.311818272480987162e+03
-6.103075961439774346e+02
2.084010335209090670e+02
7.942776196189805660e+02
1.257250177427531753e+03
1.304337794354010612e+03
7.406554167638715853e+02
3.965703047579692679e+02
8.072228577879891418e+02
1.153645573487405272e+03
1.272891772507858832e+03
1.674784643142485038e+03
2.199705449505524939e+03
1.602799804351380089e+03
-1.476309278830799030e+03
-1.739624693121495511e+03
-1.279258147431850830e+03
-9.602322014878426444e+02
-1.231781776785272996e+03
-1.475974970015585086e+03
-1.211762315220393702e+03
-9.690209823874869244e+02
-2.896436692060630094e+02
7.013593366102952587e+02
1.166992283485350526e+03
9.272503261911510890e+02
8.914263647552571967e+01
2.116977466956073215e+02
8.999815075614611715e+02
9.309126048615750051e+02
7.915489071681961377e+02
1.147946882922856048e+03
1.270085335797892640e+03
9.199944641115368995e+02
4.046968117267480238e+02
-5.527555713112292324e+02
-8.023831861811473800e+02
-1.230203397434951285e+03
-1.716292121028132215e+03
-1.868762795824051182e+03
-1.787583884511464021e+03
-9.826665970473583229e+02
-7.990805858069732892e+01
3.426796046645000615e+02
7.600549571368761690e+02
4.192330069425680108e+02
-2.327328373360179512e+02
-6.638313942740154516e+02
-7.900956083155205079e+02
-4.925539809292784525e+02
-1.942095992418151411e+02
4.008985462157294819e+02
9.948264410181382118e+02
1.186604581624983439e+03
5.822882246417115084e+02
-3.781650647915918171e+02
-1.014810653205676772e+03
-1.287729374830732695e+03
-1.635998266581507096e+03
-1.600665783135985521e+03
-1.407732340825194569e+03
-1.418153087808406781e+03
-1.059902891868535107e+03
-2.029448680527739839e+02
1.137229366987348982e+02
2.620477441465924926e+02
-2.309482476970880214e+02
-3.443117087744183209e+02
-2.690692575881083712e+02
-4.742460422487081928e+02
-1.888806028573770277e+02
3.890328013043257442e+02
8.055331457132253945e+02
1.406596920635467313e+03
6.262254731909537213e+02
-2.566807691068872259e+02
-5.211341141700504522e+02
-1.165192274195733489e+03
-1.538895855953781620e+03
-1.571345968340654053e+03
-1.745561767966015850e+03
-1.389411603659731782e+03
-8.229326684420643687e+02
5.785426419609064652e+01
1.006941159053145384e+03
9.682579765307657453e+02
4.801286104821704157e+02
2.352587644660114847e+02
2.444294615074602746e+02
6.381731347756922332e+02
1.066795763251213884e+03
1.342682766208555677e+03
2.014665938873518144e+03
2.538708266605272911e+03
2.195859693076664826e+03
9.271241512939243421e+02
2.404614524451781108e+02
-4.354677230611458185e+02
-8.853956527029578183e+02
-1.313584060297130691e+03
-1.224965303941805359e+03
-8.127623939945843858e+02
6.723501742502332945e+01
1.171958640828710486e+03
1.755277618896322110e+03
1.821618771485738307e+03
1.730491020020254609e+03
1.338149726175059641e+03
1.216353070152443479e+03
1.509126336812858881e+03
1.869441515066219836e+03
2.356409835827386814e+03
2.557858305420575562e+03
2.430870925837619325e+03
1.898298162141599050e+03
7.281921770467749866e+02
-3.655764662867495929e+01
-3.457722502753746880e+02
-5.048833183549727437e+02
-6.448847958417867403e+02
-4.334653350947915555e+02
-1.517467731434153109e+02
4.630712522243956641e+02
1.391060915148255845e+03
2.089178084580979885e+03
2.393429942613081039e+03
2.214831402874534888e+03
1.965344160329025954e+03
1.697994298630474077e+03
1.464726793222290780e+03
1.628496157103694713e+03
1.858312773912449074e+03
2.111230952940926727e+03
2.540259156947965039e+03
2.378389021796147063e+03
1.661591081454439518e+03
1.033867572494341175e+03
2.801489970671569267e+02
3.540734732718984645e+01
-5.484842373302861915e+02
-4.925423922697177090e+02
-2.067066273968692371e+02
2.820388326142719748e+01
-5.947375370384901316e+02
-2.235757413125596031e+03
-3.968793484854177677e+03
-4.689751852484870142e+03
-5.135639979840367232e+03
-4.625487613320955461e+03
-4.338318416534772041e+03
-3.811147622591445270e+03
-3.319957474438843747e+03
-2.639671299194895255e+03
-1.883217220147937269e+03
-2.532610885331499958e+03
-3.893834546540797874e+03
-4.538932363455960513e+03
-4.777889334301874442e+03
-2.819773871747697740e+03
-2.564599800019924714e+03
-5.185435147759936626e+03
-5.627150440976029131e+03
-5.059691079286700187e+03
-4.398039912857888339e+03
-3.615144699553547980e+03
-3.129011176145541413e+03
-3.511562777548630038e+03
-4.265780998791041384e+03
-4.020633894837132630e+03
-3.803131530738455695e+03
-2.617260904228952313e+03
1.797029130542235180e+03
3.435755486513910910e+03
3.618963415273896771e+03
3.195638824507527715e+03
2.825833504665476539e+03
1.966589089009122517e+03
1.374876673730869015e+03
1.360683684769951242e+03
9.589749214378247189e+02
5.497400262450173614e+02
7.370467782584170209e+02
1.424020338322255611e+03
2.124757267276600487e+03
2.967239855739512677e+03
3.057511572192039239e+03
2.842623078572240502e+03
2.252635162639703594e+03
2.205554743021691138e+03
2.365307686062349148e+03
2.759937080763003451e+03
3.210514742781067071e+03
3.429098735155476334e+03
3.562736022301920002e+03
2.870448141257307270e+03
2.129219589672035909e+03
1.178018445713830715e+03
4.599603911890199583e+02
-7.880159808209775463e+01
-5.282210488620570459e+02
-7.862907735305595907e+02
-6.557518894919999184e+02
-1.576955767900188619e+02
4.509560277173139298e+02
1.129207146480699066e+03
1.437998734056140393e+03
8.053907049117083261e+02
7.274264361520974944e+02
1.087171200759105659e+03
1.253621856911211353e+03
1.689795051616340061e+03
2.105609986840656802e+03
2.268988451781937783e+03
2.129119142237911092e+03
1.807944047373363901e+03
1.182259573728531905e+03
5.454888795413273783e+02
8.042275344295445905e+01
-4.240911039737723627e+02
-1.113981093256779104e+03
-1.322178058015527313e+03
-8.477834469626850478e+02
-4.715465389805567611e+02
2.623837668587922280e+02
1.448798617826392729e+03
1.688798312443989289e+03
1.621405983560432105e+03
1.146654972849958540e+03
1.065531065308178995e+03
1.223010247921663222e+03
1.285055070719892228e+03
1.346730972999520418e+03
1.465057218554368319e+03
2.056051771392554656e+03
1.458697626986249134e+03
8.250891409651663935e+02
-2.780864008052081005e+01
-3.010416718171580328e+02
-7.876510043735383988e+02
-1.243715550415883399e+03
-1.407338236322028479e+03
-1.221477760327230726e+03
-4.680387533776098508e+02
1.300303297145377428e+02
8.747169931645383940e+02
9.530194588846994748e+02
6.099363944449319206e+02
1.247022335674742166e+01
-2.033907724097092000e+02
-1.897146871501290377e+02
-1.454456566164220988e+01
4.201386848871109692e+02
1.059397910247192158e+03
1.316258885526238828e+03
1.558673177357866280e+03
9.626709837766408100e+02
1.932810383379075461e+02
-3.596429672733252687e+02
-5.581713395745281332e+02
-1.236357599605676114e+03
-3.005225435206818474e+03
-5.430814009671180429e+03
-7.431049118365884169e+03
-6.427855899871292422e+03
-5.408233652163895385e+03
-4.227229943617975550e+03
-6.748712057765031886e+02
6.998340473976809335e+02
-2.236097214246646672e+03
-5.192752735526661127e+03
-5.284132111793499462e+03
-4.250982747256881339e+03
-8.645415564548844713e+02
1.720110017938604642e+03
1.916972995985885063e+03
1.383093065946541628e+03
3.354514834463009834e+02
-1.930128698975136956e+02
-3.563143489336255243e+02
-5.265380413445780050e+02
-7.537705736556838474e+02
-7.700081826889120293e+02
-5.581822249571365546e+02
-1.122528724686225559e+02
9.917170085887011055e+02
1.169685252295346345e+03
1.048728120231422736e+03
9.208556522966122202e+02
9.759924639434404980e+02
9.551632411382872760e+02
8.113208664950468574e+02
1.201386438991248724e+03
1.743401273927680904e+03
2.038351696023946715e+03
2.064278829395799676e+03
1.458229437094578088e+03
3.891540802541573498e+02
-3.469830396972877793e+02
-4.853040745716296556e+02
-8.579209662735706843e+02
-1.289784390994565229e+03
-1.117925685527898395e+03
-7.072601095047480158e+02
1.452308271407191853e+02
1.459583223653728510e+03
2.128795569712454380e+03
1.815827938943820300e+03
9.496840706803516241e+02
7.583702962581257907e+02
8.098243771610362955e+02
1.256023999848430321e+03
1.648981130291413137e+03
2.064731134428133373e+03
2.210327377294869621e+03
2.116737928961703801e+03
1.291969601107197832e+03
6.179789867881280543e+02
1.769818885466887259e+00
-8.606694339615787612e+02
-1.272396485004531314e+03
-1.155528550930375559e+03
-9.990320394800122585e+02
-3.538912759509818784e+02
2.479195499589857263e+02
1.309409182271103418e+03
1.748002904386934688e+03
1.630517808617908486e+03
1.303896025866043374e+03
1.152078724239208668e+03
1.083088498806864663e+03
1.287802140358270435e+03
1.276298063920002733e+03
1.292614737818717913e+03
1.265726530568332237e+03
1.627722455399880118e+03
1.050579521678031369e+03
4.032780977022911202e+02
-1.331688988322326850e+02
-2.806809000067648867e+03
-3.874708787047311944e+03
-4.528910133629461598e+03
-3.568422792014473544e+03
-1.249129449817781506e+03
-2.072016970546632365e+03
-2.328019770150027853e+03
4.888795675959502205e+02
-1.877333900100416258e+03
-2.254631286458075010e+03
-1.716995122006783049e+03
-2.444736114195876269e+02
-1.872096509496888984e+03
-1.220856923317864585e+03
1.394371610572583222e+03
4.045828545103373699e+02
