1.060486622090220408e+03
1.353051726223249034e+03
1.324605374976701341e+03
1.356157148261376506e+03
1.799744710384819655e+03
2.089382084965005561e+03
2.338093582869763850e+03
2.911915324391269678e+03
2.871874557384730906e+03
2.782000237608177486e+03
2.485295093772038854e+03
2.090799072533984599e+03
1.416460361475154741e+03
7.082244420212896330e+02
1.892149282941558681e+02
-4.063253498645644157e+01
-1.984305475444547255e+02
-1.109113188655176373e+03
-8.356883358849067918e+02
-4.429111314695618518e+01
2.080681253504740766e+02
6.323990492662528595e+02
9.191286051295834341e+02
1.054470224620596127e+03
1.340610627803835996e+03
1.747553400503292323e+03
2.260167711476313798e+03
2.539327886641550776e+03
2.450076370604494969e+03
1.922509251018615032e+03
1.530483966288978536e+03
1.310011966027413337e+03
1.303176898119010957e+03
1.222918849167933558e+03
9.282924601674378664e+02
1.823213222279429999e+02
-3.474865874450692900e+02
-7.239560351463408097e+02
-4.131485988140852896e+02
-2.751379971822470907e+02
-1.324805016216667468e+02
2.746545769098465826e+02
3.881915180802482723e+02
4.532033854528935990e+02
1.257689232425281261e+03
1.747610385953131981e+03
1.807684838529044782e+03
2.147151211301828425e+03
2.147826994909988571e+03
2.087601101518566793e+03
1.906430126551863623e+03
1.667270172841289195e+03
1.346072944832375015e+03
1.024899620087146332e+03
7.526856610182537679e+02
3.312674595918707610e+02
-5.029678880885180803e+01
-5.320539147697787712e+02
-8.070425322415904930e+02
-5.792582424695784766e+02
-3.969693074030436009e+01
2.156283279696599493e+02
4.457041638096627594e+02
8.914915052917097000e+02
1.546147242279552756e+03
1.765640982256158622e+03
2.085885067535602957e+03
1.971884070609821720e+03
1.798634165454389176e+03
1.613175881119766245e+03
1.860484370153878444e+03
1.644555014230581264e+03
1.258298106467542311e+03
1.095757533199127238e+03
5.569533985197550692e+02
-1.192779786486164255e+02
-6.719540929559475444e+02
-1.188047587417440582e+03
-1.878622232830219218e+03
-1.436645213421535573e+03
-3.515190543787099386e+01
2.628271680969485828e+02
-8.687257918515174424e+02
-3.921735090748657512e+03
-7.898156509937000919e+03
-8.412024822697463605e+03
-7.686350560692189902e+03
-6.983142974867755584e+03
-6.688411680985696876e+03
-6.842050788335697689e+03
-6.567145290478601964e+03
-6.754687746539346335e+03
-6.439709279516562674e+03
-6.136170397850853988e+03
-6.989036486762467575e+03
-7.489305607319928640e+03
-7.576103293070257678e+03
-7.180437815529850013e+03
-2.148374819900646344e+03
-1.973820195808180415e+03
-1.035825720565107076e+03
1.330537760248776976e+03
1.729289900665728283e+03
1.660550290273940391e+03
2.145324389574619090e+03
3.106665283099398948e+03
3.358484829745307252e+03
3.458862987720811361e+03
3.691756118727022567e+03
3.963209894500009341e+03
3.925289705813551336e+03
3.438909679475331814e+03
3.073054883680149487e+03
2.783793636187382162e+03
2.167152936370439875e+03
1.537151968340999247e+03
1.227611691163145224e+03
7.656042632526815623e+02
6.751703712725277455e+02
9.632883842326273225e+02
8.279923561549276201e+02
1.135245062466022773e+03
1.625072046239225074e+03
1.940545213827179623e+03
2.407744356278300984e+03
2.777639693157947477e+03
2.924294981488847498e+03
2.993725674301551862e+03
3.182908713851100401e+03
3.157939238117638524e+03
3.176781505929456671e+03
2.639457024344271758e+03
2.138977039578663607e+03
1.799358461031331217e+03
1.164597305917847507e+03
4.406516917713446446e+02
6.655142795636386666e+01
-3.156957833290777558e+02
-3.260838854789796528e+02
-5.898423506625274371e-01
4.117903241622866517e+02
6.010827342242988607e+02
6.653579842175100794e+02
1.010657877493675983e+03
1.597103898380264127e+03
2.350701911704615668e+03
2.520280694048284204e+03
2.443772632496016286e+03
2.289319525403557236e+03
2.300297379802804699e+03
2.136139809750855420e+03
1.524773148535234441e+03
1.772064064133988495e+03
1.668711283442487911e+03
7.543068602595025141e+02
6.221402934024824845e+02
-1.877911564972986298e+02
-6.944750202524445513e+02
-1.476752804509715816e+03
-3.166728077167920674e+03
-1.359405383125405024e+03
-3.597377701324558075e+02
-3.764743687077788309e+03
-5.340376033695790284e+03
-3.374540813926532792e+03
7.767736821024473102e+02
1.824578715931240822e+03
1.661886494192359351e+03
-3.402805711143449798e+02
-2.271844736880209894e+03
-1.142779292667093387e+03
4.998730632550049222e+02
-2.619902884593450381e+03
-3.340078376560134529e+03
-3.532584834439507631e+03
-1.151474362341177994e+03
-4.782916403339932003e+03
-4.504848487388368085e+03
-3.113247088480331513e+03
-2.552112482995073151e+03
-2.067417093988926808e+03
-3.870149707318778383e+03
-2.063315385270455408e+03
-1.385898109061557989e+03
-2.885818246514801558e+03
-7.580718157778010209e+02
-7.586236724701893763e+02
-1.909499629803925018e+03
-1.173747031542763580e+03
-3.531302077903641020e+03
1.778616575851502262e+02
1.172729465985312800e+03
-4.466847088547672797e+02
1.470552847045666340e+03
-3.011594674789950659e+03
-4.195073855925878888e+03
-3.679962290684623895e+03
-3.453297234053436569e+03
-4.007134625448780753e+03
-3.364475791102181574e+03
-2.957225965792300940e+03
-3.544753875141487356e+02
-2.002295672453082034e+03
2.932142137645178792e+01
1.633499674243352501e+03
2.298229178765127017e+03
2.547462747940622648e+03
2.703221926161343163e+03
2.871453463374201874e+03
2.997172879425006613e+03
3.145331839825680163e+03
2.777956693563947283e+03
2.511017429216202800e+03
2.328478258227132756e+03
1.458345842897372449e+03
1.072534112837611929e+03
8.219405492195489842e+02
7.135540114352612591e+02
3.293746194917932826e+02
7.413833779002186475e+02
9.856064673733773134e+02
8.198037724616137893e+02
1.168051776706097826e+03
1.146975494473461595e+03
1.003220860878194230e+03
1.880757839375746926e+03
2.416122729015965433e+03
3.109793829086338519e+03
3.297849594362482094e+03
3.252200809638420196e+03
3.485539447376422686e+03
3.201088531561392301e+03
2.563777586553858782e+03
2.199469341187454575e+03
1.626046158219215840e+03
1.145319518265143188e+03
6.207048294557246209e+02
-1.069519577480914023e+02
-1.115943438395807789e+03
-1.456397657132138647e+03
2.243818133772793999e+01
7.448861541073181343e+02
7.359592034671192096e+02
7.575397427699710988e+02
1.134123600757994609e+03
2.169916967842533268e+03
2.829592904213916427e+03
3.412002261765615458e+03
3.511207035444986104e+03
3.319745524644027682e+03
2.958797602354451556e+03
2.916466867721909239e+03
2.671407955846593723e+03
2.227043707972560242e+03
1.496246928705875007e+03
9.979089251079473115e+02
6.327719056621482423e+02
9.375332864539393540e+01
4.248710449748065798e+02
5.191651121829468138e+02
5.526174568311274697e+02
6.011923227351020387e+02
8.058865440663031450e+02
1.097687545716444447e+03
1.492550055371400276e+03
1.977533420905074763e+03
2.342647012506355622e+03
2.969913198196905796e+03
3.341305936587029464e+03
2.884810436179938279e+03
2.852472074528468966e+03
2.900257350644702001e+03
2.468123432077125017e+03
2.212065547768320812e+03
1.684095414902923267e+03
-8.338464336500812806e+02
-3.934823894373167150e+03
-8.143818014958246749e+03
-8.332882960196622662e+03
-8.668010947645580018e+03
-8.537184888416137255e+03
-7.683381664192642347e+03
-6.919582799034881646e+03
-7.046794931752139746e+03
-6.557005831841694999e+03
-5.072201414555476731e+03
-5.002262090826557142e+03
-5.313183496813031525e+03
-4.885020769984769686e+03
-5.085765067749278387e+03
-4.034344171547055339e+03
-8.188033049167266881e+02
-3.775070933152168436e+03
-5.692180238185246708e+03
-6.198066651065316364e+03
-6.469830508009824371e+03
-6.717471598664162229e+03
-7.238952258336270461e+03
-7.749277895304921003e+03
-7.287450891861327364e+03
-6.579396032456818830e+03
-6.349148832727127228e+03
-6.092672512883415948e+03
-1.435937619830261610e+03
2.738053512198128374e+03
3.722538042391289309e+03
4.322459049023450461e+03
4.569821151495719278e+03
4.646679721542835978e+03
4.870026140354761083e+03
5.145947644913410841e+03
4.855446644220422968e+03
4.518555910705108545e+03
3.956281194455964396e+03
3.430648574626088703e+03
2.565700561266939076e+03
1.901447710372027586e+03
1.496821173804529735e+03
1.103837424356773909e+03
2.915499732370188326e+02
1.150052151185777575e+03
1.960302073563656677e+03
2.269333648421633825e+03
2.369204539680371909e+03
2.272057771081640112e+03
2.761926985743722526e+03
3.117848735526835299e+03
3.408808519699322915e+03
2.985829609066501234e+03
2.874995590557801279e+03
3.370349650505396312e+03
3.256933130067193360e+03
3.005782179544385599e+03
2.734876605132768873e+03
2.000330728002440537e+03
1.666184558577250300e+03
1.462346696706686998e+03
6.127748000850681365e+02
-5.224722404047387272e+02
-3.832490230560376290e+02
1.906811111505767258e+02
4.094590238732682792e+02
6.937940769015643809e+02
9.175335608063313657e+02
6.270371947397618442e+02
1.218535497582357948e+03
1.504063592647654787e+03
1.655582852725459361e+03
1.161151373159029390e+03
8.517984881233085162e+02
5.523989531049962807e+02
1.276086362590315503e+03
1.535906536800915092e+03
1.432838655386823120e+03
8.928534588461951671e+02
5.606130122315956896e+02
-1.112857099002806365e+02
-7.952180698486645269e+02
-1.701503690538181900e+03
-1.192046502215351211e+03
-9.627997979689193926e+02
-9.107998871838984769e+02
-2.650970753119186725e+02
4.093938221700564668e+02
3.107684626047230267e+02
4.990142976299270003e+02
1.122101445800773263e+03
1.147068913990803139e+03
8.969669581630112134e+02
8.887295821210254871e+02
9.744006763093965446e+02
1.443027155332045140e+03
1.076612564794736727e+03
6.251336704495037111e+02
2.585611859509692181e+02
-3.891169715759664882e+02
-7.379324460517284479e+02
-1.006883078554461690e+03
-1.542009246904339989e+03
-1.735354079311925489e+03
-1.591897690300039358e+03
-1.349638636560127225e+03
-6.815753785795360500e+02
-2.477389185618373233e+02
-2.721559257505796268e+02
3.103314294710120862e+02
2.477259329872002809e+02
6.989360288664111067e+02
9.899578752917420843e+02
1.313792401766442481e+03
1.643476182876344410e+03
1.575986224499893979e+03
1.423319323756064705e+03
8.074018671451171940e+02
-6.372657842655722504e+01
-5.901212179520780410e+02
-1.233857333282098580e+03
-1.869012368792254620e+03
-2.594585647296551542e+03
-3.245601666915174974e+03
-2.587110988587662632e+03
-1.609112134600805803e+03
-3.391639596300635731e+03
-6.647704753519178666e+03
-9.387242913845617295e+03
-8.548250929421383262e+03
-2.908800606170457741e+03
3.290938148636562914e+02
9.504604598707393279e+02
1.359194671014954338e+03
1.368332777398459939e+03
1.401905095659103154e+03
9.227723472317127289e+02
-2.090899213227194195e+02
-1.465951113633602176e+02
-3.487346454341129061e+02
-8.235035872219930297e+02
-6.061958106855935284e+02
-1.236797452095140670e+03
-1.599010794817127362e+03
-1.069954713923857980e+03
-5.459040938057661378e+02
-1.951243991167155514e+02
2.315576359034696168e+02
2.072538627547519638e+02
7.161588240516081214e+02
1.534263026846557977e+03
1.988265830228485584e+03
1.987053893026742799e+03
1.899011473391747586e+03
2.130987328957201044e+03
2.146913805413555565e+03
1.876510287461278040e+03
1.573205002801974160e+03
1.159683860290037046e+03
3.228358392354023749e+02
-3.863181092505068364e+02
-6.438078197077012419e+02
-1.070461612849642279e+03
-1.193630443674263688e+03
-6.722696678572273186e+02
-4.771830084865506478e+02
1.973426855808771450e+02
5.874358954007198008e+02
2.411837575638831481e+02
5.344456216855069215e+02
1.109469580495194350e+03
1.438766327859254488e+03
2.084481191756007775e+03
2.183790945497913981e+03
1.983445376931714236e+03
2.336918450538027173e+03
2.233986881563022962e+03
1.910509063785466196e+03
1.381471463194795433e+03
5.869002495813335827e+02
4.406869449163273771e+02
2.881854463257428023e+01
-4.228918273925170297e+02
-8.851164887138140784e+02
-2.551706077057486937e+02
8.997171264634482668e+01
2.783673807084337000e+02
8.890391576010764538e+02
1.104963556621115004e+03
1.339223841238492014e+03
1.397911506912880441e+03
1.785938999471232364e+03
1.936314324014378826e+03
2.180060914623404187e+03
2.200222452258308294e+03
2.273855548720437127e+03
2.263902849243943820e+03
1.619359039789470444e+03
1.166180036110831679e+03
8.624443895864516207e+02
4.410942802172576194e+02
-1.876908312775076183e+03
-5.449549058498641898e+03
-5.138773165631532720e+03
-5.116523825950314858e+03
-2.286823043268453603e+03
-5.954758467988972370e+03
-5.524238927722824883e+03
-1.487282669324410790e+03
-3.239831985715060455e+03
-2.487810744051377696e+03
1.220774393012968176e+03
2.394780931487982656e+01
-4.382588370745405086e+02
-1.882104898127372650e+01
-1.519693956395285568e+03
-2.208870312892041511e+03
-1.782354772531808067e+03
-3.306978524606010694e+01
-5.469950508367227485e+03
-1.826047484241123811e+03
-2.813506428023555600e+03
-3.768331137449997641e+03
-3.091444054020942531e+03
-1.503801966534121902e+03
-5.512402463453368000e+03
-4.438262567375894832e+03
-1.389342932143957569e+03
1.349398746442176844e+03
-1.230989305569321914e+03
3.935511614286048712e+02
-1.477956997063034123e+03
-1.737514727472318555e+03
1.332885470909525338e+03
-6.296904940033623461e+02
2.113836210218724318e+03
2.887411982704452839e+03
2.580049595533275351e+03
1.842772608939023712e+03
1.441500552432881932e+03
1.000255613805935468e+03
7.060501586339197502e+02
4.558982436530206996e+02
2.067912668922226374e+02
-7.825942948441986857e+01
-4.255454863386647801e+00
3.328388242691700611e+02
9.760146820566087627e+02
1.373304130260783495e+03
1.341726585637108201e+03
1.870383428664219537e+03
2.236242247859152940e+03
2.432296774698882473e+03
2.765540747115403974e+03
2.456900043987159734e+03
2.542369445326950427e+03
2.552276087922988609e+03
2.449930131768237516e+03
1.860530628155837121e+03
1.177734176753771408e+03
4.265758865424813280e+02
4.278223507310796592e-02
-8.695683001681639723e+01
-1.064634077383311421e+02
-1.883802113805824092e+02
-5.907637394880525790e+02
-6.773273518784358771e+01
5.618016965396458318e+02
5.288625838252709173e+02
6.746038563645876138e+02
1.670917153314642746e+03
1.821395399933005592e+03
2.215127998507907250e+03
2.101569557719413297e+03
2.749652776361892393e+03
2.682261907845854694e+03
2.243352261203739545e+03
2.034943314633115506e+03
1.812035404691228450e+03
9.486014304453719888e+02
6.095313384813700850e+02
3.087344123650062784e+02
-4.075212039678662279e+01
-8.278604954711399841e+02
-1.882873180934833044e+03
-4.770296668790428498e+02
3.675872524317936296e+01
1.973964023288112060e+02
6.888294420972644048e+02
6.101474345349869282e+02
1.285302568177127796e+03
1.749245803210131498e+03
2.142967919722736042e+03
2.244476839654013475e+03
2.092762090866011931e+03
2.220873946033490029e+03
2.686792731114127491e+03
2.315485143328819049e+03
1.421880066139651944e+03
6.330144013799391587e+02
8.658765016496555518e+02
4.763091963629292422e+02
-3.897207369203371172e+02
-9.702257365582307784e+02
-5.882158150129559999e+02
-2.136531922831994166e+02
2.413841671376067950e+02
6.259033755449434011e+02
4.429163200116568646e+02
6.564875843910600679e+02
1.256630193254660071e+03
1.627261905119420589e+03
1.828382998035138371e+03
1.280978304250536439e+03
1.681032100445283731e+03
1.962647306318858909e+03
1.804728972346219507e+03
1.921251284264865944e+03
1.493228427014588988e+03
8.757814660796695989e+02
2.978005385190438119e+02
-9.057937816914818541e+02
-3.855019113290695714e+03
-8.889909523592878031e+03
-1.034645380850868787e+04
-9.565602116397731152e+03
-8.923419756192250134e+03
-8.527903749800339938e+03
-8.035048247224208353e+03
-6.702788714878708561e+03
-7.063033632687924182e+03
-7.278762227348775923e+03
-6.971083220417577650e+03
-6.758962943458181144e+03
-6.561412402714244308e+03
-5.380368137940981796e+03
-3.186878298186365299e+01
2.236095797083135494e+03
2.436522282280376658e+03
2.106525852314186068e+03
1.715008055022193730e+03
1.210929308747142841e+03
4.253085442499325382e+02
-1.208928961342195123e+02
3.193228548706607626e+02
7.820449898930932022e+02
9.502478329090195075e+02
1.326956839077749464e+03
1.884202111490612651e+03
1.580069030135306093e+03
1.776689716000486669e+03
2.186012801018124264e+03
2.562007971336207447e+03
2.951709492753458107e+03
2.770118832503039357e+03
2.752348412497298341e+03
2.795433590739249212e+03
2.500337671401186981e+03
2.146073582313281804e+03
1.477694958863471356e+03
9.281892264329599129e+02
6.385620951277750237e+02
4.178174463443955915e+02
-3.821017690941384330e+02
-1.746087276049247293e+03
-8.730942880104635151e+02
2.378288712094350501e+02
5.527888412197739854e+02
3.757770656526615198e+02
2.468959912786885980e+02
8.981751415748169620e+02
1.157631371938442953e+03
1.397293100275448751e+03
1.131205240845747539e+03
1.536431040883194328e+03
1.922080294629478431e+03
2.064123140852218057e+03
1.641578099205539729e+03
1.265472064870111581e+03
6.399391084556904161e+02
-2.040520190809484404e+02
-5.296082087722883216e+02
-7.357280095073143684e+02
-1.373264806233211175e+03
-1.182122060680186678e+03
-6.701328145889008283e+02
-5.472405131930378275e+02
-4.666401822118078258e+02
-2.140862248340621647e+02
-1.287546946806413644e+02
5.173400161495414977e+02
1.108214038097827370e+03
9.568819199959051502e+02
-1.235965452161845093e+02
3.048267755103935883e+02
8.911901263612651292e+02
7.335272847281823942e+02
6.558279388987256198e+02
6.830414825971861319e+02
1.102885852476150887e+02
-6.134118790782625865e+02
-1.050172123023659424e+03
-1.682988020048520184e+03
-2.338850794837007470e+03
-2.430752759823154065e+03
-1.752633026082273318e+03
-1.147542624742126463e+03
-1.017475854510009640e+03
-1.130400977135308949e+03
-9.241939464411436802e+02
-3.328507259690215960e+02
2.965873591298810652e+02
6.471720274712192804e+02
7.099328100941622779e+02
5.178531973279951899e+02
5.399659856755783949e+02
5.833071112056177299e+02
6.178637580060757273e+02
7.096161271187586408e+02
1.235273242209168103e+02
-5.894164676163630929e+02
-9.522458995153563137e+02
-1.117976671157435476e+03
-1.297684058082234742e+03
-1.495386908832395193e+03
-1.487979017193898926e+03
-1.384490204158030110e+03
-1.079988507982691090e+03
-7.434543067497905895e+02
-6.149894296834684155e+02
1.365657401075223731e+02
5.382568018523109004e+02
8.669208928868291650e+02
1.231567259202239029e+03
1.455197065626925223e+03
1.340815801773642988e+03
1.119452217720242515e+03
6.509859410127173760e+02
3.593896906703868694e+02
1.546993318596144320e+02
-4.271143772396065970e+02
-7.122053402244276867e+02
-9.785956255718173225e+02
-1.352321002187541126e+03
-2.278447865222477503e+03
-2.253954563328464246e+03
-9.488754899867618633e+02
-5.612438515168322510e+02
-6.590815053158013370e+02
-5.253888800103342192e+02
2.118957992646395212e+02
9.426415664425660452e+02
1.294796053358586050e+03
1.612326728075392339e+03
1.353236059617542878e+03
1.647498866084946030e+03
1.950052339329243068e+03
1.530875098232563687e+03
5.639127503314362002e+02
5.474814836798553870e+02
7.923661547280053128e+02
4.111491707201369650e+02
-3.161536389423519608e+02
-3.288300572728408042e+02
-4.977164719749585515e+02
-5.760231068097446041e+02
-7.001035712735694005e+01
5.658161979564055173e+02
8.739080772457147077e+02
9.200790617389313866e+02
1.227854596840217710e+03
1.635360577681471341e+03
1.949582270022698822e+03
1.818304264258531475e+03
2.105858656977642113e+03
2.593719299726119516e+03
2.796734802828998909e+03
2.922682933312206387e+03
2.237232236658733200e+03
1.489136440566555848e+03
9.141486865919554248e+02
3.874033957697556616e+02
1.352016823489048249e+02
-8.311729179948294188e+01
5.672496042403691519e+01
1.964280254373180696e+02
5.921043769177863396e+02
8.738300568244118267e+02
1.247424969483468431e+03
1.291193032648938697e+03
1.719619983478682343e+03
2.679888693456355668e+03
2.977964327318808500e+03
3.350747296956180890e+03
3.633237491895223684e+03
3.576480483938628367e+03
3.424378493867419820e+03
3.163877070555570754e+03
2.871950545294149379e+03
2.395596199809635436e+03
1.933823397569714871e+03
1.347558868378035413e+03
1.165742316888551613e+03
6.093625355224953637e+02
6.313870857917517014e+02
6.287794341068955646e+02
9.915693916861866910e+02
1.242705034051364464e+03
1.428215549976881675e+03
8.321079743677637452e+02
-1.073606091548653467e+03
-4.200782883567108001e+03
-6.325542963030177816e+03
-6.148877500639895516e+03
-5.438785974935640297e+03
-5.672218301844494817e+03
-5.714133442015206128e+03
-5.447519898573389582e+03
-5.452424477246100651e+03
-5.883847465337005815e+03
-5.903777727365878491e+03
-5.949272670293670672e+03
-6.260226486611157270e+03
-6.678710748710423104e+03
-7.287733258433009723e+03
-4.845208659530785553e+03
-3.842129053222447055e+03
-6.865555301591831267e+03
-6.224396764219659417e+03
-5.608664011099685013e+03
-5.202259967122344278e+03
-4.953180466945606895e+03
-4.941381668979089227e+03
-4.474779067037284221e+03
-4.062387676929862664e+03
-3.820174314763640268e+03
-3.756018738537256013e+03
-4.280957618583683143e+03
-4.545982427501095117e+03
-3.501044181076666518e+03
-2.120632726015927290e+02
1.609025251763544247e+03
2.689058822739365496e+03
2.758099727005056138e+03
2.048194095778023438e+03
2.575417032009844661e+03
3.044845084510526704e+03
3.345464706476120682e+03
3.225317367853159794e+03
3.317479518268246466e+03
3.169028168383272259e+03
3.884037438707302499e+03
4.217545765793093778e+03
4.460566344269850561e+03
4.168168740762443122e+03
4.534457831809850177e+03
4.484505423835786132e+03
4.334259523393558993e+03
4.146780466965282358e+03
3.600178939393568271e+03
2.836471748188428592e+03
2.437657628650686547e+03
1.751731939349053846e+03
1.175733815137528381e+03
8.486289475395363979e+02
7.495375887997107611e+02
1.299537926119448230e+03
1.759602694482772222e+03
1.917840833331210433e+03
1.875272257257387992e+03
1.667062121233614107e+03
2.409194489461064222e+03
2.443695815056059928e+03
2.343618624361784896e+03
1.678856113846309881e+03
2.127450948524888645e+03
2.553581546092127610e+03
2.686526863109265378e+03
2.440377346498995394e+03
1.880406190994584222e+03
1.418856191511768657e+03
1.029516308863944232e+03
6.763082193584066317e+02
8.121948256169169156e+01
-6.767318777478873244e+02
-1.506498475576246847e+03
-1.158200597925108241e+03
-5.017190749999901414e+02
-4.491954059671849109e+01
6.202017335413390811e+02
8.737679482346082978e+02
1.476488740698722495e+03
1.723429846432637987e+03
1.568474039738406191e+03
1.003756441220197530e+03
1.372252494004191249e+03
1.854858941921849237e+03
1.564539242004057996e+03
1.164334739587698095e+03
7.002252522351556081e+02
1.152113087511592937e+02
-3.346542860849517638e+02
-1.182474542566611717e+03
-1.532229964805423833e+03
-2.399990168774359972e+03
-2.904747595473047113e+03
-1.665365233203887556e+03
-9.939265762386975211e+02
-3.524373964884533166e+02
-2.748986329604538810e+02
-7.043216521244272599e+02
3.644473600135541602e+01
7.073131724341805011e+02
8.892727414162313835e+02
9.693406538743219016e+02
1.086489494943358977e+03
9.778004915187979122e+02
9.352149189592947778e+02
7.336733492288730076e+02
-1.348372604900552858e+02
-1.723075606092617988e+02
-4.426607636008849340e+02
-1.158097716274031200e+03
-1.620710205900225901e+03
-2.156476386984569672e+03
-1.876345900835405473e+03
-1.415334266154877696e+03
-9.345206904886298389e+02
-7.828634822367575907e+02
-5.314309984534032765e+02
-3.961105112543892233e+02
4.130010916956530878e+02
7.468475425399177539e+02
6.874148289947899002e+02
3.727122699948996569e+02
1.192707692857437223e+03
1.242476604511443384e+03
8.069744254399325882e+02
4.471277921458578248e+02
-1.590112505649279910e+03
-5.720775234768291739e+03
-9.391950708125890742e+03
-9.946656368854331959e+03
-7.481903113597229094e+03
-2.487754095396172943e+03
-1.441220339857977251e+03
-7.973257499068765810e+02
-5.251304650550737279e+02
-3.196785982336598408e+02
-2.129709135949329664e+02
-7.328227143784697546e+02
9.618489376087518750e+00
8.102514830493889804e+02
9.611520198682064802e+02
8.592678459027349618e+02
1.180531073586912044e+03
1.761996733029483948e+03
1.653641615644088006e+03
1.482420516714915721e+03
1.085301762268284392e+03
6.572186972689239610e+02
3.211286635343802232e+02
-3.970487016509077876e+02
-8.963483223850738568e+02
-1.502784607070953371e+03
-1.101366695643607727e+03
-8.041022687901554491e+02
-7.910751083537095383e+02
-3.542958701493879516e+02
1.701965540237657137e+02
3.934314397231734688e+02
8.675709107984625916e+02
1.299504434044978552e+03
1.572202449701649130e+03
2.022641933985879177e+03
1.803755170878531089e+03
1.640618105459797562e+03
1.857220584586498035e+03
1.737533665993807972e+03
1.263501784678458762e+03
3.230848329010456723e+02
-3.872191468364617606e+01
-7.394515590907801084e+01
-5.056401839178372484e+02
-7.447785561508069350e+02
-1.862404574636305142e+03
-1.271519273629762893e+03
3.582410184096812600e+01
2.376506919245000233e+02
4.189718330990684194e+02
6.428378133888803632e+02
9.612767902571650893e+02
1.632265485502992533e+03
1.691804333528365987e+03
1.358908305416947314e+03
1.682563562980180450e+03
1.945819921626492487e+03
1.738669732166189988e+03
1.419098715339717273e+03
8.391292334513307196e+02
1.807309283071789707e+02
-2.070510017178231692e+02
-6.462718419352135015e+02
-1.375020865718780442e+03
-1.701258496577645474e+03
-1.816946182490777801e+03
-3.650774747246263701e+02
-9.167417377917500687e+01
1.162616970877309086e+02
3.817205918988599365e+02
5.087604713864276391e+02
9.444642714590970627e+02
1.243790432956976247e+03
1.689761289761114085e+03
-5.065029559946666495e+02
-3.839941666086361352e+02
1.240242926399467933e+03
-2.422784180115941126e+03
-2.626032945524430943e+03
7.145258284479082249e+02
-2.395186209318570491e+03
-4.047133122206385451e+03
-9.063060260388637062e+02
-8.907440097797040153e+02
-4.242434894039768551e+03
-1.188351530290038454e+03
-2.997449746205589690e+03
-1.838758205186321675e+03
-2.278248300015879067e+03
-4.796921948699547102e+03
-1.276657595618690493e+03
-1.980400414786640340e+03
1.479800578899515813e+03
-1.255028073404892893e+03
8.030990606088504364e+02
2.302222181818501667e+02
-1.693536936498410114e+03
-1.951998721800722763e+02
1.824444191866274778e+01
-3.468275213600875304e+03
-3.957034883547028699e+02
2.539600182584846380e+02
-2.794280573355526485e+03
-4.205031632563698167e+02
-3.547703219148683729e+03
-1.095875319957440070e+03
-7.639533772277097796e+02
-2.789947905967322640e+03
3.311628000251496928e+01
9.302725757166303993e+02
1.331515794691881410e+03
2.269972799467734148e+03
2.644698425761207091e+03
2.524629422742925726e+03
2.399794833143989763e+03
2.500181195607606696e+03
3.012833264272995166e+03
2.773771008892719692e+03
2.228976872019803977e+03
1.970406132122004465e+03
1.879141184197704206e+03
1.289133913747097949e+03
6.873570374059111145e+02
-1.123376177381090990e+01
-4.386728604994248713e+02
-9.299790494840924566e+02
-1.117124405975810987e+03
5.231937743702352606e+01
2.143822979095392611e+02
4.659701358146507459e+02
6.179466997423694465e+02
8.300400616915683258e+02
1.335266909845786131e+03
1.776052616778895299e+03
1.746361386308796000e+03
1.892213316750678587e+03
2.164685418446890253e+03
1.415703759607710708e+03
1.372255265596028039e+03
1.126259571980812325e+03
7.477436030413167600e+02
5.777883221331861705e+02
4.030097846944731828e+02
1.094669727000177915e+02
-7.546691878109278662e+01
-4.809911846055437081e+02
-5.091097791971491233e+02
5.874695705613828522e+01
2.787740606122188183e+02
8.631192977181116248e+02
1.109050613720038427e+03
1.365279469433573013e+03
2.092535177042590931e+03
2.427783810549570262e+03
2.438051860445506918e+03
2.510023877697857642e+03
2.583539857676464635e+03
2.523917404988818816e+03
2.389472974967112805e+03
1.843880245538965482e+03
9.319723909749557151e+02
7.368002672040917105e+02
4.070522876971892856e+02
1.068332803524671419e+02
-3.847106789297873206e+02
-5.036518269283999416e+02
-4.510945928157624962e+02
-2.630452627267380876e+02
1.874072991892658990e+02
7.641518656963717149e+02
9.081449072065772725e+02
1.167811471677864802e+03
1.753179250108457609e+03
2.163991936837311187e+03
2.180187860238942449e+03
2.431749224323457838e+03
2.455720598876988788e+03
2.891097914796193436e+03
2.842807296452800529e+03
2.923833265835700786e+03
1.910210104022183941e+03
1.082954410464306420e+03
9.579929865318539441e+02
2.942247358998498044e+02
2.576249279837354607e+02
-2.707875928984400957e+02
-9.197122084802153097e+01
3.210288088495635179e+02
5.751441674072407295e+02
5.624345918220201384e+02
-1.355123783642510261e+03
-4.532362713944119605e+03
-7.053253524462218593e+03
-6.986975138078252712e+03
-7.177510559324345195e+03
-6.618840198941158633e+03
-6.462902119737937028e+03
-6.749701354357064702e+03
-6.272285530226376068e+03
-6.219636404269090235e+03
-6.436738483826943593e+03
-6.180627457058627442e+03
-6.778189666405046410e+03
-7.979567960658398988e+03
-7.847818059675985751e+03
-7.350854361831760798e+03
-5.227713058993135746e+03
-7.005375037549550143e+03
-7.284832586188779715e+03
-3.858105473006477041e+03
-3.109641635867712139e+01
2.363311131386507896e+03
3.132022980862492204e+03
3.247048411788060093e+03
3.602465241099104787e+03
3.129263664899779997e+03
2.497469754194063626e+03
3.501147461497052518e+03
3.393291635379477611e+03
3.259943101783449947e+03
2.353103577708856847e+03
1.616799313628324171e+03
1.727080522118573299e+03
1.205788923931119825e+03
8.029643353537391022e+02
3.816156895847574333e+02
-1.561913007099695960e+02
8.176632317619939840e+02
1.036116616760348052e+03
1.338199727136379806e+03
1.683957044660580550e+03
1.707450714812907563e+03
2.591723108315526588e+03
3.020805155499055218e+03
3.089752290953622378e+03
3.225559883413483021e+03
2.974337447106179297e+03
3.081090118934560451e+03
3.044835059566761174e+03
2.520619735299463628e+03
1.768458189118096925e+03
1.299396790010327777e+03
7.863950497998530409e+02
2.494345595938374061e+02
1.855476802386998543e+02
-5.202313595483868767e+02
-1.385262437181765627e+01
3.617657464288628262e+02
4.815723231766343702e+02
6.026580032076893758e+02
5.860869676039244496e+02
4.099089302682737639e+02
1.260127079945988044e+03
1.650813792175133358e+03
1.926028405710360403e+03
2.056685393236831260e+03
1.626891637328501247e+03
1.070974468643937371e+03
1.019263246093077214e+03
8.916255913442153087e+02
2.228684489236137551e+02
-1.169695543513737164e+02
-6.128878755492788741e+02
-9.560913122501178805e+02
-1.503593802550200053e+03
-2.598409174428727511e+03
-2.134425263826625269e+03
-1.656521801103808912e+03
-1.777825672374448459e+03
-1.192293104646946404e+03
-7.329038415702917746e+02
-6.126235833779874156e+02
-2.292341846795935556e+00
4.940146461419094521e+02
1.045323575334929046e+03
1.328639442060969259e+03
9.099773223274753491e+02
6.854043872999999394e+02
5.869558257986479930e+02
4.476387446806838852e+02
-2.580872472954563790e+00
-6.366336083934178305e+02
-8.436234051181835412e+02
-1.452558728214634129e+03
