-2.375401328576950618e+03
-1.892215884478876660e+03
-1.456138478072762609e+03
-1.401505055325096976e+02
5.937115891886148802e+02
1.417432536303384722e+03
2.358087960245776685e+03
2.456662158446010380e+03
2.555147271355393968e+03
2.712532434381192616e+03
2.923774889614333915e+03
3.037854993158560774e+03
2.476747866666919890e+03
1.687360557133244811e+03
8.136719717891468235e+02
-7.553285557448677991e+02
-1.834789934819455766e+03
-2.414748772190557247e+03
-2.305250913440654131e+03
-1.584369908754800690e+03
-1.611143400938703053e+03
-1.585562867522207398e+03
-3.766709763151127390e+02
6.435710036040751447e+02
5.911446113822531743e+02
6.869954562434219270e+02
9.782519765180242075e+02
4.680882278617703491e+02
1.712226866602705115e+02
-6.265825286834179906e+02
8.398494780298105979e+02
2.048758397115172556e+03
1.501720374507567385e+03
9.628955912392527807e+02
1.961248171564887173e+02
-7.917644728047224589e+02
-1.328527593192282438e+03
-9.873635783284588570e+02
-1.203550697989527407e+03
-1.803920032045637527e+03
-1.507524833738103553e+03
-9.013682407191878383e+02
1.153076531232235027e+02
1.287558402722074106e+03
1.464609311427999046e+03
1.174188675108440975e+03
1.924530930023414612e+03
2.519468982992228575e+03
2.408155174261363754e+03
2.793482707381873297e+03
2.952486581501079399e+03
2.431821936510064461e+03
1.932556230369910281e+03
1.344020622076159043e+03
1.005882818238653613e+03
3.099762739915701673e+02
-4.658421291827519326e+02
-9.405360701742649780e+02
-9.900178238288260673e+02
-1.134593295256566989e+03
-1.017927953337568852e+03
-8.052997899310765888e+02
-2.288370378702530274e+02
7.848036740088873557e+02
1.342347705804234238e+03
1.688027676584574920e+03
2.613592235656119556e+03
3.175143702678135924e+03
3.275774817578155762e+03
3.526410172163034531e+03
3.640070014075028666e+03
3.200742461392469068e+03
2.255366186681785166e+03
1.472829364445074816e+03
8.080759968272925562e+02
9.176268425511270976e+00
-7.769698725696399606e+02
-1.160446266313243541e+03
-1.353190946123069352e+03
-1.239291054375722297e+03
-1.107793053563280637e+03
-8.585976392768874348e+02
-2.766792639987378379e+02
-5.370509059358813602e+02
-1.871719552033454420e+03
-3.933537336906562359e+03
-2.842477759763076847e+03
-2.110520517858282801e+03
-1.298657606463372986e+03
-2.188870776473125375e+02
-5.970194767503667208e+02
-1.786033770867175463e+03
-2.104194987071442938e+03
-2.758413022129429464e+03
-3.370707205005193828e+03
-4.296126616125850887e+03
-5.783680722117742334e+03
-6.223359896375844073e+03
-5.427167584659273416e+03
-3.617163006791701719e+03
-5.479349292464077735e+03
-6.265590059336258491e+03
-5.591954229586339352e+03
-4.672346855736293037e+03
-3.895678034707636471e+03
-3.449892101528437252e+03
-2.575966104489218651e+03
-1.418141154514578091e+02
1.325792417046200455e+02
-1.491771631387008256e+03
-1.697818090745169229e+03
-1.963477325748780231e+03
-2.206644422749766363e+03
-2.475398924037864163e+03
-5.807568231101799938e+02
-1.983743357028621631e+03
-3.711360774458540618e+03
-2.488486673718251041e+03
-6.731890145963772056e+02
2.504464256689176125e+02
4.555051313098819037e+02
9.831110137399044788e+02
1.511284195527200154e+03
2.546076555160535008e+03
3.075546316390065840e+03
3.361727175370814166e+03
3.602703189295023094e+03
4.054543097992517232e+03
4.417324000546264870e+03
4.522083574272626720e+03
4.143849781109147443e+03
3.837660625479163627e+03
3.233536967926093894e+03
2.577521025281674156e+03
2.235561973396952908e+03
1.460664480840893475e+03
7.038380016608200549e+02
2.661023394874105179e+02
-1.085833998189967389e+02
-2.831688122226581186e+02
-4.496312296112306512e+02
6.398727537152507239e+01
6.797665033146121232e+02
1.456795399096475421e+03
2.454149330569911854e+03
2.500984513912756483e+03
2.494383794298978046e+03
2.834430135437899480e+03
3.211064635719118087e+03
3.397462364605482890e+03
3.123698087151066375e+03
2.943858978548412779e+03
2.728819966804908745e+03
1.674603349898228089e+03
1.064110222991422461e+03
2.433668741380678284e+02
-9.265119705380129744e+02
-1.186602025493638394e+03
-1.325846878781115947e+03
-1.570132325016511004e+03
-1.562914370868694050e+03
-9.905923324802113257e+02
-1.665273279082466900e+02
1.339441857275610346e+03
2.036390764343889259e+03
1.843053176624160642e+03
3.190525301120349468e+03
3.674891610115055755e+03
4.075867154920562825e+03
4.379757687329825785e+03
4.016626187565607779e+03
3.757283449096757067e+03
3.291690623366670934e+03
2.446808561645244936e+03
1.904573321300180623e+03
8.959614885249270628e+02
-8.420561869502766967e+02
-1.192497344698275128e+03
-2.024444999949115527e+03
-1.990895218369372060e+03
-2.343860032549841890e+03
-2.120351585034142317e+03
-1.226368360649207943e+03
1.709924441294748121e+01
1.500585917207929754e+02
3.675338671710459835e+02
8.395695779799651746e+02
1.269182508165077707e+03
1.615400338579410800e+03
1.950185642464388366e+03
2.033552158891968020e+03
1.732493535572296878e+03
1.201140014499075960e+03
7.424249822804296173e+02
2.052445242285958784e+02
-7.435198090115267178e+02
-1.564824331891695010e+03
-1.935733268247869546e+03
-1.824283673898471079e+03
-2.244518031194714695e+03
-2.548500154063443460e+03
-2.497207518791238726e+03
-2.008652322361107281e+03
-1.120827372382449767e+03
5.183037296038399973e+02
4.047246071581577098e+02
-3.359428193169403443e+01
-1.238601765938569997e+03
-3.063272785418985222e+03
-2.126623408928328445e+03
1.397318031498981782e+03
-9.345348135202368667e+01
-4.802920747512895105e+03
-6.119127582820719908e+03
-6.496162371961570898e+03
-6.942069906408047245e+03
-7.288867695732505126e+03
-6.840614988580339741e+03
-7.602343443352798204e+03
-7.075074762849309082e+03
-3.235932314387164297e+03
-1.715003942694293301e+03
-9.579879953533460366e+02
-2.679645084502710688e+02
4.049531369461711847e+02
9.038524943441536834e+02
1.438769102747058014e+03
1.911667932612773257e+03
2.373535919251071846e+03
2.759414269791604966e+03
2.779288215302339268e+03
2.503196055235260246e+03
2.063047899068077641e+03
1.557805175791004558e+03
8.834720607863589521e+02
4.929670316237204588e+02
-3.217563044115639741e+02
-1.104745273538826950e+03
-1.556034024917203851e+03
-1.884709014190421613e+03
-2.174762591224398875e+03
-1.629191641266512079e+03
-9.219370099484714274e+02
-3.869686349429240977e+02
3.877599597374864402e+02
9.662440997090611745e+02
2.121485707702446689e+03
3.135569869055591880e+03
3.549488855579043502e+03
3.685260868852305975e+03
3.992916716338028891e+03
3.823449941186018805e+03
3.434858560800659234e+03
3.006118011319935249e+03
2.247234407906506021e+03
1.472164742425017039e+03
-4.461167563851247451e+02
-1.546676530033018707e+03
-1.770525717759828012e+03
-1.643678724989872535e+03
-2.059177579398689886e+03
-1.932015880552425870e+03
-1.244166727293456006e+03
-6.925784684861810092e+02
-3.041761543213631285e+02
5.480368225070768631e+02
1.167104073332392090e+03
1.791043758097843238e+03
2.195892225650093224e+03
1.976704335522922747e+03
2.062502834206758507e+03
2.171291866273425057e+03
1.693178280755386368e+03
1.113153872160492256e+03
6.471365509994143395e+02
2.140978949496947337e+02
-9.059329486575854844e+02
-1.700974367532223141e+03
-1.997027779883466110e+03
-1.888207581100353536e+03
-1.928508762196095404e+03
-2.344818449742475877e+03
-1.713048593550890700e+03
-1.105218117283787024e+03
-2.752342519216993537e+02
9.595018780119926305e+01
4.904107033829667444e+02
9.159863303246328314e+02
1.475693511259102024e+03
1.778691416492490134e+03
1.824980405520449494e+03
1.523563504415846410e+03
1.134494654822364282e+03
6.187646831099489191e+02
1.822879286402080368e+02
-3.789026300603142090e+02
-1.031774029864609020e+03
-1.656393406300321885e+03
-2.467775275443334067e+03
-3.214945145966255495e+03
-2.903901879251136506e+03
-2.495626939155791206e+03
-1.998030570544913871e+03
-1.223119717562545247e+03
-6.618484722773504245e+02
-2.217604176466918275e+01
4.738969140689587789e+02
9.333958725473983122e+02
1.207392798053500428e+03
1.673914686021198122e+03
1.803965311129936254e+03
1.623589619580022600e+03
1.195778162206582465e+03
1.059487498870163563e+03
3.116638716697252107e+02
-3.757005931679769333e+02
-1.109590488086109417e+03
-1.694047081276903555e+03
-2.274111188780085740e+03
-2.544799284129586795e+03
-2.559195735283050908e+03
-2.540314248627841152e+03
-2.404069203259331971e+03
-1.871454006992528548e+03
-6.544266150445895391e+02
-1.496974305749987622e+01
1.258951328363551966e+03
2.422370099635460065e+03
2.822344525139380949e+03
2.998887747564507663e+03
3.036970626965050087e+03
2.954571416450794004e+03
2.898735061879063323e+03
2.572465309602792331e+03
2.073656561272081035e+03
1.475178602799666351e+03
1.999737848114558858e+02
-9.078791257496836806e+02
-1.249126486391975959e+03
-1.631638904981792166e+03
-2.037740949341780606e+03
-2.112651421393988585e+03
-1.652061004426335785e+03
-8.779961273367005106e+02
-4.264448562058908010e+02
-1.234007959351426251e+02
7.610871181201933950e+02
1.309067210241443945e+03
1.835627542966224610e+03
2.445706849039160716e+03
2.767308426862483429e+03
2.466398948980091973e+03
1.995100765740295401e+03
1.726405314491465333e+03
1.282895285914720034e+03
3.375765899389539868e+02
-7.986269030098570738e+02
-1.225423170578731970e+03
-1.575931159406208053e+03
-1.882303214356651551e+03
-1.945604415772025504e+03
-1.521875093133226301e+03
-1.112081554046110568e+03
-4.632694839149221480e+02
1.863962988962627207e+02
6.240219205048827007e+02
1.022864679814225383e+03
1.728872579118555677e+03
2.414819744458960031e+03
2.577524947794984655e+03
2.638159310449183522e+03
2.683533789402231378e+03
2.252853202130739191e+03
2.044158853994021229e+03
1.823435412780640718e+03
1.091276645113343648e+03
3.655528524754528235e+02
-4.737584005236765847e+02
-1.084721880255036467e+03
-1.278393395156819906e+03
-1.537869216017761801e+03
-1.517093415687250399e+03
-1.251074636217231500e+03
-7.188121130698896195e+02
-1.173450768934196873e+02
8.143166097293112671e+02
1.467210802585257397e+03
2.076401835482650313e+03
2.538862698571626424e+03
3.044589053949140634e+03
2.980583863335044498e+03
2.781832662853708825e+03
2.526329742955266283e+03
2.456982482781943418e+03
2.088763584383403213e+03
1.639661038121210368e+03
1.020634547049276989e+03
-2.703748855091685641e+02
-1.060433467297531479e+03
-1.418575503958628815e+03
-1.387840174443411797e+03
-1.511329449981560629e+03
-2.748926247777260869e+03
-4.250564610961752805e+03
-5.666225186449111789e+03
-5.221913868380797794e+03
-4.194584768967694799e+03
-2.788212354845676600e+03
-2.317776633853544809e+03
-1.971253722673030552e+03
-1.901594656837619368e+03
-2.004761272911784772e+03
-2.282798698651081850e+03
-2.407671632864807179e+03
-1.123438669700399032e+03
2.246864937584063227e+03
1.689251903024379317e+03
-3.918269437010077127e+03
-6.776813665576559288e+03
-6.270364601977921666e+03
-3.987986218172307417e+03
-5.608622408572222412e+03
-6.692211791014927257e+03
-5.926811550633760817e+03
-4.915307571748947339e+03
-1.915679063120127012e+03
1.864103481111619431e+03
3.184121093486250174e+03
3.863437875903859094e+03
4.176118706776455838e+03
4.490192591779945360e+03
4.316664234841908183e+03
3.769582603081191337e+03
3.582054428457559879e+03
2.934025018792748142e+03
2.148514857922559713e+03
1.304469715505808153e+03
5.979540227536907651e+02
-2.105556266316282432e+01
-4.225873572045172182e+02
-6.957022561591164731e+02
-8.772726097777058385e+02
-5.452667033464908855e+02
-2.736716480025223746e+02
4.876154909739206573e+02
9.236325613480987613e+02
1.342415264536923587e+03
1.326013823276688072e+03
2.042512802397271571e+03
2.888986648779485677e+03
3.185478378377860281e+03
2.764022109488149908e+03
2.588664265286694445e+03
2.321430754415879619e+03
2.007322981631402399e+03
1.301318643825864910e+03
1.294876691680049134e+02
-5.591605930372330704e+02
-1.492625063417648107e+03
-2.062920304608268452e+03
-1.972069056210735653e+03
-1.983083812192304777e+03
-1.822842552686148792e+03
-1.464263791081538784e+03
-8.421686138053719333e+02
-1.634678078710302032e+02
3.536196901150229337e+02
7.901121903039820609e+02
1.233399750520452926e+03
1.882544491816340269e+03
2.196435132932813758e+03
2.044310212105348455e+03
2.028258961747081912e+03
1.473240753361129464e+03
8.610739821249411534e+02
1.449230145557422702e+02
-1.199210701785841820e+03
-4.050478442870414256e+03
-2.847951568331012822e+03
-2.222730573218449081e+03
-2.492814821006793409e+03
-2.653192482549840406e+03
-2.372865560656934122e+03
-1.925775417907655083e+03
-1.346843469049541682e+03
-6.789971173124706638e+02
1.837445614855582505e+02
1.657452123481086801e+03
2.328163838937700802e+03
2.583949788156823615e+03
2.812831373600870847e+03
2.741804210168679674e+03
2.747843745377977484e+03
2.446022419380064548e+03
1.833338144553366419e+03
9.868009392012274930e+02
2.473807289019656537e+02
-1.518951202305867128e+03
-2.385268708836040787e+03
-2.649593698179639432e+03
-2.446959017725056128e+03
-2.561377288197099460e+03
-2.610839870279120532e+03
-2.035378054048064087e+03
-1.736960269527095988e+03
-1.033551470061278678e+03
-8.412370378847957397e+01
6.702970001717342257e+02
8.938093148971084929e+02
1.277413380355192885e+03
1.834112519360185388e+03
1.980828471745733168e+03
2.040610241162897637e+03
1.720590131795834395e+03
1.211673017312471075e+03
3.467783741073770329e+02
-2.181494580762185080e+02
-1.338107154525920123e+03
-2.204158400193678517e+03
-2.332386966663358635e+03
-2.385873179997810439e+03
-2.672592827701804708e+03
-2.500597174113109759e+03
-2.103902243375335274e+03
-1.330513111842036551e+03
-5.764162289034419473e+02
5.744144319182973391e+01
3.820325115543251400e+02
1.008283517041627533e+03
1.668273486686944352e+03
1.447996707716346009e+03
1.274366343194679530e+03
2.118361815269564886e+03
1.995002277822975202e+03
1.672215220047987941e+03
8.979255863203422905e+02
-1.429618554689069754e+02
-1.162493928019969417e+03
-1.266722156163089039e+03
-1.660660748939516452e+03
-2.023361037487351950e+03
-1.940916580332764170e+03
-1.720343253796906083e+03
-1.363630254362881033e+03
-8.048858152659337293e+02
9.789145874661001301e+01
8.727070793067055092e+02
1.227577625833499496e+03
1.741495266890633502e+03
2.351448206057611969e+03
2.659401668397106732e+03
2.732313705510167438e+03
2.560107729346368615e+03
2.144744953036069091e+03
1.699136347667286827e+03
1.273260857047486525e+03
1.054085529137638332e+03
-9.851212708324177925e+01
-1.032615086973489042e+03
-1.290251205304587984e+03
-1.125511538037790842e+03
-1.248450720014852550e+03
-1.000067593342220334e+03
-6.643230033757201909e+02
-1.752104665679216566e+02
5.712184054296720888e+02
1.189973424403020090e+03
2.689030168529238836e+03
3.837381019437134000e+03
4.302035649330638080e+03
4.213948960699083727e+03
4.352113646795359273e+03
4.593506402988678019e+03
4.577117802835583461e+03
4.103881334652868645e+03
3.778766820687724703e+03
2.847741631138746470e+03
1.135702160131967275e+03
4.865987108115997728e+01
-4.284209322405379226e+02
-6.396222401211181250e+02
-1.105011633459884024e+03
-9.805654199347902704e+02
-4.233388364573012268e+02
4.916550906659626889e+02
1.123500424753901370e+03
1.501214765925775737e+03
1.668791019323894943e+03
2.277265405592558182e+03
3.023630031180376136e+03
2.863868080725077562e+03
1.014963444491724886e+03
-1.755055794038023578e+03
-3.999147396411269710e+03
-2.833303092084180662e+03
1.275406653882680303e+03
1.095961238115954529e+03
-3.659627768869555894e+03
-6.442396985355483594e+03
-6.785410757791810283e+03
-6.995682947637351390e+03
-6.647214340067293961e+03
-6.112903138106510596e+03
-6.056806250177025504e+03
-5.620863674610277485e+03
-4.933104887965046146e+03
-4.248481785253861744e+03
-3.698996219231828036e+03
-1.445552008571490433e+03
7.049390760839318091e+02
-1.376561329707411460e+03
-2.140047344502961550e+03
-2.318442771960888422e+03
-2.084732496384812748e+03
-2.311908778929885102e+03
-2.794961587821222565e+03
-3.458901595489465308e+03
-4.431736676116177478e+03
-5.007516607792354080e+03
-5.357205559492917018e+03
-5.577795089816872860e+03
-6.006288559844323572e+03
-4.783628308886558443e+03
-2.219774952910508091e+03
-1.956711252650119150e+03
-3.939385281948913871e+03
-3.692714356176508772e+03
-3.027658378028884727e+03
-2.448159620585468474e+03
-1.517139301059247373e+03
3.229395293753334954e+03
5.004518778160670990e+03
5.245287274881571648e+03
5.017656178790279228e+03
4.679641888150978048e+03
3.994252693884028758e+03
2.897532060255276065e+03
2.330497825118240598e+03
1.666129210188727257e+03
1.181426785103043130e+03
6.423977251965109190e+02
1.230253979097734458e+02
7.234064063323842220e+01
6.424414080161706124e+02
1.241421904464595173e+03
1.750283386792301144e+03
2.478057828428912671e+03
3.694873734591963512e+03
4.801800042482766912e+03
4.934846997819127864e+03
5.159054693151848369e+03
5.484468971706127377e+03
5.712101379011021891e+03
5.333994160723178538e+03
4.921231116456365271e+03
4.366773505204922003e+03
3.637648302491740196e+03
1.845836888077718868e+03
4.173384731493123354e+02
-4.438139121253553299e+02
-7.735868470258462821e+02
-1.104707903684031635e+03
-9.761777201601968272e+02
-9.770202352907401746e+02
-6.602009040367748867e+02
-2.263164919345445725e+01
3.366608366359515117e+02
1.586769355765452474e+03
2.044740534145484617e+03
2.411607077087027392e+03
2.799381784599057028e+03
2.797921259728934729e+03
2.727032090357966354e+03
2.920021392160153937e+03
2.105441430384434170e+03
1.650941035681274116e+03
1.087141673348035283e+03
3.910203295181114527e+02
-7.800594869304559325e+02
-1.454112962542510104e+03
-1.637283274243999585e+03
-1.831489221685262919e+03
-1.974991712593880493e+03
-2.079853399852376242e+03
-1.595086298952247262e+03
-7.096600215423809459e+02
-1.245664199282531541e+02
4.812005949788644443e+02
8.567105089591425440e+02
1.303028674927481688e+03
1.993101257859042335e+03
2.098878581232546367e+03
1.941393870416511618e+03
1.819664192178071062e+03
1.572711842074026663e+03
1.373458595628656667e+03
5.198266457155539229e+02
-2.151374432552221947e+02
-1.014411775968766960e+03
-1.946083281073970966e+03
-2.043255314917653550e+03
-2.094961092664617354e+03
-2.060136306965470794e+03
-2.021780390130513524e+03
-1.724918833142433186e+03
-1.156606086697387809e+03
-3.697379524570761191e+02
4.026735519931374370e+02
8.886714975055580226e+02
1.284210272385492317e+03
1.667226358159254232e+03
1.866798281763171190e+03
2.019935376449507658e+03
1.901609323930282471e+03
1.655729929946995526e+03
1.225291432472871520e+03
5.102798962958968332e+02
1.456148962660338952e+02
-8.187623608545277420e+02
-1.842884067673088111e+03
-2.175796938551569383e+03
-2.967563721897537107e+03
-4.693208400112243908e+03
-3.515683541826855617e+03
-2.175985272833277122e+03
-4.647083131897188650e+03
-6.990062716465561607e+03
-6.137877608158906696e+03
-4.337488924846741611e+03
-2.996919508880459489e+03
-3.383295795691869444e+03
-3.256404556501876414e+03
-1.964200689036940958e+03
1.636279866842314505e+03
3.109097107889617746e+03
2.703927721543584084e+03
2.026767962252107054e+03
1.205609858578515286e+03
-2.195702925209657224e+02
-1.315830751254797633e+03
-1.804188374466231153e+03
-1.534690702322446668e+03
-1.712381702443860831e+03
-1.535294466769820701e+03
-1.378453545032188458e+03
-6.747824534988078540e+02
1.247308932706095135e+02
5.380868685463435668e+02
7.133079401811314710e+02
1.201384114800511725e+03
1.485346136883882082e+03
2.110206640311220326e+03
2.439974254239779384e+03
2.355628784839690070e+03
2.132263602577886104e+03
1.884794937374434767e+03
1.066118971834226841e+03
2.932303468924708909e+02
-5.958785173719699060e+02
-1.275230588173084470e+03
-1.506859169739846266e+03
-1.737783954373391907e+03
-1.824005640356794402e+03
-2.004550091948442059e+03
-1.238396874445733147e+03
-4.824563630173115598e+02
5.012675886354767840e+02
2.097443973742651622e+02
4.729889208162348950e+02
1.247053471755380997e+03
1.562942873269831125e+03
1.853688440684359648e+03
2.083343159921907500e+03
2.067905649121823444e+03
2.008381354684124744e+03
1.796754086591500027e+03
7.069815311565805587e+02
-5.295577608481629284e+01
-7.290689989573489811e+02
-1.539353190401859365e+03
-2.120830752343033964e+03
-2.414544265215457472e+03
-2.334480446511265654e+03
-1.922619526886876884e+03
-2.020930329519434508e+03
-1.300389593423592260e+03
-2.929472047657106373e+02
1.604440789334240094e+02
8.218257107867786999e+02
1.434144796844510438e+03
1.757473592863023669e+03
2.010856836274700754e+03
1.916361672433566810e+03
1.492937611148020096e+03
2.326540417223097563e+02
1.774017239350527007e+02
6.521382966493602851e+01
-4.349085696117209636e+02
-1.116001367772278627e+03
-1.153099046536915466e+03
-2.099187193539886721e+03
-2.469300137633010308e+03
-2.501508355901037703e+03
-2.007699158614212138e+03
-1.381774742083214733e+03
-4.007350163346999921e+02
6.363974251640006514e+02
1.882715268390676101e+03
2.658259550639874305e+03
3.394098372924356681e+03
3.469175461332530631e+03
3.420551935874512310e+03
3.306201868649484823e+03
3.094139972424731241e+03
2.399466501638498812e+03
1.896178207165639833e+03
9.611658481909202010e+02
-5.755659797933844857e+02
-1.780015648788195449e+03
-2.277204466981403129e+03
-2.258148801820186236e+03
-2.646839558168621807e+03
-2.235307936263032389e+03
-1.930537784128756584e+03
-1.594572111951055149e+03
-9.813887083166283674e+02
-1.949070555308485098e+02
2.839212231280554306e+02
8.110815241684006196e+02
1.482616202345304373e+03
1.734527759637231156e+03
1.826876247864802508e+03
2.064599213639527989e+03
1.452753883473300448e+03
1.206428077678923955e+03
8.385720512789717986e+02
4.131896339956909969e+00
-7.569250842232156629e+02
-1.539587126306882055e+03
-2.145920050492442897e+03
-2.707988816478426997e+03
-2.689812187361564611e+03
-2.450418316383235833e+03
-2.263781381039671032e+03
-1.538882121418202587e+03
-6.227090568140632740e+02
2.074006623196689603e+01
3.535819266269523382e+02
9.679147101555593053e+02
1.367857395882013861e+03
1.874436573415191333e+03
2.179301519138948606e+03
2.127165977522897265e+03
2.082336718035355716e+03
1.773215903206345274e+03
1.054594214070009684e+03
3.962209001854427015e+02
-7.538949721200847307e+02
-9.259717466058950777e+02
-1.290929243675871930e+03
-1.220407912190366233e+03
-1.622590187072033359e+03
-1.384819647112718712e+03
-1.533033344151721167e+03
-1.273984648903496236e+03
-2.131255918264919273e+02
4.475521852075277138e+02
8.056692592378708468e+02
1.323691333345580006e+03
1.395035846637439363e+03
1.886389663370837525e+03
2.344906596054021975e+03
2.428384502301578323e+03
2.327874242648123072e+03
1.745461307418384422e+03
1.278824792294222789e+03
8.642008123940267978e+02
8.442183779580093983e+01
-5.665998071455662739e+02
-1.179063826964371856e+03
-1.648238169184048957e+03
-1.766802169014659739e+03
-1.648582309665723642e+03
-1.471804345745279534e+03
-8.803519001002308642e+02
-4.323323088234094769e+01
6.073715964662322904e+02
1.993982439645985323e+03
3.420866391788220881e+03
3.939342724353691210e+03
4.029296997631938666e+03
3.855701207112205338e+03
4.177528224309457073e+03
4.264784988420551599e+03
3.905417495040539052e+03
3.315409530073533006e+03
2.616750047398820243e+03
1.236422295658990606e+03
1.638056507611343093e+01
-7.094160589173492326e+02
-6.340584512278667262e+02
-1.042542454106089053e+03
-1.427859105002227579e+03
-1.141079159524420902e+03
-4.602359816749942638e+02
-6.330772038767823773e+01
7.167998906434906985e+02
1.519076254505236193e+03
2.050477576429192595e+03
2.558063045051726021e+03
2.960909702981996361e+03
2.756015129984640680e+03
2.809348979182388575e+03
2.610928610863214089e+03
1.765884741455011863e+03
-7.178065984006503868e+02
-4.565211433315796057e+03
-6.276362202900872035e+03
-6.899255365471150981e+03
-7.540923629091970724e+03
-7.426378917626628208e+03
-7.126679471993596053e+03
-7.500801704629387132e+03
-7.208692387716938356e+03
-6.663399819318449772e+03
-6.027853797870558083e+03
-5.171014291483924353e+03
-4.632897419266570978e+03
-3.929408553994517206e+03
-2.800565155562245309e+03
-1.113521835589555167e+02
-7.064457399875861654e+01
-2.208483097332589750e+03
-2.964893635454188825e+03
-3.059810779631832702e+03
-3.278166885817613547e+03
-3.656003552287289949e+03
-2.431351554068563473e+03
-1.825194551001275158e+03
-5.752620372020615491e+01
-1.533473966084322981e+01
3.034222785739705586e+01
-7.952834572689623371e+01
-4.489177997025424105e+01
4.922777388299579115e+02
1.643034202163394639e+03
2.695414563147232002e+03
2.743420868604173847e+03
3.010138311413272277e+03
3.404654437421460443e+03
4.303975587022976470e+03
4.372144212355675336e+03
3.575213096648928968e+03
3.453193009685480320e+03
3.849056072571329423e+03
3.899824097147456087e+03
2.671543307779284987e+03
1.511163713231796692e+03
9.656603033220179668e+02
5.800484797675876507e+02
-5.326243996186296954e+02
-1.633369139493903504e+03
-9.342356735442808713e+02
-4.522111786544725760e+02
1.858127770487747625e+02
7.658918068822044916e+02
6.510621131379848521e+02
1.775336186470079610e+03
3.042786384517081842e+03
3.743465983963825238e+03
3.902420949855644267e+03
3.815687959393331766e+03
4.016284109566722691e+03
4.114250746634661482e+03
3.607572430770796018e+03
3.029317562763564638e+03
2.224526760010743146e+03
1.022099952826672961e+03
-3.289649690208306083e+02
-1.098586440348143242e+03
-1.710729467372622594e+03
-1.643254882968779839e+03
-2.153955708770075489e+03
-2.114820647368433583e+03
-1.748007605267891449e+03
-1.224514041533859654e+03
-2.872449209287111444e+03
-1.860599600537339711e+03
5.912345289026903572e+01
1.263796138297480638e+03
1.637186911145062140e+03
2.057209256142491540e+03
2.462875312674781981e+03
2.188238995822601737e+03
1.824315963114425813e+03
1.288183224562196074e+03
9.048271602092789863e+02
2.561814606742760816e+02
-7.198243783243767666e+02
-1.818144019142451270e+03
-2.371807014720123334e+03
-2.399827458935867071e+03
-2.451244663533195308e+03
-2.339057479966887058e+03
-2.060229378726816321e+03
-1.651734701997752154e+03
-9.545840453631076343e+02
-2.487154576391524472e+02
4.158509792470792377e+02
9.751348899471149707e+02
1.636164724120005530e+03
2.012973193715094339e+03
1.607544931655299479e+03
1.638911557380429940e+03
1.315062208253024664e+03
6.889964630318090713e+02
2.507039543931075514e+02
-7.458812561064295323e+02
-1.404767665175086449e+03
-2.102026784815653173e+03
-2.686650363776496761e+03
-2.616707935663483113e+03
-2.351244369282634580e+03
-2.172295391982634555e+03
-2.152711133226634956e+03
-1.499556660489668275e+03
-1.137909513863756956e+03
-6.337029462040062526e+02
1.020738436396557063e+02
1.085437898409894842e+03
1.473384412814541747e+03
1.653892566324338986e+03
1.886015652102257718e+03
1.879799126171001035e+03
1.299132615186719704e+03
1.029995203547700157e+03
5.853815598948972365e+02
-1.347527330811239210e+02
-8.064566995760043255e+02
-1.474807517182554193e+03
-2.269857697652653769e+03
-2.659636503293511851e+03
-2.393202090768766084e+03
-2.503585844427047050e+03
-2.253699360008188251e+03
-1.652603322240151101e+03
-1.021349800884836100e+03
-4.889203036617991671e+01
1.319742241235299389e+03
1.578636960163093363e+03
2.471869729007996739e+03
2.729485841983752834e+03
2.979292675177897763e+03
3.077313969475528665e+03
2.981575985434057202e+03
2.387031728484969335e+03
1.899500682974228312e+03
9.491206142156503347e+02
-9.071853181672473738e+02
-1.760470720839245359e+03
-1.957822803444960300e+03
-2.124295356389413428e+03
-2.623915249706662053e+03
-2.343706832369950462e+03
-1.813748362099341421e+03
-6.330181976650145543e+02
-5.054939259681606814e+02
2.028710374690441540e+02
4.480865253761928102e+02
9.531477301995047355e+02
1.654067897960794426e+03
2.314916549358921657e+03
2.034639014279740877e+03
2.097243864149909768e+03
1.771785759410438004e+03
1.377233166920812437e+03
7.105016332441515488e+02
1.785295346968565298e+02
-5.936736331765820296e+02
-1.405227794527921333e+03
-1.873111697704587414e+03
-2.270349388474082389e+03
-2.256005244424196462e+03
-2.214078247407646359e+03
-2.212570824729799369e+03
-1.501481482856858747e+03
-8.818078814692149763e+02
1.494802776456304514e+02
5.724095590902795720e+02
1.054973090220058339e+03
1.678255706090443255e+03
2.070256070935959542e+03
2.292930327799801489e+03
2.363301275561067996e+03
2.310383043077948059e+03
1.983170363265950755e+03
1.292640876728619105e+03
8.477806204579338782e+02
-1.444630294649479652e+02
-1.102149335778500699e+03
-2.133297940909897989e+03
-2.589946429627785619e+03
-2.693121208505311188e+03
-1.953799662794496498e+03
-1.669925974129040014e+03
-1.156528000232843624e+03
-6.858010584320946634e+01
1.329081674885448763e+02
5.679831789405656082e+02
1.548693534514259454e+03
2.991083304525699532e+03
3.172159355551735189e+03
2.337972979232367834e+03
1.773546313137027482e+03
-1.212133709364766901e+03
-3.263168161660304122e+03
-7.705348572665675420e+02
6.107326724635680648e+02
-1.886317428956315098e+03
-3.687752403071916888e+03
-2.042583665713214486e+03
-3.894904116646290731e+03
-5.346764275293550781e+03
-2.634948801676080166e+03
-5.633508126442401590e+03
-2.527412786543980019e+03
-2.312655837034962133e+03
4.876187093250502613e+01
7.988878536405256625e+01
8.507649904593930614e+02
2.892437824033036577e+03
1.413982400996406113e+03
3.499399256618894924e+03
4.207684539012298956e+03
3.909883865662859534e+03
2.998000201038836167e+03
3.499360561766771411e+02
-2.192535852967519929e+02
-9.005769933147926167e+02
-2.492064637439134913e+03
-1.895706638167669325e+03
-8.285745306285164133e+02
-1.153694035863193676e+03
-3.138041652262917069e+03
-3.954683789030229491e+03
-1.533608630758603340e+03
-3.907122537584410793e+02
6.940744358563179048e+02
1.375803463448384719e+03
1.849471766936528638e+03
2.253108744324812506e+03
2.467773141149954881e+03
2.841429846811895459e+03
3.084119638304554883e+03
2.801922417254482752e+03
2.488861632524799461e+03
1.721902638930160037e+03
1.166964997359627205e+03
7.921044073592377117e+02
-1.746960591486345322e+02
-9.664797607871154241e+02
-1.372289251142482726e+03
-1.386134084428583719e+03
-1.366035264973029598e+03
-1.767997459646457173e+03
-1.439946938372646400e+03
-5.989382130364680279e+02
2.900678443376742734e+02
6.751925248074952606e+02
1.019426530926456508e+03
1.776794722641227963e+03
2.323398361580053006e+03
2.352399000537002848e+03
2.325862251914745684e+03
2.217610979241022960e+03
2.055584846513052071e+03
1.489000598389223114e+03
2.338448628108782827e+02
-6.299867038962801189e+02
-1.251492415602600886e+03
-1.642683501129616388e+03
-1.924569745939835457e+03
-1.856199623176433761e+03
-2.059597127924795586e+03
-1.518758525980059858e+03
-1.377712168852817285e+03
-8.714247150409238429e+02
1.569101266680511912e+02
8.884960825802996851e+02
9.516545187653026687e+02
1.429056655242002307e+03
1.992659185852146265e+03
2.176603103084239592e+03
2.167922107458906339e+03
2.094425291064979319e+03
1.858098034315962650e+03
1.480988628423564023e+03
9.080027762102486122e+02
6.398911749984427644e+01
-6.461149258793687977e+02
