-1.164752972139894382e+03
-7.332248065774975885e+02
-3.766694835277589846e+02
2.439358873258013318e+02
1.325644695454128851e+03
2.162474014935080049e+03
3.017507666446302665e+03
3.514781947879541804e+03
3.653340218582545276e+03
3.890224369675258004e+03
4.151425492970668529e+03
3.674921359112322534e+03
2.654727456520775377e+03
1.622895350301632334e+03
8.523680649506962936e+02
4.172140405923674393e+02
-4.004901998934577136e+02
-1.106768393329157789e+03
-1.120760695962589807e+03
-1.166549286812841956e+03
-1.147948172776557840e+03
-6.128961256447691994e+02
-3.513867977107675529e+02
-2.104309662459301080e+02
5.950104830455991305e+02
1.786998795480840499e+03
2.441592015838132284e+03
2.751872340602230906e+03
3.195743497609986662e+03
3.184240183983744828e+03
2.576307685924125963e+03
2.790782248471653020e+03
2.185058166103772692e+03
1.321148573233417892e+03
8.635524499495066948e+02
4.521020449402437862e+02
-6.396497232458136750e+01
-5.906602951173724705e+02
-1.140127635920751800e+03
-1.523305848406389941e+03
-1.516187018757149872e+03
-1.224738628354004959e+03
-8.249777178416358083e+02
-3.458992065879545521e+02
5.655159251414617074e+02
1.350255826136616633e+03
2.322348346736454005e+03
2.580722650121174411e+03
2.860248754494145487e+03
3.220105235969607747e+03
3.112379644269482014e+03
2.940781091579715849e+03
2.102271978908447636e+03
1.225812950906863989e+03
7.143373867591749331e+02
5.175642981193330883e+01
-6.079621712422801920e+02
-1.112886587478936917e+03
-1.362045713856266730e+03
-1.550479140529520009e+03
-1.348211718205155194e+03
-1.477244842187511949e+03
-1.171572452937459957e+03
-4.431827354531815786e+02
2.929010288708612961e+02
1.050689900991183094e+03
1.993213813688889559e+03
2.506456204952618464e+03
2.776416545847810085e+03
2.789194271791840038e+03
3.203742007626269697e+03
3.058040412966820440e+03
2.558062751415763159e+03
2.017767096663470056e+03
1.186069935473902660e+03
3.429390309969941768e+02
-5.096702637356817149e+02
-1.000757180954349678e+03
-1.357396271906775382e+03
-1.942583357367481767e+03
-1.971363529353205195e+03
-1.897801091465715444e+03
-2.926803368259745639e+03
-5.022345955902785136e+03
-6.748468141313528577e+03
-5.548103327052906934e+03
-2.840243441301329767e+03
2.166095560566400763e+03
2.309997818072732116e+03
-2.488491157435057630e+03
-3.759446415154143324e+03
-3.748856885112416876e+03
-3.736745213317840353e+03
-4.354068050091088480e+03
-5.263896699499649912e+03
-5.807300922671164699e+03
-6.559246495964661335e+03
-7.036569620440356630e+03
-7.119605705073022364e+03
-5.706380835918842422e+03
-3.112805602139796065e+03
-1.142917626103117755e+03
-4.066859949884389636e+01
3.669887557606330120e+02
1.256029395574328419e+03
1.942541612152972220e+03
2.932566382987037741e+03
3.658163498947481912e+03
4.053344738362806311e+03
3.975169057883716050e+03
3.590678868990731189e+03
3.238845785466703546e+03
2.787648637830281587e+03
1.970075063338851351e+03
1.235153303431857466e+03
5.108593596111530815e+02
-2.178395051388945092e+02
-8.299575062229785090e+02
-1.121485978766056633e+03
-1.280433639083019898e+03
-1.146797742234627094e+03
-6.025944922829737607e+02
-5.727523924629332441e+02
-3.572070142279746392e+02
3.630506826133801610e+02
1.045055053150407048e+03
2.317899050456657278e+03
2.735625766770029259e+03
2.925266324406642525e+03
3.223889262078145748e+03
2.969514492848514692e+03
2.384201036410969209e+03
1.758940955743555378e+03
1.164733186810250345e+03
7.185717522147137970e+02
1.884404361534083421e+02
-6.056658562007160072e+02
-1.104746751741274920e+03
-1.626769552573586452e+03
-1.983804738565026355e+03
-2.058760748061149116e+03
-2.226627734310625328e+03
-1.715371478691281482e+03
-1.041957092456199462e+03
-4.573496999355094204e+02
2.845374621370844466e+02
1.151708644784761873e+03
1.860266450482816481e+03
2.187219221218965686e+03
2.210663775474552040e+03
2.497835571061106293e+03
2.397860178622762760e+03
1.771419333170038726e+03
1.289829113355106756e+03
4.418582693613403194e+02
-4.705721484366280265e+02
-7.373550409631391176e+02
-1.337548020087404439e+03
-1.805216238482903009e+03
-1.757328893540327044e+03
-2.358901200029375559e+03
-2.888957623915783643e+03
-2.596432414755521677e+03
-1.981242601538979443e+03
-1.182392748381874526e+03
-1.898661204993343574e+02
6.334233513040243224e+02
1.525472279505873530e+03
2.251359768535401145e+03
2.829155012534406069e+03
2.849924199301764475e+03
2.557703635208899414e+03
1.846437586501627493e+03
8.420868948469419593e+02
9.759594968126737058e+01
-4.490679673100941045e+02
-1.093822970221312971e+03
-1.914703078435639782e+03
-1.862807827640444430e+03
-1.920167033941286718e+03
-2.374738032977681542e+03
-2.496504065547798746e+03
-2.132469577202763048e+03
-1.866674486678277617e+03
-9.160678776394905753e+02
1.363805917592855632e+00
8.526791509787404948e+02
1.004938645918756720e+03
1.472161741128989888e+03
2.205369485317726230e+03
2.267550812058336305e+03
1.932698616618445840e+03
1.566804305177894321e+03
1.280821531380612669e+03
5.167237424917161661e+02
-4.635592246766378821e+02
-1.324051221794695493e+03
-1.861730726875040773e+03
-2.233667107959581244e+03
-2.319953475276528025e+03
-2.475560433652077791e+03
-2.551531684416109783e+03
-2.182908542313165071e+03
-1.318519277222920891e+03
-4.936344244355453839e+02
-1.432210729250488157e+02
8.538128749874036885e+02
1.730479530581965264e+03
1.972797655349073239e+03
2.283769098250034403e+03
2.615432788224204160e+03
2.618731901305296560e+03
2.482506640467947818e+03
1.908805452558336128e+03
1.142574513347976790e+03
5.767840522227946849e+02
-6.259804265447032634e+01
-6.607048353287134432e+02
-1.472600500001360615e+03
-1.988323056674196778e+03
-2.925985764490559632e+03
-4.863206653810042553e+03
-3.292264134327629563e+03
-1.613913472650564245e+03
-6.724804476198657994e+02
9.528564192609383099e+02
1.702580899558618057e+03
2.415754772407222390e+03
2.813890129663729567e+03
3.127331233176417754e+03
3.178003419881810260e+03
3.203543968365443106e+03
2.688028875891340704e+03
1.864641768428848991e+03
1.124278256474640102e+03
5.398445901640084230e+02
6.991947439527176300e+01
-4.334381820541256047e+02
-1.089941172514867958e+03
-1.245702906692935358e+03
-1.222123904589938775e+03
-1.605963056703860730e+03
-1.242304861274875520e+03
-2.790797366952103857e+02
8.939305773976153091e+01
1.041331146563193897e+03
2.120893063020720547e+03
3.347777220324234349e+03
3.511015449408552286e+03
3.756007598063361456e+03
3.883416075162234392e+03
3.770434878861144625e+03
3.577631552109000495e+03
3.008218764624279629e+03
2.002230240910510247e+03
1.146342021938149401e+03
6.205105031283510471e+02
-2.214543415210155430e+01
-4.537849211135927590e+02
-6.954631953401237752e+02
-7.762015955073800342e+02
-8.810877826769456078e+02
-6.600709533428002942e+02
-2.161766602749395929e+02
5.045920224506609202e+02
1.356249646302054998e+03
2.161807573168340696e+03
2.809271603547863378e+03
3.476702771039886102e+03
4.312179045558416874e+03
4.547712496809392178e+03
4.133261071239047851e+03
3.576786265293557335e+03
1.582253804115363437e+03
-1.422325389529006316e+03
-5.030029700385168326e+03
-6.255874933374133434e+03
-6.856890077270577422e+03
-7.192138022707516029e+03
-7.331611227705137026e+03
-7.560303274851824426e+03
-7.221220065317006629e+03
-6.874400577517806596e+03
-5.363826085146482910e+03
-5.103437602798021544e+03
-4.801144182711758731e+03
-3.942940510464881754e+03
-3.100748355675225412e+03
-1.614619665323228901e+03
1.329549156133889028e+03
-4.322269414299566961e+02
-7.839283221277070197e+02
3.214457359351844389e+03
2.587921655476530759e+03
-2.260527468838818550e+03
-4.169876394897288264e+03
-5.119140009054925940e+03
-5.849344751988856842e+03
-6.413474969437485925e+03
-6.779507375504238553e+03
-6.792462761680871154e+03
-6.449352015770823527e+03
-6.372194733067894958e+03
-6.184939100388224688e+03
-5.264474942471299073e+03
-2.561737065178747343e+03
1.840283710785850644e+03
3.575680992795415477e+03
4.660509723902787300e+03
5.413853227575986239e+03
5.731732620920583940e+03
5.410163879052891389e+03
5.025192483983858438e+03
4.243851262306715398e+03
3.448131852141470517e+03
2.726032757765065980e+03
2.161539273629588024e+03
1.387642418989500811e+03
8.173850389569096251e+02
7.597311761636814254e+02
6.597026929210616117e+02
5.863578265078182312e+02
8.857340834545811958e+02
1.073845987999377940e+03
1.199769649383699516e+03
1.880572724358339201e+03
2.703321092941513143e+03
3.376010622897835674e+03
4.129751320301978012e+03
4.677642801645570216e+03
4.628695861171067918e+03
4.307998317803703685e+03
3.725572635767633528e+03
3.356415147369320948e+03
2.437549559525160475e+03
1.893976060617530493e+03
1.206628821676409416e+03
4.043865036551181902e+01
-1.804828191293871953e+02
-4.578297061523879847e+02
-1.128429861178191459e+03
-9.642743268080147345e+02
-6.415176731829111532e+02
-8.152388401233471313e+02
-3.416714567227998032e+02
5.427282833435439215e+02
1.120450255766701275e+03
1.800927298645366591e+03
2.064926213845154962e+03
2.648779842006465969e+03
3.119632239912421483e+03
2.867566868645999421e+03
2.508547679454293302e+03
2.209711614944532812e+03
1.580954590095445155e+03
5.619241839860574146e+02
-1.022959661759441587e+02
-9.308175946943724739e+02
-1.364539375268704816e+03
-1.727306902445856167e+03
-2.510292493141888372e+03
-2.813608519127875297e+03
-2.683244726193527185e+03
-2.138229436312537473e+03
-1.609551460863028069e+03
-8.301763937433757974e+02
3.569821471886930908e+02
1.136990547260860922e+03
1.744832656398221616e+03
2.047532124873707062e+03
2.157153005647599002e+03
2.437669114476244886e+03
1.847081851865288172e+03
1.158367132311426531e+03
6.605114145218394697e+02
-2.305153663890225459e+02
-6.587420562494039586e+02
-1.538259893769190512e+03
-2.105117069738912505e+03
-2.254266592558038155e+03
-2.582713914459009629e+03
-2.739500710068592980e+03
-2.261675399766206738e+03
-1.767282599370385697e+03
-1.355234023079586450e+03
-6.205320897577799997e+02
4.281871965999300045e+01
1.037871660002759427e+03
1.783662058028558249e+03
2.307195964917734727e+03
2.685480915394428393e+03
2.652479858586213595e+03
2.144159078075887919e+03
1.460495181139285933e+03
8.964480143265005836e+02
-2.160174613295363031e+02
-5.919492031677640398e+02
-1.245396392388309323e+03
-1.950381827418435023e+03
-2.219967391188399688e+03
-2.698202300138410010e+03
-2.736115776673870641e+03
-2.846757632011329861e+03
-2.758136020343223663e+03
-3.534241276908368491e+03
-5.273065887075207684e+03
-5.919564972709370522e+03
-5.267756749904105163e+03
-3.007624743327690339e+03
1.186828211734777597e+03
2.162592959382443041e+03
1.641670096790623347e+03
1.588064552347042309e+03
1.621697401242478463e+03
1.409558969440047804e+03
1.028593384722764085e+03
2.147048609367274707e+02
-8.640761261805749882e+02
-1.472764871285378149e+03
-1.561477409592862159e+03
-1.807297326479105095e+03
-2.121241053891720185e+03
-1.745355908528985310e+03
-1.669646658700054559e+03
-1.702121083801883742e+03
-1.357801582705836154e+03
-2.976891395853316453e+02
1.402270151047086074e+03
2.438132470501315765e+03
3.201896568609586211e+03
3.467591316027544053e+03
2.853213493503809332e+03
2.818696020053336724e+03
2.479029434765624501e+03
1.702173465556726796e+03
8.310709977891928020e+02
1.677314839590621887e+02
-3.749086456075800129e+02
-8.448687225006051449e+02
-1.152192274360580313e+03
-1.494882574815487942e+03
-1.781015556161083396e+03
-1.535612307870019777e+03
-1.250666863459189244e+03
-7.851589064130802171e+02
8.890516795790877325e+01
7.005201942535495618e+02
1.450783000718181029e+03
2.263732664438711708e+03
2.542371088496263837e+03
2.674694287790688122e+03
2.841742065430706134e+03
2.698495081781271438e+03
2.772939944670297336e+03
2.385046627681735572e+03
1.458817558624954927e+03
9.741881606452074038e+02
4.421368747788482096e+02
-7.663568742966267564e+02
-1.342313026013812987e+03
-1.281767395949489128e+03
-1.553691913656846282e+03
-1.544084260595691148e+03
-1.204994945848509815e+03
-9.224147532699688554e+02
-3.212554068314278197e+02
1.093514933971751134e+03
2.287925035924032727e+03
2.266003641124086244e+03
2.817733769093289084e+03
2.917218409070612324e+03
2.926489675967155108e+03
3.018534879645243109e+03
2.641348541787903741e+03
1.928906583371076977e+03
4.782499497422943477e+02
-3.298654314209065888e+03
-4.476767291914250563e+03
-5.661937062041472927e+03
-3.346476994754208135e+03
-5.194417056260203935e+03
-6.521673592738126899e+03
-5.411310663502105854e+03
-1.938248871928949029e+03
-2.865468215743989731e+03
-3.265894869826522608e+03
-3.625244090490101598e+02
-2.382817933265376666e+02
9.278746696094127628e+02
7.759940892413278561e+02
2.165137758785968799e+03
2.389325424004226534e+03
-3.994332302125634442e+02
-8.081471643597895991e+02
-8.608431116114049928e+02
6.844991140926171056e+02
-1.559167290298471698e+03
-3.828561592448058377e+02
-5.595273178853539093e+02
-8.632445285512458213e+02
-1.992048218996089417e+03
-4.189833776444294926e+03
-3.192660032087084346e+03
-3.683572681848934280e+03
-3.259555788167070659e+03
-6.165167390183061116e+02
-1.434446722059761669e+03
1.018732259815297539e+03
1.910097759727631228e+03
2.396686304060243344e+02
2.691453820048307989e+03
1.287576725105070864e+03
1.171057689703113965e+03
2.693786003317736686e+03
2.405772590597109229e+03
1.583996211187541121e+03
9.634299324045634876e+02
-6.694868798719558356e+01
-3.911389659365511875e+02
-6.841451265795565178e+02
-1.114021103527227524e+03
-1.595778070397052034e+03
-1.727429869616270707e+03
-1.570966758447049870e+03
-1.223363093548265624e+03
-3.566147551337760433e+02
7.372740707587605584e+02
1.678336174621999817e+03
2.646588422005234861e+03
2.873023178745293535e+03
3.321899650276873217e+03
3.520483031965748523e+03
3.571910993477270040e+03
3.334041282278499239e+03
2.804745035312887012e+03
2.039954790567345981e+03
1.040700734251203357e+03
5.129464878420386640e+02
-7.938986005461921991e+01
-1.020287737656593777e+03
-1.761851000610838582e+03
-1.276153307366705576e+03
-1.204094282269742962e+03
-9.286339700380892737e+02
-6.587870094367406182e+02
3.062260159966223139e+00
3.389200393196128971e+02
1.103211298149600225e+03
1.967859867254089750e+03
2.467618582702776166e+03
2.819932649880105146e+03
3.037740992103305416e+03
2.888580691668247255e+03
2.420672358743229779e+03
2.125093659873759407e+03
2.006787274440194551e+03
1.443714428004977890e+03
9.108252177630226925e+02
-3.339541003207419294e+02
-1.105631426152961012e+03
-1.538118912693616039e+03
-1.470597801620019482e+03
-1.510527242927943462e+03
-1.140783760287307587e+03
-4.301204044184852933e+02
3.392302837774496993e+02
8.851708094338958972e+02
1.582637902169839890e+03
2.358007375580239113e+03
3.208125453142223250e+03
3.750915017328256454e+03
4.177399699983466235e+03
4.080575623892597378e+03
3.831422740229883402e+03
3.321898628210601601e+03
2.194941368850491472e+03
1.222489447576767134e+03
5.625188419347856552e+02
1.000093177113936882e+01
-5.361637443139386505e+02
-9.179579628299862861e+02
-1.106379562659275962e+03
-1.164484597077305125e+03
-1.309306792451756792e+03
-1.008861479985651386e+03
-1.771380267876760968e+02
3.458583826442175564e+02
1.282167606534184415e+03
2.083874379788816896e+03
2.339975188870765123e+03
2.786465376974038463e+03
2.960422545018915571e+03
1.376802932592127718e+03
-1.597405068328814878e+03
-4.142192784852302793e+03
-4.797654104777690009e+03
-5.247834541223936867e+03
-6.277709753765613641e+03
-7.022347382404846030e+03
-7.233738683086496167e+03
-7.563872472660948915e+03
-5.186791910002411896e+03
-1.633541897637361444e+03
-2.604127895390633967e+03
-6.360526226625977870e+03
-6.647669084891381317e+03
-6.018570514857107810e+03
-4.818206779820281554e+03
-3.840482826791516345e+03
-1.194349573740301821e+03
6.641438224512166926e+02
-1.914916510839935199e+03
-2.259475392040198130e+03
-2.541567959829088522e+03
-1.582171276142111537e+03
1.283679025348461664e+03
1.778951315353162272e+03
1.407655833710035267e+03
9.827720778080134778e+02
5.183103342803098030e+02
-5.877721735354369059e+01
-6.024706015770735803e+02
-6.127779841603744444e+02
-1.357202599504923342e+02
1.227512014274958148e+02
5.436865062602893204e+02
1.419139409729192039e+03
2.051189132109639559e+03
2.731856083031906110e+03
3.107244911950111145e+03
3.420405078273283380e+03
3.730360771812648181e+03
3.925173893999755364e+03
3.308786393715010945e+03
2.522267336256860744e+03
1.845635251227647359e+03
1.296854311013561073e+03
8.559535185694094253e+02
-9.708464155853796740e+01
-8.552951416162525220e+02
-1.099649358006975035e+03
-1.457103956326481466e+03
-1.616643216986960624e+03
-1.485253595509406978e+03
-1.105922345650774560e+03
-5.406279540358286795e+02
3.896824998301152050e+02
1.319105407928883551e+03
2.059724287295290196e+03
2.465611970683990421e+03
2.852850644370117152e+03
2.981484557378333193e+03
2.831589792822543131e+03
2.511146529405474212e+03
1.960162076885872239e+03
1.509658827993085197e+03
9.076187245788549944e+02
1.200817870459685963e+02
-9.289920851927562353e+02
-1.706693630391449688e+03
-2.209054206397965572e+03
-2.730653210373553520e+03
-2.742025811368283030e+03
-2.375519404439851769e+03
-1.768505442197833872e+03
-1.427127519960337622e+03
-8.021188059371160080e+02
-2.750307766266020622e+02
4.820013756185473994e+02
1.214876499535340599e+03
1.870562095194957465e+03
2.255190635447287150e+03
2.238781103776237615e+03
2.206369959061371901e+03
2.217964280832020449e+03
1.794540170834093715e+03
8.730706122630849677e+02
1.975569176561150755e+02
-5.639956812054291504e+02
-1.241628024250963790e+03
-1.614284851496046940e+03
-2.108944398211208409e+03
-2.489628066451013638e+03
-2.501398446815885563e+03
-1.857307139859080735e+03
-1.443312555305161368e+03
-8.443558375543199190e+02
1.576362197286353535e+02
7.427510765344115953e+02
1.313960343433199569e+03
1.279299814734527445e+03
1.516826181230559769e+03
2.074571783027511628e+03
1.552492774342457551e+03
1.098577016869754289e+03
6.627998410863613117e+02
2.171267355155026735e+02
-3.444410853171242479e+02
-9.949389916167366437e+02
-1.437422293626537112e+03
-2.263922376547120166e+03
-2.897486254890392502e+03
-3.249150846648460174e+03
-2.880904171717321788e+03
-2.285711315547509457e+03
-1.592586247722249254e+03
-7.255501218301782274e+02
3.134062852933856789e+02
8.992751921088570271e+02
1.357084549931541233e+03
1.702826659755935225e+03
2.274530145078848818e+03
2.351201300992814595e+03
2.034782447304985453e+03
1.381215698328755934e+03
7.825814440017901461e+02
2.037436576994012114e+02
2.961087173720045129e+01
-5.968133594467200282e+02
-1.297575548219980647e+03
-2.036760243295745340e+03
-2.383373264112774450e+03
-2.345465593541187900e+03
-1.904152182625781506e+03
-1.393471905906549637e+03
-1.328367672468795718e+03
-5.019006165604440639e+02
4.569729967470365750e+02
1.385240007439815372e+03
2.089870001172471802e+03
2.358912097160867688e+03
2.705258388523689518e+03
2.659802720820448940e+03
2.322175511802943220e+03
2.396932284587437152e+03
1.695214840327288584e+03
7.943831134702163581e+02
2.257691690606007739e+02
-4.884598960990300043e+02
-1.114682360827350976e+03
-1.695382334373021195e+03
-1.805030329092680176e+03
-2.132813305963734820e+03
-1.962959364803592962e+03
-1.408324993376673092e+03
-9.190403901018210036e+02
-1.868845053226302753e+02
6.747548701174663393e+02
1.690980648744927976e+03
2.641373002083495066e+03
3.096291484126570595e+03
3.443761932155358409e+03
3.473826191011190076e+03
3.316663229825903727e+03
3.005734789308007748e+03
2.338435337147770952e+03
1.581641808759526612e+03
1.474218903271116687e+03
1.144186068534036167e+03
2.941293202639296283e+02
-2.666990971204393759e+02
-8.583649688546445304e+02
-1.566042501030999347e+03
-1.635727120033016945e+03
-1.071395643964237706e+03
-4.023004040563919261e+02
-1.409654624172932245e+02
1.107195328280375861e+03
2.773305886185813051e+03
3.349548443344944644e+03
3.842655714382001406e+03
4.159674952277413468e+03
4.213621947721050674e+03
4.021495752538471152e+03
3.666283077471217894e+03
3.480862892344387092e+03
2.749214494747095614e+03
2.076318318776565775e+03
1.331164026166342865e+03
6.456624754470828975e+02
1.097885890850981667e+02
-3.674752113008605079e+02
-6.931817001188462655e+02
-1.224364181672527138e+03
-2.505991673453228941e+03
-4.664071846699934213e+03
-5.743576253446550254e+03
-5.187495738696509761e+03
-4.123778976380621316e+03
-2.787419450286648043e+03
-2.427361749070551923e+03
-2.686559518463701352e+03
-2.300949372872548338e+03
-2.356540428143063309e+03
-2.819367338089217355e+03
-2.844454565423395707e+03
-2.624741282366162523e+03
-4.432210001846980958e+03
-5.003998767920018508e+03
-4.172109812158427303e+03
-2.884522507995341584e+03
-5.619236988274960822e+03
-6.574227659392115129e+03
-6.614435113538235782e+03
-6.328899298572964653e+03
-3.873578997144604273e+03
1.299597907108423669e+03
1.675638549400593547e+03
-2.065404689850967316e+03
-2.728459326363657510e+03
-2.159422583589511760e+03
-1.969274263117625651e+03
-1.892004652211545135e+03
-1.853545962763803118e+03
-2.100892701603340811e+03
-2.445998084583027776e+03
-1.085832244886719081e+03
-6.324269714149827450e+02
-3.894787032460970295e+03
-2.970863948718859774e+03
4.231939167332505747e+01
4.937682042212965712e+02
-1.825100234434687820e+02
-2.073441964808465400e+03
5.480027832219780066e+02
1.777817299512227464e+03
1.886044687286369708e+03
2.407779217242430150e+03
3.179090644767503818e+03
4.177078836767969733e+03
4.716813989443890932e+03
4.850344619841600434e+03
4.925793014804873565e+03
4.909205124372127102e+03
4.775608607123196634e+03
3.890010778921743167e+03
3.219414947031189058e+03
2.620844572479903945e+03
2.024309194550013217e+03
1.372794189551204454e+03
5.633593897469347667e+02
1.670183543535775641e+02
-2.942265675858205327e+02
-7.633241482897971082e+02
-3.482676525533026393e+02
-1.630067997838865494e+02
2.415557848518552078e+02
1.218376260430936100e+03
2.185499311988338832e+03
3.056116044970576240e+03
3.622562409001038759e+03
3.985059966875500322e+03
3.772512835093979447e+03
3.376924118080888093e+03
2.849333578826384837e+03
2.636740169008232897e+03
2.047109846823484759e+03
1.483456259718604770e+03
7.935548415088679803e+02
-3.147231336205622938e+02
-1.122851512530923173e+03
-1.556617345343313900e+03
-1.903620295511953600e+03
-2.065922485041608070e+03
-1.778298637232088822e+03
-1.011586599134907487e+03
-8.969751576030644173e+02
-1.266535172632037387e+02
8.599662622391068680e+02
1.644748998701298660e+03
2.457756787947553221e+03
3.117941774899770280e+03
3.331329884878350185e+03
2.954888776896315903e+03
2.388491812473732807e+03
2.102118777105055869e+03
1.409753883800507538e+03
7.343623193131585367e+02
-1.608283611473529717e+01
-7.975861735151654557e+02
-1.556179493092907251e+03
-2.105904349109268878e+03
-2.576793864454726645e+03
-2.531853522074897228e+03
-2.282067645271657966e+03
-1.833442283087210853e+03
-1.202913948366120621e+03
-3.614987825595180198e+02
6.128216517330230317e+02
9.840448016974269194e+02
1.401235808622666354e+03
1.990444213826826626e+03
2.231646829530641753e+03
2.324824937061114724e+03
1.933941061458286413e+03
1.300017074620802077e+03
6.639831316490286781e+02
1.038101112554081737e+02
-2.775305881547416789e+02
-8.880894138947584224e+02
-1.320943222672289266e+03
-2.065127948481819203e+03
-2.806693324861761084e+03
-2.880661831471101777e+03
-2.672072269643424534e+03
-2.461930961996957194e+03
-1.859242945173008366e+03
-9.649889492291695205e+02
-4.015625717174166454e+01
1.029242296440210339e+03
1.605224855329939146e+03
1.983814303921865303e+03
2.135988211995231268e+03
2.153745234035783596e+03
1.598058322107260665e+03
-9.930926872036231998e+02
-5.042784832234242458e+03
-5.644183240604426828e+03
-1.470109298482793065e+03
-6.716020064553024440e+02
-4.012857112424343995e+03
-8.598948437463308437e+03
-7.848846967948646125e+03
-3.590689066836475831e+03
-2.114556652361196484e+03
-1.630138649222314143e+03
-1.759630925724170538e+03
-6.400701257850554384e+02
4.735012992720451166e+02
1.467099812198941891e+03
1.982733673188128023e+03
2.319368083040720649e+03
2.606050527996215351e+03
2.539809452231887917e+03
2.154641842300175085e+03
1.651461748035215351e+03
1.346215428936588069e+03
9.728247389380951518e+02
4.822785184480040925e+02
-2.064445856975618483e+02
-8.704400833572847205e+02
-1.629778293227484710e+03
-1.947434679936311795e+03
-1.846393985382818755e+03
-1.622729128060567746e+03
-1.297454385385958176e+03
-8.446102861582864989e+02
-1.561681555063460962e+02
8.229017383990477583e+02
1.449573071089192354e+03
2.065904200418339315e+03
2.484934572135160579e+03
2.665661758485966857e+03
2.879073689045738774e+03
2.724125041577422508e+03
2.448828725546970418e+03
1.905140309295940824e+03
9.860718158641800528e+02
8.559881951174565984e+01
-8.133391928752724880e+02
-9.218195869446703909e+02
-7.708475613643099678e+02
-1.136425534404751488e+03
-1.370580229425707330e+03
-1.480353326055809248e+03
-1.322721142164436515e+03
-7.316703618631815971e+02
1.638346050906820039e+02
9.118006468188796134e+02
1.662286728339880710e+03
1.935360328375059225e+03
2.824069469378876875e+03
2.838411126796605004e+03
2.590393914501347808e+03
2.350973748117547984e+03
2.093179622553817808e+03
1.406014104944869814e+03
9.274419682523198389e+02
5.284817643269310565e+02
3.011444070736826717e+01
-5.757367766904787914e+02
-1.270093387091527347e+03
-1.865897018912014573e+03
-1.941160968015859908e+03
-1.839918117477380520e+03
-1.557170926950105923e+03
-5.428704218958908996e+02
-8.539826723951013037e+02
-3.487489195230522000e+03
-5.202961066686838194e+02
-4.153026215342317187e+02
2.065458111577719137e+03
6.550464357568135938e+02
-3.664601433382759410e+02
1.524906142661283184e+03
1.815176194348363879e+03
-9.136567254653868986e+02
-6.956090089223697532e+02
-2.167725193453073643e+03
-2.679971340319290903e+03
-3.384381493141625015e+03
-4.271969489245452678e+03
-2.966748741356601386e+03
-4.497703575623680081e+03
-5.536851076308003030e+03
-1.632197966942215544e+03
-3.220687666372907188e+03
-4.019265343087665315e+03
-1.830889689128089231e+03
-2.524982802683545913e+02
-1.838034769075715531e+03
1.074526992264576847e+03
3.381256282981092681e+03
3.778179617704859993e+03
3.411256764390724129e+03
8.575365452345857875e+02
1.600371423316464643e+02
-1.662746787373947086e+02
3.456538965255198264e+02
-2.162181978879872986e+03
-6.328755560292942164e+02
-3.255454383905473151e+03
-2.313923407205614694e+03
-1.978248106448023691e+03
-3.639484865576199809e+03
-1.523708005679722646e+03
-2.948044371028410069e+02
4.232535949248970724e+02
1.112524226160827084e+03
2.307077409455415818e+03
3.238962297116513128e+03
3.558159928182490603e+03
3.887674135183230192e+03
4.023599707238808605e+03
4.097927625094937866e+03
3.415657724829871768e+03
2.697774104181265557e+03
1.978241961050757936e+03
1.191035129830109781e+03
3.471019499366974514e+02
-8.060657338633262725e+01
-3.830852529404205029e+02
-1.013085891481293402e+03
-1.353474162957918907e+03
-1.267340477386983366e+03
-1.253736487110025791e+03
-8.607112055003990463e+02
-2.131857874065660781e+02
9.928579703241954348e+02
1.777468629833748537e+03
2.477673178374002418e+03
2.653483087359918500e+03
3.006867508697466292e+03
3.548732979880128823e+03
3.422233197904198732e+03
2.647449700291023873e+03
2.018034554252083581e+03
1.032716783894727087e+03
4.539589508690151547e+02
6.168782820541530043e+01
-7.012146127579296717e+02
-1.070794155092216215e+03
-1.072210218716425516e+03
-1.406566308903803019e+03
-1.553829894533738070e+03
-1.521044267981450048e+03
-8.662366442826171351e+02
-8.624812973547295769e+01
7.559480634017642160e+02
1.778334874568924079e+03
2.595894962480171216e+03
2.798710465417196701e+03
3.277914614316315237e+03
3.171089685604968054e+03
3.006092759612939972e+03
2.904340856620289742e+03
2.457546893010820440e+03
1.996654761793084845e+03
1.268738404909014434e+03
7.986056144845438212e+02
4.332669983118248638e+02
-4.156698029104439343e+02
-1.153169151833608794e+03
-1.480126398658520884e+03
-1.491614362718608618e+03
-1.218687931279119994e+03
-6.903476680675598800e+02
-3.335644687740364134e+02
3.546423232426750474e+02
1.176286648909089763e+03
2.169399636568567075e+03
2.926916312760182336e+03
3.230916863845983698e+03
3.459413062394547978e+03
3.478384836365674346e+03
2.846827195876407131e+03
2.226711550922595507e+03
1.602996872435515570e+03
1.053596831948001181e+03
3.864921374009815622e+02
-2.503275374502435113e+02
-7.969419042670157296e+02
-1.108363505671208259e+03
-2.411623290393466505e+03
-4.247741750247075288e+03
-6.634752735781562478e+03
-7.643670003175830971e+03
-6.570475322415989467e+03
-5.409147927137302759e+03
-4.253612515180279843e+03
-3.493801996651183345e+03
-2.872720446077627912e+03
-2.483389305379653706e+03
-2.354778157577622096e+03
-2.428856367149420748e+03
-2.520641362879830012e+03
-1.006670784125085838e+01
2.181788590886671045e+03
-7.231134417022523166e+02
-4.579785984555598588e+03
-5.603248162521726044e+03
-4.727536168086275211e+03
-4.163684073799413454e+03
-6.708628545362280420e+03
-6.799408031343442417e+03
-7.026059601084554743e+03
-6.633533728094316757e+03
-5.480775199461506418e+03
-9.717949468592870517e+02
2.085449165541157981e+03
3.127048835530601536e+03
3.943067087276398979e+03
4.559499279064485563e+03
4.551394194214791241e+03
4.022810632404188709e+03
3.825751987602493500e+03
3.775222211358838649e+03
3.010261972663149663e+03
1.875850858446929806e+03
1.102988827347271808e+03
3.456258502404857040e+02
-4.032439318360829361e+02
-5.525928426763704238e+02
-8.664189372297753380e+02
-8.137046967833072131e+02
-7.284690932332594002e+02
-5.256081059625212220e+02
2.099502498273376148e+02
9.021880006634802385e+02
1.687158855210711636e+03
2.352978611237998393e+03
2.990693967650907780e+03
3.023386835275891826e+03
3.366101274785658461e+03
3.476856081717765846e+03
3.347668818695790833e+03
2.706578918455987605e+03
2.041573395482870183e+03
1.136687431449634914e+03
6.109719358773337490e+02
-3.160851370803503713e+01
-5.950645506980287109e+02
-1.287376178546033088e+03
-1.478497589840177625e+03
-1.429434308760970680e+03
-1.545199126268356167e+03
-1.353755063267666401e+03
-8.110249192112771652e+02
-1.059671385846717442e+02
8.404954383691148223e+02
1.647428273043844911e+03
2.235944773944509052e+03
2.328303105417186543e+03
5.637134884742017675e+02
1.167929356116108465e+03
2.329592705721587208e+03
1.886899182638995171e+03
1.090065998167254065e+03
7.581808560713566294e+02
-7.928987344230770304e+02
-3.559132475662277557e+03
-1.709536530267270109e+03
-1.614152074235950749e+03
-1.529907941380565262e+03
-1.831884143026233687e+03
-2.026091618330366600e+03
-1.827527274566098185e+03
-1.685134535297404227e+03
-1.010880899482561631e+03
-1.367122175982764247e+02
1.359469967361682393e+03
2.089709654810298161e+03
2.499038271464648005e+03
2.442468631260661368e+03
2.302034851661842822e+03
2.165760401838271719e+03
1.294653136648140389e+03
3.086931464080001888e+02
-3.991045626001796336e+02
-4.297648231298374526e+02
