-4.120959048985948357e+03
-4.131774817327897836e+03
-2.909746870636171025e+03
1.548165180607407365e+03
2.805001868875353011e+03
3.019768511425280849e+03
3.396493788089490863e+03
3.686223743738304620e+03
3.838946803031649324e+03
4.217647428983493228e+03
4.143430382053722496e+03
3.500248820915154283e+03
3.347163590531456975e+03
3.025168171620612156e+03
3.023299381125740183e+03
3.140542481634874093e+03
2.896941715754754114e+03
2.240473571221737075e+03
1.841122672845484658e+03
1.923866414425349831e+03
1.845752344254021637e+03
1.849781699686306411e+03
1.860986270136900885e+03
1.853360210747571728e+03
1.935955594191176033e+03
2.364800300481315844e+03
2.659887094872261969e+03
2.659243498664965955e+03
2.721891901187022540e+03
2.752779600991084862e+03
2.452892160197568955e+03
2.354711645603177658e+03
2.204032506703204490e+03
2.317906895204029297e+03
1.928888185781573611e+03
2.004220910842775311e+03
1.944299424935057004e+03
1.362854807348140184e+03
9.949977456282348385e+02
9.902959791917678558e+02
7.729763697790970127e+02
8.598864574022452416e+02
9.088669734913820548e+02
9.415383635997219471e+02
1.237820219226033942e+03
1.576195983873636806e+03
1.575000114003851195e+03
1.743381548849037245e+03
2.019134105888609611e+03
1.857091492110278978e+03
1.670630770240467655e+03
1.749713818039195758e+03
2.021092774716752501e+03
1.913042146779881477e+03
1.546079896954630158e+03
8.287294247687992765e+02
8.115070408916079714e+02
7.497115368202870513e+02
4.162421336176081468e+02
3.610480558391871000e+02
5.080614019649617603e+02
3.542759289530612250e+02
2.066670069220114101e+02
1.452249234048034339e+02
8.109747541416776357e+02
1.111922735387854800e+03
9.350704849606538573e+02
1.199437530518447829e+03
1.525007369391776365e+03
1.383733745959011230e+03
1.544629833642603217e+03
1.615691419296271079e+03
1.394903248908867454e+03
1.415247442180217604e+03
1.541677553995396920e+03
1.329234630942704598e+03
6.128813881581116902e+02
3.866001737804064646e+02
2.359716246602021172e+00
-2.938491431362175490e+02
-2.050250996653028324e+02
5.374148759192002700e+01
-1.635105782637355958e+02
-1.132750454370165926e+03
-2.987983911046766025e+03
-6.026250183484161425e+03
-6.532553378275360956e+03
-6.074847775775300761e+03
-5.723148128684358198e+03
-5.489514634746153206e+03
-4.861948761196202213e+03
-4.930403485205881225e+03
-4.944942429392192025e+03
-4.567591531890719125e+03
-4.632284587377260323e+03
-5.169980924621754639e+03
-5.703777203457791074e+03
-5.882731139553235153e+03
-5.004828500287395400e+03
-2.707023448483043921e+03
-4.941379696532986600e+03
-6.262917440622966751e+03
-6.247702894630953779e+03
-5.818697602228740834e+03
-5.297854417464553080e+03
-2.122194053884584264e+03
1.665274184577714095e+03
2.498534043355275116e+03
2.959541036526755761e+03
3.169372308117751800e+03
3.074019304198101054e+03
2.854445319397567346e+03
2.500688420051470530e+03
2.145735426294479112e+03
2.184567412779970255e+03
1.947250784278535093e+03
1.568735101266870743e+03
1.306998866633211037e+03
1.061061795662433724e+03
5.809028085545226077e+02
5.155382314779577655e+02
4.049339685461889076e+02
4.921238591126175947e+02
1.025073087930001520e+03
1.315839780379965532e+03
1.441377071638160260e+03
1.966684231877520233e+03
2.394786083105566377e+03
2.384751339655377706e+03
2.042542848157513390e+03
1.949191581671472022e+03
1.942708836521322155e+03
1.732114077582041773e+03
1.632420499984642220e+03
1.347605362191055974e+03
9.676882842240116815e+02
8.886647223604325063e+02
7.225348832113178332e+02
3.393453641084429364e+02
-2.619557961078432982e+02
-5.333590477076307934e+02
-2.858350331480452837e+02
-3.804021750933133603e+02
-7.300624171869387169e+01
-1.016123811197098803e+02
5.297114424801015957e+02
1.021883527946547247e+03
9.830030570135451171e+02
1.243335964528950853e+03
1.471158242894262685e+03
1.386502376236828013e+03
1.043269191561027128e+03
9.114036699322751929e+02
9.769843068153488730e+02
6.789845855353709112e+02
3.033597246373338407e+02
-2.028359790417664215e+02
-9.665491634740394602e+02
-1.399984401479705184e+03
-6.071908263511861605e+02
-5.302161849258307029e+02
-3.521009160801771145e+02
-2.381989315664010576e+01
8.164087428535086133e+01
9.526976916865551459e+01
4.211494719041642298e+01
3.062058696900790551e+02
5.305634549775937785e+02
8.501919094216698340e+02
7.870808188957503262e+02
6.292425975738409534e+02
9.376929977007266643e+02
1.007444112597438448e+03
7.894904342975620466e+02
5.058178489175762707e+02
-4.154219335136834701e+01
-2.165452886112451267e+02
-3.252224762486499117e+02
-6.305604747639389416e+02
-7.285601747810704865e+02
-6.692540366992973304e+02
-6.266218401119874670e+02
-8.436519604213574439e+02
-4.243349685429460010e+02
-1.446521188570879985e+02
2.323766008349950596e+02
4.617941083237058137e+02
4.716502274633692764e+02
6.668836844906960550e+02
7.695312659620834665e+02
7.015542258796463102e+02
8.179933425433457614e+02
8.618806827570680298e+02
8.352373665492923465e+02
8.549897310639740908e+02
6.711192870193552835e+02
3.106384451886688680e+02
-1.044399173842405162e+02
-5.111148097467536218e+02
-7.623797779551124449e+02
-5.012386678869664252e+02
-5.407270911141941951e+02
-8.088789936418879734e+02
-8.616686531586558431e+02
-4.151025117258999444e+02
-3.821644067052989158e+02
-4.588767572590646751e+02
-8.820478046334810074e+01
1.728371042351538165e+02
1.552466141945855043e+02
3.080324335108853120e+02
3.591825259337944658e+02
1.387223666158732840e+02
3.656267426328295755e+02
4.408781118353139732e+02
1.984561437239837858e+02
-2.596709989375672762e+02
-5.755133621496872820e+02
-6.510974275284366968e+02
-6.054381809262183651e+02
-9.625525652743014007e+02
-1.252404841073365333e+03
-1.101062123775395776e+03
-7.404700161884148883e+02
-3.885825052582514445e+02
-9.418837422048102326e+01
2.536755993262515858e+02
4.669934580093358818e+02
6.387783442108575400e+02
8.050181189924832097e+02
9.826668188662612238e+02
8.527082036374238214e+02
8.321174084149837427e+02
7.039054094878042633e+02
2.680694342802466394e+02
1.355253774788072860e+02
-2.507970524905781531e+02
-1.598490695763627230e+02
-3.267477922341037697e+02
-7.136266491170349582e+02
-7.133877844898862577e+02
-5.989841721258312646e+02
-7.504469019670723355e+02
-5.207620414909082456e+02
-1.839430737392607114e+02
1.059753302523340750e+02
2.009824308966109641e+02
2.380695906612374984e+02
5.191807820301744414e+02
5.273829786376193169e+02
7.646408059138876752e+02
7.198924704212820416e+02
8.801414622570119946e+02
9.162297632666167146e+02
6.971191523006723401e+02
3.349082354230037026e+02
2.516375638963737913e+02
9.517898049015774120e+01
-3.764403785458944753e+02
-5.973371650868606366e+02
-3.817857448592981768e+02
-3.144081617086377491e+02
-2.294377599741758900e+02
2.200167347390148223e+02
4.069212006237108881e+02
2.132721054589748348e+02
6.630476015334040767e+02
6.902837624139369836e+02
7.910228394669802583e+02
9.512166142975105458e+02
1.202862208696405332e+03
1.405934916436350022e+03
1.553398139895589793e+03
1.559298957554358367e+03
1.501647036365495069e+03
9.973999174908877876e+02
5.845040344809572161e+02
4.450104163067407512e+02
9.884906710718871281e+00
-3.948737632396755544e+02
-4.862958191465074265e+02
-2.823859268719223792e+02
-2.081529406862925669e+02
-2.455893922512842096e+02
-2.356925338861433659e+02
-1.153420289957851537e+03
-3.736758664764368405e+03
-2.549697094551265309e+03
-1.832200627264370269e+03
5.147246180867435896e+02
-1.470962241795195723e+03
-2.883193703942315551e+03
-7.420155407828892749e+02
-1.109438612793791663e+03
4.136070367955207985e+02
-1.655891069655689989e+03
5.780584488236524976e+02
-6.305258198661159668e+02
-4.522670853334494495e+03
-9.163737448616043366e+02
-3.906084112388494418e+02
-2.710385120888993697e+03
-1.762713117285396038e+03
-1.684556035021998468e+03
3.171162555149522291e+02
-3.143694792405463886e+03
-1.876955471523223650e+03
3.553662349241467950e+02
-1.100699231366730601e+03
7.678086861572045336e+02
-7.380443483877486415e+02
5.747761413422807664e+02
-1.013715294458796848e+03
1.219435936169083789e+03
1.595294630560744054e+03
1.620868888335831116e+03
1.232152047429121694e+03
1.066142109047930944e+03
6.349031461477638913e+02
2.334219884563785001e+02
1.957510989626637468e+02
1.988324230499484031e+02
3.276759788495660928e+02
4.843862409003486391e+02
6.659606143554859727e+02
9.703627478809166860e+02
1.052698705287160237e+03
1.121956959879462147e+03
1.592157532519221832e+03
1.787370701292124068e+03
1.363607965928912790e+03
1.446859705844964765e+03
1.539167488401729770e+03
1.481589853703703056e+03
1.232146916086189549e+03
1.048817707171281199e+03
6.856029649659366214e+02
2.305263328032343679e+02
-1.064237745059132436e+02
-2.661792588376900994e+02
-2.006644918003382827e+02
-3.998432708226795853e+02
-6.505708190833870503e+02
-1.389917057279545247e+02
2.450854890529826946e+02
-2.725770405087416037e+01
-1.810247316937437461e+02
4.217472986353280362e+02
2.541863999127293141e+02
-2.407297399141370420e+02
1.349361585362134406e+02
1.002265130567363826e+03
1.029316736098528736e+03
7.821115757542972915e+02
9.106198625008387353e+02
1.019772947467526933e+03
8.495062398949792168e+02
7.271410409251249121e+02
4.732196427211067657e+01
-4.408331073694764086e+02
-1.553049063095133704e+02
-2.911175795218446183e+02
-2.764692620549574826e+02
-3.103976899660731306e+02
-3.095293315484934737e+02
8.789247324725660349e+01
1.767706825560612742e+02
6.411355313710403436e+01
4.219467987540093077e+02
5.182875457833710016e+02
4.101396495267400155e+02
8.474916882743859787e+02
9.193741019876647442e+02
6.988249998910647491e+02
8.317841863180265136e+02
3.022380736100237755e+02
3.662156066918406623e+02
1.486933543715360315e+02
-1.134689246857699807e+01
-2.489463044718513629e+02
-2.121192924523902263e+02
-2.968485578336806725e+02
-9.815431863212315022e+01
-3.990660189838239376e+02
-1.085704599433806123e+02
4.235186128068426115e+01
-3.626974433366091688e+01
2.225530504351079060e+02
4.268093978213556170e+02
9.815052931572056423e+02
1.035618339485083879e+03
9.021694428881021395e+02
1.053165488740713499e+03
1.094547038848699231e+03
1.091294555978469816e+03
6.984357828853418368e+02
1.739746330783128201e+02
-8.129199053943116482e+00
-1.979434459967268083e+02
-1.204298024702278127e+02
-1.736736745521907039e+02
-8.886851761622418735e+02
-2.840504766603617099e+03
-5.579099485462831581e+03
-7.086481056566886764e+03
-6.889680460254280661e+03
-6.548728731319856706e+03
-5.873599997412923585e+03
-5.794278303939500802e+03
-5.145825341313300669e+03
-4.817228145835130817e+03
-4.649494925980120570e+03
-4.403663559632338547e+03
-2.962719435974840053e+03
-2.590673894982434831e+03
2.214289381310516660e+02
1.452525066613869740e+03
1.468586222966824835e+03
1.154608095450340443e+03
8.365407929876636217e+02
5.173545548341419362e+02
5.820227076346661761e+02
7.435620079563908575e+02
1.010944324807934322e+03
1.334165507245147637e+03
1.689166700124095769e+03
2.131979310350663582e+03
2.318594838187037112e+03
2.398970199590910397e+03
2.431075505523585434e+03
2.373938030910100224e+03
2.412526612153963470e+03
2.472870465321605934e+03
2.465935826670755432e+03
2.520661499537740383e+03
2.647053859968565575e+03
2.123069276692301173e+03
1.799704859513055453e+03
1.532931220854385856e+03
1.295713532680026447e+03
1.071013671364170477e+03
7.778264521030065453e+02
9.281206378785034303e+02
1.353891167726745607e+03
1.569141046764564180e+03
1.769831253048349936e+03
1.692972065522266803e+03
1.876602072263503942e+03
2.277679285670517856e+03
2.859186995157363071e+03
3.015143182647276717e+03
2.728519255051229266e+03
2.473333777932232806e+03
2.522600713512183120e+03
2.163298339605298679e+03
2.265401770047171794e+03
2.161923184032395056e+03
1.976796195277673860e+03
1.697037917629064168e+03
1.447648078320661398e+03
1.101595068798882949e+03
9.558417715852383481e+02
6.664212117441999226e+02
9.773535116501142284e+02
1.361579298898574052e+03
1.515120255125041467e+03
1.325051660088050767e+03
1.693341388646537553e+03
2.398991870285216464e+03
2.591042788023211870e+03
2.635466495500980272e+03
2.688243324971646416e+03
2.374388752381044924e+03
2.321929352693100100e+03
2.031882401097670936e+03
1.948206640011195077e+03
1.603892614405156564e+03
1.596975960108763957e+03
6.764937947335976105e+02
-1.240558870316954199e+03
-4.508224622721761989e+03
-6.315486962226234937e+03
-6.263358914751689554e+03
-5.983828039030237051e+03
-5.633886605508763751e+03
-5.114532660903552824e+03
-5.032696703471402543e+03
-4.681381469148625911e+03
-4.342603138675252922e+03
-4.327288227234635087e+03
-3.756455820035047054e+03
-3.868038918998755889e+03
-3.906023047506685998e+03
-3.223394013302689928e+03
-6.521995637700408679e+02
-1.573412880935125031e+03
-3.937995482336667010e+03
-4.478940753398508605e+03
-5.042256774902444704e+03
-5.229941948068696547e+03
-5.064984929802662919e+03
-4.680398758768666085e+03
-4.722149665888623531e+03
-4.639186811530445993e+03
-4.477471756943798027e+03
-4.054042325130468271e+03
-3.614843154440428862e+03
-3.230879766745941652e+03
-2.313094189155238837e+03
3.305297570574911106e+02
-8.519916012712023985e+02
-3.010627958385703550e+03
-2.535341016053041585e+03
-2.808131876215762077e+03
-2.935005253358841856e+03
-2.969924503762864333e+03
-2.249843684918133931e+03
1.687209342369891601e+03
2.606256828290114299e+03
2.687276504007313179e+03
2.495238777323359500e+03
2.296194979281146516e+03
2.236196790920650074e+03
2.387215616706093897e+03
2.608285262992466869e+03
2.784435172895627147e+03
2.857682946472843469e+03
3.053055606687643376e+03
3.058544893979481458e+03
3.457174158606326728e+03
3.630983496707349786e+03
3.482994806762893859e+03
3.114238306478373033e+03
3.303722277141408085e+03
3.217456674514414772e+03
3.175457183588720909e+03
2.718733822648093337e+03
2.222263665784651494e+03
1.958049198888993033e+03
1.702110655156318671e+03
1.119446943011611438e+03
1.057015541657094900e+03
1.140718370124214744e+03
9.550453163250959960e+02
1.364021007197816743e+03
1.663319829873859589e+03
1.694834337675921915e+03
2.054893191031344941e+03
2.267538985443835827e+03
2.155695869506293093e+03
2.264278264254297483e+03
2.233189819709913991e+03
2.331853092316810944e+03
2.353676792524573557e+03
2.202029516484966280e+03
1.903122086892125026e+03
1.759564969086216934e+03
1.629185842053273973e+03
1.311372155417815065e+03
9.261191119395119813e+02
9.090371394569815493e+02
9.082468579256560588e+02
7.191494548577938986e+02
6.566472455055504724e+02
1.100361428213531099e+03
1.149450638550919621e+03
1.546792793156230573e+03
1.975570019769543705e+03
1.950800862259041196e+03
1.708468126901477262e+03
2.051492261413326560e+03
2.004819936689362521e+03
1.862427457249378449e+03
1.644346010637561676e+03
1.705510935304997929e+03
1.290952322980116833e+03
1.329645861938427743e+03
1.179548159579672074e+03
5.796352193843634950e+02
5.248779793344853033e+02
6.442832011122604854e+02
1.248415809695027150e+02
2.055128009959415749e+02
1.852982745424570794e+02
7.917279670710519213e+01
3.131047867767961179e+02
7.281156122557996468e+02
9.662605269738119205e+02
1.185517387980488820e+03
1.316846063019876510e+03
1.914268949186250438e+03
1.821751668304140139e+03
1.427291249981717556e+03
1.393895203015411880e+03
1.146542106239496661e+03
1.009214712376237344e+03
6.249019462782401888e+02
-1.063401727325836873e+03
-3.494737100047824242e+03
-6.692083404465877720e+03
-7.191491574311469776e+03
-6.903014190150082868e+03
-6.887588128308707383e+03
-7.089240287755535064e+03
-6.424035415238375208e+03
-6.076940677870741638e+03
-6.274935211728853574e+03
-6.015020749968022756e+03
-5.639269679641820403e+03
-5.194648433576689058e+03
-4.930125540798301699e+03
-4.438732490507211878e+03
-2.787521171515956667e+03
-1.225463092461604674e+03
-4.058562671680768744e+03
-4.773807821817474178e+03
-4.980206778132430372e+03
-5.454820019809191763e+03
-5.485625849152700539e+03
-4.428634672885611508e+03
-3.278612722971366793e+02
1.094690014606153682e+03
1.253993747544333928e+03
1.188078674860717911e+03
1.238961717220445962e+03
1.274604683088935644e+03
1.238028928674548297e+03
1.407254812386837557e+03
1.722215637666963630e+03
2.446995969210391195e+03
2.559606806614952347e+03
2.480982817081491248e+03
2.473178236736388953e+03
2.569155650740448891e+03
2.414936086171803709e+03
1.905510016685443134e+03
1.717876640590331135e+03
1.662033173878708112e+03
1.253983479504523757e+03
9.406864518527888777e+02
8.592064777857328863e+02
7.035188174506139376e+02
6.086298001922684762e+02
6.525853670228073042e+02
7.643278634637947562e+02
8.708950213748780698e+02
9.092433743555109231e+02
1.158422432848992685e+03
1.548502671660746273e+03
1.640444380849075969e+03
1.530285710101033374e+03
1.670040512659423484e+03
1.726739926560881031e+03
1.680403072812808432e+03
1.448982368474088616e+03
1.587496441605606378e+03
1.247961379445789817e+03
5.623628829306430816e+02
1.726752277894404415e+02
4.149735450342633953e+02
2.684967863844880185e+02
2.544155175617794100e+02
7.265755951660602818e+01
1.421484836379357546e+02
3.729105712261253984e+02
2.050211936787669913e+02
6.744236172385519694e+02
9.961357230576127222e+02
9.551730056526427006e+02
1.132610135526602789e+03
1.012236529471124754e+03
7.131531047615651460e+02
1.159374913343233402e+03
9.469302219179246549e+02
1.076679516003242725e+03
1.071593679914738914e+03
7.457093754345814887e+02
1.460322710245608562e+02
-1.674994516546535124e+02
-2.958757470823744598e+02
-2.000777814446043408e+02
-4.621201872933012851e+02
-4.529882563105523445e+02
-4.247203959022151594e+02
-1.822805101547549782e+02
-2.456139446872255405e+02
-7.034508357780234755e-01
-1.853551681727916645e+01
2.369052020089952180e+02
6.666382022949580914e+02
6.316349701532075187e+02
6.659254463249104674e+02
5.135214164367877174e+02
7.144759843693217363e+02
7.997453829273985093e+02
3.253296014476864570e+02
1.532531047804560274e+02
3.455794451616205976e+01
-1.448021287266262220e+02
-3.168281158072596213e+02
-5.095571411496881069e+02
-9.009631840866170478e+02
-1.139031042246327843e+03
-8.977242973430745678e+02
-8.210857808362975447e+02
-8.721496967884264677e+02
-6.038990711200729038e+02
-4.853035643077301984e+02
-1.823303188096383280e+02
2.610351491414210159e+02
4.607709809897600621e+02
3.569209049466361989e+02
5.944244688443371842e+02
6.193003000713059691e+02
6.895829135469127777e+02
5.542327227060753785e+02
1.862518876796962672e+02
-1.433291762766922091e+02
-4.375162152536666440e+02
-6.193244676963369102e+02
-1.151813546958274401e+03
-1.547005880367971031e+03
-1.236902660555883813e+03
-1.106465267509881869e+03
-1.010741547392401003e+03
-6.697274838573227953e+02
-1.574123054903201080e+02
4.417354589749653115e+01
9.007465034692138772e+01
1.263027141538873082e+02
4.078182043840755000e+02
3.076442318815695103e+02
8.977096461449211517e+01
-2.708288537541120604e+02
-3.142786375047163006e+02
-6.656015045356316762e+01
-1.724458065728825034e+02
-9.565125344249059935e+01
-2.962259518737521375e+02
-3.662939767259162522e+02
-5.769208408567602646e+02
-9.881226606287765435e+02
-6.369373757891419245e+02
-3.483460912336208821e+02
-7.603741325003187512e+02
-3.150153002128274693e+02
-3.772605154802719767e+02
-1.242081701383236236e+02
4.641961594642100977e+02
8.521041009108735125e+02
9.362498742655411661e+02
9.111799528536255366e+02
8.843301515270881055e+02
1.105887311818739136e+03
1.192715306134175307e+03
7.818189897893770421e+02
6.231326754252578439e+02
1.835964703855554205e+02
-1.058285145739568520e+02
-1.611313502155527146e+02
2.063980169823141964e+01
-2.444905284011189792e+02
-3.166156903814963925e+02
-4.707111669390229736e+02
-3.906516255762261380e+02
-7.570971750421932711e+01
1.817619554329304776e+02
3.652298119471849986e+02
6.428227426022257305e+02
9.713299152442793911e+02
9.427943293110708964e+02
7.261421369579820748e+02
1.048352577107905290e+03
1.304385282395159038e+03
1.590029895180565518e+03
1.429506462181587722e+03
1.036593933684321200e+03
8.301931041711090984e+02
6.382329458662471779e+02
4.979735976468277272e+02
1.552062591079503022e+02
2.873257050480233499e+00
-7.001301589010752480e+01
1.635454826374139543e+02
1.235441094523800700e+02
1.750052388739855758e+02
4.698695847396970180e+02
8.791283849614474093e+02
1.051836041319649667e+03
1.168002862174542770e+03
1.511591328493954506e+03
1.588595888288250762e+03
1.579972427759033963e+03
1.359762488215189251e+03
1.319005885304535695e+03
1.316643124449889910e+03
1.038663839769180186e+03
-3.486969010230285448e+01
-4.230974743063923597e+03
-5.040708012424734079e+03
-1.724045428262324549e+03
-2.575012711821952962e+03
-3.034598974612299116e+03
-3.808814676772278744e+03
-4.138664362724012790e+03
-1.562100904181458873e+03
-2.150119674195149400e+03
-2.044742693010642142e+03
8.607441555983916714e+01
-9.336615149120908654e+02
-6.329430836014895476e+02
-9.887288193483999521e+02
1.397976336692236828e+03
-9.318356241960755142e+02
-1.758172963019331746e+03
6.880065072042716565e+02
-2.686286415273660168e+03
-2.725080447539931356e+03
-3.307380684752900834e+03
-3.371202375539510285e+02
-3.463172566461828410e+02
-2.057987972321078360e+03
-2.125110214797999561e+03
-3.267680820674382176e+03
-1.177670219112193763e+03
-1.990042432762469389e+03
3.872519676173582184e+02
1.079182748769232376e+03
1.419812050079980963e+03
1.934150616565570999e+03
1.970236396736885126e+03
2.226072465656941858e+03
2.275667399064672281e+03
2.226040569767264060e+03
2.028201826407160979e+03
1.687194667039661681e+03
1.601036772806690124e+03
1.614711230660405135e+03
1.435271313575541171e+03
1.208718845552834637e+03
7.300482816483460056e+02
3.612937297000664216e+02
1.564509024399410748e+02
1.335431081905632880e+02
4.846145924823811697e+02
5.646772249719077763e+02
1.014743464635916666e+03
1.008804818886524572e+03
1.153967176821575094e+03
1.353265729983122355e+03
1.257679599280746061e+03
1.087187110171681070e+03
1.023790330595226919e+03
1.298479005108419187e+03
9.204945647314555117e+02
7.981270542105329469e+02
9.905285185031168567e+02
6.345418707313521054e+02
5.410690135992603018e+02
2.631426757390854618e+02
4.682980754966659021e+01
-4.138765450484910389e+02
-1.035039799290987048e+03
-7.425913796672073204e+02
-5.405535438429430997e+02
-4.828811837743424462e+02
-1.675688737867663463e+02
3.135733018487155164e+02
3.043686449641503486e+02
4.954885420811399399e+02
7.980931905986492438e+02
7.135963560294054560e+02
6.278653408559067657e+02
5.798659376752366370e+02
4.676629272581708960e+02
4.061938330306813896e+02
1.244940417542501763e+02
-2.056366019489860264e+02
-4.393438604793527702e+02
-5.545999601466323838e+02
-6.544208442406250015e+02
-7.438256673291507468e+02
-7.587602514540824359e+02
-7.052231460769902469e+02
-9.441977945373432703e+02
-3.557120550410052715e+02
2.011885639207948202e+02
3.365516693172118039e+02
4.704321906314708599e+02
6.767661203900379405e+02
8.775588540063304208e+02
9.698510494089978238e+02
8.855896647843896972e+02
9.708190266665075114e+02
9.355243744512241619e+02
5.596933241506297918e+02
3.573128444923264055e+02
3.234019158006000794e+02
1.869266415265439321e+02
3.348749403143003178e+02
-1.876748263913664871e+01
-3.199436888658137690e+01
-3.028404770720670740e+02
-5.473277713097147625e+02
-1.994349950000530214e+02
-1.572082881179009632e+02
2.073879186695613441e+02
6.803482517454376648e+02
1.085623868890562335e+03
1.443230524380486031e+03
1.329154949569908013e+03
1.225416785543814058e+03
1.449971644634925497e+03
1.210822270770491059e+03
-5.420051190562838883e+02
-3.738545586982622808e+03
-6.190877215444216745e+03
-6.290979350362812511e+03
-5.917895692452667390e+03
-6.473637525822892712e+03
-6.520249239506663798e+03
-6.200706866826516489e+03
-6.051026942270784275e+03
-6.004312253678541310e+03
-6.017558268146446608e+03
-4.966728604902831648e+03
-5.269830984710194571e+03
-5.318905698304986799e+03
-2.057870959059077450e+03
1.222217811716056303e+03
2.050333374528994682e+03
2.108377396275198407e+03
2.466360936826889429e+03
2.765285129227660946e+03
2.494165687683735996e+03
2.286983777651991659e+03
2.333679039574540184e+03
2.182218570869164068e+03
2.191612324721484583e+03
1.704821962561194596e+03
1.248816240770143622e+03
1.223567925118455150e+03
1.251061525374035909e+03
1.227231986384980246e+03
1.382100878418088996e+03
1.769658467680663307e+03
1.645895536879568454e+03
1.873822532660252136e+03
2.329395063651798409e+03
2.782621889405571437e+03
2.720472583208646938e+03
2.515914995491444188e+03
2.476998468394667270e+03
2.909684502497178528e+03
2.556919582901766717e+03
2.503706986762402721e+03
2.226028534264617520e+03
2.042857761201028097e+03
2.017212600781713945e+03
2.169071397318003619e+03
2.002373010321294487e+03
1.575115957747356333e+03
1.585316497783737987e+03
1.630915792073978082e+03
1.613924630538433121e+03
1.735336902448799492e+03
1.874123337906886491e+03
2.179290278723283791e+03
2.178842869205668649e+03
2.229748632112347877e+03
2.691006970891240144e+03
2.558605675103583053e+03
2.413566129883547092e+03
2.522907072827278171e+03
2.796627961297348975e+03
2.766695855887477137e+03
2.618118984646789158e+03
2.364933262662166726e+03
1.917077092042402228e+03
1.589488871752462728e+03
1.213255396290411227e+03
1.425387030084668368e+03
1.499794299202086904e+03
1.108462805120142775e+03
1.383431382258381745e+03
1.560722248302153503e+03
1.567344231094284169e+03
1.715306564702774267e+03
2.074657180198557398e+03
1.913395197497001845e+03
3.525229602109931761e+02
-2.470969476077439140e+03
-4.233092356754060347e+03
-4.525822244271727868e+03
-4.566165875036151192e+03
-4.395091416129325808e+03
-4.632604889173051561e+03
-4.802685639911150247e+03
-5.055320525768573134e+03
-5.312556032588099697e+03
-5.439409009739767498e+03
-5.211795200749542346e+03
-4.883749775084871544e+03
-4.963249732456341007e+03
-4.753291383624627088e+03
-1.936892972804536157e+03
-1.019017065760385663e+03
-3.616643725781989360e+03
-4.090731753183768888e+03
-3.874256427822273508e+03
-3.702213706127143269e+03
-3.339586888690868818e+03
-3.252348913079918020e+03
-3.349484851912540307e+03
-3.441947694797176609e+03
-3.567718120376242496e+03
-4.024816368224934649e+03
-3.861258785584367160e+03
-4.373992185462860107e+03
-4.269017404444208296e+03
-1.952327961279464034e+03
-1.888911613398420513e+03
-4.243733160715888516e+03
-4.362788788396643213e+03
-4.015092096142125229e+03
-3.667617737801781459e+03
-3.166283647179629497e+03
-3.256070467240921971e+03
-3.357934814450303293e+03
-2.876904202159174929e+03
-7.199606516391863806e+02
2.836893684481113723e+03
3.613714250878686016e+03
3.050523634117576876e+03
1.409335155950374428e+03
3.445150897390566115e+03
3.465991624107657117e+03
2.970916597642818488e+03
2.698925349631685549e+03
2.402992587291246309e+03
2.286116840381995644e+03
2.422313624650565089e+03
2.371615067408684354e+03
2.127015568447489841e+03
2.358530063207653257e+03
2.584186736183307858e+03
3.037002164457595427e+03
3.334986877460622054e+03
3.185164346203202513e+03
3.125578168386745347e+03
3.514226120529757281e+03
3.354121009009209502e+03
2.976280831649145057e+03
2.946690520663152711e+03
3.191281679690050169e+03
2.872578414860040084e+03
2.505520864906626230e+03
2.369653419407695310e+03
2.327244212425382102e+03
1.837523740741807615e+03
1.533182657330467919e+03
1.701183007835251374e+03
1.568459950686939465e+03
1.250223031447739004e+03
1.259342073758225524e+03
1.437756625111779385e+03
1.607885130885048738e+03
2.114375007729941444e+03
2.348495554754260866e+03
2.526769579266944220e+03
2.484387742234936923e+03
2.636681498451507650e+03
2.671301066207623990e+03
2.509533037502287698e+03
2.085343138981424090e+03
2.112477484562141854e+03
1.813890490934991931e+03
1.643615205402859146e+03
1.176944500199172580e+03
8.786151813568264970e+02
8.718797755035259343e+02
7.061925755041775119e+02
6.950615094324406300e+02
6.801129164452893292e+02
9.283603637963615256e+02
1.018860721841649820e+03
1.300567933211769287e+03
1.753501202145050229e+03
1.609664822320607982e+03
1.912045263811341556e+03
1.953648370111353643e+03
1.753498261984430201e+03
2.015576914532761293e+03
2.048830664348069604e+03
1.813252900636780168e+03
1.884864957267647014e+03
1.513673223157976508e+03
1.136682162408449130e+03
7.078371101311372513e+02
5.101016489125648263e+02
5.064779192599162343e+02
4.249443173049993447e+02
1.514971431362977512e+02
9.066612540678653076e+00
3.626851752651207903e+02
6.143561459845244599e+02
6.800711015169865732e+02
-1.471686146182444190e+02
-1.433327178743630839e+03
-3.941423487317211766e+03
-5.778514011522155670e+03
-5.680553097985442037e+03
-5.334586387546123660e+03
-4.928648886905481049e+03
-5.222713875434186775e+03
-5.629814800261156051e+03
-5.681948553957160584e+03
-5.009135356399948250e+03
-5.501382871819274442e+03
-5.946612897604581121e+03
-6.528918935141120528e+03
-6.594311835135934416e+03
-6.593817761763294584e+03
-4.066452935574708135e+03
-3.177252069538259548e+03
-5.381162743873601357e+03
-5.666215709352320118e+03
-5.336431304353920495e+03
-5.118790541023776314e+03
-5.020254872865374637e+03
-4.452846890842381981e+03
-4.294567498115727176e+03
-2.228405316489376673e+03
1.736639736757331093e+03
2.456538219536108045e+03
2.548286687683836135e+03
2.147888522258941521e+03
1.440322322869858908e+03
1.285582088163158915e+03
9.976752511258956702e+02
1.107581237307161018e+03
1.070327262080649234e+03
9.738578811726508775e+02
9.751416403411932379e+02
1.583200130744816079e+03
1.516056540536685816e+03
1.670741189970986852e+03
2.217238194754708729e+03
1.685585495529153832e+03
1.975766669691663992e+03
2.324802095631909197e+03
2.206672283082977629e+03
1.956414231482331843e+03
2.226059648351941178e+03
2.072599176755844383e+03
1.853012411542287509e+03
1.642266662563900582e+03
1.704445282807913372e+03
1.447541246658546470e+03
8.855594223445259559e+02
9.134940059885640267e+02
6.903095347152877821e+02
8.250530886520614331e+02
8.617196619942025109e+02
6.622696182491730497e+02
7.597341893889550875e+02
7.701293880415162221e+02
1.024545725346532663e+03
1.326003199002812835e+03
1.402435351652088684e+03
1.569921357510808321e+03
1.692627753721416184e+03
1.657710462494568219e+03
1.746061158371945112e+03
1.608473682542585493e+03
1.310075369813460156e+03
8.101540248026534528e+02
1.020616121767267259e+03
8.794290028838221360e+02
2.336193095160526241e+02
-3.137496523597267242e+02
-5.896608414197711454e+02
-5.172447449451738066e+02
-1.078391324701007534e+03
-5.908982394876734361e+02
3.889253463322977495e+02
8.307889930485932837e+02
6.278056361657424986e+02
6.870165547892345330e+02
6.584189455710939001e+02
6.980154258387486834e+02
9.668886567898412068e+02
8.790464189001579598e+02
8.404768864652003231e+02
8.091975713791480302e+02
7.832122548932919699e+02
6.215412784837099025e+02
5.992144955627987883e+02
3.152055305072180431e+02
-3.425082917422694209e+02
