1.787370601278928234e+03
1.860459540056205469e+03
1.726375899175395261e+03
1.995185523735789502e+03
2.132957114687691956e+03
2.576749765285520880e+03
2.642588629492247946e+03
2.491528415573724033e+03
2.575634865652727058e+03
2.566963200539712034e+03
2.747534916811761377e+03
2.584393803952536928e+03
2.484558039082155119e+03
2.436110568828001760e+03
2.084072071204086569e+03
1.640562014925770882e+03
1.309786039626221509e+03
9.868090317622996963e+02
8.066438560144920302e+02
6.142790149512377411e+02
6.977527506678690088e+02
4.960534560964831599e+02
5.142693024830799686e+02
4.893783253282101100e+02
6.245214101244372387e+02
7.776664608186410987e+02
-1.553241532316503708e+03
-4.341392201907240178e+02
7.830422256496128739e+02
1.015350788258995749e+03
1.205743267630354239e+03
1.273228158274494035e+03
1.269883772991168371e+03
1.204728971091270068e+03
8.777791185491989836e+02
7.640245582484346869e+02
6.504752942314904658e+02
4.428490105028596417e+02
2.030847930722027428e+01
-2.370274114563565035e+02
-5.773463648856654800e+02
-3.177343075412811118e+02
-1.111891151880695361e+02
-2.536596016733973045e+02
-2.671785187938062904e+02
3.126457450990593756e+01
3.756721445620698319e+02
5.491122321341076713e+02
4.615968990911291030e+02
4.751194343008733654e+02
6.406580182107526298e+02
5.122250993835987174e+02
6.418361704001127919e+02
8.074263540966549044e+02
6.629795499075074758e+02
2.185136740447798900e+02
2.620324733715099796e+02
-1.504427053085007913e+02
-6.609967141315061099e+02
-9.746404723225738280e+02
-8.963738373410413942e+02
-7.672301337147254117e+02
-7.121931009583727246e+02
-6.093103459511183928e+02
-6.765642728884650978e+02
-5.859568806055999630e+02
-4.615328200139475143e+02
1.207106757151953502e+02
-1.724794801820453216e+01
2.265811185714948692e+02
6.182047732721082411e+02
4.776178505253247408e+02
4.567744338556922798e+02
4.896651479803765028e+02
4.772719849173182638e+02
3.955463042302158101e+02
1.784780587391057054e+02
-3.929900355657611613e+02
-5.468940891153439452e+02
-5.302546465477327047e+02
-1.293115601499299601e+03
-3.556524247999012005e+03
-6.180500577517817874e+03
-7.590063307911849734e+03
-7.352262896940198516e+03
-7.116091566120872812e+03
-6.541521220766418992e+03
-6.009370119528352006e+03
-1.819993354080947483e+03
5.575686322512833613e+02
7.094516221061173837e+02
1.393602657933399541e+03
1.566992820574039342e+03
1.411616589584364419e+03
1.041377060342318373e+03
9.402290022438294272e+02
5.661809809381379637e+02
3.431889174830943716e+02
2.362402438016215172e+02
2.062435291717960411e+02
-3.581103901525823119e+01
5.204315353449366199e+01
4.707846067347301187e+02
4.554208364411256866e+02
3.929123734174594915e+02
5.572144609771540900e+02
5.803492384742812646e+02
6.312739494020306665e+02
1.022973853629244672e+03
1.274492986865006742e+03
1.457778914449098238e+03
1.669757613258533638e+03
1.573444967198156519e+03
1.595874966177005263e+03
1.583006415269529725e+03
1.198772363025157119e+03
7.341586482820162018e+02
5.881614864057158911e+02
2.777348703814801638e+02
-7.012595306912471926e+01
-2.844329845186106809e+02
-3.772392794374554796e+02
-1.405439482796191442e+02
1.676090424282639617e+02
4.612540423492673085e+02
8.433899179262141388e+02
1.188997784844454372e+03
1.228123247121620352e+03
1.338741296776394165e+03
1.511856669126013458e+03
1.497451321618637849e+03
1.296501269986552188e+03
1.212043323934765795e+03
1.179089200646294103e+03
1.266645189563801978e+03
1.136703184426901771e+03
5.932200684268037776e+02
2.861762791952216389e+02
5.057849108806458105e+01
1.013828730588844707e+02
-2.674074293398558666e+02
-2.887622949676723465e+02
2.632922885636446253e+01
-3.514302432359057349e+01
2.518556858819729314e+02
2.223107861580761266e+02
4.782479029113611659e+02
6.396902773403551237e+02
9.966288963840140696e+02
1.289124992438278241e+03
1.163195907550070388e+03
1.158882332854269180e+03
1.053176832627763588e+03
2.500539357714251594e+02
-3.063504632437910459e+03
-2.975376965470207779e+03
-1.794608799463926289e+03
6.017679612964336684e+02
-1.118272750007282184e+03
-3.172694985001497116e+03
-2.528478022169015276e+03
-2.333633786663569481e+03
-4.504158326890267745e+03
-7.610165011574272285e+02
-6.571750184259285561e+02
-1.659592907084760554e+03
-4.862427567711053484e+02
-9.341060935514948369e+02
1.179814080558503520e+03
-1.031436177425307051e+03
-2.522831305066250479e+03
-1.924374138256063588e+03
-9.650388074142957748e+02
-7.518156405815436756e+02
-7.466915423683609561e+02
-2.864617803801494574e+03
-1.739593902781528186e+03
-1.365629361238785350e+03
5.802537246391650569e+02
-2.493923547400828284e+03
-2.954146053545091036e+03
-2.953376288235734137e+03
-2.968614668460767916e+03
-5.528368217982825854e+02
-3.587025620544559843e+03
9.083269724205240436e+01
4.957676803859688448e+02
-2.886214007647642120e+03
-1.714067056236384587e+03
1.804217139524286040e+03
3.469306446125236221e+01
3.534786470377748202e+01
1.727192469365423676e+03
1.936280404121466518e+03
1.925593746838604602e+03
1.487138575638389966e+03
1.161907299506477329e+03
9.349022724360294205e+02
7.981442898508751114e+02
4.766163994799654233e+02
-8.166705177781302893e+01
2.372541906712988578e+02
3.584415254300776041e+02
2.958674282606802990e+02
5.725123369098555486e+02
5.764331912963078821e+02
9.076041346871746782e+02
1.153054493857929629e+03
1.813834926018988426e+03
2.094284360097073204e+03
2.310409008353894023e+03
2.212134734584245507e+03
2.145415605354044601e+03
2.292315594455872542e+03
1.970832161881144430e+03
1.587892848029709967e+03
1.108518438030293737e+03
8.128225043725383330e+02
3.274585328644346305e+02
2.524749839896483081e+02
6.050256630183489506e+02
4.120559400333928579e+02
5.265942546761185667e+02
4.124554699021989563e+02
7.133426267365621243e+02
1.105786786018255498e+03
1.070697511307512286e+03
1.063006733763954799e+03
1.200723522565589747e+03
1.325834700014689588e+03
1.914342679228292582e+03
1.776187259297978699e+03
1.697317138180650090e+03
1.561783268163975436e+03
1.536570112174433689e+03
1.727616253412146079e+03
1.533933984883831044e+03
9.566072019926187977e+02
6.481017064401498828e+02
4.585053902805169628e+02
6.711556710888318094e+02
5.498904759711393808e+02
4.205661769363646840e+02
4.819501208359083080e+02
9.403628111343798537e+02
1.207621094982092245e+03
1.526620843879293261e+03
1.366294677941466489e+03
1.517638938550477178e+03
2.024619547046318303e+03
2.265231723931352917e+03
2.304505537597347939e+03
2.397366259449033350e+03
2.193817532680389377e+03
1.883839936553744337e+03
1.675403569131525273e+03
1.581504602134461720e+03
1.489068757802694563e+03
1.048088415037710774e+03
7.565596616152020033e+02
8.364244603086142433e+02
7.596367903322961865e+02
7.871944130499143739e+02
8.370860051986808230e+02
7.853609920001192677e+02
1.075970793894967073e+03
1.476904555003675341e+03
1.662118972096497600e+03
1.617656647110719632e+03
1.600495013335906378e+03
2.216196907338913888e+02
-1.868922320955340183e+03
-4.406133047353619077e+03
-4.890027065693886470e+03
-4.976618936821172611e+03
-5.070947417912655510e+03
-5.265009287077797126e+03
-5.604838494091978646e+03
-5.432442840231789887e+03
-5.792836758714413008e+03
-5.437022889957103871e+03
-5.361026228565253405e+03
-5.697944460037607314e+03
-5.765287221244007924e+03
-6.276364332236493283e+03
-4.601303114894891223e+03
-1.839998152732276139e+03
-4.052447577334286507e+03
-4.733665776910615932e+03
-4.533606815911471131e+03
-4.446260123978413503e+03
-4.337618539997449261e+03
-4.296668527810432352e+03
-4.548412948007479827e+03
-1.612874549444764170e+03
1.724995599279316593e+03
2.321226456927397521e+03
2.090807490418148063e+03
1.826730093346614922e+03
1.936006159633345760e+03
1.476667813270277975e+03
1.262732803104016966e+03
7.851632084315639304e+02
9.609760613934595312e+02
1.358200482428045234e+03
1.623908839885378939e+03
1.759129866306138865e+03
1.915871554026703279e+03
2.367186549613804800e+03
2.302085062054094124e+03
1.917573120953537455e+03
1.732730036089297073e+03
1.868606450974943300e+03
1.958166252346130477e+03
1.866480901568037325e+03
1.666591869204282375e+03
1.412517392560585677e+03
1.090241705427038823e+03
6.908062228106674638e+02
3.732198780046347224e+02
4.275035814072861626e+02
6.327273326258053885e+02
2.929005397999044931e+02
2.120385506334972945e+02
2.281534013223751174e+02
2.763450839714385552e+02
5.316022257717955881e+02
8.779556071902522945e+02
1.095500296332260177e+03
1.494262496448090133e+03
1.574267565819393212e+03
1.541562798086294151e+03
1.564162309880173552e+03
1.529138058878490710e+03
1.222555341469307223e+03
1.082394548116928263e+03
8.806455046575509868e+02
3.693429241471691284e+02
3.960467465869227510e+01
-2.136211058157348219e+01
-4.973391154275635131e+02
-7.494476235554055847e+02
-6.106893710834134481e+02
-5.010399883302646344e+02
-6.644739007296682303e+02
-1.030255646711765849e+03
-5.261997939905164685e+02
-7.302312997730581401e+01
1.560029345852404390e+02
5.069117132208910448e+02
7.326881098200082079e+02
8.483784343842429507e+02
7.849962040408370285e+02
4.575620711930702100e+02
7.330959316350920290e+02
5.486211819793871882e+02
2.001391832630039289e+02
-1.932512705633952166e+01
-2.178024253691586409e+02
-5.833128330524356215e+02
-7.397706953218704484e+02
-1.028170866808889741e+03
-9.315383002857261090e+02
-8.148279829551175908e+02
-9.610216456863614667e+02
-4.801225212786923180e+02
-1.191237346713593723e+02
-1.660358497696485927e+02
8.521178405047231763e+01
4.426434791778289082e+02
6.112085686501645796e+02
4.299448102172278823e+02
4.488913243019989636e+02
5.180297702897239560e+02
4.113676626887133807e+02
-4.209730931451974811e+01
-2.543763166720238758e+02
-4.205036307063305117e+02
-5.924818475541566158e+02
-1.063335687982197442e+03
-1.264086908216861957e+03
-1.037729620883653297e+03
-1.021308241929353130e+03
-1.156843963260042983e+03
-9.723308694427895489e+02
-5.477641143298998259e+02
-3.641527084647171932e+02
-3.504993625787008114e+02
-2.480841129998677985e+01
2.058751035087045125e+02
3.075430385330832905e+02
3.691473279633455604e+02
5.176851731657201299e+02
4.491813240119774377e+02
5.915724033314901362e+02
4.108352388562111059e+02
-1.050703511036137456e+02
-2.391476219001338279e+02
-4.264334958676163296e+02
-8.430310739820811250e+02
-8.179382700592005904e+02
-9.252339592554199044e+02
-9.459128121339940662e+02
-9.750474679909137876e+02
-9.346674310838029669e+02
-7.977878954639437552e+02
-6.964262547282231708e+02
-1.755690181244810333e+02
5.687263728101239622e+02
8.363412220784766760e+02
3.461612581821743220e+02
5.547926313156376636e+02
1.206875335769913818e+03
1.603391522915544328e+03
1.235788602304312917e+03
1.085545483833332355e+03
1.087616560628352318e+03
8.499252115562995868e+02
4.211804951257743141e+02
1.078300597845421862e+02
1.680196282166373010e+02
1.840963227966310853e+02
1.673245549382266120e+02
3.512689977438153051e+02
4.201827785222161538e+02
7.894969340370840882e+02
9.597532253878507618e+02
1.245778210054269039e+03
1.652629057009720100e+03
1.833911380435655929e+03
1.593716555794394253e+03
1.774037238399616626e+03
2.026026674144771277e+03
1.968579333491883517e+03
1.640391362056640901e+03
1.271445252125233310e+03
1.281978875620344525e+03
1.173770237306468061e+03
1.205055047646684443e+03
1.208455625224809182e+03
8.698952136739268326e+02
8.376166626794815784e+02
7.481523727925401772e+02
6.617032006964349193e+02
7.477178490701016926e+02
9.865678040027260067e+02
1.384900138768403622e+03
1.642533351475763084e+03
1.805935886042262609e+03
2.052261476253538149e+03
2.106397434919764237e+03
2.294439274148507138e+03
2.558396750873983365e+03
2.512121002290079105e+03
2.203577510769543551e+03
2.021754031510721006e+03
2.147601900665029916e+03
1.855109936959736388e+03
1.558237291792914675e+03
1.054967997556415639e+03
6.193015128667126419e+02
8.011888733499732780e+02
4.086500753750041213e+02
-1.339338634482755879e+03
-4.382775192136920850e+03
-5.349722334065098039e+03
-5.237173031537548923e+03
-4.785063013474545187e+03
-4.552411869452396786e+03
-4.029198234097799741e+03
-3.662427626064662945e+03
-4.132053068883825290e+03
-3.540067992854440035e+03
-1.790445047815027465e+03
-1.946168024687714706e+03
-3.395265424830393840e+03
-3.847719448692440437e+03
-4.037537280212625319e+03
-2.819659816358920125e+03
-1.690116992434920348e+03
-4.604897957521971875e+03
-5.138011211054785235e+03
-5.028441106132251662e+03
-4.919138402291842795e+03
-4.534066158036343040e+03
-4.357193507828544170e+03
-3.895502823038148563e+03
-3.695004675227444295e+03
-3.331613952539102684e+03
-3.344281432177449915e+03
-2.960998614113088024e+03
-3.061763688643712612e+03
-2.418533985934886005e+03
3.757123419211408191e+02
-2.409263001837115041e+02
-2.524413505660941155e+03
-2.881734097879216733e+03
-3.140909764682377045e+03
-3.303884693814632101e+03
-2.705642954697778805e+03
1.006856818765791218e+03
2.377614517243302998e+03
2.550678648771973712e+03
2.766072162717926858e+03
3.063890516405553171e+03
2.932126403709027272e+03
2.777839840655849002e+03
3.126090047451621103e+03
3.190932163543387560e+03
3.486427132724694275e+03
3.628619373596921832e+03
3.745562905765947107e+03
3.739281667640198521e+03
3.426815536367100322e+03
3.370201742261479922e+03
3.307528408607109668e+03
3.159805518481527088e+03
2.494054986469527194e+03
2.317316178440162275e+03
1.830611572532596711e+03
1.921994091180541545e+03
1.829512062377366419e+03
1.689156151628053749e+03
1.332969077432593167e+03
1.317029279568882885e+03
1.194385293295938936e+03
1.046071218687028477e+03
1.315174379901377961e+03
1.578773375699209055e+03
1.881001544102810158e+03
2.124009023497396356e+03
2.100849510895742696e+03
2.182535153675308266e+03
2.210145424058467597e+03
1.892697674841134130e+03
1.583202119029641835e+03
1.165692374628285052e+03
5.091240245468382568e+02
-1.696434484239673566e+03
-4.899740359679329913e+02
2.955229125768231597e+02
-9.885942296907596472e+01
8.775748256495296218e+00
1.483813370013948258e+02
-4.597516147271834086e+01
2.317493715918868702e+02
5.776252840242450475e+02
6.696678696777244113e+02
1.052910743590981610e+03
1.348376843281447691e+03
1.099089663817891051e+03
9.998121330732510614e+02
1.217700224818698871e+03
9.787224258324389439e+02
1.023780089802801285e+03
1.057804840691772370e+03
9.587606486428061316e+02
9.757330286948550793e+02
5.816925004339116185e+02
1.946761318493058752e+02
-2.933850898482407388e+02
-4.605335188323107900e+02
-4.777464041772212795e+02
-5.230043683808371497e+02
-4.923463818612666500e+02
-3.727785916675255748e+02
-4.222794715395766616e+02
-5.879567703238468113e+01
3.296884404838854721e+02
3.961221248125133911e+02
5.454953972007677976e+02
6.807887707152326584e+02
8.040010423983303554e+02
7.161438061286878565e+02
8.661935885840847504e+02
6.891516061562402911e+02
3.900083180273720131e+02
3.796835239402686852e+02
2.171316681894429621e+02
-1.776005745822781989e+02
-3.705668930206191476e+02
-4.037962487813117605e+02
-6.663181520104500350e+02
-7.991434815278341830e+02
-6.582933945482436684e+02
-4.938096495996974227e+02
-3.607139978152031858e+02
-5.598975195995358689e+01
-6.266256647055931239e+01
2.762347178328209907e+02
6.457076436109301767e+02
7.037865210261526272e+02
3.043851035004784649e+02
-1.214511769711283932e+03
-4.141904285492491908e+03
-6.552837330011738231e+03
-6.168365115836703808e+03
-6.215492708239338754e+03
-6.693280383728797460e+03
-6.897708280874659977e+03
-7.116816917754204042e+03
-6.839659297208425414e+03
-5.279294928550484656e+03
-1.681914675762569459e+03
-6.971891652620258810e+02
2.147809715180165711e+02
4.118257825806086316e+02
6.499726493736544626e+02
1.038199225608840834e+03
1.119495479614475016e+03
1.275862188189065819e+03
1.599194381992892204e+03
1.815521881339074753e+03
1.904856433366651800e+03
1.663167578435118230e+03
1.260420962808014337e+03
1.328580789002808160e+03
1.205592247100172699e+03
7.454610136599957286e+02
4.841100029399638629e+02
2.775178693087913189e+02
2.556911215176071153e+02
1.155619103663575657e+02
-3.718858790259271245e+02
1.137997904395508009e+01
4.323194850192171543e+02
2.759034059827757233e+02
5.311164613799177232e+02
9.159766769867219409e+02
9.094692802649976784e+02
1.295593325183326442e+03
1.539337957911805006e+03
1.605710487474017327e+03
1.332683020560511295e+03
1.131236982676224216e+03
1.022341652600534303e+03
8.590422676323465794e+02
9.602705706121552112e+02
8.080217984445699813e+02
5.482839722489062524e+02
2.010682821389324886e+02
1.393342548326563701e+02
2.720720966016146463e+02
4.632750787187176797e+02
6.709424849308740022e+02
6.560607706363667830e+02
8.676455228438735503e+02
9.077289345196866179e+02
1.008286487128843191e+03
1.293323074754438721e+03
1.256884603138444163e+03
1.272949621588355058e+03
1.425532529358580859e+03
1.486678025639608222e+03
1.820351887344740817e+03
1.636555612029160329e+03
1.520318901890503184e+03
1.134586242355308514e+03
8.924191109304310885e+02
3.798123426884347396e+02
-2.492158797992610744e+02
-4.636789713552447552e+02
-4.435844627112999206e+02
-1.329211135178533993e+02
9.431139436877161586e+01
-9.399204737078795233e+02
-4.363580290167516978e+03
-2.805541089648147135e+03
-2.085843327927464998e+03
6.564853627292435476e+02
-1.384542867131033518e+03
-9.788276922485439400e+02
-1.462371318424810852e+03
3.078143335490481718e+02
-1.433240383938627701e+03
5.545082134169819028e+02
-1.793977808280075806e+03
-2.683708724441081813e+03
-7.096574370622877268e+02
-1.412806819428785275e+03
2.998455262442914204e+02
-2.055676869260539661e+03
-1.482388057700506124e+03
-2.417270115450192861e+03
1.117112584114610598e+02
-1.147422874890300136e+03
-1.499657502783582686e+03
-1.669915034080403757e+03
-1.790199273794297824e+03
6.794549025906343331e+02
-6.338812613100718636e+02
1.448252400203283230e+02
-6.993753702571515305e+02
-2.047506152381852189e+03
7.104724850287872187e+02
-7.464470439082405164e+02
-7.327443457281492556e+01
-1.447991987716973426e+03
-1.829588800027630214e+03
-2.025031845728212375e+03
1.167109156344084830e+01
-1.265461380795872628e+03
-4.305428580779381264e+03
-1.578261459004649851e+03
-3.742929341256188764e+03
-1.718412285901458517e+03
-1.821696731978703383e+03
-4.367737979817399605e+02
1.272380872237539961e+03
1.624793543296553935e+03
1.904478999741364987e+03
2.423436216418491313e+03
2.367678706249763309e+03
1.975191455407289823e+03
2.065050217166840866e+03
1.995227718681563829e+03
1.880712186084570703e+03
1.593515563566813853e+03
1.382568550789357460e+03
1.297834414340264857e+03
1.296419942161971676e+03
1.045569555984970521e+03
5.623602813809535519e+02
8.927342575229210979e+02
6.725978969106093928e+02
6.739704874877089651e+02
7.908666663376681072e+02
9.902976658792748594e+02
1.068318442805080622e+03
1.213828678764089773e+03
1.601703552221871405e+03
1.196029403356696548e+03
1.146964745704448660e+03
1.319440397888870621e+03
1.603511741613905542e+03
1.641917369290165198e+03
1.338431207712015748e+03
1.051549359002820893e+03
8.241106723900517181e+02
4.990702510595555168e+02
3.063547348168492590e+02
3.389906750172337411e+02
2.889163636169542997e+02
3.110755520694809775e+02
4.144968729182247102e+02
8.811208376477626416e+02
1.072971234857979425e+03
9.949992895650764240e+02
1.328278662694805689e+03
1.157838887751711127e+03
1.336164366492806039e+03
1.778399426740467334e+03
2.130851452900932145e+03
2.217386500138447900e+03
2.256967238744450242e+03
1.957597183224833998e+03
1.839151205404115672e+03
1.657492969120663020e+03
1.454692008427876999e+03
1.091616756508198250e+03
9.051241460611867069e+02
3.031972373624960255e+02
2.988340597817914386e+02
3.499968846719074804e+02
4.106310212004262326e+02
8.377589284602311182e+02
1.057336801173558570e+03
1.307360159614886697e+03
1.392804003875368608e+03
1.549653881308903692e+03
1.649963214523576880e+03
1.977673688196621470e+03
1.993740270103723105e+03
2.120174435971922321e+03
2.077005940852671301e+03
1.858162483254275685e+03
1.788653211976917191e+03
1.694421885648155921e+03
1.265470051963569631e+03
9.737742633638812322e+02
1.000349540676189349e+03
9.201701200606488555e+02
7.592211956838068545e+02
-5.145075065348900125e+02
-2.927064390799909233e+03
-5.876449174769878482e+03
-6.140678802975056897e+03
-5.849759423241108379e+03
-5.839644759195168263e+03
-5.302338374325838231e+03
-5.066861325552995368e+03
-4.495196691781939990e+03
-4.324329817875144727e+03
-4.345228873823059075e+03
-4.007881820201288974e+03
-4.322225742955576607e+03
-4.579548584091909106e+03
-4.603541730103197551e+03
-3.784226154384060465e+03
-1.787748582746714192e+03
-4.120073309583752234e+03
-5.474189908826369901e+03
-5.514130555668796660e+03
-5.665904860237373214e+03
-5.532468628662846641e+03
-5.273840624178535109e+03
-5.134976873445848469e+03
-4.542836006406920205e+03
-1.864130440640738016e+02
2.347301282238014210e+03
3.202355834012759260e+03
3.124759688286780147e+03
2.849548366497383540e+03
3.018720989356857444e+03
2.972310383350030861e+03
3.061344451453150668e+03
2.890838496719728028e+03
2.426856266183677235e+03
2.162377851398891835e+03
2.081398190465400148e+03
1.546977656965124197e+03
1.281114940021162738e+03
8.178260452332018531e+02
6.811354708783391061e+02
1.009042280391202439e+03
1.196591447009895319e+03
1.440858470688288890e+03
1.443870742786648862e+03
1.458655202222643084e+03
1.732250888132317414e+03
1.806717666679764761e+03
1.972049869630313196e+03
2.298315946766013440e+03
2.207571357677477408e+03
1.922822439957978077e+03
1.899104938043405355e+03
1.623480496763821975e+03
1.262952319572040551e+03
7.355458610833527473e+02
5.103285899472458595e+02
4.443063078785685320e+02
2.651156098693433449e+01
-1.850027826749134192e+02
-1.512024019241462724e+02
-2.471039819958058956e+02
-4.276427141474476912e+02
-2.747838201086817094e+02
3.915023698323802819e+02
5.002658234153533385e+02
6.966044636399770980e+02
8.945829031462138801e+02
9.875436915397826851e+02
9.803479559424743002e+02
7.637395613822118321e+02
1.661003138877087792e+02
5.455485413957026140e+02
8.780571478284717841e+02
6.387021724190761915e+02
-4.356322801237259341e+02
-3.219010733258584423e+03
-1.476544523622597808e+03
-4.408677126972490328e+02
-9.692169282726534902e+02
-9.056047692435487306e+02
-8.310716714776009439e+02
-6.875916110328270179e+02
-4.621287640386121893e+02
-6.486618712477389863e+02
-5.851647504186669266e+02
-2.215944405397315791e+02
2.390601990244089450e+02
6.658374375535088348e+02
7.857927538331833830e+02
6.589087077075701018e+02
7.182158320585241427e+02
4.207212009227536669e+02
1.134453906427141732e+02
-1.696125470667165018e+02
-4.544779213326685294e+02
-7.741290777497312092e+02
-8.505104899258682281e+02
-8.957000874897136100e+02
-9.137021341701752135e+02
-1.056485910595434916e+03
-1.150056453994568756e+03
-1.066416079442637511e+03
-6.925487637972407811e+02
-3.764698179189653615e+02
-1.521433838458299874e+02
8.442236144477108439e+01
2.852195822247191472e+02
1.952283359187455005e+02
4.564470069385665170e+02
1.359031147145180398e+02
2.715424204760388420e+02
1.803595115156969371e+02
1.343369838935392693e+02
-6.248847636423398200e+01
-2.421775571487387424e+01
-2.048941069117552161e+02
-5.795129944153159158e+02
-8.371064244414395716e+02
-9.636794723336790867e+02
-7.622922458302490440e+02
-9.099386731182711401e+02
-9.376613406493567027e+02
-5.844806039965006903e+02
-2.503861103277069731e+02
-5.241652516351555136e+01
2.943786986310072962e+02
4.929658665739640355e+02
5.683283446575982225e+02
6.464783254220300250e+02
2.623634585109724071e+02
3.829578268325769272e+02
4.102284827583708875e+02
5.551414744241080825e+02
4.756825147380274075e+02
2.367651439219101235e+02
-8.667681076856457878e+01
-1.116987842769697465e+02
-3.903570487305232177e+02
-8.235476553361128254e+02
-6.401030147548176501e+02
-4.696541078202206450e+02
-2.520219151482702955e+02
-1.689617859598819791e+02
2.974359786734393083e+02
7.907922673425726998e+02
1.157525196293278441e+03
1.519314143220171673e+03
2.064411068922470349e+03
1.982136586641341864e+03
1.864056706959519715e+03
1.818095048290240584e+03
1.715884147037340199e+03
1.614383948686986969e+03
1.472783492483041073e+03
1.226065477050587788e+03
7.499425477737959227e+02
5.626423077841729992e+02
5.935318666293438810e+02
4.031615649116894815e+02
5.261688448052019567e+02
8.256223342088352410e+02
5.705332605289034973e+02
6.896650894777179701e+02
6.911174582530147745e+02
1.018935977217700952e+03
1.230881819138938226e+03
1.694303071862005481e+03
2.095667083437828296e+03
2.218094672523599456e+03
1.971725047253655021e+03
1.891492418660759313e+03
1.982223859607515351e+03
1.760084342267037982e+03
1.748535181339390647e+03
1.781053723557547073e+03
1.463699577499530278e+03
1.261808685619121434e+03
1.074995808654642133e+03
1.020953589611032044e+03
7.435183040840995545e+02
7.778281236720613379e+02
1.220674251584441890e+03
1.557120130535160570e+03
1.501143478651411897e+03
1.588681637484433168e+03
1.727757880907222216e+03
2.438397965534994455e+03
2.797544630896726176e+03
2.679167858615735440e+03
2.598294435077562412e+03
2.112910003982039143e+03
2.210230206187208353e+02
-2.572402259914465503e+03
-4.831359428631504670e+03
-4.850860766585476085e+03
-4.593882977949171618e+03
-5.126481939176233027e+03
-5.633642921643177942e+03
-5.569366910406793977e+03
-5.293635497445811779e+03
-5.014478418954326116e+03
-4.792922162295712951e+03
-4.550014874314550980e+03
-4.788427838233961666e+03
-4.354216210714003864e+03
-3.798465026377330105e+03
-1.867163661804750063e+03
-1.237315615139380043e+03
-3.297862837080843747e+03
-3.356755631248972804e+03
-3.369978890390252218e+03
-3.124558912564155435e+03
-3.594461385554353910e+03
-3.148657443883756969e+03
-3.354164424920837519e+03
-3.741934471405017121e+03
-3.730938941548843104e+03
-4.026173651816180609e+03
-4.135638994031637594e+03
-4.179282046795745373e+03
-3.343042371587871003e+03
-5.429112241537933414e+02
-1.182843467181058713e+03
-3.144838544247156278e+03
-3.183810388084230908e+03
-3.058765703120084709e+03
-3.074633138395600781e+03
-2.634331538465960875e+03
-2.601810324717167532e+03
3.393913626804003769e+01
2.944961545827954978e+03
4.021298510367423205e+03
3.791014136088367650e+03
3.786158618810050939e+03
3.648771805332095937e+03
3.203846433454291400e+03
2.777428177960139237e+03
2.636540656556614522e+03
2.462226492696748210e+03
2.387538688472663125e+03
2.250486153017157903e+03
2.044144865867308226e+03
2.469603559768470404e+03
2.699882958920468354e+03
2.603020234059347786e+03
2.804082765450048100e+03
3.068106530056823431e+03
3.054145786006274193e+03
2.984283727126325630e+03
2.928536054148145467e+03
2.918940308700505739e+03
2.709564483946347536e+03
2.564466366122122054e+03
2.547627356331093779e+03
2.369107593623367848e+03
2.106949598893130769e+03
1.726232986343619814e+03
1.470085680570620070e+03
1.158588565768124226e+03
7.997111677878365299e+02
8.496635006704646003e+02
1.082480895111686550e+03
1.105110902819548301e+03
1.005670112970078208e+03
1.055187025366177522e+03
1.392683170962968916e+03
1.599203733309983818e+03
5.987261631912642770e+02
-1.187622432896896498e+03
8.531825072733349771e+02
1.873130351901747190e+03
1.525202143739639496e+03
1.619381266037526757e+03
1.430905885912190797e+03
1.174492868251012396e+03
7.602897530854490924e+02
5.163169092004346794e+02
1.745642477059339797e+02
2.080779756482135952e+02
5.085532193371629717e+01
-1.701194470331020909e+02
-1.639570306781479303e+02
-2.047381804081342409e+02
-8.355031599829916900e+01
3.286928182695486953e+02
4.059967668120461326e+02
8.173187607392159180e+02
9.277049276230102350e+02
8.681428064128887172e+02
1.155628871983240742e+03
1.167222513148672306e+03
9.018848427667265923e+02
1.044623519877604167e+03
9.204161062747621145e+02
7.312313430274247139e+02
2.591150646437793057e+02
-2.669653952773257402e+02
-5.810631470774309264e+02
-6.271850953577654764e+02
-6.183620779223963382e+02
-6.565957296402332304e+02
-5.888778934112488059e+02
-3.462200297499903172e+02
-3.316377801404311754e+02
-1.881391571734621664e+02
9.421216948582792838e+01
3.264726920261980467e+02
4.386634469617073933e+02
6.247111175762661333e+02
5.356420482781982173e+02
4.214630939589442278e+02
4.351095233233426143e+02
9.855101756703113836e+01
-7.420919478338321085e+01
2.181217916209844887e+01
1.275424752721702504e+02
-2.560391751145084527e+02
-6.519419469765724671e+02
-7.492077500252863729e+02
-8.398817648083216909e+02
-1.059040852764869214e+03
-1.018686802099711826e+03
-2.129838044988063302e+03
-1.328535113491108177e+03
-3.055768080761032707e+03
-6.677581354583869143e+03
-6.685968755448080628e+03
-6.007890359602708486e+03
-5.783472977831509525e+03
-4.896753010818497387e+03
-5.309684391465185399e+03
-5.470263554928795202e+03
-4.621363856317038881e+03
-8.282896048119683883e+02
4.178820941289829989e+02
8.202516283490257365e+02
4.907205700623753160e+02
3.552917237080434916e+02
7.690383917983757556e+01
-1.884802919909699312e+02
-2.098646908283820949e+02
4.169426793913468288e+01
1.341804942950517159e+02
1.325580795609026268e+02
4.027919766375901531e+02
7.438818438704795426e+02
1.188854231703081723e+03
1.194679157592479669e+03
1.446347590276516030e+03
1.594829045485687175e+03
1.455100976775838944e+03
1.315167715183742985e+03
1.361998621065782118e+03
1.179534637672921463e+03
9.847396048507706610e+02
5.166196786847608564e+02
2.931568993193184269e+02
2.033042042784663295e+02
-6.396234641049355929e+01
-1.056418741289045329e+02
3.452132471367170297e+02
7.185795962131105625e+02
7.534880326509062343e+02
6.229318952481220322e+02
6.189271809272585188e+02
1.070417353956689794e+03
1.328460701928998560e+03
1.485015861646354097e+03
1.467094655215667444e+03
2.039711101676359249e+03
1.828878462481801307e+03
1.437543148224207698e+03
1.416714871303125165e+03
1.317408927475841892e+03
1.224591790570114426e+03
8.592722822965425848e+02
6.834237281830556867e+02
2.990386250559134282e+02
1.661193843966596546e+02
2.266647530780415423e+02
2.196658248841933982e+02
1.061164005798323871e+02
-1.549627871436996429e+02
1.044205480221401388e+02
5.372771129766258582e+02
8.636407063804874724e+02
1.041614263143750804e+03
1.396139372136267866e+03
1.487213656579489452e+03
1.661857322629009104e+03
1.550108566008473645e+03
1.268950157131078640e+03
1.078419676268646754e+03
5.995116697526091230e+02
5.622606860250223235e+02
2.056728688136231540e+02
-3.495285081710566374e+03
-5.650558815083732043e+03
-1.352136962555539185e+03
-1.848066396409579283e+03
-4.893344755798998449e+03
-3.063950226605849821e+03
-1.981861055000914348e+03
-2.150556449180948846e+02
-2.968531311708560679e+03
-2.563250524415578184e+03
-1.305138196196357740e+03
-9.561771070268522408e+02
-3.306344553026926860e+03
3.636074354607738002e+01
3.295633011666448198e+01
-4.385304083140476337e+02
1.212932758091989172e+03
-1.090677297283931239e+03
5.516535592329648807e+02
-1.216010121232986421e+03
