2.135737444148313671e+02
1.273849880166943223e+02
5.644101835931192568e+01
-1.572970978029390210e+02
-2.598376989187795516e+02
-1.871447461386465250e+02
-5.192084406701328589e+02
-8.003320965706862467e+01
9.840248441107968347e+01
3.074999192720014651e+00
-1.660043510962855464e+02
-1.558381843160843800e+02
-1.324299776414546557e+02
2.220187814399940152e+01
-6.559077168556236757e+02
-6.947634975699944562e+02
-2.604093304865395453e+02
-1.287275028878199805e+02
-1.377762491908120523e+02
-1.085806336540962320e+02
-7.810101811893328261e+01
1.096570276076076027e+02
2.908890250910686746e+02
2.634043851552449951e+02
2.554521904342335290e+02
3.193439467144187347e+02
3.956953572798357754e+02
7.744144221802562811e+01
-3.644145326505770868e+02
-1.240927166525518430e+02
-2.554483587382546830e+03
-2.721584752532408856e+03
2.644121156641894004e+02
4.213662849379038988e+01
-2.285775870947316832e+02
-7.116355732969121561e+01
-3.403928820537317392e+02
-3.517133703689248250e+03
-3.037186984222528736e+03
-8.377787675722762515e+02
1.964694074687202772e+02
6.487400834930352858e+02
1.860973983621461230e+02
-3.301122252106155884e+03
-1.426663128226627805e+03
4.416992510457197341e+02
6.720842375769890396e+02
3.616947690346717081e+02
3.792983500085458104e+02
7.351845432980002215e+02
1.561117455149951354e+02
3.898663730732489796e+01
2.446549870447967407e+02
3.702944872117929549e+02
2.895602853394577778e+02
3.870852898705407483e+02
3.595658631532278946e+02
5.403404027108630316e+02
8.146921172969776990e+02
7.963016509581506170e+02
6.487959922017015515e+02
7.259339031481501934e+02
8.667316116087633873e+02
7.675091132827955107e+02
7.571722908087273254e+02
8.336239265257788702e+02
7.388136604695813503e+02
5.727268201874727538e+02
5.423103238259036516e+02
3.605818179054751340e+02
4.204931223519780588e+02
2.889615654198338461e+02
2.749337070354185357e+02
2.548723040676739799e+02
4.394931273807974890e+02
5.307490248982462617e+02
6.985771038494741560e+02
5.959663601837065698e+02
4.799335588597699029e+02
9.074724209059378381e+02
1.145563076063115204e+03
1.003207449886989480e+03
6.554344843593623864e+02
4.782477384939821832e+02
9.936476800265061229e+02
7.175703624280019994e+02
4.210423042491315186e+02
6.560484676348248740e+02
6.336027934324509943e+02
5.436845265213308949e+02
1.822767263789744447e+02
1.903495779941715398e+02
2.169384797311676323e+02
-6.408383190632066544e+02
-4.417830678830822762e+03
-1.204540326063952989e+03
-2.578284607969041531e+02
-3.997589174424117118e+03
-3.593839303757567905e+03
-1.640658695258585340e+03
5.377942462533163734e+02
5.930497836733208032e+02
4.239836989108588909e+02
6.924391524912400655e+02
5.894226205019324425e+02
7.479784723513332665e+02
6.860936566553823468e+02
1.217361964240298846e+02
-1.307504479929986552e+01
-1.745028118292820452e+01
-6.132422938663004288e+02
-4.187409364631683275e+03
-1.493997891707181680e+03
-1.489903751998080850e+02
3.596001492259734960e+02
4.398004997402836125e+02
4.245990957248075119e+02
3.449942685802278675e+02
5.280539533501162168e+02
6.397813305101560672e+02
6.531367678395333769e+02
6.152069574343843215e+02
7.509901227588658230e+02
7.375090467975763886e+02
6.887766386836163974e+02
4.347602597576326957e+02
3.224946998364082447e+02
3.919983391793851411e+02
1.572998523196770293e+02
8.242548182066155960e+01
-3.863081724457065036e+01
8.099949437067122560e+00
3.770430356052973053e+01
-7.783105526828960308e+01
-1.134576735966220014e+02
2.582382390213155787e+01
1.220045130927790922e+02
2.801102030407174084e+02
1.611877195642073559e+02
1.512421613904093078e+02
6.531936040579462599e+01
7.445416270504593115e+01
-1.063883489121283930e+02
-1.211992342834949028e+02
2.930935423647327980e+02
-4.247053699872844845e+01
-4.587509675158879219e+01
2.008878259642009709e+02
5.785610630581146552e+01
6.897565670319714570e+01
8.431547030589025837e+01
-2.930538838886648136e+02
-7.409089273741946045e+02
-7.110280398954769225e+02
-4.715276665895127621e+02
-4.745622639838296664e+02
-1.933700606048758743e+02
-9.806586608394536597e+02
-1.453352452439516753e+02
3.233027880066562432e+01
2.079522678942403502e+01
1.338274980281014734e+02
-3.309733420208746793e+03
-2.821869448137622840e+03
-1.081583375317807395e+03
-3.688670943984586756e+02
-3.326869397098634522e+02
-1.380560961836127376e+02
-3.419929771278883095e+02
-2.404176654029237739e+02
-4.313328367032441406e+02
-5.287562446901939666e+02
-2.486289462496277167e+02
-9.895423857229515363e+01
-3.267661631736147001e+02
-3.570140226178820058e+02
-7.167702203189858778e+01
2.459198736858263235e-01
2.157362032078203811e+02
1.898446380231078479e+02
1.655634500448260553e+02
3.429400871029216660e+02
1.429495407205876631e+02
-1.284100709323516298e+02
-3.241504750954478595e+02
-2.642297627189996660e+02
-3.706714652961059642e+02
-3.364385910341207477e+02
-3.025333484925796483e+02
-3.139522385230529267e+02
-4.186951789603548946e+02
-3.177758365396276758e+02
-2.461722078473364945e+02
-2.208993593517558338e+02
-1.929319951139093519e+02
-1.492858172564328925e+02
-2.957840456961347897e+00
-1.795693858527709708e+01
-5.029196937779356347e+01
4.503221591164655280e+01
1.439781622063930513e+02
1.255454474390119373e+02
2.117422047499559028e+02
9.657360949570579578e+01
3.006781761755488613e+00
5.965076980246897254e-02
3.037060731390666888e+02
2.649937467911753401e+02
3.669250059483509290e+02
8.235281667057363109e+01
-2.437684030579080456e+02
-2.723324613371395913e+02
1.364827726132586783e+01
-9.912898538968599738e+00
-5.998161051932152077e+01
-9.561584402486673184e+00
7.536308738736390467e+01
4.171720438180786772e+01
4.434832092376632318e+02
9.265527575577340258e+01
-3.177718145984994749e+02
3.292006220538942216e+02
5.855058606945657402e+02
3.041288714979218071e+02
1.499859139629631102e+02
1.829909535910534260e+02
1.474113142297884451e+02
2.811754129499203714e+02
2.883350643692828612e+02
3.546033358333909860e+02
7.262039349111540787e+02
6.493037690337545200e+02
8.775902841905559626e+02
8.129937687542380900e+02
7.924380387881055867e+02
7.579252983753549415e+02
7.404148250433970588e+02
7.148987098916052219e+02
8.341478288162355739e+02
8.203166704539528382e+02
9.554552194889371322e+02
1.077806954244469807e+03
1.171039125906700519e+03
1.339855055623113458e+03
1.140646329585678359e+03
1.109352356296703420e+03
1.235807355949264547e+03
1.218854714825974952e+03
7.064944318172333624e+02
7.930823558866964049e+02
7.983513598674496734e+02
8.380658963534189070e+02
8.022535234001347817e+02
5.450675150944330198e+02
5.236533220978996042e+02
8.548461484219391195e+02
9.652912540398922374e+02
8.522665944363801600e+02
1.083911443316040959e+03
1.122948190205962874e+03
9.673859474186094758e+02
1.210213409956204941e+03
1.559282859058909935e+03
1.435489459789149805e+03
1.316249889317955876e+03
1.438391344719819017e+03
1.537796260734537782e+03
1.495425693033144171e+03
1.464252170166824726e+03
1.264248770443186004e+03
1.321403253347624968e+03
1.050751931073229343e+03
3.142349554418981370e+02
1.281810446927845305e+03
1.418472027438611576e+03
1.379193974160352127e+03
1.527006748214604613e+03
1.360865023993231034e+03
1.490752732094008934e+03
1.813673617898412886e+03
1.690621115481156266e+03
1.574579119482728174e+03
1.839492094756783899e+03
1.521363700667134253e+03
1.463205159197955254e+03
8.381073535109883323e+02
-1.262929993102267645e+03
-2.544751880572164737e+03
-7.869503113064892204e+03
-5.454499647569877197e+03
-3.707521550716206093e+03
-8.801554655314868796e+03
-8.805591294639609259e+03
-8.497616401322515230e+03
-7.427380586811654211e+03
-5.496115880945285426e+03
-4.631011149886544445e+03
-5.734978373669849134e+03
-8.111950246251053613e+03
-7.712884403548801856e+03
-7.251490206270622366e+03
-4.073164743036588789e+03
-5.392908711312658852e+03
-6.210635849094211153e+03
-2.597303223718315621e+03
1.412101465314286088e+03
2.584557177496302756e+03
2.622151316866768866e+03
7.889141497798686942e+02
5.488120164178491223e+02
2.452850673401405857e+03
2.602096921129919792e+03
2.336540050185654309e+03
-1.392785641159128772e+03
-4.543903585058988028e+03
1.160267249716251627e+03
2.145743150348379459e+03
1.235471788241938356e+02
-1.756294348217739525e+03
4.602320261465675912e+02
1.892179900349202853e+03
2.452562644501019804e+03
2.795423157795426505e+03
2.669817065246573293e+03
2.266767515990970423e+03
2.534277549792876471e+03
2.341376685733557224e+03
9.100948585288207369e+02
-1.685533199848612185e+03
1.597544864071828670e+03
2.090345975038695087e+03
2.234895597889508281e+03
2.181221076885647562e+03
1.957326297119316450e+03
1.785283299212888551e+03
1.579142701797641166e+03
1.212887452963172336e+03
1.148589056956962622e+03
1.448286147968425439e+03
1.673021177881639915e+03
1.854819207088921758e+03
1.575587138593270993e+03
1.533298157132169763e+03
1.714949783698845295e+03
1.596887346551039400e+03
1.679364165348222059e+03
1.561315382368639348e+03
1.497844477819020767e+03
1.495908293348004008e+03
9.505255814380603852e+02
9.798113913751571999e+02
7.942744891799909510e+02
5.544060347461451101e+02
6.087160133467835976e+02
7.270594706015632482e+02
-5.818160635074372067e+02
-4.002789726621947921e+03
-9.670580588952317385e+02
5.062092619963697757e+02
5.445127332859827902e+02
6.035019539800130133e+02
9.931375299710706486e+02
1.147649407946616975e+03
1.081143508229620920e+03
1.043790838946039003e+03
4.356023903723203716e+01
1.344308855604349446e+02
5.013504268237201131e+02
4.774200053266608279e+02
5.251280879184548667e+02
6.255706813939667654e+02
6.778048314826002070e+02
3.788498302858763509e+02
1.377112854394872841e+02
1.274169869950438425e+02
6.398655861589814720e+01
-8.256202571836571735e+01
4.173526615415821084e+01
-5.712304876338062343e+01
1.698701948955450405e+02
2.837175409214988235e+02
-1.552808611289631324e+00
3.080751497301947666e+02
1.505734792778740996e+02
1.099459105972070745e+02
3.951986696397974583e+02
4.342873183186739539e+02
-1.197795833970896382e+02
-1.501275992177056473e+01
-2.004323110411770017e+02
-1.990411882090495226e+02
5.918317377765678344e+01
-1.628321537429762600e+02
-4.900651914897595134e+02
-5.595306026926818959e+02
-4.612345051702226897e+02
-2.432153629285332954e+02
1.295410891959286914e+02
-6.698255518156520338e+01
-4.958012759798607476e+02
-3.799534001578185780e+02
-1.174497368571743152e+02
6.718089990264364708e+00
-1.247253648291504469e+01
-3.085315435214830426e+00
1.389267627665940630e+01
-6.656842197591565480e+01
7.749140223903121694e+01
-1.819068535626924756e+02
-5.907558928011968646e+02
-4.790965656953761709e+02
-4.709939973668500102e+02
-3.864920998986499967e+02
-4.265851340937558689e+02
-4.701948245381474862e+02
-1.931545342149876888e+03
-4.928712414245323089e+03
-1.422536392354920963e+03
-7.148817826899356760e+02
-2.685214556710686793e+02
3.713276680597548562e+01
2.397428478011934416e+01
5.797597725416626702e+01
3.151600001868882828e+02
1.234877908219206404e+02
1.869755690759119773e+02
2.475702041448051887e+02
1.142701033426126429e+02
3.060689201792034169e+02
1.948889698089140836e+02
-1.712933442875902301e+02
-1.424782528255043985e+02
-1.166840910377590887e+02
-8.796036109261052616e+01
-1.993093024577338497e+02
-7.373808350695767899e+01
-1.392607113898367004e+02
1.050910883705771397e+02
1.392532121365487967e+02
3.022613356682213066e+02
1.211299938574589987e+02
1.984178261354161066e+01
-1.256458897058007409e+02
-2.113233860235620796e+02
-2.392065107957965040e+02
-1.273398052028530714e+02
8.126965262930632150e+01
-1.193975695519200997e+02
-1.335425777750891285e+01
-1.935868600174009657e+02
-2.381093115439647931e+02
-7.995816834717078336e+01
-9.113095510225667795e+01
1.383564544978774222e+02
4.275034729183773266e+02
7.133135520133057526e+02
6.517531393887601325e+02
6.468342948045869889e+02
5.955741209129301978e+02
6.239386110824902971e+02
4.949411474162403692e+02
5.365975955609263792e+02
5.829038072288565218e+02
6.487619475800955797e+02
9.332602594905782780e+02
8.764262766506253683e+02
4.224934080276486270e+01
2.677197665249348688e+02
5.268213921610514490e+02
1.825116473730114421e+02
8.983372040805700465e+01
9.581361836632440543e+01
2.104141877723299672e+02
8.267387621218557570e+01
1.546287336859298023e+02
1.362202975617855714e+02
1.364682781317236220e+02
2.155174166310886505e+02
3.432765782638282985e+02
9.874046129552304762e+01
-1.785061490654620002e+03
-4.632102891706837909e+03
-3.989415261882503273e+03
-3.670971116146560689e+03
-2.482760954079230942e+03
-4.485778024642285345e+03
-3.753973958420652707e+03
8.158218455927806190e+01
5.159429967074032675e+02
5.320655450099908421e+02
4.779954159548394159e+02
7.247529731688425727e+02
7.253448662119088794e+02
7.217796682128267776e+02
-2.186908803357935994e+03
-3.108736373265300244e+03
-3.118658840991255602e+03
6.123318009994727618e+02
9.672458088973880876e+02
-2.374908384111677151e+03
-4.801337795137010289e+02
1.302607765284176821e+03
1.281317733559270664e+03
-5.579918860100101483e+02
-2.366289498280008956e+03
9.984725604532978878e+02
1.449239855554009637e+03
-7.419438611154599812e+02
-2.763069382458489144e+03
-2.722136539068314960e+03
5.875603252288374989e+00
1.220965852492069871e+03
-2.015867595819342341e+03
-1.682615822380393638e+03
1.034767979840750513e+03
8.292632245572020793e+02
8.548581330226691080e+02
1.161606821373075036e+03
-7.650125001027991800e+01
-3.417482630314273592e+03
-3.843225989754554917e+02
1.120999508749311872e+03
1.357490440995043627e+03
1.275117341401336716e+03
1.244901257406005243e+03
1.117873261832383150e+03
1.228046242611664638e+03
1.138367289926192825e+03
1.020905972948770227e+03
1.099702178514102116e+03
1.077619114546192804e+03
7.417026260418949732e+02
1.004955147782308472e+03
8.773683244072506113e+02
8.629847734047458516e+02
1.108771444954847311e+03
1.261657460465165059e+03
1.372700979995675425e+03
9.039014614623125681e+02
4.822025006242210452e+02
-3.123321041088014454e+02
-1.967577036931261603e+02
7.578699729850990252e+02
9.356611964192860569e+02
1.281592592582628413e+03
1.149399105429868087e+03
9.635198233227590663e+02
7.830001397583156404e+02
1.106311759451268244e+03
1.197092283986010443e+03
1.081609745139618326e+03
1.241275870421152604e+03
9.710036656545177038e+02
9.743261687838560192e+02
1.408031890585486735e+03
1.405033644880850034e+03
1.472131310887314157e+03
1.460270364057101915e+03
1.828194333893864950e+03
1.824034289417319769e+03
1.605626554031643082e+03
1.607803867329329933e+03
1.501782203568184968e+03
1.287639980125451530e+03
1.611374647190159521e+03
1.638377767369428739e+03
1.420665855877279910e+03
1.582705005830568552e+03
1.518445153559695655e+03
1.471836074075291435e+03
9.771672950407823919e+02
1.344452093051060956e+03
1.387834933773523517e+03
1.223519701749223032e+03
1.249200083343881261e+03
1.179762743585899443e+03
1.192803721510178775e+03
1.064248909126865328e+03
1.204105340955445399e+03
1.565331564334273025e+03
1.807984598280522277e+03
1.842083432519086045e+03
1.657558366241107706e+03
1.654407221923109319e+03
1.461710018883631847e+03
1.622615274055842747e+03
1.589635934946469433e+03
1.699937740000033273e+03
1.694519884207617451e+03
1.379381239060768394e+03
1.235503583522106737e+03
1.247885050699275325e+03
1.182515596030945744e+03
1.534419216650433782e+03
1.636585795029596284e+03
1.583951937007230526e+03
1.502511492429991904e+03
3.652553450233970125e+02
-2.903763753204000295e+03
-7.851615073755080630e+03
-9.148286063493213078e+03
-7.918746556500285806e+03
-7.927015463130148419e+03
-7.330106644446444989e+03
-7.349078224337279607e+03
-7.589030924721420888e+03
-7.852468486438834589e+03
-5.212651811529875886e+03
-1.777545941457520030e+03
-6.960222847809897758e+03
-7.316644734475635232e+03
-7.675800807013340091e+03
-4.609615055072232281e+03
-3.014881569124854195e+03
-5.931105070068332680e+03
-2.968169349985027111e+03
-4.124940786833572929e+03
-6.962403352972669381e+03
-7.290616834718563950e+03
-6.721548053326308946e+03
-4.428178831022509257e+03
-1.780494131421590964e+03
1.264621314134733666e+03
3.500156408999162522e+03
3.701045935833206840e+03
3.359332240804060802e+03
3.290036355269182422e+03
3.258178878768502727e+03
3.002777736403671497e+03
2.568856216301750464e+03
2.254435773379248985e+03
2.395555101144761920e+03
2.766261959091683366e+03
2.596569631335866688e+03
2.278472394785420875e+03
2.186027201613747820e+03
1.964240933210024650e+03
2.071128133848976631e+03
2.209706369914487368e+03
2.146005405376431554e+03
2.399093360506577483e+03
2.539989982283944300e+03
2.312710020810638980e+03
2.184324254427806409e+03
2.177855099089755640e+03
2.014313200293343925e+03
1.739779637552620443e+03
1.960267057810286360e+03
1.572769443147685024e+03
1.577358507247345187e+03
1.685043668983648331e+03
1.641855754453175223e+03
1.352829709168464888e+03
1.325951100668194385e+03
1.382267705936457560e+03
1.250854022542024040e+03
9.447655385529940304e+02
1.219967742133419279e+03
1.138489134555299188e+03
1.325365133341022783e+03
1.256528469679116824e+03
1.237212406957429266e+03
1.246453062613698194e+03
1.000078385172637468e+03
8.119011464406515870e+02
8.042932863181084713e+02
1.020592931869701601e+03
9.707447180813784371e+02
3.638851075935792778e+02
3.788138294867893592e+02
6.037552431358443528e+02
-1.888753308728136346e+02
-2.599483883670571231e+03
-3.237071878902599565e+03
-1.572267680997411389e+03
-2.933832829404843210e+02
-2.735149405250804762e+02
3.332260867448833324e+02
2.818503719789623574e+02
2.393852878451624804e+02
1.878351350152897510e+02
2.542272698638651889e+02
2.415704559438640047e+02
1.988815779203808347e+02
4.582040942780595856e+02
4.505047607943399157e+02
3.418398685199559850e+02
7.824633022053889420e+01
-2.730622465976242452e+01
-1.818242927410959453e+02
-3.033354495321112836e+02
-6.277097871051185507e+01
8.284360843707985111e+01
7.850519808846846104e+01
-3.487980541869924309e+02
-5.550487206563597056e+02
-5.112704743957186793e+02
-4.514238580447607205e+02
-4.935221590019690439e+02
-3.765490454505475100e+02
-8.750769641196347948e+01
-1.494181631266137629e+02
-1.832908381816299084e+02
-4.511521443035585435e+02
-5.759621482290719996e+02
-3.797791733272554779e+02
-2.135932049336580292e+02
-3.824532307972464764e+02
-4.043445518505155860e+02
-4.002954413775997295e+02
-4.613383315493687746e+02
-4.204876778343737556e+02
-6.228115752580581557e+02
-6.022513233669978945e+02
-3.848740331283636351e+02
-4.246927784989048291e+02
-4.767096145659671151e+02
-2.889537913315569995e+02
2.578153256456345854e+00
-6.601536166896830764e+02
-5.792186836896588602e+02
8.714452065322495855e+01
3.003338599665631250e+02
2.624362300865311681e+02
2.221845573584158160e+02
-1.105084564828373317e+02
-2.856315543713361649e+02
-2.462204286337746737e+02
-7.152980966772333886e+02
-7.949223160534287445e+02
-6.011219609310630858e+02
-7.729514868439117663e+02
-1.692468554421954423e+03
-1.069625183322379598e+03
-4.934639368275059041e+02
-2.790657700604878073e+02
-3.394033360936845156e+02
-1.043728444485685429e+02
-2.289297185491305981e+02
-2.315413587744824326e+02
-5.717246156045379024e+01
-3.144374348954167075e+01
6.176829280263705186e+02
6.770298327037874060e+02
8.738738655359725271e+02
6.788912203665501011e+02
5.918365342578114223e+02
6.186388232691584790e+02
5.262325786222997976e+02
3.404544406448627001e+02
3.770801041822242610e+02
1.651530797911692332e+02
1.971713037505173247e+02
3.378511725251324265e+02
4.876287982766792197e+02
5.990630723217500417e+02
6.203790055559583152e+02
5.783570807732319281e+02
4.996732031553493130e+02
5.694448878696634893e+02
7.817788442302974090e+02
9.205176882729241470e+02
7.333646338579621897e+02
8.755358572641348474e+02
1.067367491624399690e+03
1.062870445758221649e+03
9.017101016503247592e+02
7.425723389552199478e+02
8.065363741508033399e+02
6.849480591188803373e+02
8.164922158378471977e+02
9.597842237270087935e+02
6.605102226959440941e+02
7.043562518108060431e+02
9.600147800101665325e+02
1.152110193316464574e+03
1.008640105165630871e+03
1.001023749651222374e+03
1.284318140035878514e+03
1.098576975813627314e+03
9.448413582274457667e+02
1.146099480507467888e+03
1.320337405216577508e+03
9.995148863369438459e+02
1.171419439894029892e+03
1.279426811280902484e+03
1.388617261314974712e+03
1.423816318562038532e+03
1.327994570315626561e+03
1.330116668089517589e+03
1.628221092885926282e+03
1.903298159175235696e+03
1.553292817560160529e+03
1.531196895894537420e+03
1.531043239611331728e+03
1.230884237130904921e+03
1.185737092456316077e+03
6.386729413959880048e+02
-1.564371059931402442e+03
-4.828462118766978165e+03
-8.915577197566157338e+03
-8.928622711961159439e+03
-8.654765445129416548e+03
-7.622816271781023715e+03
-7.527481420792892095e+03
-7.494023184583023067e+03
-2.852449918151608927e+03
-4.174732972756382878e+03
-5.487818488295386487e+03
1.452978919069729784e+02
2.339616554032611475e+03
2.234119820795157921e+03
2.373882898952504092e+03
2.304921759963158820e+03
2.452245656821956345e+03
2.583782493929490798e+01
-4.986272492368477288e+03
-8.175017754675920514e+03
-7.261370565679916581e+03
-7.155306920298068690e+03
-7.954761302184547276e+03
-5.396771164927035898e+03
-3.230305186574783249e+01
2.080720347290012342e+03
2.699280107026158475e+03
2.581415161195657220e+03
2.439151370010640221e+03
2.412563369619934292e+03
6.466444466527145778e+02
-2.743567616560945680e+03
-2.300265721650066837e+02
1.240277425587031757e+03
2.265386611065790930e+03
2.471339461284248955e+03
2.444185294919737771e+03
1.969899296090807411e+03
1.966505934925288557e+03
2.114086536412416081e+03
2.292636308898513562e+03
2.234182774496890943e+03
1.923762132963409613e+03
2.021420237228989208e+03
2.070177365196359460e+03
2.188080992512268040e+03
2.247129662819282657e+03
2.303390300823996313e+03
2.068920553305711564e+03
1.924704244868445357e+03
1.669794913503092630e+03
1.589226040752053905e+03
1.774953429446223254e+03
1.681005156382249652e+03
1.594458404053018285e+03
1.477302902409184071e+03
1.664673823249062707e+03
1.199805479751708162e+03
1.136917882219526291e+03
1.228798015953470667e+03
1.343134200602747114e+03
1.086061068810789720e+03
-5.620876275965272129e+01
-2.983719713945561125e+03
-1.895001750861590040e+02
1.428968678771087752e+02
7.864925772892363511e+02
3.856294072716383425e+02
6.749135527232116374e+02
1.240021788926007275e+03
1.195692303464496945e+03
9.506911545779452126e+02
4.494006664182461463e+02
2.913858072532170240e+02
5.000329876883072870e+02
8.917698885245166593e+02
7.967860856033552182e+02
7.900806934664115033e+02
6.065241886453658253e+02
3.882997532116318098e+02
3.115651620833173183e+02
9.254449705499329184e+02
8.983155148789051054e+02
8.280038238360066316e+02
8.563743404600071472e+02
9.913477395688889828e+02
1.097930924376604025e+03
8.251661438730008058e+02
4.450437366258853444e+02
4.115439004740435962e+02
6.536209115346747467e+02
6.802838812598700997e+02
5.715915826168497915e+02
6.424771824367941235e+02
8.449158716831623224e+02
8.499151908663665154e+02
2.244645409739592594e+02
1.215410777048590205e+02
5.417356981312267550e+01
-7.171259248699885802e+01
-4.711994808449610872e+01
3.499701626498039104e+02
-1.547629642044216958e+01
-1.014599669774127619e+02
1.790167845285021428e+02
4.559305418829637802e+02
5.982490281149315479e+02
8.309959572799846228e+02
6.011138936788322553e+02
5.256018371350803591e+02
6.724582755954879758e+02
3.646630657947873146e+02
4.641382660505779540e+02
5.919005487377161217e+02
7.439553887168392521e+02
5.412879882020232571e+02
4.568082026508960212e+02
3.015562526552415079e+02
-1.518503505709247975e+03
-8.814043759583690871e+02
2.784983571347475717e+01
-1.919752116089552146e+03
-7.441211821835639057e+03
-1.011953634897679331e+04
-9.391772285643295618e+03
-9.209990647140586589e+03
-7.537176592962824543e+03
-8.687291207163707440e+03
-7.456298569662593763e+03
-1.392949720877944060e+02
1.158750189679567029e+03
5.398839386082048719e+01
-3.439718904446196575e+03
-7.145872513185252046e+02
9.743520094483159255e+02
1.190163686225688025e+03
1.028783007728957955e+03
1.017247714434772888e+03
1.116528511645348772e+03
9.065963762389700378e+02
8.134441826051195221e+02
7.480497835989698387e+02
8.774225576166279552e+02
7.585101605752312253e+02
9.373119165303411364e+02
1.205837413494462680e+03
1.385094722869259158e+03
1.421047439695193361e+03
9.806992212322173827e+02
1.175030548496985375e+03
1.267992481135338494e+03
1.091586393204573824e+03
1.045803520896411328e+03
1.035678081514504584e+03
8.571481501647896266e+02
8.321984157547901759e+02
6.918648327752563318e+02
7.201378976543609269e+02
8.199665235106582486e+02
7.973347842030666470e+02
9.002582168192354857e+02
9.327477384485108587e+02
1.242814594032521654e+03
1.287447750091384933e+03
1.335619528751428334e+03
9.943251740530363350e+02
1.232599507911388173e+03
1.182452817434786766e+03
1.192878054937383240e+03
1.399864931879543519e+03
1.017390184969604434e+03
1.306469526010592745e+03
1.043120024612623411e+03
7.553199559754813208e+02
7.610911586804794524e+02
4.744087455705206366e+02
6.832790538180207704e+02
7.456911386630650895e+02
2.087139985110207192e+02
-3.344777438155247182e+03
-2.075626042553783464e+03
2.223205285051356555e+02
8.069103510846921381e+02
8.209682261046774556e+02
7.394597928754158147e+02
7.800088973985444909e+02
1.054525639813566841e+03
1.171806908053574716e+03
1.094822142761381201e+03
8.945429925886951423e+02
1.719149163761268824e+02
4.499389520877251130e+02
7.819128516810735618e+02
6.057616864355356938e+02
8.404266888187015638e+02
9.858483218397424253e+02
5.381048934442048903e+02
-2.741817984438780513e+03
-6.199932782891518400e+03
-3.354234326641239022e+03
-2.362696640538474639e+03
-2.073352911609087244e+02
-3.299120544473337304e+03
-7.205269890885899997e+01
6.009118164213799673e+02
8.578043931419849741e+02
1.114654060263396104e+03
-7.075498884943507392e+02
-5.927796490511247612e+03
-6.010774588288148834e+02
1.114644537636420864e+03
5.803600717181686832e+02
-3.090923683425226500e+03
-2.408183229010424839e+03
-2.452435963159765379e+03
5.093604996181657611e+02
4.602196159368745043e+02
7.681696385226360917e+02
8.051885893782225594e+02
-1.567713698926853567e+03
-2.449514064194925595e+03
-2.794188745675301107e+03
-1.209725189389985417e+03
9.498555286543484044e+02
1.276589154392204364e+03
9.505173643921082203e+02
9.096480584396194899e+02
8.759725551123716514e+02
1.645162991118598086e+02
-2.943747785185883913e+03
4.502067779427564460e+02
7.264030260290588785e+02
-2.849149143074807398e+03
3.451367323183312408e+01
8.653807916587562659e+02
8.745105551958155274e+02
8.679171104422628105e+02
6.335604401650651880e+02
7.464766142008561474e+02
8.986849167765662969e+02
8.761555337222549724e+02
6.248878940834449622e+02
-3.000056805994150636e+03
-2.180732052546080467e+03
3.288873441949888843e+02
9.397615478021680246e+02
9.049006561330971863e+02
1.020379658952180307e+03
1.300154526392019079e+03
1.604213775823262267e+03
1.478518963686571851e+03
1.086115152032222113e+03
9.709674230290059995e+02
7.740905788272071959e+02
5.755025450762691435e+02
6.271787273527246498e+02
5.690653522596451239e+02
4.713692100449104032e+02
-2.159947020168822007e+02
3.485467798699121431e+02
-2.124181894543827184e+03
-2.904423050522417270e+03
1.197441981694018409e+02
5.214955106645686556e+02
4.498095968326670686e+02
2.572453178489445236e+02
8.342332545206481882e+02
8.358444902130441960e+02
8.034935919764184291e+02
7.352773141551275558e+02
9.835730545756287029e+02
1.285067626543839651e+03
1.374510974199837847e+03
1.367068538323841040e+03
1.038253665375421633e+03
9.394222681725323127e+02
1.038921629718354552e+03
9.774144656934992099e+02
1.282209769214239259e+03
1.344462496479373840e+03
1.208218269682959090e+03
1.432507623543716136e+03
1.438426602814278795e+03
1.337218965736774635e+03
1.147056981343742109e+03
9.569863433209637833e+02
1.132030805659689577e+03
1.156626393104947965e+03
1.160595223212348856e+03
1.051253001162097462e+03
9.585517513374104510e+02
1.034480893272228286e+03
1.225080425404843481e+03
9.603532065684136114e+02
8.513032447081908458e+02
1.410881429091099108e+03
1.416080017853096479e+03
1.102853809818266654e+03
9.602136018014098227e+02
7.571557464068496301e+02
7.506285515101900501e+02
8.016428950924661194e+02
5.881511592808718660e+02
7.531414461205862381e+02
9.936062632184716676e+02
7.815576210163794713e+02
1.052985650262335184e+03
1.409915519474180428e+03
1.359303052442199714e+03
1.111088726314037331e+03
1.387301458677162373e+03
1.178906748796538523e+03
1.155926168443340657e+03
1.139309226823877907e+03
8.980841021423403845e+02
4.332367811995353009e+02
-2.121246712433073299e+03
-4.938386145965279866e+03
-4.922194896981436614e+03
-6.421614419257089139e+03
-9.330299903919849385e+03
-6.838824568100109900e+03
2.340117820477173609e+02
1.400161456704946204e+03
1.565687736295982404e+03
1.605545091785182649e+03
-2.419322588282089782e+03
-6.878849262656752217e+03
-8.153027641089312056e+03
-6.982806232423756228e+03
-7.880223814128555205e+03
-7.293306273768046594e+03
-6.346078096362233737e+03
-2.750480278720341630e+03
1.104481495836055501e+03
-3.507165786575284073e+03
-6.009432268744980320e+03
-6.116314609051884872e+03
-8.258488259270297931e+02
1.549008674658022983e+03
2.030277805976181298e+03
1.790960715770547040e+03
1.677081182923672714e+03
1.932670961291950334e+03
1.905761949358156471e+03
1.708381088062329127e+03
1.390504661474947170e+03
1.580140656441468991e+03
2.243300455661838896e+03
2.024038443948117674e+03
1.730344538856642657e+03
1.433241212308294962e+03
1.429751392552765537e+03
1.348942411583426065e+03
1.644787563361935781e+03
1.525349026885907733e+03
1.475680059633397377e+03
1.469775407934632312e+03
1.245585561420803970e+03
1.299201432697015207e+03
1.370628539064895222e+03
1.173891672491951795e+03
1.260023281919719693e+03
1.263014466386114236e+03
1.081889966872745163e+03
1.244743939386497232e+03
1.554597189037861426e+03
1.617428571969213863e+03
1.095312856518100261e+03
1.060243242566979461e+03
1.169232008337228763e+03
1.130345118363389929e+03
7.186345484549697176e+02
7.050689060169505638e+02
7.946952228961413311e+02
4.526385954559366951e+02
3.036126101319405848e+02
2.836356446352171474e+02
2.142415333632541490e+02
3.333759307118279480e+02
2.904317758884364480e+02
-2.170020547578049559e+02
-6.351311854392721443e+02
-1.045016606835968332e+03
-1.189882046861249307e+02
2.462295236687492945e+02
2.216625168100767098e+02
3.924995014309797625e+02
4.649380362018956703e+02
5.020766594701532313e+02
4.026087555724283789e+02
2.789244573123040709e+02
2.189075289668498385e+02
3.065407279582825595e+02
2.568117433265838940e+02
4.714528932912988246e+00
-3.165067989033371987e+01
-2.382845846297169885e+02
-1.681754420882776344e+02
-2.353395889331674198e+02
-3.757202893307594422e+02
-3.333201370078998025e+02
