5.639822229661172059e+02
1.228439576778195942e+03
1.481878831202870515e+03
1.491317222150383031e+03
1.748777615031362075e+03
1.660243812050129009e+03
1.651762990159709261e+03
2.007342103243366182e+03
2.130010624041419760e+03
2.206790072082141251e+03
2.039636434478480396e+03
1.744594789417577431e+03
1.556617932602252949e+03
1.699688041357514976e+03
1.413885915634242110e+03
1.249209406963942911e+03
1.219626322898105172e+03
1.111117362524469172e+03
9.807171071625689365e+02
8.464518295529900342e+02
8.234037634271638808e+02
8.385238241423586487e+02
8.580183494304857277e+02
9.800228623473968810e+02
7.434963842906312266e+02
9.765073979085379960e+02
1.277186257036606094e+03
1.406284125643718426e+03
1.270269661767642901e+03
5.563490769739164534e+02
8.350068717364997894e+01
1.284655824190753037e+03
1.070716415719188944e+03
8.083579439844163517e+02
9.014719461940662768e+02
9.065002575504927336e+02
2.387592708878281655e+02
5.277737859523532507e+02
7.372623143832025789e+02
4.331413539648764868e+02
5.974350127289026204e+02
8.992336935984426418e+02
9.931358073687597425e+02
9.915460406983437451e+02
1.039156864830434642e+03
7.712967311065626745e+02
1.149677248839916729e+03
1.307391685686592155e+03
1.480207221496803413e+03
1.504075452571765254e+03
1.366002291613953048e+03
1.151850728690232927e+03
1.234544448030245121e+03
1.259051261440031567e+03
1.116355680448805742e+03
1.090444934400946522e+03
9.712907531043089193e+02
8.528216489336926998e+02
6.190186576084707895e+02
4.998919832296828076e+02
9.734691632599199238e+02
1.052729844981776978e+03
9.115927552880912117e+02
1.149101201592138978e+03
1.116241630333033754e+03
1.237978306541906932e+03
1.326280127482460330e+03
1.596148536873244439e+03
1.339604353212371961e+03
1.143627285461992642e+03
1.437208608991858227e+03
1.526287466201801408e+03
1.221950252876132708e+03
1.152158875507859648e+03
1.208855780021075134e+03
1.175041309354556915e+03
5.657125443397603703e+02
2.928054888525143156e+02
3.473287786107134139e+02
4.252731079648033301e+02
2.926354172491605823e+02
7.364500202838828500e+02
8.126961402032916340e+02
-3.726414520053011756e+02
-2.787558966206050172e+03
-6.999073658811918904e+03
-8.050121966103055456e+03
-7.744772862344324494e+03
-7.790024346281649741e+03
-7.724856973562989879e+03
-7.773282299330804562e+03
-7.620273602040086189e+03
-6.964858301063480212e+03
-3.918066054413156053e+03
-5.267788216681423364e+03
-6.315089857195725926e+03
-4.832003223218358471e+03
-7.041528157531724901e+03
-7.677589892263690672e+03
-4.009233433818444610e+03
2.605225252332484160e+02
5.256957074874186446e+02
1.269293957672066199e+03
1.983325977033199251e+03
2.279773834101534248e+03
2.568664671971503594e+03
2.470018591311992623e+03
2.087871327227689562e+03
2.128255820941798447e+03
2.242200349804881171e+03
1.974695255171667213e+03
1.997742837460481269e+03
1.965351036594435072e+03
1.486513840534452129e+03
1.312273904775738629e+03
1.182671865533174696e+03
1.314727314132942638e+03
1.299420552499983614e+03
8.047997308839577499e+02
6.438394307995096142e+02
7.705836958158113248e+02
1.122060268039166203e+03
1.368292169807447408e+03
1.347277392657690370e+03
1.448035282926605305e+03
1.545605627176076950e+03
1.484030400246984300e+03
1.277361124669916308e+03
1.393609628084889209e+03
1.519773536823385257e+03
1.284914907271626134e+03
9.840571017569783407e+02
8.471981384763131473e+02
1.035359103520375584e+03
7.405911110044607994e+02
6.139101575215292996e+02
5.813502984486199239e+02
3.648933995790077347e+02
3.625753082895442958e+02
7.943739709395933346e+01
-5.475575977783930348e+00
3.108769925462974584e+02
2.454780582565208533e+02
1.973285064068252268e+02
3.894784932365166696e+02
2.690105930549065079e+02
3.029578256408561288e+02
4.373382687072189583e+02
7.791414583166329066e+02
9.383470461083809369e+02
6.719344507136235052e+02
3.452203840152424164e+02
3.242222267304244951e+02
4.772922866883015303e+01
-4.901859574910278070e+02
1.575235251202288111e+02
6.785561513276257983e+01
-1.612194884285348280e+03
-1.462577038994299983e+03
-6.302317450340963205e+02
-2.870959934384127905e+02
-2.562115179970984400e+02
-7.406043390453626216e+02
-5.341953937083217170e+02
1.449592559953657371e+02
2.798980276114105550e+02
-8.830544228407246976e+01
1.739105019390769868e+01
2.449548683104066242e+02
3.784126471054802323e+02
4.948305624156608360e+02
7.517618160038408348e+01
-1.675287581917603177e+02
-5.325556627011047084e+01
-2.550321770223687849e+02
-4.148581809943756298e+02
-6.097046093185551854e+02
-5.915782974519187292e+02
-6.844690899079554356e+02
-8.043679795393729819e+02
-9.963403818693290077e+02
-8.332955597007061215e+02
-7.992214680091672108e+02
-4.111118482565900081e+02
-5.501891423066009423e+01
1.400559452447077149e+02
-3.384687344905444917e+01
-2.127292189492995362e+02
-3.959190647066962043e+01
1.515413462603580683e+02
6.867164222638591298e+01
1.857916162367945958e+02
2.268667842366125740e+02
8.691516098407193169e+01
-2.660458027193823227e+02
-2.960915174230623848e+02
-3.692124425342005907e+02
-4.284092305935840841e+02
-4.557160682346722638e+02
-3.811373182666822572e+02
-3.457362796929024853e+02
-3.604988196553595685e+02
-3.034760375542174415e+02
-1.986876592186919765e+02
-7.311446808011891108e+01
3.622959258776261038e+01
-5.066989538286709660e+01
9.116413224801776494e+01
2.546978694342781750e+02
9.786085132347105286e+01
4.266968438050947299e+01
3.371260105180834898e+02
3.381625213705375472e+02
-2.462266987035629029e+02
-1.800661100554409870e+02
-3.426443971134796929e+00
2.462230094191574636e+01
-2.339212767210883896e+02
-4.420666113663071997e+02
-2.798713640639648474e+02
-3.163675538918316192e+02
-3.216673415834951015e+02
-1.149901112705661262e+03
-1.109955369589590646e+03
1.892568742222008780e+02
5.183688395776554216e+02
4.212791929959799404e+02
5.901684803839059441e+02
9.290216257071932660e+02
1.191636544799735702e+03
1.260311146823446279e+03
9.539339584061563073e+02
1.068594737614003861e+03
8.951988095295818084e+02
5.806078317510962279e+02
3.527568688900845473e+02
5.598371416928065400e+02
4.934809033426524820e+02
4.610413400283990200e+02
8.732113495041792248e+02
6.400147526884621811e+02
6.500695778779528382e+02
6.717864498165844225e+02
5.837923448049854187e+02
8.254817830874055744e+02
9.776209500923935138e+02
1.364277022725616007e+03
1.595639146873957543e+03
1.544310623886144640e+03
1.691278362439514012e+03
2.213698007295258776e+03
2.156449748671674115e+03
1.782533187711522260e+03
1.867677186711015793e+03
1.914854536136320576e+03
1.552584874217678816e+03
1.675325111306420467e+03
1.369919172382699344e+03
1.261201162694163031e+03
1.116599723695729153e+03
1.265027990587282147e+03
1.277345658009957106e+03
1.096534216603972936e+03
1.021558357515185548e+03
1.225369444828258565e+03
1.577961219238688727e+03
1.651317095232059728e+03
1.957466574938122221e+03
1.893408638442484744e+03
1.566085304608194519e+03
1.706461575607033637e+03
1.796608722023585415e+03
1.543475340278759631e+03
1.228080538173503101e+03
9.953795520409382789e+02
1.194394483451375891e+03
1.490982076511496359e+02
-3.503505200420424444e+03
-7.689471841872637924e+03
-7.945749021872597041e+03
-7.917344907024043096e+03
-7.682234670174300845e+03
-4.834456348448118661e+03
1.310964761087865782e+03
2.174040339959501580e+03
2.188775554461331467e+03
1.977353548314517411e+03
9.888025393041187954e+02
-4.684066696132817924e+03
-7.131162729647388005e+03
-6.611461440679406223e+03
-5.940978745626150157e+03
-5.331709515896809535e+03
-5.762550605220467332e+03
-6.210558435380095943e+03
-6.041741032047029876e+03
-4.709048714395461502e+03
-1.819486702561714765e+03
-2.258005944808154254e+03
-5.976569219159090608e+03
-7.018167545213613266e+03
-6.697796231565402195e+03
-6.435367434209690146e+03
-6.275935824788963146e+03
-6.139406652574196414e+03
-1.307774106962854376e+03
1.649991708391933344e+03
2.925955490797701714e+03
3.206146370815423325e+03
3.447601950523172491e+03
3.457340084287888658e+03
3.457390284553844140e+03
3.556803145761823998e+03
3.554623486913475517e+03
3.222877757800276413e+03
2.912585656934635608e+03
3.032797437093429380e+03
2.922508075965820808e+03
2.494781707973634639e+03
2.723646708553364988e+03
2.555113781751234455e+03
2.409265135886012558e+03
2.453122667041230670e+03
2.175695030621049682e+03
2.216030690255416175e+03
2.127205221570533013e+03
2.179287923302163563e+03
1.864282116010968593e+03
2.188229120236819654e+03
2.403185966202956934e+03
2.353205458128926693e+03
2.518310576146482163e+03
2.372552385816201877e+03
1.795017826673587706e+03
1.524682403048652986e+03
1.373577298510160517e+03
1.093742181974209416e+03
1.128222471054695461e+03
8.360226130385667602e+02
6.371203652094176277e+02
7.336513172630433246e+02
7.807021225080937938e+02
1.021567366901958849e+03
8.594299019032241631e+02
9.381846672090247239e+02
1.028921910980267967e+03
1.015698489287663961e+03
8.725164812674261157e+02
6.553859312939349593e+02
3.152658667263651182e+02
9.579606258276382960e+02
1.148805543087328942e+03
8.247746295651274977e+02
9.079041546930784534e+02
5.923898230023460201e+02
-2.491280206928000496e+02
2.234299931538726298e+02
4.216561216109711836e+02
1.260907291199095539e+02
6.647058817595357993e+01
-3.112779908554385884e+02
-5.661530707069042592e+02
-4.421428789276945395e+02
-3.362148768455170398e+02
-1.383205737733146066e+02
4.353663799855743122e+01
1.243629924113453313e+02
1.261733179126664197e+02
4.019608963180211276e+02
2.957522374356730097e+02
-2.838771966257069934e+01
-2.550184896217592012e+01
1.513895306913422303e+02
1.442919351069922413e+02
-1.577452550327339864e+01
-3.328119683451913033e+02
-5.088303976836384663e+02
-4.888745925265407095e+02
-2.869466422932139835e+02
-5.290550383714628424e+02
-9.392090122456078234e+02
-1.009404662967417380e+03
-9.636414029427241985e+02
-7.019211882597680869e+02
-6.682331258701318575e+02
-7.546337742981786505e+02
-5.581010560622303274e+02
-2.986056647365992944e+02
-2.511639037889635802e+02
-2.347949642842788194e+02
-1.115236508237621820e+02
-1.433730546208886096e+02
3.465664065660323701e+01
-1.024490011955470550e+02
-4.137200035110250838e+02
-5.051846982240263628e+02
-4.907934889682701964e+02
-3.275915053446794900e+02
-5.966798846529599132e+02
-7.640483717135500683e+02
-1.014703161683823510e+03
-1.021694628699193345e+03
-7.520063243883253108e+02
-4.316787555473435987e+02
-1.777204252162133002e+02
-3.661907261928427602e+02
-2.253124560287510121e+03
-1.839452417498722980e+03
-1.102069607068331294e+02
2.754970671950948145e+02
1.107251979064617871e+02
2.284631391256534698e+02
1.795803502683905606e+02
-1.929162313889170548e+02
-1.247916274260287992e+03
-8.695772018863747235e+02
-1.348914627812674780e+02
-3.088917286882572739e+02
-1.507661521414684103e+02
-4.443862826816828004e+01
-3.756260289864263200e+02
-5.546300657616530998e+02
-3.894769255219776483e+02
-1.331826132033869783e+02
-1.978033790793411981e+02
-1.013542180792556593e+02
7.613603164687071967e+01
6.663350501930665359e+01
4.231754644924002946e+02
5.527369479127589784e+02
6.412416782040978660e+02
6.946967751415782004e+02
5.610955307688096809e+02
3.674220706585127232e+02
5.235992774358912811e+02
1.976306575284957034e+02
-5.865180808641814565e+02
-1.638521990626040292e+02
-4.487477284835436064e-01
8.969840193972174802e+01
-1.384850090956803399e+02
-1.589780871069025352e+02
3.622245370842729528e+01
2.180944513092743762e+02
5.806224012472908953e+02
6.078013172671440998e+02
5.016281504778383464e+02
5.830673624415493350e+02
4.141064485268798308e+02
5.917368025071111788e+02
1.021975481712807778e+03
9.798000212489012029e+02
8.501883057985226060e+02
8.771512091395464950e+02
8.216600571356433420e+02
8.036812511725061086e+02
3.211941882962069599e+02
3.202122673827516905e+02
2.327288716186951376e+02
4.472939639327889694e+01
-1.776213938928457248e+00
7.419567921065022631e+01
2.276177152898011968e+02
3.695137851233412221e+02
2.818790069130178608e+02
5.472364184194091763e+01
-1.099494083324608766e+02
3.788721149776491757e+02
5.591977938505823431e+02
8.459822986983199371e+02
8.562594071154252333e+02
9.490639846796535721e+02
8.423790891023675158e+02
7.181767985320481102e+02
6.575042501022389843e+02
7.883692372369065424e+02
5.956998273146540441e+02
-5.534651222287344581e+02
-4.285144004073289580e+03
-6.654250707924383278e+03
-6.613740921378706844e+03
-1.910758801788137589e+03
3.727485823601368224e+02
5.948099556664108150e+02
4.074507747011688821e+02
-8.635951484724512284e+01
-2.816632100890918537e+03
-2.921328090535685078e+03
6.561803820589034331e+01
1.243199259577825615e+03
1.366450368583375621e+03
1.215373676046072433e+03
1.002988160311731576e+03
-1.956717467014677140e+03
-3.657511988444241524e+02
1.296920238108495823e+03
-7.227528546265857585e+02
-2.395709342634837412e+03
-2.549343125529294412e+02
-2.881403962693812900e+03
-2.791019548061318005e+02
-4.000046463492790735e+03
-4.266204227420408643e+03
-1.928596808419911213e+03
-7.442135676456463216e+02
-5.133993076997679054e+03
-2.020914807830537029e+03
-1.201018015438030716e+03
8.877553955361652243e+02
-2.184550305551581914e+03
-2.077970795383756467e+03
1.083525034178923534e+03
1.809991214789949709e+03
1.166390093830781780e+03
-2.255234041635373160e+03
-3.459013946413183476e+02
9.614116490772121324e+02
1.252675892332531021e+03
1.309933754912869972e+03
1.247213755935726113e+03
1.207532039901654343e+03
1.137857920494263681e+03
1.029142586367163858e+03
1.261262854252067882e+03
1.547335262147619460e+03
1.312730524339466911e+03
1.045279672052648493e+03
1.399100696261692747e+03
1.315822528639595021e+03
1.745773825306276194e+03
1.644001997142806886e+03
1.871436230111183477e+03
1.798228201326087856e+03
1.925246223572369445e+03
1.340725822721825352e+03
1.384608171070064827e+03
1.454939156471609522e+03
1.458522670279362046e+03
1.395501333269990937e+03
1.030487367614345658e+03
5.034378064029658049e+02
-5.305819767416422792e+02
-1.005280710322876701e+02
8.246074908229121547e+02
1.105903116488598926e+03
1.165786493491751571e+03
1.271864503318308380e+03
1.341353763549850100e+03
1.187081344914884312e+03
1.385786055217850389e+03
1.587907191929963119e+03
1.433999859825258909e+03
1.061665192469567501e+03
6.965408120229060387e+02
8.362156746837459877e+02
1.033827298224799279e+03
9.580312482675858519e+02
6.042675262638557570e+02
6.427313541719731802e+02
2.252300651899964521e+02
4.760560911329428677e+02
5.069098246225233311e+02
3.842869546829890055e+02
5.022259172035978736e+02
4.601193875530378250e+02
7.889225836142287562e+02
9.275086489766308659e+02
8.219048924856272151e+02
1.021126821516075097e+03
1.287107591302547917e+03
1.456858570693693082e+03
1.244392598818214083e+03
1.244698501477417267e+03
1.355741810225299560e+03
1.521468646403497587e+03
1.329961734029113586e+03
1.119144074307863320e+03
1.205029824789875875e+03
1.252603946692696809e+03
8.518170453655285428e+02
7.207037164633214843e+02
4.702340163746949884e+02
5.754366705002456683e+02
7.462883070212545817e+02
8.097760612614758884e+02
6.578625558858846034e+02
8.645752407479621979e+02
1.031901084731631954e+03
1.323843542182958572e+03
1.656424288135804090e+03
1.414671112500734580e+03
1.345540831489505536e+03
1.335030214185850355e+03
1.193158628083330314e+03
1.240904584628535531e+03
8.728243559506202587e+01
-1.573726294892503802e+03
-4.962153825867173509e+03
-8.632020928003372319e+03
-8.388360647847239306e+03
-8.674094450194917954e+03
-8.555250467556592412e+03
-7.891832904228704137e+03
-7.567843172435064844e+03
-7.172267211343386407e+03
-6.967118232998148414e+03
-6.674510568571354270e+03
-6.522175443613262360e+03
-7.095256458728215875e+03
-4.668393513952205467e+03
-3.283848706022240094e+03
-5.708616544594662628e+03
-2.540686570558336371e+03
-2.809218031163657088e+03
6.598218702799757693e+02
1.751671405727405954e+03
2.055178790562066752e+03
1.948353351322205071e+03
1.871226851668249537e+03
1.654769599623066142e+03
1.524985561146607324e+03
1.590862275029735656e+03
1.744454562584119230e+03
1.584748487553011046e+03
1.473757477341172034e+03
1.571483813788177486e+03
2.001997280904332456e+03
2.134308855426038463e+03
1.984396462239696575e+03
2.162259262713719181e+03
2.546926303786207427e+03
2.412414198617660077e+03
2.416753053581614040e+03
2.144967034440201132e+03
2.164051600799152766e+03
2.118001198463107357e+03
1.744857697084351457e+03
1.577657676252205874e+03
1.516383035234941872e+03
1.364033547176745742e+03
1.266600719250355496e+03
8.211322514549657399e+02
7.876607507023117023e+02
9.302076931228464218e+02
9.167385660308010529e+02
9.522625334995523190e+02
1.242835006376968295e+03
9.494629059690594204e+02
9.481964492904171493e+02
1.084037785175935824e+03
8.460041544709079062e+02
6.191189517524890107e+02
9.913855901452061516e+02
1.294831511172382989e+03
1.015478065693014059e+03
7.333516168430631978e+02
6.144605366046016570e+02
3.568131202562426552e+02
2.654113522609317215e+02
6.725095190254565125e+01
1.863245785888367436e+02
1.406582877715595430e+02
-1.996856555292020516e+02
2.534690716343005192e+02
5.829617272088331674e+02
1.632480557659231168e+00
2.675586810743984074e+02
3.767997719644587278e+02
3.737292076124345499e+02
1.131404800733258753e+02
-2.871324537360216596e+02
-8.526905441769596337e+02
-1.288070926336046114e+02
3.596415961679826410e+02
-1.684419541756429680e+03
-3.489680533644031584e+03
-5.054977415598484072e+02
-1.553468909916796648e+00
1.680027151785349986e+02
-6.292211522092878795e+01
-2.943305123105442931e+02
-2.352274265892517349e+02
-2.527680348486207720e+02
-3.788117522916291477e+02
-2.799808079988956138e+02
-4.564373466253301359e+01
-1.086641302347178026e+02
-9.886209162016803020e+01
1.666930306955807737e+02
5.388569602587011786e+02
4.516464157551779408e+02
5.950127096987031337e+02
5.480382178440256666e+02
6.087437021116841152e+02
2.729935292874131392e+02
1.178327030642888360e+02
-4.147499492797088010e+02
-4.407348291656619494e+02
-2.581588438015845668e+02
-5.120285605295366622e+02
-8.853589053186312867e+02
-8.061790135585353028e+02
-4.474740682261987672e+02
-5.912193520332687058e+02
-5.254256356591115491e+02
-4.390914030031898392e+02
-1.162204739736606030e+02
-1.758782395569209314e+02
-1.040352328956384440e+02
2.393079147415166119e+02
4.031610424898002520e+02
2.775108493453453207e+02
5.532981994413633231e+01
4.462651941286494406e+01
-2.565215093772200916e+01
-1.605145820586425032e+02
-3.794914903435809350e+01
-1.981855365290771331e+00
-2.966604153642583128e+02
-5.170203930696220596e+02
-5.850637999067898818e+02
-4.428160757789927970e+02
-5.862515108529873942e+02
-5.213624893773717304e+02
1.207668211345562241e+02
-3.887168420051106210e+01
-5.532883816827666124e+02
-8.948386185432164552e+01
3.695150653378622110e+02
3.477381535590766362e+02
5.771664405880056847e+02
8.977502474350110333e+02
5.824414673030877339e+02
4.392176258518379086e+02
-9.901520234223421824e+01
-7.188103171657460280e+02
-1.150083079241611443e+02
6.131385798135566034e+01
6.143686705659894187e+01
-1.237216087078341786e+02
1.679654478572088294e+02
2.018214797647172531e+02
-9.149448853559614747e+01
-2.555314160594445809e+02
-1.583927129513855903e+02
1.255843609418673736e+02
4.743453053327940552e+02
5.299156811311700039e+02
7.043076468961982073e+02
1.065500576736206085e+03
9.267323319964275470e+02
1.061610670629858987e+03
8.679013276524543699e+02
5.973327349616134825e+02
5.017176528020740989e+02
5.354832668529567172e+02
4.732202836714478167e+02
3.124951463706361210e+02
3.381407428667812383e+02
1.874665291130453966e+02
-1.568653425538455224e+02
-2.163906385863942035e+02
3.190455574345490319e+01
8.869605877128478255e+01
2.071928026315217721e+02
3.710199848437197261e+02
3.314171746969869332e+02
5.113866566215826310e+02
8.258518649327533012e+02
1.008034833051331816e+03
1.194674299875567613e+03
1.123990333242734550e+03
1.128855795779969867e+03
8.732201223290963981e+02
8.720342108641814320e+02
8.862457120460759370e+02
1.075869176383144577e+03
1.065898691508469483e+03
4.463132406191381278e+02
-2.587861475807032093e+03
-4.651659577117094159e+03
-2.404130624848643038e+03
-2.485241598630865155e+03
-4.619021567129590267e+02
-3.460205244831437994e+03
-3.042128418532089654e+03
-2.062708478388135518e+03
-1.914930206817038652e+03
9.432034289593372023e+02
1.108739600094010711e+03
1.070670365966226655e+03
-1.650937923294016628e+03
-6.351434453069787196e+02
-1.868947760260061159e+03
-1.025334637216548117e+03
-2.123306782093941365e+03
1.031165342879615991e+03
1.135059848125367125e+03
1.114386938211184997e+03
9.572289455426005134e+02
8.867034592905184809e+02
7.917707593222729656e+02
-2.568658874253317663e+03
-4.925942696624101700e+02
1.499525371117454711e+02
-2.610956066400439795e+03
-7.333220733553607715e+02
-4.880160165188994142e+03
-5.643895647607363344e+02
1.440998533079633262e+03
5.890325787802415789e+02
-1.777301382475945275e+03
6.050044470188003061e+02
-2.026020282675947101e+03
-8.973414743201449255e+02
-2.043962326863907720e+03
9.571696801434261488e+02
6.860059867891130807e+02
-7.434215016241090552e+02
-2.820098812810666004e+03
-8.460405848587524815e+02
3.108239502775881533e+02
1.354759879156776776e+02
2.419482986381351282e+02
7.602799023884593907e+02
7.364661790909362935e+02
9.315195973655005446e+02
1.105439241893641338e+03
1.255273870781007190e+03
1.570055329207358227e+03
1.079801964888920111e+03
1.376489705795881491e+03
1.507171897128939918e+03
1.594887596805195926e+03
1.618604462430803096e+03
1.271344994723878472e+03
1.070168878763177190e+03
8.341078857621298539e+02
9.301532279647784662e+02
9.962940258457556411e+02
5.545084596801715406e+02
2.808393615715196461e+02
3.973506211684597815e+02
1.790332467925562980e+02
3.068785340112470976e+02
5.298658293812027296e+02
7.120391335640288162e+02
6.204865588395509803e+02
6.081826748072087412e+02
7.421265391086047885e+02
9.963460174550391457e+02
1.193865669594722476e+03
1.275750532313488293e+03
1.289973031044457912e+03
1.017729196039828253e+03
4.814266312722097609e+02
5.214842617443248400e+02
4.421245590338641023e+02
3.274826088471857588e+02
5.052306442660597696e+01
-2.846974715631845925e+02
-1.076990426577581275e+03
-4.066650364329495460e+03
-2.861917270726537481e+03
-3.878515103352885944e+03
-5.552447316365235110e+02
2.667296308409304402e+02
8.661063881370707804e+02
9.611719095908961208e+02
1.196056482479868208e+02
-7.841883095752349391e+02
8.926817462602982687e+02
9.589755952879835377e+02
6.566835104627084547e+02
6.777690744160731811e+02
5.751911588446272390e+02
3.989539697653386838e+02
1.104473776909318516e+01
2.204624514915950328e+02
6.616612647734839925e+01
-1.678016212569817185e+02
-2.434526752849534432e+02
1.072040457975755743e+02
2.361083975002194677e+02
2.272765068489646012e+02
2.477348747729427885e+02
3.284231028736917892e+02
2.823213524597501873e+02
2.144944592353786561e+02
3.679197838163191818e+02
4.966074231662714737e+02
6.155267541671199751e+02
6.586877195280193291e+02
7.470592098223077073e+02
6.946381520843550561e+02
5.314120448444036811e+02
2.613921768759890369e+02
1.645453827842661383e+02
1.368674261476015204e+02
5.213439647671848434e+02
4.109414156428562137e+02
-4.234775362293196110e+01
-9.154463466034000874e+01
-1.646795628451804419e+02
6.128492903892959021e+01
3.942979836473982118e+02
4.703526320102537284e+02
3.915168457421194717e+02
2.767400524265528929e+02
3.899614513876094861e+02
8.001812476978263931e+02
9.624248036247386153e+02
1.103708718946262024e+03
1.010011630586622800e+03
9.202947592300246242e+02
8.615431190302460891e+02
5.867602449486799969e+02
3.859092730689704922e+02
3.069913632423271110e+02
3.100107655538401445e+02
1.378810473662783522e+02
-8.333992789179662850e+02
-2.414767769512229279e+03
-4.445349189923578706e+03
-1.492049127817094131e+03
-1.111964841152529289e+03
-3.736082685638914882e+03
-2.473260923231778179e+03
-3.536483538533803767e+03
-2.715944703888104868e+03
-3.920619800249367017e+03
-7.112785739760186061e+02
-1.996956889792228594e+03
3.319772422154651963e+02
1.110650013451296218e+03
1.020056933129057938e+03
9.172306653165552461e+02
2.581285930463376417e+02
-2.822255115856652992e+03
-4.745889493823344310e+03
-1.971816926566560596e+03
-3.445055841317888280e+03
-3.634611174985824618e+03
-1.321453159258072901e+03
5.833916355484977885e+02
6.599054203565494845e+02
8.601234605964549473e+02
7.810638310811850715e+02
1.311659817228477777e+03
1.624950270173098261e+03
1.385932471141663655e+03
1.566663338272258216e+03
1.635111027470640693e+03
1.681304392302921997e+03
1.461204340471138948e+03
1.425785952952680645e+03
1.282105530711773554e+03
1.042164414316297552e+03
7.149284342682013857e+02
5.883821137570649853e+02
5.845694811260035522e+02
4.174471977204358950e+02
6.700449801704254469e+02
5.493563059428860242e+02
4.843999720054063687e+02
4.122008389380382596e+02
7.867332329265525459e+02
1.147992755081250152e+03
1.424029643277861169e+03
1.490863410209491349e+03
1.474485684661287905e+03
1.425915997782522254e+03
1.595147387283632042e+03
1.785224037190982017e+03
1.707141778449427420e+03
1.442896200038096595e+03
1.343511740462789021e+03
8.270285638084893662e+02
5.744126181356527923e+02
6.237015711234895434e+02
5.018430114239665158e+02
2.287995469650840619e+02
1.727286209842679057e+02
7.864727871526110903e+01
-6.753229219112863291e+01
2.161957162702261144e+02
5.208918816972557124e+02
5.035528784151669015e+02
2.781672052481930564e+02
-4.531971274438807313e+02
-3.833572609397862834e+03
-5.077834972587234915e+03
-3.412898425016130659e+03
3.610659835813946188e+02
1.064089571034982782e+03
-6.398025987951683646e+02
-2.683582786330051022e+03
-7.483043699963711788e+02
-3.454905008852933861e+03
-3.096355044798177460e+03
-1.277629975520370635e+03
4.012672085723503983e+02
6.282776118580853790e+02
5.704315807859253482e+02
6.327540403781571285e+02
5.572406437548094118e+02
6.108870443897244513e+02
1.887415385858803063e+02
-2.988204185632088411e+03
-3.948954950752304285e+02
3.076854978235667772e+02
-2.534485176115791091e+03
-2.816394570210425627e+03
-3.353024598437944405e+03
1.062638473016036869e+03
2.255896583945564942e+02
-2.299156928828534092e+03
7.224038515874696031e+02
-1.814730500970391404e+03
-1.249590346545726106e+03
7.538519157003597684e+02
-7.842254802398646518e+01
-3.531404231163288387e+03
-4.628064460540603250e+03
-3.028437092414295421e+03
2.684664168672168785e+02
-7.333083417473485497e+02
-2.469776553555240753e+03
-5.769554329612508354e+02
1.064190498410646114e+03
1.667704820269570973e+03
1.571538996254347467e+03
1.620689992855516493e+03
1.696138432783311146e+03
1.509913601260287351e+03
1.643026860169225756e+03
1.780692573594758642e+03
1.412906977630499796e+03
8.603235585491687516e+02
1.382060307538767802e+03
1.424914128908487555e+03
1.351180100506637018e+03
1.341926833880333788e+03
9.670419587474170839e+02
7.931825866333539352e+02
8.903684793008005727e+02
1.077011040100473338e+03
1.343935546518444426e+03
1.396567152834033323e+03
1.405362646689906569e+03
1.497513510936350940e+03
1.387812654569955157e+03
1.156376912163080306e+03
8.487127761989422936e+01
-2.119493435018268428e+03
-2.331728017157298382e+03
-2.508464031385550754e+02
1.155111351801763249e+03
1.293960810309593626e+03
1.255201845716411981e+03
8.335798790229780479e+02
7.499454419893132808e+02
8.304232854423108847e+02
5.798164289976679129e+02
8.368522094097153285e+02
7.543725146281799425e+02
7.459094569341582428e+02
8.545508839833024695e+02
1.004115604841319509e+03
1.110719192572061729e+03
1.135452067390150432e+03
1.287745030821829459e+03
1.444400323334320092e+03
1.434969507440292318e+03
1.442379483951530574e+03
1.222475915622232151e+03
7.455813687297419392e+02
7.436326535683706425e+02
6.745807187825854498e+02
6.593763606920718985e+02
6.758609435831323253e+02
7.280709005163805614e+02
8.609787299887294694e+02
7.065619632270569355e+02
5.087818867008057850e+02
6.636287949870046532e+02
1.012088072803005616e+03
9.472146267966818414e+02
9.699112306431694606e+02
1.230193936822199476e+03
1.153051829946050930e+03
1.103488407622274053e+03
1.096499798901161739e+03
1.537094861407557119e+03
1.542262487089366914e+03
1.536979602420949277e+03
1.088262528207291552e+03
8.130644388679382928e+02
9.043945583460618991e+02
1.082217529924204882e+03
9.715372277975901625e+02
5.113193533375012407e+02
4.815510819737689303e+02
8.802187844104633996e+02
9.633590581425174832e+02
9.089890341330091132e+02
8.780610372398786012e+02
1.214565839181993169e+03
8.825428745413267961e+02
-1.144053960149837167e+03
-3.806234243004861582e+03
-2.781961456841000654e+03
-6.181183477926439082e+03
-8.050953219522515610e+03
-8.165237152353543934e+03
-8.201047749839442986e+03
-7.750404484968562429e+03
-4.259267856925751403e+03
-4.252557375105066967e+03
-7.669046268902522570e+03
-8.185114744825067646e+03
-6.856522253935294430e+03
-3.844653673285441073e+03
-5.018353781410795818e+03
-6.868603217638452406e+03
-7.485387571346035656e+03
-5.834577918489445437e+03
-4.871562961719048985e+02
9.116678117833685064e+02
1.937039167190401486e+03
2.345010010736165441e+03
2.337487356263368383e+03
2.256539857460215444e+03
2.088242092341318312e+03
2.155589843662288786e+03
1.862532905974034065e+03
1.846111951869083896e+03
1.766367321045186145e+03
1.878302189705764249e+03
1.711865514665835008e+03
1.593062506648533144e+03
1.623930058423642549e+03
1.277515288894574724e+03
9.838282432744354082e+02
1.130890294180310093e+03
1.262732391662731288e+03
1.367351124646862672e+03
1.495775398159941915e+03
1.887041329916357427e+03
1.658152572332845921e+03
1.637130405611282413e+03
1.684998339739905759e+03
1.955802044603066179e+03
2.027557744031137872e+03
1.764276710145812331e+03
1.803966411560666756e+03
1.774616594800396797e+03
1.663285135102508093e+03
1.465025337593211361e+03
1.299800994645185483e+03
1.164628221608129707e+03
7.255422931990177631e+02
4.255302181680748959e+02
7.916139656228816648e+02
6.618456834915108402e+02
5.052430666733930593e+02
5.258238241137000841e+02
4.565223009282802877e+02
7.204555184218602335e+02
1.075614650884291450e+03
9.500034760223996955e+02
9.055222430719489921e+02
9.351666305137975996e+02
9.830940898376593395e+02
1.084470646406065043e+03
1.080386822632865915e+03
9.228647567257950186e+02
8.629875193683925545e+02
8.079558508572521305e+02
-1.965889201614641646e+00
3.908688008820621462e+02
-4.840333501394764539e+02
-1.602429646894362122e+03
-1.073053519502294421e+03
-3.322363781182344837e+02
-5.797923910238689587e+02
-4.798447509506203801e+02
4.778896480397998658e+01
4.373669270041748547e+01
4.393470637915744419e+02
6.373377670639283679e+02
6.728032305459148574e+02
8.517910950309260443e+02
4.973345856003564336e+02
3.644562245423818467e+02
6.684054835210484953e+02
3.841387697750432153e+02
8.028416458914497866e+01
-1.068628320039786672e+02
-1.613900769178481482e+02
