-1.910467678868315943e+03
-1.845579580106664480e+03
-7.934896119289292074e+02
-1.147133710617102906e+03
2.064601637477513577e+03
2.584714469347134582e+03
2.635181656782237496e+03
5.989758322087621991e+02
1.046146030057833059e+03
2.233723065675872931e+03
2.230635854208764158e+03
2.373925671519104071e+03
2.816583677499522310e+03
2.390606196630002160e+03
1.732009335972022427e+03
8.297205575065379435e+02
1.507353832335517154e+02
-1.458367903820654305e+02
-4.219345361253751321e+02
-5.676929917883057897e+02
-3.278833897289342190e+02
3.975458188204721637e+02
5.355074484613179493e+02
1.125850971358120205e+03
2.006357312542979798e+03
2.291633130251351758e+03
2.238749436707623317e+03
2.760059435842046696e+03
2.823759154565182143e+03
2.611999748346542219e+03
2.821757408716993723e+03
2.695048699029440741e+03
2.133822734877380753e+03
1.577039314250530424e+03
9.187498682830439520e+02
3.796740422254692362e+02
8.279537128662602186e+01
-8.428490887948719319e+02
-7.892764479598534990e+02
-1.905570757237935311e+02
-2.097112431180237593e+02
-4.175770538984489377e+01
7.833934752931842240e+02
1.418681866600581998e+03
1.641106165175151546e+03
1.910714788078641277e+03
2.563442985913926350e+03
2.944262944823830821e+03
2.900124386870652415e+03
2.956957228345563635e+03
3.012615077667743208e+03
3.018211740976168130e+03
2.661831642623661992e+03
2.088392310170396740e+03
1.585841455825659295e+03
8.119968160082630675e+02
2.616177386474729474e+02
-2.690715741401193668e+02
-5.072718485676887781e+02
-6.021976894783075522e+02
-6.648476403118025928e+02
-4.801589480034751318e+02
5.038277830005997657e+02
1.144099412324306059e+03
1.527635798778326034e+03
1.704453453301492118e+03
2.176537669986807032e+03
2.140825203572906048e+03
2.319383037325177156e+03
2.840191186058966196e+03
2.987205319643853272e+03
2.592457571886221103e+03
2.553915987760181451e+03
2.098567949521792798e+03
1.424337139278836275e+03
6.401735269049775070e+02
5.809331378479075880e+01
7.604678058175306887e+01
-3.630196325910046085e+02
-8.481465872703676041e+02
-2.342359398978047011e+03
-4.490640888943598839e+03
-6.993966414368071128e+03
-6.852309194758380727e+03
-5.932597957233309899e+03
-5.119818881774868714e+03
-4.503009242540370906e+03
-3.985163851720074945e+03
-3.839294331284727832e+03
-3.748430153107016395e+03
-3.083558499589270014e+03
-3.548651829119914510e+03
-4.402600157370581655e+03
-4.689452847218224633e+03
-5.250233778900079415e+03
-4.925922836472416748e+03
-2.847627303134127487e+03
-4.706355276715871696e+03
-6.816116096076211761e+03
-6.831963891166798021e+03
-6.518769201223619348e+03
-6.191549565701034226e+03
-5.802231980916789325e+03
-5.226840504244007207e+03
-4.627288449724380371e+03
-4.029503487429928100e+03
7.852051834002338637e+01
3.507789146236780653e+03
4.275297723847605084e+03
4.351066472058541876e+03
4.073154261779469380e+03
3.769565084222838777e+03
3.766390225529235522e+03
3.353648958179767760e+03
2.194313561004807525e+03
2.113417622569053947e+03
1.658943199122633132e+03
1.142884436003147584e+03
7.382253798749482030e+02
3.000115996181745004e+02
7.763000864947142645e+02
1.069122470284116616e+03
1.472536538446056966e+03
2.027584375116166711e+03
2.806320319903953987e+03
2.953841041500091251e+03
3.120206085667512980e+03
3.389472153543607419e+03
3.056653473122774358e+03
3.218762652960501327e+03
3.426884260404814995e+03
3.301046462353077004e+03
2.694318470373707896e+03
2.405743235556897162e+03
1.578296135380963506e+03
6.839889390682114936e+02
-2.151621498502312591e+02
-6.621550589467846066e+02
-9.459407371820165054e+02
-1.215538403858814263e+03
-7.958648665527269941e+02
-4.928457276585958198e+02
6.754896109259659909e+01
4.633812361084408735e+02
6.946699372991434984e+02
1.249366335508006841e+03
1.714596440389051622e+03
1.870454239119060730e+03
1.977344607387637552e+03
2.135419827498037648e+03
2.143777376109534998e+03
1.549312434360980888e+03
1.006982421975252123e+03
8.788228451861444910e+02
-1.381056968240707192e+02
-6.398826004178472431e+02
-1.525474022848506365e+03
-1.870836832386917422e+03
-1.793989211732266085e+03
-1.934036783505706580e+03
-1.918177432850072591e+03
-1.307370781440860810e+03
-9.355038369699575469e+02
-3.805954877530201088e+02
1.034078656067181186e+02
4.855412559663906791e+02
4.538291663173672532e+02
1.103090322927551910e+02
9.760190151377679513e+02
1.390953522570640189e+03
1.491127272018750091e+03
1.038535821746878355e+03
8.502349787327385684e+02
9.152673027454518433e+02
1.075785418286260580e+02
-9.398420106211050324e+02
-9.910413130057117996e+02
-1.183998218529761061e+03
-1.877734896508396332e+03
-2.385245377530698988e+03
-2.189515907977329334e+03
-1.771587908859934942e+03
-1.326421030418328428e+03
-8.840219296779438309e+02
-5.683330219357640090e+02
1.764833428976326601e+01
2.919724270874176568e+02
4.896467559224262232e+02
7.636380451956865727e+02
1.115878106850541599e+03
1.513382099467278522e+03
1.228160941485838066e+03
1.422071404407096225e+02
-2.355000096753858259e+02
-4.349692728251075096e+02
-7.392707072796434886e+02
-1.504431512579516266e+03
-1.922476657113233387e+03
-2.249494301407816693e+03
-2.231585241618040527e+03
-2.119758203732238599e+03
-1.616941078871088621e+03
-9.121849695079736193e+02
-3.764972258282446091e+02
-7.089578545154159883e+01
1.426125668394410013e+02
7.610100451546561544e+02
8.902776230637609842e+02
1.293669768545378247e+02
6.672676023916878876e+02
1.693991588856757971e+03
1.860422499016781785e+03
1.434592086055513391e+03
1.001454528700107403e+03
7.969084247092579290e+02
1.619257287226883761e+02
-8.225316930192707332e+02
-1.467578575101934121e+03
-1.939238681716747124e+03
-2.594678242188866989e+03
-2.013899053546496134e+03
-1.136697777830562700e+03
-6.250082813102128512e+02
-3.550639082392343653e+02
3.658393814547062561e+02
1.172944466730987642e+03
1.548076437076251523e+03
2.132442796747527154e+03
2.420076514863319062e+03
2.331858083440118207e+03
2.192688293837847141e+03
2.242265760966113248e+03
2.236816480357988439e+03
1.745935269058844142e+03
1.121059396659079084e+03
2.769057376333577736e+02
-1.715617620703143018e+02
-2.278146996233103039e+02
-2.169784700216697217e+02
-4.335959237297946061e+02
-6.332887984266503736e+02
-4.324522219305916337e+02
3.890491438862844831e+01
8.736980266563435862e+02
1.657646095800244666e+03
2.061055280869807120e+03
2.312631843364510132e+03
2.662451523348516275e+03
2.914483111870968514e+03
3.362730549082958078e+03
3.299413831939280044e+03
3.051060222320450521e+03
2.706937267045457702e+03
2.152496847419014102e+03
2.142208311902300920e+03
1.642150121555373971e+03
1.011804074731157357e+03
3.770789575100660613e+02
-5.178644386936859974e+02
-6.850467855974665099e+02
-2.851865150161636961e+02
6.352471230077844666e+02
1.277191324302144949e+03
1.501988210793536382e+03
2.249614100639823391e+03
3.143886594244135722e+03
3.250746639450207113e+03
3.472250440209301360e+03
3.660371730551031305e+03
3.831032917753262154e+03
4.054284189677636277e+03
3.371154008394753873e+03
2.139670995501975995e+03
3.078123940082379590e+02
-2.958490180667376080e+03
-6.771238605511534843e+03
-7.182433949635870704e+03
-6.676109321378220557e+03
-6.601307199592855795e+03
-7.361006911208349266e+03
-6.903234978973758189e+03
-1.360979440410319057e+03
7.048063340839979674e+02
-2.857813461711881246e+03
-4.938882230939451802e+03
-4.697312724001079914e+03
-3.885003265429730618e+03
-3.448001345386237972e+03
-3.382273996463695767e+03
-3.211817655261922482e+03
-6.036186736480417494e+02
9.943839137236271881e+02
-1.913780248048720068e+03
-3.146129902048848635e+03
-3.495587761006978781e+03
-4.253191134485753537e+03
-5.354001471930224398e+03
-6.404952569823915837e+03
-6.337018975998683345e+03
-6.120250020054155357e+03
-5.955625746538617022e+03
-5.349053638352116650e+03
-4.838476974451946262e+03
-3.995858800616553253e+03
-3.549157111127268763e+03
-1.038279621476653574e+03
-2.711734043660418934e+02
-2.735806485745895316e+03
-2.530129225980673709e+03
-2.105126873922296454e+03
-1.883741581511070990e+03
-1.869907484136578887e+03
-1.658249428475457776e+01
3.428239015847959763e+03
4.578614329312510563e+03
3.581560001596029906e+03
2.552102223445861000e+03
2.317273588926605498e+03
2.114087068211546466e+03
1.803509496807462938e+03
1.705570124819672628e+03
2.231361936469606917e+03
2.502955800935053503e+03
2.415378364719697856e+03
2.943711305152704881e+03
3.578013145140516826e+03
3.825325862887039420e+03
4.291698272108951642e+03
4.428183427646051314e+03
4.650803277606301890e+03
4.369585562019197823e+03
4.006635372683552305e+03
4.043989444662877304e+03
3.681703314035556559e+03
3.265736653587532146e+03
2.699152658815639825e+03
1.766886674308560032e+03
8.780279974274046708e+02
7.376439120619446044e+01
-1.725629732436074448e+02
9.585718876003090827e+01
8.280799823936309849e+02
1.362111222308258448e+03
1.641000751800264197e+03
1.923794504115397103e+03
2.238631500016064365e+03
2.337604328551532490e+03
2.107451518025051882e+03
2.486332834292478310e+03
2.749307502804810611e+03
2.883358121155136814e+03
3.091619352928757053e+03
2.728153722980976909e+03
2.356373446423039695e+03
1.883644614826791440e+03
6.681983114234946015e+02
3.148538020717422796e+02
-3.393662417677463736e+02
-6.584672131064147607e+02
-1.265458331919406646e+03
-1.345363210375328208e+03
-5.851689880956022307e+02
-3.388812564054546073e+01
4.001751734975794648e+02
7.670656319308441198e+02
1.209195154801675699e+03
1.599402694800280642e+03
1.663556445638372679e+03
1.797587822245679035e+03
2.086498808666643072e+03
2.014262112568610519e+03
2.194986893914116081e+03
1.909573357349415573e+03
1.706003280774285031e+03
8.342731811730371874e+02
1.973752798856579886e+02
-1.437005784869438685e+02
-9.890536684229102775e+02
-1.629697892516022875e+03
-1.925641073644423614e+03
-2.021952151157831395e+03
-1.479664665854017585e+03
-1.042721584445834651e+03
-4.321132470755973713e+02
2.041252389626401111e+02
2.690778019476089753e+02
5.227111222090194360e+02
1.207961880926190815e+03
1.727851224366894257e+03
2.008382932684276739e+03
1.935509255119588261e+03
1.924247460671140288e+03
1.913565670224724272e+03
1.560467040866818024e+03
1.056887566802967967e+03
6.979485932636889345e+01
-7.788470935574463283e+02
-1.087124755135676196e+03
-1.484047905929574426e+03
-1.587715490551282528e+03
-2.337125128833031795e+03
-4.602299959776776632e+03
-6.204265948668143210e+03
-7.767995585538905289e+03
-7.025542862965908171e+03
-6.889915949963812636e+03
-6.217094454098321876e+03
-5.725086178179338276e+03
-5.585858835665134393e+03
-5.287471719354376546e+03
-4.295010536044625951e+03
-4.444397106660178906e+03
-4.907642965235750125e+03
-5.430802732320598807e+03
-4.981928912522713290e+03
-5.380574923230657305e+02
3.027701935087924880e+02
-3.195265810351095297e+02
-2.479865447831787151e+02
-4.236196405598314527e+02
-2.285114656520741505e+02
1.073260619932251387e+02
4.418922583902923975e+02
9.642505366796484623e+02
1.568399895029899881e+03
1.793245095148906557e+03
2.260815159928841695e+03
2.333112719953896885e+03
2.646186866728233326e+03
3.201960153835506844e+03
3.217393815043506947e+03
3.153542948066987719e+03
2.563430534204329888e+03
2.397943328832878706e+03
1.929043651627097688e+03
1.150835928186988440e+03
7.532970390268014853e+02
-2.692972878296026717e+00
-4.751581716407462181e+02
-7.471013366068698360e+02
-9.535906461401697243e+02
-9.855780137906195932e+02
-1.050924262345460107e+02
6.359166447665941178e+02
1.148438966505567123e+03
1.355477946891665624e+03
1.665057695003584513e+03
1.964197235413609178e+03
2.059921222614270846e+03
2.331319633769696338e+03
2.515335511474862415e+03
2.489908777225156427e+03
2.216064283174597676e+03
2.142855205232980552e+03
1.958231099543009122e+03
1.134192307494969100e+03
-2.629286988808003400e+01
-3.072219921203537751e+02
-4.566331648310554669e+02
-6.765311871587515498e+02
-9.729255185683882701e+02
-9.027256534139638688e+02
-4.129239391497665110e+02
1.644651031163785433e+02
1.665019793634471341e+02
7.342089108090410718e+02
1.514475876181049898e+03
1.085663324150240896e+03
1.589902582487656900e+03
1.907943140911649152e+03
1.709814879269716357e+03
1.942497481071402945e+03
2.221027372027109323e+03
1.848435691695280866e+03
1.843742985657230520e+03
-2.780794001497737895e+02
-1.683938859679951292e+03
-1.523901606552279645e+03
-1.777988002235425483e+03
-4.522182129327889925e+03
-5.652524182104032661e+03
-2.737006654052430349e+03
-3.850588858428380263e+03
-2.162204208624451894e+03
-2.077857087785220756e+03
8.035162627470305097e+02
1.405001700186456901e+03
1.750628956798589115e+03
8.063890247944384555e+02
-5.077177407280094030e+02
1.856361760207566476e+03
-5.983558364554338596e+02
-2.218067793590472832e+02
-3.202015658955982872e+03
3.560032551780908534e+02
2.412438492272708572e+02
-2.633266288724840706e+03
-1.235515442436342028e+03
-3.713508183226168057e+03
-2.384251560778878684e+03
-3.979826750238682962e+03
-1.671167368077076389e+03
-3.115230606262115543e+03
2.201866345623588828e+01
-1.292365702864493642e+03
-5.033797622953927657e+02
1.156973323836971758e+03
-6.312435328024687351e+02
1.907006160967867800e+03
4.797485997416602004e+02
-4.889921394393500123e+02
5.377130253783518583e+02
2.607890600419633756e+03
-1.463460890861632379e+03
-2.953299619773259110e+03
-3.537604494776403499e+03
-1.308423965888769317e+03
-4.898012744267896892e+02
-2.598832878901338518e+03
-4.835068144482959269e+02
-5.417496581349988674e+02
-4.696330575104010450e+02
6.183867310721384314e+01
5.817214659343812855e+02
1.226030986367125024e+03
1.496782806544245659e+03
1.718990958056990166e+03
2.102672917925877755e+03
2.599879069612986314e+03
3.006615066186132481e+03
2.879947724277301404e+03
2.667022641164162906e+03
2.480946595007785618e+03
2.203458022465692466e+03
1.888464223243315701e+03
1.177967930721601306e+03
3.990320448126001907e+02
-5.492880771686027508e+00
-5.081877487740883907e+02
-7.530383126961816060e+02
-1.192274431483825538e+03
-1.146626347999892687e+03
-1.777102903798774491e+02
5.974776947803842404e+02
1.437913758530315135e+03
1.684633478928276645e+03
1.733748770421789231e+03
2.076204294948669485e+03
2.583652294930941025e+03
2.776570414260322650e+03
2.907722231698590349e+03
3.156286872536471947e+03
2.917061953945601090e+03
2.560913720337196992e+03
2.290964117024769166e+03
1.675150560158213693e+03
7.043095186896989617e+02
-2.952444923795921028e+01
-5.322636894434284613e+02
-5.932209158992467337e+02
-7.583686280301408260e+02
-6.117352819369560848e+02
-9.459607540922728219e+01
4.872609399150987883e+02
1.347245761007611463e+03
1.627801131050126514e+03
1.868102738227493546e+03
2.484112306579477263e+03
2.815967958190496120e+03
2.802486648788759794e+03
2.906318247151418745e+03
2.922560762034465370e+03
2.861309139437285921e+03
2.690765372042832041e+03
2.373675458763931147e+03
1.970971659014757051e+03
1.122605761791618534e+03
6.344870737669688197e+02
2.685796891147764995e+02
-5.125417754679117088e+00
-3.036407222820362222e+02
-1.899791217806663326e+02
4.518682651145759337e+02
1.059876249236939657e+03
1.362034248440153078e+03
1.821356028399671459e+03
1.681840388073542726e+03
2.049526309251231851e+03
2.156429512870182407e+03
2.591464181979859859e+03
2.630645271884317935e+03
2.503009693068348497e+03
6.695474032208868493e+02
-2.376737445426266277e+03
-5.389866358492560721e+03
-5.884811496968420215e+03
-7.117590620611483246e+03
-7.318316663279263594e+03
-7.813010510025055737e+03
-8.179699206320193298e+03
-8.360367984768683527e+03
-7.289999277868779245e+03
-4.948571877394896546e+03
-5.361238926729428385e+03
-5.154648652552752537e+03
-4.984828941616287921e+03
-4.842808327721730166e+03
-3.380597759606659110e+03
2.007925982920737624e+02
-1.652582944881303320e+03
-3.347736818002562359e+03
-3.209666670368937957e+03
-3.767316055365168268e+03
-3.861697077625894053e+03
-4.060787848208814466e+03
-4.369615243342185749e+03
-4.839141421908162556e+03
-5.119422514259193122e+03
-5.541487278630154833e+03
-5.883266117919316457e+03
-5.354807728063241484e+03
-1.041106064494314523e+03
1.515903432162472882e+03
2.482246888683967882e+03
2.657989365863067178e+03
3.287169660491484592e+03
3.259814231105097861e+03
3.855002364556404245e+03
4.345722373293639066e+03
4.365041830297337583e+03
4.299968363373028296e+03
4.286554475173027640e+03
4.167801946736391074e+03
3.832732826966801895e+03
3.335408830723179108e+03
3.050829576908691706e+03
2.231006416832219202e+03
1.378951115059991707e+03
7.796243540740242679e+02
4.680736259640409571e+02
-9.732005608173214029e+00
1.782062623088538658e+02
7.580098922282336389e+02
9.827430689744079473e+02
1.525400473644557906e+03
1.946005561472398313e+03
2.355645626135919429e+03
2.708409318087508836e+03
2.726267299215475759e+03
2.902253132413559342e+03
2.898390402376621296e+03
2.899744774069966297e+03
2.717407958101941404e+03
2.437370908318556758e+03
2.324635562235100679e+03
1.559245033945606110e+03
9.651856307270728621e+02
1.595564719537477458e+02
-3.844981147346226180e+02
-2.419913800444494711e+02
-7.299400304777989277e+02
-1.121482726690305071e+03
-8.525943576159927488e+02
-3.869825403963475310e+02
2.954504893164828445e+02
5.807734108790796199e+02
4.480677610386664469e+02
6.241329963073577574e+02
1.439100906407588354e+03
1.439039126016185264e+03
1.498004070986888564e+03
1.887872800169802986e+03
1.921367316039070829e+03
1.320936045137730616e+03
1.124517756010292260e+03
9.608656501663758718e+02
1.819688345806261225e+02
-6.022092547010145154e+02
-1.308672474276089815e+03
-1.419438475193868499e+03
-1.712514951268941104e+03
-1.761880786687353066e+03
-1.464505707554305900e+03
-1.078393001188956305e+03
-3.024836554839935729e+02
2.291263255254059605e-01
3.177342600858972901e+02
6.451269170123565573e+02
1.065414831497945670e+03
1.124608224329167570e+03
6.406589088865318899e+02
1.029568194810710793e+03
1.404401331758649121e+03
1.049141124126913155e+03
7.327959966271247367e+02
5.763325977106353548e+02
-3.922714952221226667e+02
-8.840083759441391749e+02
-1.438884323510047352e+03
-1.597005156645946499e+03
-1.945384784493277266e+03
-2.182020432826641354e+03
-1.957891419095666834e+03
-1.241975001894315255e+03
-7.483028049309187963e+02
5.515417566081469403e+01
8.094183509513712806e+02
9.734595794738364702e+02
1.302293626190973555e+03
1.761928505079758224e+03
1.765297985124108664e+03
1.689410415232348669e+03
1.383303637233553673e+03
1.045983867763423632e+03
4.663740156313694456e+02
-8.356077138665108350e+01
-1.108852838897207903e+03
-1.426491533336976545e+03
-1.956548691190570025e+03
-2.489070206815139500e+03
-2.974122441749113023e+03
-4.652682833045041662e+03
-7.282808206327007611e+03
-4.866500319719569234e+03
-8.706732395134819171e+02
-3.684088291166930276e+02
3.192847307148913956e+02
8.124270434511337271e+02
1.103003648613491123e+03
1.027005989196118662e+03
1.110382943409117843e+03
5.600924524325939728e+02
5.652571569629144506e+02
7.378315429346446308e+02
9.537125190103519117e+02
9.828968832804469002e+02
-2.047306159011853666e+01
-8.455430482710223714e+02
-1.298626807629502082e+03
-1.542466570558883177e+03
-1.867354250063087193e+03
-1.890203392344183840e+03
-1.386237503704602659e+03
-7.113473103816153298e+02
-8.154024504424359066e+01
3.753114167097277800e+02
8.182526771943935273e+02
1.022986437009944439e+03
1.475860797673218940e+03
1.692652545950268859e+03
1.882618773497519214e+03
1.860159542934206684e+03
1.703499515608242746e+03
1.393893800364309300e+03
1.153982048285747624e+03
9.250307040902260951e+02
-1.842811954676783728e+02
-6.897345302481368208e+02
-1.205678570761430137e+03
-1.664867894035417976e+03
-1.488689427752263555e+03
-1.440851940639877512e+03
-1.303510297124200179e+03
-9.247280231069560159e+02
-3.372518106811018583e+02
4.475605981981051400e+02
1.302036007460075552e+03
1.781160947469525354e+03
2.048792660776813136e+03
1.963776319243801254e+03
2.203571183346257840e+03
2.244004852050870795e+03
2.223013546071447308e+03
2.225354187463310609e+03
1.591100110976653241e+03
8.514431300007430536e+02
6.210391390167263808e+02
1.102138471899063532e+01
-4.246464868515853368e+02
-9.110015633176939218e+02
-1.116080848818584172e+03
-1.103872671819776997e+03
-8.083680970676306288e+02
8.496910335109268075e+00
7.767154377846546822e+02
1.033264550559345025e+03
1.320170683708806109e+03
1.575508168621975074e+03
1.978283281758930343e+03
2.142502337896914014e+03
2.317140385995662200e+03
2.452210027581443683e+03
2.784750259355416347e+03
2.668758423098578987e+03
9.892323580696998988e+02
-3.569814819354031897e+03
-4.583414515926916465e+03
-8.015377547006329451e+02
-2.300233738640432875e+03
-3.067563769652929750e+03
-4.356539207208302287e+03
-5.558155843744415506e+03
-5.005349309974431890e+03
-1.555063864070566751e+03
-2.404313118624882918e+03
-1.499076282862957214e+03
-2.170314956811394495e+03
7.570147612656364799e+02
1.336941639862972352e+03
-1.514938357498391213e+02
-1.343184544542989727e+02
5.334913053557083913e+02
-3.630268666456241249e+02
-5.838382338832179812e+02
1.494052014268085486e+03
7.664300748485587178e+01
-3.390745256756424055e+02
-1.137079696106859274e+03
-3.017411386848413258e+03
-3.458040494452759049e+03
-1.565997946359780826e+03
-4.234347411399400698e+03
-4.385961305967187400e+03
-4.920835790275077670e+03
-3.413965386651278550e+03
-1.391310013969791271e+03
-9.408351459683528901e+02
-5.084772609560458250e+02
-6.671803725922319472e+02
2.096071153136951580e+03
2.998245214951032722e+03
3.483342275480912122e+03
3.538399423770148587e+03
2.779473404961713186e+03
2.356554381636640301e+03
1.796608950905513211e+03
7.736628114132362271e+02
2.837521580528412528e+02
3.148325438683331754e+02
-1.081378204067580100e+02
-2.521657253303789048e+02
-3.382468435933412820e+02
-1.433536257144754984e+02
2.575905883815103721e+02
9.715866982412276229e+02
1.186706296340257495e+03
1.311907980950424189e+03
1.965241043533111679e+03
2.462736586360500496e+03
2.635559851438773421e+03
2.420864438384939149e+03
2.490615201396523844e+03
2.890599860159881700e+03
2.413837057247771099e+03
2.228441919946262260e+03
1.586568838752184320e+03
8.092330566673113026e+02
1.324321620066676530e+02
-3.449726051029027758e+02
-3.486166198076751698e+03
-2.864992177897881447e+03
-1.851407874112728678e+03
-1.104429106791813638e+03
-5.070317194591415841e+02
1.216674494909688491e+02
9.165004260618704848e+02
1.494871922944069865e+03
1.879988125059765935e+03
1.939430160212225246e+03
2.421137129382811963e+03
2.697264095063516379e+03
2.713808473860891809e+03
2.630764930548619759e+03
1.990161390863097267e+03
1.579946501159157151e+03
1.795157113181734530e+03
1.111745554746263906e+03
7.559211081852961911e+01
-4.115122467028268147e+02
-9.144390401946441216e+02
-1.252407063779564169e+03
-1.361452085999302426e+03
-1.234620086456581021e+03
-6.528608540643776905e+02
-1.402322024804465457e+02
5.912750019640697019e+02
1.291708517374307121e+03
1.663096971550296757e+03
1.829400668588205008e+03
2.179632025887217878e+03
2.403772108573141850e+03
2.315818628125436589e+03
2.238742718674374373e+03
2.094582776401530737e+03
1.733336735091098035e+03
1.588979841496594190e+03
8.864680098986775647e+02
-2.582166175148872753e+02
-9.491241627536188616e+02
-1.089304761602628332e+03
-1.172766834261316262e+03
-1.410586726992300555e+03
-1.056737158577878517e+03
-1.322034624806561851e+02
2.280313232341002276e+02
7.279901955676909893e+02
8.196468065843258728e+02
1.154034287960386337e+03
1.720162087400337896e+03
1.773052873877896218e+03
1.896681891156640404e+03
2.074971061827890480e+03
1.961977253964203328e+03
2.011683478547902951e+03
1.624128212601008272e+03
7.302822602804172902e+02
-1.475921070569112544e+03
-4.230425900275882668e+03
-8.388258705359950909e+03
-9.128488641499758160e+03
-9.070136102539740023e+03
-8.672265751405815536e+03
-7.064840351577649926e+03
-7.294759910420954839e+03
-7.172061017053218166e+03
-6.793790800258403578e+03
-5.991827820431489272e+03
-5.945158087540959059e+03
-4.932800883796566268e+03
-5.907367310638251183e+02
2.268048505711917187e+03
2.846510761757887394e+03
2.949639520697066018e+03
2.796497779447069661e+03
2.616074331901651021e+03
2.060410372450601244e+03
1.413443779334671945e+03
9.961894099781312661e+02
4.416379633277035168e+02
-8.823091560584697390e+01
-4.154192536169251753e+02
-5.339702932739576227e+02
-5.598728233592106562e+02
1.729264559150057323e+02
1.054447554860378432e+03
1.580687705966784051e+03
1.879694810339803553e+03
1.813573534457946607e+03
2.136293789260532776e+03
2.571865963478523554e+03
2.707355680411485991e+03
2.580742980606183210e+03
2.269025020934550867e+03
2.064265525144179719e+03
1.964452619102725976e+03
1.553635545813681802e+03
1.008778942003216343e+03
3.799132104265140129e+02
-2.599477788289676141e+02
-4.388211958031860718e+02
-9.307559197167039429e+02
-1.180716856859665995e+03
-7.707283429379817790e+02
-5.557737682422118723e+02
-8.776940445127098656e+01
4.963193110659901208e+02
6.584992085060372347e+02
1.043832453945880843e+03
1.450412136830352893e+03
1.636233614902779664e+03
1.803313780961451130e+03
1.878717084876488343e+03
1.659397306312171395e+03
1.673490427579998368e+03
1.333939758651973307e+03
1.103770575241660254e+03
4.089152844363936197e+02
-4.146362651147431961e+02
-1.270825915455340464e+03
-1.645267253681443663e+03
-1.884189086587106431e+03
-2.002732450494065233e+03
-2.045385728510802892e+03
-2.062508304212002713e+03
-1.467157978971551529e+03
-3.483524178536214322e+02
-6.301860734513989826e+01
4.089874702524541021e+02
4.447149155227071446e+02
4.871133701608629281e+02
1.026160466471406380e+03
1.594792864767145147e+03
1.534027998138725252e+03
9.970431623434029689e+02
1.017807408382054064e+03
9.203000908880457018e+02
2.034993802222180648e+02
-6.225787756434147013e+02
-9.469281604928340812e+02
-1.479591101066066358e+03
-2.083625376570833396e+03
-2.214018000964162184e+03
-2.143770283249251406e+03
-1.710812722917700739e+03
-1.216102644564643924e+03
-5.866675351872262354e+02
1.324959527130241383e+02
1.644430094506929834e+02
1.712196180767901978e+02
6.618319707076107079e+02
1.006294009211953494e+03
1.116585690909736286e+03
1.061670795798004519e+03
1.163630758887913089e+03
1.060444293302881078e+03
6.850989903421329927e+02
3.005831956987957483e+02
-4.611591464843079393e+02
-1.145140336799674742e+03
-1.360362890794290934e+03
-1.659866464283687264e+03
-2.041688548599818205e+03
-1.907876932087714522e+03
-1.585444522210581454e+03
-7.893622993252972719e+02
-2.006424142864944997e+02
1.487771849548572334e+02
3.468788668958313792e+02
5.636726441734432456e+02
9.061256039610369726e+02
1.427210955727450028e+03
1.514952265926256587e+03
1.530342880266993461e+03
1.445343103487713961e+03
1.042972404657282368e+03
6.681784726871079556e+02
-1.640857433074514802e+02
-7.208671800321209275e+02
-1.593188306887590215e+03
-1.771115654858142761e+03
-1.851740069533423366e+03
-2.072034852132853302e+03
-1.991071978373096727e+03
-1.425839933271819518e+03
-8.233213747277200127e+02
-5.455326247523188954e+01
3.184814931093048358e+02
7.697428112574157240e+02
1.232218617267368927e+03
1.396894824217984024e+03
1.735686456772016300e+03
2.023509303226561542e+03
2.016935838578815265e+03
2.002856988990450418e+03
1.639679329180698687e+03
1.350555023321893714e+03
7.046723250505099259e+02
8.288621052834155023e+01
-4.747012220937513121e+02
-7.552894067851980253e+02
-1.133064025883141085e+03
-1.217024972316058665e+03
-1.243430972892917907e+03
-8.857860312924753998e+02
-4.047459641058963342e+01
8.613241804925685301e+02
1.178775516777827761e+03
1.711249375516594000e+03
2.199191614859465972e+03
2.473911034646793269e+03
2.549434250207770674e+03
2.497336567179693247e+03
2.501837715242323611e+03
2.448932550851350697e+03
1.944512701005787903e+03
2.025702392247993885e+03
1.689529783277793285e+03
6.114377440536214863e+02
3.539168612388105544e+02
-1.471908279139742888e+02
-4.170993860775257644e+02
-6.246948420996000095e+02
-1.003410271521884056e+03
-6.771603166769587006e+02
2.304622041438755389e+02
1.294281287361433670e+03
1.800184960779942230e+03
1.988081043106765719e+03
2.346976071355984459e+03
2.734895946101784830e+03
3.102853240520332292e+03
2.905780999103845261e+03
2.852669607756518872e+03
3.025559347435942527e+03
2.868415194478658577e+03
2.600157034318107435e+03
2.131803149678613863e+03
1.198317643924280901e+03
5.086784088695268906e+02
-7.615872366613675126e+01
-3.852196902283366171e+02
-1.315875764124308773e+02
-1.232292581614325258e+02
6.988810368417230734e+01
4.207560296532810753e+02
9.203921023286272884e+02
1.591817422339625409e+03
9.820708018607094800e+02
-6.458081441912387390e+02
-3.655853733170081341e+03
-4.956996122093710255e+03
-4.858325191819987594e+03
-4.519789669771231274e+03
-3.997361229337872373e+03
-3.794035050724225584e+03
-4.280734454431296399e+03
-5.479259261816217077e+03
-5.730093468894657235e+03
-6.271874495436694815e+03
-6.594780265632272858e+03
-6.966817654315805157e+03
-6.720990413797811925e+03
-6.399322677347507124e+03
-3.255789140096332630e+03
-3.421345873138797742e+03
-5.326910109518632453e+03
-4.999473273709329987e+03
-4.683977615957805938e+03
-4.449381953513626286e+03
-3.912652416777718827e+03
-3.732718124025599536e+03
-3.070602665816565604e+03
-2.769319948553899849e+03
-2.938765680643038195e+03
-9.758892667693498879e+02
2.688294830240901774e+03
3.112808643165819831e+03
2.582693663097356875e+03
2.033942298917051630e+03
1.570566213107229714e+03
1.082550786050147281e+03
7.899109878612559896e+02
8.096066914317352712e+02
1.315714542934511655e+03
1.600349189178487450e+03
2.183561494091636632e+03
2.520363551824371370e+03
2.792824699924789456e+03
3.033023868054226114e+03
3.321995557888571511e+03
3.575801327043408946e+03
3.817450419118883929e+03
3.884909254177898219e+03
3.611292043511275551e+03
3.448682482884111323e+03
3.271110620778244993e+03
2.828570991133506595e+03
1.793058195549465836e+03
1.027633924420883886e+03
5.212899307535128628e+02
3.119541983612162426e+02
1.907186666395826080e+02
-1.242875775486818490e+01
1.596162984042821051e+02
6.528987482306503125e+02
1.515423768865062584e+03
2.215259518379019482e+03
2.229445377623218064e+03
2.327062055936352408e+03
2.314165915663328178e+03
2.530678352169771188e+03
2.596598090703926118e+03
2.541951547476842734e+03
2.631188826111212620e+03
2.439513903394869430e+03
2.007141804913263513e+03
1.565803652445611988e+03
5.254449924025281007e+02
-5.429208648044391339e+02
-8.854208649263857751e+02
-1.496909721084828334e+03
-2.106400385089951669e+03
-1.934846904527634479e+03
-1.454292828790969224e+03
-6.966760413953904845e+02
1.960582792443702260e+02
7.118059689022001066e+02
1.032330037091017857e+03
1.229748993608613318e+03
1.515061986275092522e+03
1.421293412448608478e+03
1.713447979595875722e+03
1.674516128780353483e+03
1.503506224783826383e+03
1.293394756360546126e+03
1.066259574426471090e+03
8.440965667080652111e+02
4.218826283815126317e+02
-4.804218125666508854e+02
-9.118089785674243331e+02
