3.576448861686995315e+03
3.394293177680318877e+03
3.476819799260768832e+03
3.721083854314575092e+03
3.868114853017955738e+03
3.589972066408919090e+03
3.600665175118651860e+03
3.403245935029112388e+03
3.507790022029742431e+03
3.549277435847100151e+03
3.193782124832866430e+03
2.932363734939021469e+03
2.738947157860110565e+03
2.579581771508422207e+03
2.494327221806785928e+03
2.577228920333985570e+03
2.446285496892752235e+03
2.122485834507884647e+03
2.059872939382473760e+03
2.273565108308859635e+03
2.465031922593520903e+03
2.365246640866248072e+03
2.668192534996579980e+03
2.840854897043899655e+03
2.636953704696945351e+03
2.499777896379777303e+03
2.404087818916794276e+03
1.160902180393247136e+03
1.617188069372002019e+03
1.605956891161453541e+03
1.146632904176933152e+03
-4.359222107574597658e+02
-2.501052204502370387e+03
-3.889841766247712371e+02
9.834432106105834919e+02
1.049948554792631512e+03
1.138940289117482962e+03
1.146273781487026099e+03
1.080615758677338363e+03
1.161913303251893694e+03
1.310134379803699858e+03
1.398986165188785890e+03
1.493831560474261778e+03
1.335702321726841319e+03
1.451602447901257847e+03
1.369243253036873966e+03
1.638756691072990179e+03
1.627989165308604015e+03
1.417976357555214008e+03
1.012537360297110354e+03
7.707195589740891819e+02
4.364976008378405936e+02
6.468555799207346126e+02
7.617948462253025355e+02
5.492956877194166054e+02
4.483580490033085653e+02
4.309617737772110786e+02
5.630850729795479310e+02
5.717388617142435123e+02
1.095905573376993971e+03
1.211576050272434941e+03
1.235751508693221467e+03
9.994479308600854210e+02
9.586534094473818186e+02
1.428354074361969879e+03
1.358498383634222819e+03
1.321060252459397134e+03
1.091070179195040055e+03
8.244924978801535644e+02
8.943119508963127373e+02
6.765211649678003596e+02
3.821349406954093411e+02
3.521060611037717649e+02
2.003902145621665341e+02
-2.640285333825619318e+02
-1.211455601220553007e+02
-6.996139636014787300e+01
-2.955224765829723665e+01
4.520462952131022689e+02
5.118928628104192171e+02
1.169470857357472511e+02
4.861979968443257576e+02
6.026290716250495052e+02
8.119842407654905969e+01
-1.996112912247724807e+03
-5.643278635082713663e+03
-8.693319085062390513e+03
-8.954265751299037220e+03
-8.246132210593268610e+03
-8.328890788994674949e+03
-7.995719158251383305e+03
-4.142550497990985605e+03
-5.674379740105544442e+03
-8.350228907240436456e+03
-8.168045497697112296e+03
-8.055966497079513829e+03
-7.303839429408942124e+03
-2.530807254253886640e+03
-7.049212210466431543e+02
6.669171253966940185e+02
1.160618844812739326e+03
1.509208510349421658e+03
1.692665387573786120e+03
1.454974772714090477e+03
1.807152478085827852e+03
1.854141184205574518e+03
1.684953869846508951e+03
1.705587012935683106e+03
1.635014286587836978e+03
1.228245539490048486e+03
9.842248725355200349e+02
7.499636749251468473e+02
7.354804903297163037e+02
5.848073054726937698e+02
6.808995486373818267e+02
1.080733746318923750e+03
9.582886966724826152e+02
7.035856847781689112e+02
5.986605918504153578e+02
3.965165559753697835e+02
8.220687438060076602e+02
1.299382079171357873e+03
1.219506644584884953e+03
1.170404797520663806e+03
1.041084174510897583e+03
1.092571875568635051e+03
1.304812039065581303e+03
1.349816063940689446e+03
7.986293586580825377e+02
5.772666862036721795e+02
5.127206355974610688e+02
5.120254842484690698e+02
3.221860751384436981e+02
1.751772392872754835e+02
5.299923245190249332e+01
4.286720579249360412e+02
6.422036439371319148e+02
8.596416254421776557e+02
7.179685918574832613e+02
7.442175219353512148e+02
6.174156549290979683e+02
-4.404238052135079897e+02
-2.977279045115335975e+03
-4.211903765274038847e+01
8.180748252188079732e+02
1.086295030460251837e+03
2.795616163506047656e+02
-1.950498859265072440e+02
6.504970446475928156e+02
5.440578118636366298e+02
4.898021458322601802e+02
4.406872059312350416e+02
-1.427921655837005943e+01
-3.330991626204483396e+02
-3.087291481507564299e+02
-1.400162986710114637e+03
-1.285430966675912714e+03
-1.863676777721721578e+02
-9.068750126240709051e+02
-2.432087935574432720e+02
2.457357355812602862e+02
2.509629532558180927e+02
1.844805812708818848e+02
1.673884890278903015e+02
2.496943136782811337e+02
3.874003575173200034e+02
5.395177600184790663e+02
4.480760048500035282e+02
4.390804643857001111e+02
9.856803763855612033e+01
1.185072025261210342e+02
-1.250770846144352930e+02
-1.691659883289849233e+02
-3.368023663076293133e+02
-7.479547214066070637e+02
-7.255589422349776214e+02
-3.215849254370154995e+02
-5.600888546409671562e+02
-4.840646229490408246e+02
-1.044911709787726011e+02
3.316397762980278117e+02
4.633905810061797297e+02
2.657693159524205839e+02
2.347809839976596038e+02
2.394224815359343381e+02
1.016998818944880867e+02
2.026141829547581494e+02
2.521805199650800375e+02
2.273807671732203346e+02
-6.076894266303814618e+01
-4.962725306864708728e+02
-6.231290207656895745e+02
-4.914064019723647334e+02
-4.660758889601022474e+02
-4.641118140104589429e+02
-5.005458090283440242e+02
-2.753938723734180485e+02
-4.176462425632036002e+02
-2.762977870292327225e+02
1.356297022492673818e+02
2.851370979924732296e+02
5.121280025477203424e+01
2.918800543927844160e+02
5.881099868977447613e+02
5.098791358339534554e+02
5.091773186685321662e+02
5.960177880349801853e+02
7.443534589704365771e+02
5.151946914195744966e+02
2.165936317298660470e+02
7.347334373560242682e+01
6.281418522557586215e+01
-1.252573546357394605e+02
-3.237070835060244463e+02
-1.743993761600214896e+02
-1.124658527131346943e+02
1.599196407727904727e+02
3.117736602467766147e+02
3.339370881934157183e+02
6.953267510255096795e+02
-3.408266445070775035e+02
-2.149594555120717132e+02
3.807843852765694805e+02
7.715841459882014988e+02
1.026413855367037741e+03
1.118448530113880906e+03
1.017858417053202629e+03
9.657801301440773614e+02
7.435298939024384026e+02
3.891659591577464425e+02
4.909879414705340537e+02
3.820090986123022958e+02
1.147047131335528718e+02
1.096636850532069758e+02
1.317293279758458766e+02
2.253220221158672700e+02
3.032199237002632231e+02
6.692420013974176527e+02
9.253771111458539735e+02
7.984515395238385054e+02
7.844187217532885370e+02
9.292660840524877131e+02
8.499450691510920706e+02
8.824048697773679351e+02
1.040718482069779611e+03
1.131798962486177516e+03
1.362578905647762213e+03
1.276168798702390177e+03
1.125665064883057994e+03
1.056693908170657323e+03
1.159943424670131208e+03
1.127107682481792608e+03
1.317422120481045567e+03
1.085729527105297393e+03
6.551123760769982027e+02
5.893614007080134343e+02
1.031704700803587912e+03
1.420132771785350769e+03
1.476594786615604789e+03
1.589021550985357862e+03
1.487372336174365273e+03
1.626620319036179353e+03
1.525767637144818309e+03
1.669765609010844855e+03
1.820673712626736688e+03
1.674420540821537088e+03
1.613971299109789697e+03
2.072376919421571074e+03
1.629608757580430847e+03
1.354661019772750933e+03
1.496475855585783847e+03
1.527068442090950384e+03
1.201416678896283429e+03
4.215434726457792181e+02
-1.828554142652973951e+03
-5.571908835377448668e+03
-7.306512192383032925e+03
-7.526407866688335162e+03
-7.367526269952350049e+03
-7.227891656558406794e+03
-5.171538733693292670e+03
8.825850019187013231e+02
1.876488544035234327e+03
2.116143818321321760e+03
1.886668200191262031e+03
-2.863121335625781285e+03
-6.144978413043562796e+03
-6.619995017702442965e+03
-6.637097148947205824e+03
-6.211189709137783211e+03
-1.459496660825733443e+03
2.321976772758049265e+03
-2.136637995988454009e+02
-6.356438533050909427e+03
-6.589346047072517649e+03
-6.112347890139434639e+03
-2.708425325116993918e+03
-3.988541860562959300e+03
-6.663675217944039105e+03
-6.516816744430532708e+03
-6.030917910906684483e+03
-5.281001158560288786e+03
-1.005004326800364538e+03
1.167064333400845271e+03
3.042262361320916625e+03
2.546634810543874210e+03
2.934246908936591808e+03
2.842115218124872172e+03
2.743299653046649837e+03
2.766753403847993468e+03
2.557493391613873882e+03
2.544612626590770560e+03
2.454139409465077279e+03
2.205038022592835659e+03
1.899358497307925290e+03
1.944183661608431748e+03
1.864484965396960661e+03
1.821354266830113374e+03
2.157815498734403263e+03
2.390917038254222462e+03
2.538687823385448610e+03
2.483130973119463306e+03
2.082341025223383440e+03
2.105325923287222849e+03
2.211158367153234394e+03
2.001913779320263984e+03
1.694605992326507703e+03
1.719270492352398151e+03
1.789980753923072825e+03
1.601734666553771376e+03
1.241583146038239875e+03
1.173590957811530416e+03
1.364761595968201391e+03
8.751179714400442435e+02
6.126832398119950085e+02
8.364682668252658004e+02
7.255569062628212578e+02
9.140323513723828910e+02
1.021880622541259299e+03
1.057121415449636515e+03
9.908679696284508509e+02
1.047205741022538405e+03
1.076294876895850848e+03
1.321160576525446686e+03
1.236002649130844247e+03
1.201877691256703429e+03
1.012776319690939545e+03
9.567499827886957746e+02
8.085049958877538074e+02
4.723878042353915703e+02
-2.892869724677969430e+02
-1.229431937393523640e+03
1.294181735872470256e+02
-5.981577498829159367e+02
-6.598868107662011653e+02
-1.942651308739474914e+01
-3.870681605399637419e+02
-2.227295243516703920e+02
-1.364680498531193393e+02
-1.277254545380825945e+00
1.088927372801927191e+02
1.540216386366064398e+02
2.441472019175621426e+02
3.473158717919811806e+02
4.135175856523486573e+02
4.297825206427959301e+02
1.401573851957192005e+02
2.162472905253426347e+01
-7.278498833500268006e+01
1.178862006850492889e+02
-5.932272318397691180e+01
-1.384072819034309134e+02
-3.584092618652147166e+02
-5.413011970300087796e+02
-4.990372261724967871e+02
-3.466211976061371729e+02
-7.980569409534537044e+02
-7.633667689372322229e+02
-7.605722064560604849e+02
-4.496365128075944995e+02
-3.255929526893410753e+02
5.357039487380133380e+01
-1.501325871234130318e+02
-2.947385317586898168e+02
2.276136065248003959e+01
-8.457531725564071223e+01
-3.457881431907197225e+02
-3.549002465978766168e+02
-2.339355162522478793e+02
-3.449205961179040969e+02
-5.538764399628796582e+02
-7.197891807271706739e+02
-8.757248203373670776e+02
-9.916950149645058445e+02
-1.206704746273293949e+03
-1.066769517432863040e+03
-1.100919320117068992e+03
-1.176127434543769596e+03
-1.040350418533154198e+03
-7.224901692026887758e+02
-5.368805879483267063e+02
-3.684579938595489352e+02
-2.432300036649752712e+02
-4.031351526628286024e+02
-1.234234861434028062e+03
-1.620673393639289543e+03
-4.843918477247312353e+02
-1.894166369592557828e+02
-3.077770945357787014e+02
-2.314654600222461340e+02
-3.805197198853044824e+02
-7.089714161719846288e+02
-1.745840855338837855e+03
-2.224378015481568127e+03
-6.213839325717090105e+02
-6.477710461105647255e+02
-3.588547853846720272e+02
-1.344986872854555031e+02
-3.238648582903239799e+02
-2.156131224573284442e+02
-1.098392719521518224e+01
1.709812213484820518e+02
1.364057032964315397e+02
3.051141436829305462e+02
5.499894759909298045e+02
1.037006184590524981e+03
9.171585825896696633e+02
6.223786670592492101e+02
7.026649067356336218e+02
4.859552754070186893e+02
-6.280231530050053834e+01
1.939239825231096148e+01
6.394827813587081664e+02
6.053983138304470231e+02
5.741781927366017726e+02
3.667666372644403054e+02
-5.989682769675027174e+01
-1.038443591763859075e+02
9.381384108353026363e+01
3.020406550732604956e+02
4.991904141032720759e+02
6.689994824340395780e+02
9.444513190883154721e+02
9.785043448019473544e+02
9.991367266215886502e+02
1.293091099635120372e+03
1.295796381568524339e+03
1.379092817948480160e+03
1.076873474617430247e+03
8.700909816158285821e+02
6.857181105917081823e+02
9.027517497318766573e+02
7.701467226044317158e+02
7.268981474476507856e+02
7.098367692071230977e+02
6.181691997990725440e+02
7.019258148213659751e+02
7.859551920028709446e+02
9.772834984841073265e+02
9.218450142070385027e+02
9.656486775199540489e+02
8.976841007899914757e+02
1.115957571118983878e+03
8.774237616401131845e+02
7.590922075735904855e+02
1.068988364226143631e+03
1.232984969858498516e+03
1.368026742892614038e+03
1.445376939295820421e+03
1.060191190257452035e+03
8.882362085445060984e+02
1.132436063212712270e+03
1.011790096809780380e+03
1.045276618335044986e+03
9.228950930834737392e+02
5.076288412720961105e+02
-9.251643932745227517e+01
-1.174137560080754810e+02
7.228550903597077877e+02
2.142500005720850709e+02
-9.282382992842084377e+02
3.633530151487788089e+02
1.202200896454177837e+03
9.362977393316565440e+02
-3.923414950250200945e+03
-6.451914058788068360e+03
-7.041847995320797509e+02
1.346768873546289797e+03
1.691961061064060004e+03
2.185405988339202850e+03
1.628112036612636302e+03
-2.694914641829992888e+03
-7.550673098835946803e+03
-7.520166741565119082e+03
-7.462390534218093308e+03
-7.424312304957003107e+03
-7.600924853231384986e+03
-7.367200156881762268e+03
-7.373115467259684010e+03
-7.392636246873475102e+03
-6.477747381876615691e+03
-6.213434647066508660e+03
-6.188668618026046715e+03
-4.210457099285827098e+03
4.122287140695165704e+02
1.902439506400374057e+03
2.823209492163814048e+03
2.742508247771425886e+03
2.565374694154798362e+03
2.370816819662051330e+03
1.883870032839356554e+03
-1.574280266194870990e+02
6.089504543201176148e+02
1.222987643649900747e+03
1.600654372383597320e+03
1.706991799210829186e+03
1.814019386221795457e+03
1.823804551284080389e+03
1.662371083911606547e+03
1.310728747844061900e+03
1.736907050913598823e+03
1.826941752951467834e+03
1.620847624583635024e+03
1.826657080915616461e+03
1.896341132417574727e+03
2.108005109203335451e+03
1.694661941661132232e+03
1.592267986147152669e+03
1.469870278084619713e+03
1.522533186514562203e+03
1.365288503746928200e+03
1.010318330933656171e+03
1.085826693948816001e+03
6.245857109892559720e+02
7.615397808893415004e+02
1.086864029557774302e+03
9.116064381908270207e+02
9.946046435334947091e+02
1.215523219526641014e+03
1.038536581064253596e+03
9.426955922725346682e+02
-1.491142010377006386e+02
1.492448558727806130e+03
1.557715282266323584e+03
9.976215693401051112e+02
4.191475929811953733e+02
1.010250550915682425e+03
1.201577162017299315e+03
1.524056570501877331e+03
1.472263374955619156e+03
1.104510654018462446e+03
8.394276455573493649e+02
6.619708182050381993e+02
7.838982411363319898e+02
9.256933429505164668e+02
9.422211633383592471e+02
1.034234411802371142e+03
7.685885170687840855e+02
7.417304517628073199e+02
6.238236004061043332e+02
6.291512083744084975e+02
6.170874215433757399e+02
8.147324143869370801e+02
9.647459009408818247e+02
1.403049172573142414e+03
1.431615787261230025e+03
1.189423243592065774e+03
1.377482946013486298e+03
1.632793951074705319e+03
1.016356535911617470e+03
6.321699767820960005e+02
7.142186456569555730e+02
5.404802843127683900e+02
7.579406936573975599e+02
7.606194762107641054e+02
5.904585198141512592e+02
4.164708110671470536e+02
3.186495401552372755e+02
4.529949921413751781e+02
1.845102221624737524e+02
6.217267198333951939e+01
3.139808444037226423e+02
6.179536562505871871e+02
6.000868842528375353e+02
9.143504723054675196e+02
9.667259612663220878e+02
1.042241842887562825e+03
1.069863913002930985e+03
1.236565179925333496e+03
1.148350279391606136e+03
8.102527303486048140e+02
5.502076791339180772e+02
4.811798532610747543e+02
4.831824918587880688e+02
5.961573305672505967e+02
2.631266949091265701e+02
1.590818525513918189e+02
-1.440999268644782433e+03
-4.366124751883869976e+03
-8.658303609809117916e+03
-9.097544652294371190e+03
-8.144852381956415229e+03
-8.339196339617990816e+03
-7.779601442067241805e+03
-7.163175363385556011e+03
-7.531756525968955430e+03
-5.741376773222182237e+03
4.229679641075901486e+02
1.793185922691350243e+02
-5.824565787482066298e+03
-4.478546118874043714e+03
-3.866578843594580235e+02
2.700364504999809583e+02
1.303571897087141906e+03
1.462886892803384171e+03
1.371976368433630341e+03
1.225855915820290420e+03
1.172521208845891806e+03
1.124959199953290863e+03
1.251163532942836582e+03
1.247134288076411167e+03
1.376859295705303111e+03
1.596363539029816820e+03
1.550667761150412389e+03
1.737740017617100648e+03
1.449580652261867954e+03
1.360174108088593357e+03
1.493536479825064589e+03
1.397658232065157108e+03
1.057554518055858807e+03
1.036220810819287180e+03
1.039626416227930576e+03
8.167687588504563792e+02
9.577100839068906453e+02
1.039411367186378811e+03
1.142865903672818831e+03
8.510577647960591321e+02
5.930051445580454583e+02
7.396745425186556986e+02
7.111119626731801873e+02
7.633385152357765264e+02
1.050331397692306837e+03
1.251105472832653277e+03
1.477702832016811726e+03
1.671113463517228183e+03
1.486365877274211016e+03
1.152476465008008063e+03
1.143446479277362187e+03
1.013296211072842084e+03
8.320209438030827869e+02
8.606428980630606702e+02
5.461985160664476098e+02
1.586356798979799976e+02
1.589771677196293638e+02
-1.347433488806507853e+02
-9.815670693077179294e+02
-3.146175975406229668e+02
4.213122508074737027e+01
2.448629927784851361e+02
4.710290114707187286e+02
4.302822254613980135e+02
2.156266807590732810e+02
2.269227765490689137e+02
2.960668024882039049e+02
3.615229523780514569e+02
4.461469098679400531e+02
4.718470167675708922e+02
8.376076803714182688e+02
2.354080281059653856e+01
-3.041457600117782931e+03
-2.323077199529495829e+03
-1.677501271721604326e+03
-3.465710993366003095e+03
-3.351926838349260834e+03
-5.642894768500401369e+03
-3.242543644083193158e+03
-3.177095819186812605e+03
-3.122388025015440235e+03
-6.592451202129926742e+02
4.973590815746146063e+02
4.902827736639236491e+02
6.744662012908944462e+02
8.878959605758240059e+02
1.019664283671612907e+03
1.325772085437845817e+03
1.487190903911986425e+03
1.244981026082958124e+03
1.054160108658812305e+03
8.927092496325202546e+02
6.216112625612724969e+02
6.048960303031377634e+02
5.595649682141694257e+02
4.816411795760144514e+02
5.411593806169962591e+02
-8.429134491926811279e+02
-3.172560203557946352e+03
-4.047807493710947142e+02
-2.606046477805841164e+02
-1.019982323796638042e+02
1.510182410616970401e+02
5.064790047475769370e+02
-2.553598699458686042e+03
-1.902492233115876559e+02
5.975323507787429662e+02
6.627701085247803121e+02
6.884938238069843237e+02
5.516896412028937675e+02
6.233815637621114547e+02
3.045541841090094408e+02
4.391747096733401463e+02
-2.028766906972701236e+03
-1.609224244188565081e+03
2.279688432266721421e+01
-7.676730988073592243e+01
-5.391752172861990999e+01
-2.436355555628388174e+02
-2.191937590271161085e+01
-1.087860001141209665e+02
1.107647673440238094e+02
-1.127772705115056340e+01
2.121044709255198200e+02
5.549065417245302569e+02
-9.359091225858925327e+02
-3.503364544805934202e+03
-2.764458511979126797e+03
3.217923558881869326e+02
8.773967444606286108e+02
9.223443059209971580e+02
9.415976044295279053e+02
9.631902694444785311e+02
9.180855515393302539e+02
4.821694975167584403e+02
4.233302152487842136e+02
4.769264835255761454e+02
4.889304609402403230e+02
5.033948937039150451e+02
2.231525226860645432e+02
-8.468480573256581465e+02
1.299700322708584110e+02
9.459603446096074322e+02
1.048243509832951531e+03
1.150359404447759516e+03
1.116965931402189199e+03
1.346289734848976877e+03
1.445512085444006061e+03
1.372541690291068562e+03
1.479695345816006238e+03
1.552966835419545305e+03
1.562561266946955357e+03
1.322534703705610355e+03
1.260460395002562109e+03
1.389512200364196815e+03
9.978442565002744686e+02
7.550692239184444361e+02
7.134595096733006585e+02
6.488610738158431559e+02
6.288865410568456582e+02
6.996156233314080737e+02
8.946100397476526496e+02
9.436277565855842795e+02
7.840531509178706528e+02
9.048929150298587274e+02
1.316211014082584597e+03
1.291104015398740557e+03
1.371641278584336305e+03
1.555859533488371881e+03
1.505392731726098418e+03
1.343633868224875187e+03
1.566652828656206793e+03
1.913116935096427142e+03
1.671971314868645550e+03
1.322198607053633168e+03
9.097795055982585382e+02
7.876892848833717835e+02
9.259213775991544253e+02
6.424773685144862156e+02
6.613806839908628490e+02
9.325447775772172463e+02
8.299616893528219634e+02
9.136619563974315952e+02
9.245748461207738274e+02
1.138699616703057472e+03
1.376059856424960117e+03
1.188721114800459418e+03
1.232626291184189085e+03
1.486741131359360452e+03
1.305076663294777518e+03
1.331654605892661266e+03
1.502426804885231832e+03
-3.935956840746928833e+02
-2.454369539894211812e+03
-2.331971007951950924e+03
-1.641442677263213909e+03
-7.957399125486776938e+02
9.841305198157406267e+02
9.201734109162803179e+02
6.894170609561865604e+02
-2.068243207324668674e+03
-6.802597586774805677e+03
-7.818761560120929971e+03
-7.629697162096692409e+03
-7.396409882092960288e+03
-7.310873742342691003e+03
-6.813149376627006859e+03
-7.201180152135588287e+03
-6.463989213877964175e+03
-6.491550286873920413e+03
-6.281829602316534874e+03
-5.870803394772940919e+03
-5.018472020754373261e+03
-1.872844281443299678e+03
-1.999930277791564549e+03
-2.953719166780831074e+03
-5.838173918422763563e+03
-2.472244626291644636e+03
-5.627955629650004084e+03
-6.997283756118217752e+03
-2.988192569906773315e+03
1.205315160554531303e+03
2.674263482725824360e+03
2.977645769286800260e+03
3.017475711525660699e+03
2.946775783391595724e+03
2.815616178639437749e+03
2.919014179054198848e+03
3.056960084691932025e+03
3.104527605791559381e+03
2.906768936655788821e+03
2.811646000488885875e+03
2.462204411289216296e+03
2.458441965537095257e+03
2.217398306857358421e+03
2.208101865061971239e+03
2.202591519571486515e+03
2.130865379522535932e+03
1.770943260425768358e+03
1.557865820019847206e+03
1.535687121923601353e+03
1.574382292606067267e+03
1.542006968112516006e+03
1.570568232842653288e+03
1.582059488121168670e+03
1.886546511737317815e+03
1.684059892501164995e+03
1.483636122560420745e+03
1.802268367999604379e+03
2.082000001804499789e+03
1.835872177839603410e+03
1.750917743117011014e+03
1.671165180279859214e+03
1.262526358809296426e+03
1.210977262596189576e+03
1.148550686818816075e+03
8.125222436307799398e+02
5.851569793097268075e+02
3.236314935342643366e+02
3.251395375518684432e+02
8.242849812809473065e+01
4.324238306577321964e+02
4.812288073485092923e+02
-7.642336360985329975e+02
3.106652421986881407e+01
4.702504630093897049e+02
6.124043830989799062e+02
1.108999902708638501e+03
1.072908595710195186e+03
9.436365400462378830e+02
1.057242196931653098e+03
1.333614891592556205e+03
1.242680887949226189e+03
9.372349751718675179e+02
5.463259481198666663e+02
4.820163042687688062e+02
4.582830281755050237e+02
2.901186188980059342e+02
1.475308981247741258e+02
9.651769909686767335e+01
-8.691800681270552786e+01
7.024060468539111923e+01
2.530022356490495952e+02
2.123942333646346015e+02
2.123944585557179039e+02
3.700029160430404431e+02
4.292778770193056062e+02
4.691741635428949166e+02
5.607006009134308897e+02
6.108834898142267775e+02
4.687202927024954988e+02
4.012272129751941634e+02
4.843937037640203584e+02
4.951684026554522688e+02
3.545666209220540281e+02
3.035916436018597437e+02
3.122366307953972182e+02
1.414669725721654174e+02
-1.127143513458463957e+02
-1.943225404243359264e+02
-1.663664159193274372e+02
-4.638554018504538590e+02
-5.678078186822669977e+02
-7.162149201966005876e+02
-4.421245721108792850e+02
-2.354965980150144276e+02
-2.423143262751772227e+02
-9.661563099876782701e+01
-1.573744035556008498e+02
-5.162179531164883173e+01
3.086182006036851817e+02
2.473576657569590793e+02
1.575910306212081764e+02
3.062788747547919570e+02
-3.258504687846930636e+01
-2.214015792718247667e+03
-4.958014408790952984e+03
-6.018607784107552106e+03
-9.608725481927979217e+02
-5.779031659325082870e+01
4.859217728013580739e+01
-1.760729088205936250e+03
-4.009757814272567430e+03
-1.054499172606359480e+03
-1.597828657592011936e+01
-2.223844853361325136e+01
-7.544071316652507448e+02
-5.565029388560963071e+02
-3.090118637087680327e+03
-1.614134608107098757e+03
-5.598189676910452306e+01
4.012885081937134828e+02
-2.084051244484192011e+03
-1.789199178187695225e+03
-1.052985984351736761e+03
-3.285838025305065003e+03
-3.858618636540495572e+03
-2.217321964375432799e+03
-1.411834487978639174e+02
5.128011788492575533e+02
4.327246995064529642e+02
3.235770903212531380e+02
7.093249027298422789e+02
7.729338875806457736e+02
6.523636318626091679e+02
8.496402006135714373e+02
7.017908646755997779e+02
7.258100756852289805e+02
1.076649493135282910e+03
1.165304333819005933e+03
1.154783413721120041e+03
1.111062153248568166e+03
1.095112653132280911e+03
8.399000563245068633e+02
9.555475203877117565e+02
1.083171465847999798e+03
7.673524810277907591e+02
7.912014441747062392e+02
6.307227732014761159e+02
6.229203342340824747e+02
7.947551911382250864e+02
8.165287734284567023e+02
5.778165165023259533e+02
6.877025223665043541e+02
7.632272397302027684e+02
6.694160420861202283e+02
8.612897979259984140e+02
1.355823035306095335e+03
1.142036201306833846e+03
8.168976548580055805e+02
1.137629849670311614e+03
1.415021094247308383e+03
1.091943744045105859e+03
7.535299710328454239e+02
8.217663247605813694e+02
7.606714512875906848e+02
6.341615819914001122e+02
4.412862037487713565e+02
4.950639283574095657e+02
4.214929620328659894e+02
4.685546835841441862e+02
6.362434329423757617e+02
5.827169747542033065e+02
7.010926708152219362e+02
7.411269545896431055e+02
5.166260772916514270e+02
4.157815112102599642e+02
4.136230783862223461e+02
7.091411755174597147e+02
9.263541654030956352e+02
-4.528095677431153376e+02
-4.114161755456038009e+03
-3.735703815574207965e+03
-2.870496602807545969e+03
3.964596137677584125e+02
9.351533963877629958e+02
1.696072465604469528e+02
-3.995061447401779787e+03
-4.132996295547513000e+03
-3.463206204345794049e+03
-3.926606841830197254e+02
4.306988495187728745e+02
4.259013750770246816e+02
3.649218897134160216e+02
-2.359238152806509333e+03
-6.255468705178751634e+02
6.260089950959718408e+02
5.384667189607660021e+02
-4.001644132231484718e+02
-2.668867530464875017e+03
-2.624620079298813380e+03
9.659282831166453320e+01
-1.960202412556754552e+03
2.759909841005706426e+02
1.081177403610826332e+03
-3.215625113663243155e+03
-6.041427309621877612e+03
-1.607210421195927665e+03
7.460309801709032627e+02
-2.354685543656024038e+03
-1.884355810466797266e+03
-2.674977335426573518e+03
-2.262549083157427958e+03
-1.431064565888653760e+03
3.404784410769531746e+02
-2.555868247183021140e+03
-6.720723891092409303e+02
9.318543005286207972e+02
1.437898541716866021e+03
1.618082591128317517e+03
1.761449115838699072e+03
1.699030961776058575e+03
1.548810805695128920e+03
1.413785526618199810e+03
1.281945690737172526e+03
1.391334186008971074e+03
1.381933887954616239e+03
1.152695123460474179e+03
1.143663786530979223e+03
7.428426572509407606e+02
2.632222942380349764e+02
3.467443453185027806e+02
8.173879134874213150e+02
9.991730274353582217e+02
7.959365056168495585e+02
9.980762142295841386e+02
1.428006006876467836e+03
1.061212946509002450e+03
1.279318554385656626e+03
1.597734229447564985e+03
1.583937985503028131e+03
1.268534738749104690e+03
9.937171618115064575e+02
8.323773111644158007e+02
8.971500257786400425e+02
9.341301435663508528e+02
-5.466922561155064386e+02
-7.461051858036107660e+02
4.570947886000212748e+02
9.604727478051981961e+02
6.559000076562102777e+02
3.547191336791789240e+02
3.070405100806219707e+02
6.217808056338549250e+02
7.849894464664205316e+02
8.495641718802511377e+02
8.465308843125351359e+02
1.047881446769457625e+03
1.161770586192356177e+03
1.330103866768327407e+03
1.264173753475552076e+03
1.007313377233294545e+03
1.100655776440517684e+03
1.289459933997662347e+03
1.162245010680549285e+03
9.604650567524213329e+02
1.099023027011336580e+03
9.446941083053477541e+02
1.086189690778781141e+03
8.773847075522877503e+02
9.253338208967734317e+02
6.041126153023822098e+02
5.548538889101465656e+02
9.013668883048757152e+02
1.015562458587369747e+03
8.514769485062644208e+02
1.177039890394442637e+03
1.178266650224564955e+03
1.192110086495374162e+03
1.275592210580898154e+03
1.393677931920708261e+03
1.376385677564799607e+03
1.502651753720838997e+03
1.313453275634708007e+03
1.257772976878244890e+03
9.236255825133250710e+02
1.016009352147664799e+03
8.358667080106379217e+02
1.184215786360401580e+03
1.029016359645287366e+03
7.672430773256885459e+02
7.618809092243728855e+02
8.609185421017772342e+02
1.099363758219410784e+03
1.109228709927106365e+03
1.094448883837156927e+03
9.460106492013179604e+02
8.559576865029480359e+02
9.532680280123795455e+02
-5.290823907808387503e+02
-3.056047210244951202e+03
-6.813679084234208858e+03
-7.850972521441727622e+03
-7.675903869830926851e+03
-7.440485938883353811e+03
-7.293707664359660157e+03
-7.442589570872200966e+03
-7.355146813663718603e+03
-7.203426609030011605e+03
-7.497505009451844671e+03
-7.457054426366215921e+03
-6.961330364366065623e+03
-2.566333279815940841e+03
1.381068907952622567e+03
-2.065279014107685271e+03
-6.871317754917123239e+03
-4.719987956992853469e+03
2.566424971651000533e+02
2.259565559899332129e+03
2.378831019358995945e+03
2.294458092316658622e+03
2.703472934706238448e+03
2.679880400594517141e+03
2.509693607740009156e+03
2.299914606536444808e+03
2.120544637685222824e+03
1.721572515106950732e+03
1.554035392229808622e+03
1.559943456838215070e+03
1.642285695053158179e+03
1.671120860712469039e+03
1.115435379745944829e+03
1.405236235368687403e+03
1.369533480227446717e+03
1.198354188556172858e+03
1.030732721385705190e+03
1.112692919282948196e+03
1.524278208651766136e+03
1.663525746701871185e+03
1.556418901007248905e+03
1.685004830903644233e+03
2.041322663143371301e+03
2.019359156291840236e+03
1.543140453753226211e+03
1.534716999708599133e+03
1.242133252016508322e+03
9.614076023807648426e+02
9.195373431658839536e+02
7.165794891224153389e+02
8.305550721389797673e+02
4.565053649219113368e+02
2.954012929004647958e+02
2.552639783037814709e+02
1.471600052814669652e+02
4.241172706351324564e+02
4.191748731610371124e+02
4.863262163848779096e+02
5.325779674923572884e+02
5.470220385719735532e+02
6.066662599125235147e+02
4.525308840324684638e+02
-5.323095665107703098e+02
1.403425893873129837e+02
6.796301891170368208e+02
4.214468639678993895e+02
7.163556008965059618e+02
3.994658068900600938e+02
-4.122465800768069499e+01
-1.682627437547358795e+02
-5.604199802992115309e+01
1.088435166414241451e+01
-2.207144370601541539e+02
-2.188812510596796528e+03
-4.320139627094457865e+03
-2.243789439989295261e+03
-6.765470455325619241e+02
-7.186827232558990772e+02
-1.104210319148964572e+03
-2.540473600054529584e+02
1.690376369067772373e+02
4.478997313577813770e+02
2.455463272898011837e+02
1.023204619597041010e+01
1.058644978546142426e+02
2.032869795379789366e+02
-2.765552225936968398e+02
-4.265713226421773925e+02
-2.647225741015515155e+02
-2.019903244187487417e+02
-4.233744212554972819e+02
-8.068679581989118788e+02
-7.904147911882207609e+02
-6.240092510992150210e+02
