2.150610360551737585e+02
4.155914439611219677e+02
3.104107022180245963e+02
5.435337894934806400e+02
9.119569822455430312e+02
1.286692896222896024e+03
7.927170266212921206e+02
5.210313496860219402e+02
4.856226410433672527e+02
7.485380940120760442e+02
6.087813678386260108e+02
5.503095499508125386e+02
4.701167366031444885e+02
4.452579544413317194e+02
6.837810355275732945e+02
7.967210333485987803e+02
7.151450645636609806e+02
4.131850146012045570e+02
7.166854594027221310e+02
9.723470520204853074e+02
6.860259569794197887e+02
5.309365977156563758e+02
5.962779374349424870e+02
5.512739480513217813e+02
-2.051048113120545509e+02
-2.176100194773650401e+03
-2.076171283253657123e+02
-1.992737416335315629e+03
-5.075431300477278569e+02
8.316513184527304929e+02
1.051047478832856314e+03
1.181944940639666356e+03
1.049992385866584300e+03
9.389466107065618417e+02
1.285952951657648100e+03
1.398718174317594958e+03
1.328724252722512119e+03
1.163035745593416095e+03
1.159624549431003743e+03
1.107251272575017992e+03
1.301093082548628217e+03
1.140148455047203015e+03
1.117568557055188194e+03
1.373156557763619276e+03
1.351669029371604438e+03
1.176311087359344128e+03
8.661151833540644702e+02
1.036946055346345020e+03
9.458365061149702342e+02
1.014950713433919304e+03
1.085044237159933346e+03
1.249578028823927525e+03
1.175894235662675783e+03
1.072041854900196768e+03
4.759879191651504584e+02
7.966446231517339527e+01
6.951039905531685008e+02
8.652939323361642892e+02
8.411798023345983211e+02
8.337655363812297082e+02
8.260402898573687480e+02
7.869918496224250930e+02
7.106021837207741783e+02
7.678424154916311863e+02
7.927404878212176982e+02
9.522596894469252220e+02
9.864147804308373679e+02
7.751530746070757232e+02
7.964781045370821175e+02
9.444070553102167196e+02
1.043928727651726831e+03
1.110989885653348210e+03
1.074586048341324840e+03
1.170713557315013986e+03
1.097377678828008357e+03
9.125930376981748395e+02
7.953776922843585453e+02
9.466491432869403297e+02
1.030461276533752653e+03
-4.021969739463691553e+02
-1.722373584397013019e+03
-3.201060058507500798e+03
1.367291253740219759e+02
2.360100241116917346e+02
-4.396235319662186157e+03
-5.530033243222422243e+03
-6.252923512055238007e+02
1.099387149607934688e+01
-5.109251104221397327e+03
-7.032975480295295711e+03
-6.525232961838259143e+03
-6.189037667961372790e+03
-5.806360684846128606e+03
-5.904149200328314691e+03
-5.900478373867339542e+03
-5.871344399263953164e+03
-5.732699521361250845e+03
-5.541536603600814487e+03
-5.491869950936847090e+03
-3.478706382576592659e+03
-3.270183858536878461e+02
5.771777668100578467e+02
1.520857040496344780e+03
1.597048038847639191e+03
1.751742133806645825e+03
1.499019829588673247e+03
1.703846438202589070e+03
1.512220986513027810e+03
1.528157063677075030e+03
1.553684691092889580e+03
1.700791222095230523e+03
1.676480114235254405e+03
1.823805850281741186e+03
1.609722273920354610e+03
1.013313018061620824e+03
1.015577810572619569e+03
1.125472056403444412e+03
1.419045696117904072e+03
1.205337175778453002e+03
1.278347594298084232e+03
1.317062652165805048e+03
1.310495329648713096e+03
1.163694817488924855e+03
1.017670926742268193e+03
8.744740754715751336e+02
7.040725600819071133e+02
6.055105758002172252e+02
1.121805780191980602e+03
1.155923676102047239e+03
9.048955459494536626e+02
1.057707462592422871e+03
1.140447100712706515e+03
1.281115845579218785e+03
9.677134547705576324e+02
6.593032496771908200e+02
5.128596716919458913e+02
6.383701467845752404e+02
6.628898306659065156e+02
6.424186434470173026e+02
4.829217464440166623e+02
5.253775520488935626e+02
6.259772834482544113e+02
2.839037584872740467e+02
1.885145337165341459e+02
1.105660137625235535e+02
1.910414376609827514e+02
7.494262522057009335e+01
9.128887610336812486e+01
-9.488962675112369993e+01
-4.561474446799307714e+01
-1.768996211528789502e+02
-5.936903023551467413e+02
-1.329393419327468564e+02
9.328284056468524454e+01
2.054739785167127764e+02
1.106493338537765325e+01
8.597213300425109139e+01
2.780949950663860477e+02
-2.540402114752888352e+00
-6.191130336852995697e+01
-1.480243765749161184e+02
-1.548624354793275586e+02
-2.154305538245738205e+02
-2.107208654434010953e+02
1.129101997263278534e+01
9.959252093195760835e+01
-1.268321170616127063e+02
-4.029371170791123973e+02
-6.417116554274314240e+02
-3.191676798831338147e+02
2.386953632772154776e+02
2.872534421996588261e+00
1.133916086811036479e+02
4.225724997963695273e+01
-1.505434181326487817e+02
-6.597793950016458098e+01
-6.405409409394547993e+01
-8.479434972443776530e+01
2.188728392754705396e+02
4.769143008174658576e+02
2.142916816582636557e+02
3.206574457712571302e+01
1.401766785530808193e+02
-5.036755466675801074e+01
-3.645769827253689073e+02
-3.234091841257579176e+02
-1.339109131616184243e+02
-1.490318364941031462e+02
-5.278695646554518817e+01
9.079239073106529645e+01
1.877684321525103144e+02
7.108786274805781602e+01
5.271283750548182923e+01
3.370530310029868559e+01
1.480463023367213964e+02
2.457192245831861044e+02
4.677334765395210070e+02
1.540715271782047466e+02
1.197398860637279512e+02
2.087180326643624824e+02
4.997656902782270549e+01
1.755858893921886121e+01
-4.175305736332144306e+02
-2.149328500842527774e+03
-1.116828132728925311e+03
-2.604261761794455410e+01
3.307606359052657297e+01
1.234520934327456132e+02
-6.892028229333725164e+01
2.093187316859631508e+01
-4.496338966691502748e+01
1.603799676637658251e+02
-2.930338951028191445e+02
-5.126153114285779111e+01
-8.626833941369378067e+01
-9.097586999753492876e+01
3.846490876623670374e+02
4.484025134088620916e+02
1.686387348737526111e+02
7.282423198154732802e+01
-6.252496027017745206e+01
-1.837719917387251485e+02
-1.187371029543289893e+02
-1.178228528404120965e+02
4.640865173447006242e+01
-1.101343683394555910e+02
-1.424062941469222210e+02
-2.564315391817672207e+02
-2.627947863313256107e+02
-5.149297708886459759e+02
-8.618004132549152985e+01
8.157961839331237286e+01
4.782815181877052169e+01
-8.006551259275931898e+01
3.176367392867742723e+00
1.543704210870035354e+02
1.525340803620856036e+02
1.866355385481313931e+02
1.969098669697774540e+01
-1.311645349736470507e+02
-2.510607455558126233e+01
5.692478950321042674e+00
7.232918340215181985e-01
-1.890674390149498265e+02
-1.091692561941092805e+02
-8.539709993702358304e+01
-1.143826853434764956e+02
2.922716400040679119e+01
1.696145566126033088e+02
2.753322997133289505e+02
4.949676337631004799e+02
3.452553828371052873e+02
4.355298526723792634e+02
4.344970524659528337e+02
2.204615998196446185e+02
2.306001273296935210e+02
1.915490939806354902e+02
1.833310692255580818e+02
1.410145286797928463e+02
1.774964609670844879e+02
2.047413618588212785e+02
3.677522351520473762e+02
4.584914327108929228e+02
2.450107447077480174e+02
4.430213644036584952e+01
2.473552265519420530e+02
4.441349564095372671e+02
1.156560343707790821e+02
-5.007106054854035193e+01
4.249761443157015606e+02
5.907643902233487552e+02
5.672442194242618143e+02
4.674817449659351496e+02
4.244863387628990381e+02
5.612500404013776460e+02
5.017380350717705255e+02
2.439426547288817915e+02
-5.261284094916406957e+02
-3.837406764218520038e+03
-4.059924108507350866e+03
-2.559668497140103682e+03
-3.066560177111857683e+03
-2.749523237063089709e+03
-3.058818192299080238e+03
-3.531316750716476349e+02
3.932540326385512230e+02
4.573542491170903190e+02
2.692065206341045496e+02
2.138167210974030468e+02
-3.075770129830209143e+01
-2.431531821444155867e+03
-2.455217471655046424e+01
-1.859770528524951260e+03
-1.901182128186846057e+03
-1.461756909760944609e+03
-1.730505401180798117e+03
3.725782969582471651e+02
-1.703502633541757859e+03
-7.319195803912816878e-01
3.498870581108918145e+02
-1.888657202735135115e+03
-2.025331482976935149e+03
2.128969664687484169e+02
-3.779699263308513650e+02
-1.343981659954900579e+03
7.749386708255059375e+02
8.567787544909559756e+02
-1.561483921230389114e+03
-7.098209048172896019e+02
6.777939356342953943e+02
8.573593134097635584e+02
4.949239600831789971e+02
6.915007011030953663e+02
9.870150391952442988e+02
8.845112775894380093e+02
8.350182420788153195e+02
7.075128170034623736e+02
7.809852957701205014e+02
8.654491305666804237e+02
7.439545786345906890e+02
6.874812960116943259e+02
7.200227624568332203e+02
9.345575614158085500e+02
6.421397177189994636e+02
5.787789893852659588e+02
7.374483016026875930e+02
9.871724141040152745e+02
7.799661283452218186e+02
7.587922162107350914e+02
5.796877619670046897e+02
5.446704480952673748e+02
5.077349682897459502e+02
7.249020136996924748e+02
4.601570392110002672e+02
7.674042534441351791e+02
1.101845559809275301e+03
8.675863325051677748e+02
8.105805557166128210e+02
7.498866569606201438e+02
9.260929900820988223e+02
6.723843527173461325e+02
1.871973789472911278e+02
4.431695691827480914e+02
3.866970414659219273e+02
3.384108393505827621e+02
7.189123246955242621e+02
4.369815698349634090e+02
3.734419738758761014e+02
2.522822059624624274e+02
7.154921573556075600e+02
5.581200358690097119e+02
4.831803241914537352e+02
5.575150006884713321e+02
7.752008957165703578e+02
7.742594714419905131e+02
6.086555264961733656e+02
6.183226379807342710e+02
8.192402987484398409e+02
6.922751542010854564e+02
7.382764861153922311e+02
5.532698747501867729e+02
6.942580161022812035e+02
7.493274317473179735e+02
4.573746312077100242e+02
2.733882974778081234e+02
6.453915141511146203e+02
5.863351347867422874e+02
5.492253938516797689e+02
7.370771912194301194e+02
3.328618614668813507e+02
4.585856878558686844e+02
6.132829734755207483e+02
6.089092781052243026e+02
4.214395053062515331e+02
5.048351226219425598e+02
6.051594012713024995e+02
3.683766467230746002e+02
-4.757411334515224155e+01
-8.667321537091991956e+01
1.131031999128084067e+02
4.907490140508082277e+02
3.952259083595513971e+02
4.255632032563817688e+02
4.617551167972760595e+02
4.007052695860847393e+02
5.084359840073672103e+02
1.700046236572307734e+01
5.935307469287851490e+01
1.554870433532225604e+02
1.143903570206847604e+02
5.261083327745477618e+02
4.806172736169157815e+02
1.769163810821628715e+02
3.589538254402913253e+02
3.237248887916886133e+02
-1.185742814206826097e+03
-3.594460154105684069e+03
-6.532465168421991621e+03
-6.602749119571444680e+03
-5.831278287444761190e+03
-6.117083471833234398e+03
-6.175118280567186957e+03
-6.066447496867102018e+03
-6.137067569440124316e+03
-5.761000973599519966e+03
-5.194226599071525015e+03
-5.563776082388243594e+03
-5.252620394995643437e+03
-4.508763692972219360e+03
-1.492238945773012802e+03
-1.640990742025554937e+03
3.069351482515504017e+02
1.583528581971771473e+03
1.658802574464075178e+03
1.901749891011771297e+03
2.144384271615304442e+03
2.075695709900941893e+03
1.864680514031091434e+03
2.015314450213216787e+03
1.866615662274721899e+03
2.024570977427472144e+03
1.892203364135368020e+03
1.594494462777477793e+03
1.594463794108984985e+03
1.696133297858691321e+03
1.470500052320449640e+03
1.492496118562781703e+03
1.481158680248417113e+03
1.437535761877513323e+03
1.438604498108157941e+03
1.424394319128048437e+03
1.331886578500827909e+03
1.378072516063210060e+03
1.150969594862652912e+03
1.533576209221563886e+03
1.514857784127402738e+03
1.291849309641065474e+03
1.822605301456132338e+03
1.556111832236599867e+03
1.424341401493200692e+03
1.321346636731106173e+03
1.486151302941331323e+03
1.129726241473920936e+03
1.304079718951841642e+03
1.065240536354160440e+03
9.672180131513085826e+02
1.474001514664617389e+03
1.291594482995000590e+03
9.490233332264373303e+02
1.237327575072788704e+03
1.342492314288524767e+03
1.046529186213959974e+03
1.006428677007371107e+03
9.992121110019982098e+02
7.949245357823212998e+02
4.585760051758005034e+02
2.761377285826088155e+02
5.506655303665110068e+02
7.341314426013071852e+02
4.226248427921257189e+02
2.752580126681459660e+02
4.198319889530529281e+02
4.903390374364993249e+02
4.578534381768202479e+02
5.434158522125022728e+02
4.160547698602777587e+02
5.037334819820603684e+02
5.364965749977226324e+02
5.603236559278053619e+02
2.442746111374034115e+02
2.433391190464719145e+01
2.752636354800704765e+01
-1.436162836473049992e+03
-4.717726329268356494e+03
-1.293118794380010740e+03
-2.505310605264950937e+03
-5.682908507089457544e+02
-2.047060590782451300e+03
-1.592593317706413700e+03
-3.187907502061141713e+03
-9.779832518773559968e+02
7.031595861151854479e+02
7.375846486965673421e+02
-2.417132427958179903e+02
-2.450743333759488905e+03
1.215234826308450238e+02
-2.238885133188985947e+03
-3.885014385854920420e+03
-1.174817705816274838e+03
-1.646287059042486362e+03
7.115805974159800371e+02
7.397824301346973925e+02
9.183422264817060068e+02
8.562930532313521326e+02
8.795800701845860203e+02
8.361975195772415645e+02
-5.797656144711837669e+02
-2.889334756013912283e+03
-2.082513302064150139e+03
5.966902652009097210e+02
2.003030207081981757e+02
-2.306680154646178835e+03
8.672369657751490024e+01
-2.225449170059306653e+03
-2.792222878730795401e+03
-1.442585123253380516e+03
-1.608556152424648189e+03
-1.791139414738487176e+03
-3.216278823057108184e+03
-4.397020945025908986e+03
-4.095346969452265967e+03
-1.788238407354253013e+03
-1.332675131513569340e+03
-7.766696119008612413e+02
6.306960146038043149e+02
6.754922430403258886e+02
6.866791929676190875e+02
1.056260338793582832e+03
1.157276980689966422e+03
1.086686469973756857e+03
1.060483791822829971e+03
1.139674765477983783e+03
1.138220608790522419e+03
9.381444318543927920e+02
9.184737703105743094e+02
1.197166749817964501e+03
1.129150227703148175e+03
6.504552942225836887e+02
9.121162585441812780e+02
1.165077121352606355e+03
1.053322105256943587e+03
1.073890841740924543e+03
9.947663206227566661e+02
3.459466796463539708e+02
5.593831015065015890e+02
5.671241913847470641e+02
5.844607319625520176e+02
7.980710089874232835e+02
3.411701754220916314e+02
3.806285990254211242e+02
7.274186757229698514e+02
6.704173386151827572e+02
1.026617918529257622e+03
9.239402451218162469e+02
7.492679475753336646e+02
9.859336696114384040e+02
9.727689310654701558e+02
7.408955971451248388e+02
8.567098858000713335e+02
7.749250760119957704e+02
8.653935751932474432e+02
8.849024835080042521e+02
8.276755565841218640e+02
9.971560696847791405e+02
9.458682751048910404e+02
8.484818622981661065e+02
7.929338894460140637e+02
8.125343239413009542e+02
9.982878823123073744e+02
9.230052980253410624e+02
5.075273622300668990e+02
6.961275719110248019e+02
8.215914807562966189e+02
5.548443602581882033e+02
6.529413567019390712e+02
7.869358556574096610e+02
7.617656439375613218e+02
6.603858840211593133e+02
6.847854913106152708e+02
7.028863298270321138e+02
8.796710076865592782e+02
1.227170480798109566e+03
1.247377288109731580e+03
1.024302576060135834e+03
7.869046718786764814e+02
1.060155665292606272e+03
1.169061585231387198e+03
1.095574125407018528e+03
7.727305321982936448e+02
9.444717584166166944e+02
9.138340755953602184e+02
6.257919999316824260e+02
7.043133406403470644e+02
9.263760797459838159e+02
5.740095012064718958e+02
4.721997599753763666e+02
6.889881756590594932e+02
6.313217625945865166e+02
6.291713761743991427e+02
3.815290557581803341e+02
-1.106576621685151849e+03
-1.611809117346571725e+02
6.276853122564947398e+02
6.520759364689206450e+02
9.259610984371033737e+02
1.013334699140349471e+03
6.441944003070644840e+02
4.805681196317299850e+02
-1.935505485531502700e+03
-6.496062446832526803e+03
-7.209115323879288553e+03
-6.590636799158698523e+03
-6.439659923636129861e+03
-6.252166798888547419e+03
-6.213165950108171273e+03
-6.111649066835427220e+03
-5.730651114357752704e+03
-4.860121847097525460e+03
-5.964079320303780150e+03
-6.043516987179255921e+03
-5.642442336780368350e+03
-5.682845671479524754e+03
-4.051685649695496068e+03
-3.096203389121657068e+01
1.374296583891449700e+03
1.415123530036194552e+03
1.115512820439631469e+03
1.001505477728196752e+03
1.764073284359052877e+03
1.866216891455695986e+03
1.501006069641197882e+03
1.704454684069321047e+03
1.386509509235963833e+03
1.358243049227189886e+03
1.491632183011227653e+03
1.587691318276225729e+03
1.511455231001404400e+03
1.490899465989352848e+03
1.544046186594918481e+03
1.523889883806466287e+03
1.340487056158269752e+03
1.605845605428840599e+03
1.873942096568462375e+03
1.440843119987919408e+03
1.260607639090499561e+03
1.333217748658936671e+03
1.433648838223541816e+03
1.096898383872494151e+03
1.153043718279815948e+03
1.323080935014811985e+03
1.029032664147895957e+03
6.389194117814540732e+02
6.867046460632350318e+02
6.524878266004404850e+02
5.892746393035728261e+02
5.530518012760953752e+02
7.488410517242009519e+02
6.855963976420108565e+02
8.303958081721081044e+02
6.822722719521361796e+02
4.422044860175818712e+02
5.992270098988577729e+02
5.654693470590819970e+02
2.799416976314829526e+02
2.277712239302080661e+02
2.097792631174819746e+02
4.218522582315822689e+01
5.970985423467298006e+02
6.355044091631247056e+02
5.944029952452619909e+02
4.288506859145140311e+02
3.448075028423633057e+02
9.024430763056263061e+01
3.518573574044297203e+01
-4.482631056474291427e+02
-4.933094258541336785e+02
1.529778017532999570e+02
2.850463948280878412e+02
-1.754895447775582085e+01
1.081143048768261536e+02
3.710723822654628066e+02
3.852984684265407509e+02
4.808242450717556267e+02
5.156660630481553653e+02
2.918561626956556552e+02
2.023688402682380172e+02
-4.375830620707419172e+01
2.524716004163139758e+02
2.460845920948289915e+02
1.230931630869623916e+02
1.284783584491178203e+02
2.722804450923616670e+01
-4.876207792486587209e+02
-2.490926088943442096e+02
-1.461394856917183631e+02
-2.977605448262806576e+01
2.909682227130461456e+02
1.851128294551014619e+02
1.476726841900208740e+02
1.966458151257234874e+02
1.230479486726841571e+02
-1.601576585264562027e+02
-7.897886300630723611e+01
1.265845501159706856e+02
1.025147470293094756e+02
-1.281065890080985810e+02
-1.273084479367641109e+02
-1.190804289638814168e+02
-3.014812513623121504e+02
-3.454542008256956365e+02
-3.260490920290063741e+02
-1.672210664229004635e+02
-1.759812066357710307e+02
-3.084274752251318432e+02
-4.994847500579779194e+02
-2.351386647762683992e+02
-2.844514005112678205e+02
-1.784114908756195632e+02
-3.420167409916492716e+02
-2.262582872921474575e+02
-2.211563282379372595e+02
2.029230054517699244e+01
-1.249250297502673845e+02
3.022473439610578794e+01
-2.533359508039802392e+02
-2.362263387276134097e+01
-6.960102806169686573e+01
-1.772980092588095999e+02
-2.257503759184907324e+02
-3.949469678000957629e+02
-1.508817747639098457e+02
5.240371666492832503e+01
-1.110662562655475512e+02
-3.434766811386312213e+01
-9.745445379045294487e+01
-2.844190598207530343e+02
-1.831493852821483301e+02
-1.637042298572445702e+02
-5.210892568275335179e+02
-4.461843929447213668e+02
-2.628549857923720197e+02
-2.056315508517473347e+02
-1.155934995100841078e+00
-1.371660153627641243e+01
1.619303556060183951e+02
1.496230850480052936e+02
1.945207410706020426e+02
4.303002759522055243e+00
1.649761287217347387e+02
2.516326678293013970e+02
-4.467544309536826574e+01
-4.584431981080565777e+01
-1.082069067724417692e+02
-1.904369444097413293e+02
4.243443797994093103e+01
1.170645767860629007e+02
-3.323931502788481041e+00
-9.102150639439436475e+01
1.411385015146626358e+02
6.671315558917323187e+02
4.819682288827507364e+02
-1.973870494386064820e+02
1.080908482342688188e+02
3.305109440555293077e+02
4.239533532699130660e+02
3.081802794168830815e+02
2.470227305439280485e+02
3.246830985074225282e+02
7.032187452780235049e+01
1.645637046262072261e+02
1.047840091501774822e+02
2.128398554973384478e+02
2.058653657145424276e+01
-1.258842761182103658e+02
7.941304832927816904e+01
-8.739955292331805481e+01
-1.233196036605032333e+02
-1.734507851055761307e+02
2.960152331569390185e+02
6.831970235076702238e+02
2.907716770316718424e+01
2.075540865295513413e+02
-1.926155958149531244e+01
-2.173792199705285952e+02
3.751521504582843818e+02
5.343548392272291494e+02
3.692365839334950692e+02
2.698144754505030392e+02
1.160298218442292182e+02
4.019220693107477587e+02
6.555846565480625259e+02
5.859773069002822012e+02
3.110596446221624660e+02
2.708538565280942407e+02
6.513882535259432416e+02
3.396367755658450278e+02
-1.244062964936328513e+02
2.153073746599926324e+02
3.347476193719243156e+02
3.359154938021325165e+02
-9.771291674711842461e+02
-5.363380447751728752e+03
-3.595816639704286899e+03
-3.703470896562028884e+03
-2.639379432482351149e+03
-2.061445925140860709e+03
-2.236658845584712708e+03
-2.440786192981122156e+02
7.323428621694718004e+02
3.655616105331950507e+02
-1.939389512062067070e+03
3.015077171466536470e+02
6.802358937265358918e+02
3.208522188335566625e+02
-3.321644943299365423e+03
-2.093259387279430939e+03
-6.729650315616898979e+02
-1.122789308528119818e+03
1.057315287426424675e+03
-1.088634593410393791e+03
-6.976665562942611132e+02
-5.467698327630832864e+02
-2.296893708365220846e+03
-3.038048704683351389e+03
-1.647245870114651098e+03
6.585295007511663243e+02
-1.462704702624564334e+03
-6.139055078643987144e+02
1.284933142132724015e+03
8.807944917654263008e+02
-1.834315886557544673e+03
-8.283814011744400432e+02
7.476352636997210084e+02
1.211722256342971605e+03
1.224846832374766564e+03
9.250649508105706218e+02
6.803921905842920523e+02
5.977729277272718491e+02
6.192219532362483960e+02
8.937847675622734869e+02
1.053471129839464311e+03
1.076297378354629927e+03
1.138215674084533930e+03
7.312606375379007204e+02
1.024439196968096894e+03
9.468338716837464517e+02
9.473824757402808245e+02
9.350905221620131442e+02
8.609909393696023017e+02
7.450689355273202636e+02
6.382980393735617781e+02
5.966961483153565950e+02
1.059172940913140792e+03
1.123687235711463245e+03
8.692263788709450409e+02
8.370061489603525615e+02
7.441898425254137237e+02
8.470772711904371590e+02
7.231863976717775131e+02
7.793975920499743779e+02
6.221764841869471638e+02
3.471682696824563550e+02
2.773119348724541737e+02
1.155890687102804577e+02
1.128782636791573566e+02
4.047757096009672750e+02
2.731604255395360497e+02
4.940839732835121936e+02
8.233518223421732500e+02
7.478789344154913579e+02
6.924078378383558174e+02
6.110007231336545601e+02
6.659361526936920654e+02
7.572279355593261698e+02
6.037805235715277377e+02
5.997500545118639366e+02
6.110784955679456516e+02
4.586895889074998536e+02
5.567074822394660032e+02
7.590718972473008535e+02
7.371446635929413560e+02
7.129050766832169757e+02
6.499121162295011800e+02
7.511699975756895356e+02
6.904406608332645874e+02
3.995742658575604764e+02
4.575740146719198833e+02
6.254982345620534261e+02
5.552720472187714904e+02
9.119178075597783391e+02
8.633913221939963023e+02
1.108682628378865274e+03
1.036767907117353616e+03
9.526469971050396452e+02
1.045306748935758151e+03
7.157434105396439463e+02
6.679195934532385763e+02
7.998474170990315315e+02
4.484866846906488718e+02
3.378330998740885320e+02
5.289002130043892294e+02
6.457037266743502641e+02
4.992090253226009509e+02
3.243853456324393392e+02
4.952616943549076609e+02
5.487900995201265459e+02
7.229678060736479210e+02
8.898177120933580682e+02
5.183410943717150303e+02
5.064713757095478854e+02
8.712340614075131953e+02
9.846128436392317553e+02
1.056590919306996284e+03
7.981350584899686282e+02
8.932840485725690769e+02
9.040412388508023014e+02
8.943823196369241941e+02
9.173017409330733472e+02
6.867863239631722081e+02
-1.332157407024297527e+03
-3.734525226295338143e+03
-6.895342641349718178e+03
-6.926605110087249159e+03
-6.727266584616809268e+03
-6.705420047773119222e+03
-6.695021840507946763e+03
-6.259097829393979737e+03
-5.923607559355113153e+03
-5.748523531472639661e+03
-6.392855199085927779e+03
-5.081625020757874154e+03
-5.952792668946423873e+03
-5.092365949932207513e+03
-7.153981505578101405e+02
9.421091964349204773e+02
1.541188830921245653e+03
1.548865477902344537e+03
1.274132791687457257e+03
1.331985744126089457e+03
1.194414343954159449e+03
1.168457224786604684e+03
1.050103801802744329e+03
1.002249645681501420e+03
1.149022949534256441e+03
1.303640875226478101e+03
1.350954583958490957e+03
1.354940575573799606e+03
1.245621150159394347e+03
1.194028549755645827e+03
9.642008187247748765e+02
1.291092968174921907e+03
1.416732313502786383e+03
1.159099313827236756e+03
1.068191837173396834e+03
1.047058953847031717e+03
1.133717291688492878e+03
1.136205783026009613e+03
1.328484819306586587e+03
1.069644856796572412e+03
4.816923699524647304e+02
3.886188247154711917e+02
6.264308557513948017e+02
6.381657637603443618e+02
8.508449200782661137e+02
6.304579560937544329e+02
6.140750635702486306e+02
5.066948850222156011e+02
6.203361435308044065e+02
7.989842001741618560e+02
4.306749056167632261e+02
4.124743469260517941e+02
4.373975914644155409e+02
3.754255445928670269e+02
4.265837823774111826e+02
1.529142023212097854e+02
2.954042020875328944e+02
3.440720694419482584e+02
3.329552893970683272e+02
4.106032141054725315e+01
3.994226545746626584e+02
4.170385599808100210e+02
3.369572330162882849e+02
3.161554796095321649e+02
1.806812871520549493e+02
-3.041661890840670424e+01
-1.615706322866100209e+01
1.584845915552417921e+02
9.949672797356059561e+01
3.169273478513696887e+02
2.038221439573887324e+02
-2.838324164012941964e+00
-5.630639964170942449e+02
-1.737649038069621099e+02
-3.119368074937938218e+02
-1.525914718306919724e+02
1.263592834429248768e+02
-1.121599212483886419e+02
-3.011204093325567328e+02
-2.250645296191033751e+01
2.870592268613254205e+01
6.154463424251616033e+01
-1.031977818804441949e+00
-3.698846084487438901e+01
-1.263108629408872616e+02
4.603136286295490009e+01
2.050231443683580039e+02
6.568955279998969843e+01
-2.789588876797445778e+02
1.080704122474314204e+02
-6.179564356104967793e+00
-1.987258669079375863e+02
-1.365883435684227436e+02
1.132292594111469839e+02
-1.302566982959170332e+02
-1.300507160605728814e+02
-1.291568998030039950e+02
-7.760761125352726708e+01
-2.973571633942293033e+02
-1.503562661523833413e+02
-8.675225345977059632e+00
-8.930198907419790544e+01
-2.042453555350379304e+02
-2.847429066539186238e+01
1.249860494683341017e+02
-5.388940462374603868e+01
-1.000405985225786054e+02
1.014851327940534702e+02
-6.930036075629597292e+01
5.680900065831676615e-01
-1.892228018048905724e+01
-2.407565410532718033e+02
-3.159672537404341597e+02
-4.065600739959893986e+02
-3.995494471708653350e+02
-4.449273812544994371e+02
-4.027753190352738670e+02
-2.930925719606744906e+02
-3.448050032423421953e+02
-1.069962899362565594e+02
3.834696437881274278e+01
-2.877746210210526456e+01
-3.645069336252289105e+01
-1.466899818456360265e+02
-3.047293532488117762e+01
-6.568293122872269123e+02
-1.019748700762206909e+03
-4.263062862838904152e+02
-1.355380129517079411e+02
-3.643847936426044498e+01
-1.797135207677722590e+01
-2.091948004384063893e+02
-1.081870919049807327e+02
-8.291000663321635500e+01
1.706328573807445821e+02
9.132581328844010216e+01
-2.277947677352497635e+02
-6.387403200005262534e+02
-2.774465823578379400e+02
1.922123978848660499e+02
2.058216369821486182e+02
-1.783042001419388782e+02
-1.953299809552145803e+02
3.267897219021677984e+02
3.900319126948733697e+02
6.252624724876598066e+02
6.602814524182408604e+02
5.574274637648134103e+02
4.196543280633177346e+02
3.135451848838638966e+02
6.142123906839524352e+02
5.377475909023664826e+02
6.103692967023187066e+02
7.125232653139609056e+02
4.824674678616599408e+02
6.631240962521219444e+02
8.933304931615477926e+02
9.075110369631909180e+02
6.923056211561369082e+02
9.305917771072665801e+02
9.565042908965177730e+02
7.552887674185357127e+02
7.803969398094599228e+02
6.420200250196260185e+02
4.812276175580671520e+02
8.759667114730682442e+02
9.749693233824345953e+02
5.734423346068027740e+02
5.526444672239880447e+02
1.020030301780411151e+03
1.157854372350564290e+03
6.200299512728819309e+02
7.574893218640557961e+02
1.048269754298796897e+03
7.023439411673615496e+02
6.346616836889502338e+02
7.892159245503518150e+02
7.189824680450427650e+02
6.839326384513899484e+02
4.300925731664811451e+02
3.904341775348345323e+02
1.499672200442772123e+02
6.306379151156462513e+02
8.124578260896191750e+02
8.564220458655566972e+02
1.000566235062193073e+03
1.312827962414625290e+03
1.500221617848675578e+03
1.295755133761511388e+03
-1.175752771076249417e+02
-2.218808872557865925e+03
-5.483950382555841315e+03
-6.549949575979488145e+03
-5.900823064163530034e+03
-2.343550543949929306e+03
-2.127173496464109576e+03
-3.527642822386351327e+03
7.970384302848394782e+02
1.550892780246392022e+03
1.522902969324196192e+03
7.030486924026866973e+02
-1.951585112373657921e+03
4.909945011704588751e+02
-1.556281203383240609e+03
2.936532742052486356e+02
1.498809602251142906e+03
1.559160961733377007e+03
-1.912270538618381579e+03
-5.502468604939928809e+03
-5.828397288416791525e+03
-5.516047215021538250e+03
-5.626417870965947259e+03
-5.619480160303901357e+03
-5.309245991516444519e+03
-5.259684816461830451e+03
-3.627761156144011238e+03
-2.349373473264519419e+01
-9.528662874164843970e+02
-4.475841729388936983e+03
-1.983405528958362993e+03
1.070453704247724545e+03
1.874776767983436912e+03
2.020575662870186761e+03
1.835873191391181763e+03
2.086689558900684005e+03
2.144025089574833601e+03
2.141939871238701471e+03
1.976388475177432611e+03
2.025463593211855141e+03
1.937168586227792503e+03
1.830536561147928751e+03
1.750583727578622529e+03
1.883304642826833287e+03
1.623778339309126295e+03
1.443027936666946289e+03
1.335042365737582713e+03
1.403898314215943856e+03
1.045599910068423696e+03
1.190112171326603402e+03
1.320522203433406503e+03
1.269871125485185303e+03
1.266190756299162558e+03
1.129448353073501266e+03
1.239703343501234258e+03
1.327961290076155137e+03
1.403248041985915279e+03
1.120643527223816591e+03
1.184119677983815109e+03
1.117669904786231655e+03
9.323268586417890447e+02
6.161558062787726158e+02
6.171800192769959494e+02
1.030387601004610360e+03
9.758052929240707272e+02
7.554717682279439259e+02
8.084019770594645706e+02
8.556176374703298961e+02
7.163208050699329306e+02
4.415264891034172479e+02
2.373124285878717785e+02
5.014551157505004539e+02
4.012471034636718059e+02
4.427284898106198625e+02
4.097235505560140467e+01
-4.991584020129030108e+01
2.947822386991639405e+02
3.500503661023493578e+02
2.591092875469900605e+02
1.408072378413149011e+02
2.673707135686515812e+02
4.946627403167458965e+02
2.453300133718512086e+02
-1.821929198154532514e+02
2.200109767604778810e+01
3.317510347412828651e+02
3.280279316487653318e+02
1.868356129515681232e+02
4.161854129826406279e+02
1.140560084694419345e+02
-1.850507987632483946e+03
-2.895531336109022504e+03
-5.700563817282898071e+02
-2.060281364064463503e+02
-3.964379747929245923e+02
-3.553037990138442410e+02
-1.395845401590788128e+02
-4.829907557958280506e+01
4.255253310488476615e+01
2.669362830552985884e+02
1.168724932163757018e+02
-1.962555466739893362e+01
