2.084300963648108336e+03
2.029931763917311628e+03
2.110316700527309422e+03
2.384456485887049439e+03
2.758415781780337056e+03
3.100235451407749224e+03
3.320948922014421896e+03
2.992519718076725439e+03
3.029063516634481857e+03
3.333549708130207364e+03
3.081963104370288875e+03
3.139350311082441749e+03
3.409811752344868637e+03
3.519486416505304533e+03
3.497503552556820523e+03
2.802005653155433720e+03
1.958798375789164993e+03
1.446914293430161251e+03
1.200272705222042305e+03
1.064826074639752051e+03
3.844265460767217633e+02
3.770341212326254663e+02
3.620120593340885193e+02
8.174775357073856412e+02
2.155222917197388142e+03
2.612613491492932098e+03
2.088383703628187504e+03
1.971627156327749617e+03
1.854225952252249499e+03
2.528262383673421027e+03
2.757688964564718844e+03
2.683776974480308581e+03
3.117262413506710800e+03
3.003299686305793330e+03
2.657837690496719915e+03
1.995881767148720655e+03
1.425611952833585292e+03
8.246490182910830526e+02
6.120847575510131264e+02
3.599647159892455761e+02
1.554513149952228162e+02
8.498277608554245433e+01
5.246126099873565636e+02
9.676016071995474022e+02
1.418820326098959868e+03
1.703323277267552612e+03
1.752200840629456025e+03
1.455638247870839450e+03
1.383478523415672953e+03
1.624596577281007285e+03
1.897984082576117771e+03
2.257681780000264098e+03
2.412706636593936764e+03
2.583059966830282519e+03
2.287758823456637401e+03
1.633811762742546989e+03
6.501829112253927860e+02
-2.416365655385902045e+01
-2.692585007054784683e+02
-5.931532473156262313e+02
-7.279284021666388753e+02
-9.155524187225815922e+02
-2.238971607086263020e+02
2.840257277275190404e+02
7.171917198787077723e+02
7.395654986145631256e+02
1.128146336905673252e+03
1.308990048820886386e+03
9.990614500029012106e+02
8.603502528661430233e+02
1.205797071856721686e+03
1.538427056627266211e+03
1.462261478745786690e+03
9.503326454063558231e+02
-1.139406040133652368e+03
-5.229961087524494360e+03
-7.769342832912489030e+03
-8.001532754615491285e+03
-8.684579719480499989e+03
-8.753556649871425179e+03
-8.845547988043492296e+03
-9.204519572368155423e+03
-8.237452752213297572e+03
-7.215357231907680216e+03
-5.041236027344636568e+03
-5.270003959095414757e+03
-6.498670455093517376e+03
-6.523260736410622485e+03
-6.123703467110884048e+03
-3.458094599627144362e+03
-2.074796786814931124e+02
1.799179115641747785e+03
9.028773880994900765e+02
-4.312377764278280665e+03
-4.660575682315412450e+03
-2.506903120474895559e+02
1.178220189997805164e+03
1.030140449291431878e+03
9.340163298850806086e+02
4.478495587280801260e+02
4.655253252241479345e+02
4.680114425687291941e+02
7.604087518085453894e+02
1.217779942277495138e+03
1.829134808144143562e+03
2.219421259338530035e+03
1.902658374787861931e+03
1.803825937926040297e+03
1.558957473676115114e+03
1.857036334806363811e+03
2.180008054620723215e+03
2.412934830251111634e+03
2.568838735877753152e+03
2.351768096878102369e+03
2.261682259333702859e+03
1.800503999342427505e+03
1.007278538184589934e+03
7.449804962607141761e+02
7.146042246315299735e+02
4.571267489337342909e+02
2.835527225453830056e+02
-1.301837631542126417e+02
2.990138158448251104e+01
5.399252596470187200e+02
9.518963047236945840e+02
1.094799578325984839e+03
1.158643183485660984e+03
1.167486923295675297e+03
1.145355511685521833e+03
1.399214438211371316e+03
1.383012782714388095e+03
1.530798134465437897e+03
2.046592319874502209e+03
2.200405300079575227e+03
2.239259772084777978e+03
1.739176100579290278e+03
8.381000334790873012e+02
3.919710020097019765e+02
6.275597483626148687e+01
-6.213020398193154961e+02
-9.959319814442345660e+02
-1.043073976233373514e+03
-6.668096519815891270e+02
4.032336161362262139e+00
3.596886567145717208e+02
4.901298462920253769e+02
-7.610443441449262991e+01
-7.090040244956735194e+01
-3.274530504278806688e+02
3.212520815744685478e+02
5.970950083911901629e+02
8.499885550969066799e+02
5.330994735208628299e+02
1.213429031682049754e+03
1.615935988920369937e+03
1.013687137823893067e+03
-1.053503058678744964e+02
-6.101984356746029334e+02
-8.098470356011902140e+02
-1.000353370939318665e+03
-8.767732780479151415e+02
-6.070841263235114411e+02
-3.981879310699075063e+02
-3.960865945519204843e+02
1.842477357593103306e+02
6.437755339341158560e+02
4.315710731942465372e+02
4.016353497703694870e+02
4.809598779367581756e+02
3.305592606060687331e+02
5.043887339106108243e+02
6.524757869843540448e+02
7.379014273119480549e+02
7.326242706320036859e+02
8.496645478321927385e+02
5.280197526078426336e+02
-3.530691238824995537e+01
-5.342830234909931733e+02
-9.239592740717029073e+02
-1.156386181030374019e+03
-1.383639295374841595e+03
-1.537696402928258294e+03
-1.154458623661873617e+03
-6.298818169574483363e+02
-1.698325101818515037e+01
3.562063602681997168e+02
5.897075700988345943e+02
1.434902368165015787e+02
-2.539977534674064330e+01
-2.788492730488778193e+01
-6.403774005057240970e+01
9.907923380401393842e+01
3.905137631407656613e+02
6.523455500355258891e+02
1.043575880271162532e+03
7.871417357037892089e+02
1.300405783612372659e+02
-4.467739561998982936e+02
-5.352710035528865546e+02
-1.062529940414050088e+03
-1.261561355890932646e+03
-1.288409071705715178e+03
-1.217108239553761450e+03
-1.281561027855340626e+03
-4.767827670506453615e+02
-2.347695186341888984e+02
1.575142167707603562e+02
-6.297229426511538719e+01
-1.321305131645063469e+01
2.307825973387473937e+02
3.989862020405802241e+02
2.903857668894100357e+02
2.360037479909443050e+02
3.148587935974125571e+02
7.030079623156026400e+02
9.384341327000865931e+02
4.431840460701430970e+02
-2.107017142886284944e+02
-3.211382448995580035e+02
-6.291114006443398239e+02
-1.172713511799635398e+03
-1.714047593379612863e+03
-1.645073863573940571e+03
-9.906897138489038070e+02
-8.897473017994315114e+01
6.590171076775109213e+02
4.253657292738866431e+02
8.580351676690518161e+02
4.010072731765518483e+02
4.502706204829451053e+02
6.026898512848118799e+02
6.281788127724589685e+02
7.008006784595703493e+02
1.026559754581837751e+03
1.283531895528365112e+03
8.686885093602179495e+02
1.900003059317103578e+02
-1.965225251360466530e+02
-4.009511522450092684e+02
-7.043495075521332183e+02
-6.698103980347634661e+02
-9.104147558967997611e+02
-8.700972625718823110e+02
-3.878447926252908360e+02
1.253642796827621879e+02
4.663905963926474669e+02
8.881762075553558589e+02
8.056564536131774048e+02
6.778654316865265628e+02
9.378237959556805663e+02
9.474986142922984982e+02
1.306539137984497529e+03
1.672166907378122005e+03
1.586306135195485012e+03
1.697009204320514527e+03
1.586212269418897904e+03
3.378783028168331271e+02
-1.099803832671754691e+02
-3.163927448854962563e+02
-6.133710948261746125e+02
-6.859739968122852360e+02
-3.722477709037842715e+02
-1.511777631496540835e+02
7.928256790862727144e+01
1.169160451414754561e+03
1.601396126827652779e+03
1.635986162063442180e+03
1.493996190062707228e+03
1.470439462894737062e+03
1.440306426497319308e+03
1.332601178557491266e+03
1.419256304221504024e+03
1.639298671020211259e+03
1.932803815284856455e+03
2.145766693757740541e+03
1.863165388290932015e+03
1.889827692078435746e+02
-3.571718662066155503e+03
-4.113977386265893983e+03
-3.674862375116025760e+03
-5.420317425115264086e+03
-2.690469574398131499e+03
-3.353312631173461341e+03
-2.865687150825037861e+03
-2.368608440984921799e+03
9.679354588510506119e+02
-1.252132829311463638e+03
-9.071469722994750384e+01
-1.474765156749534299e+03
-6.633390321407331385e+02
-1.005367730402420534e+03
-1.198872640179712107e+03
1.367160861658488329e+03
-1.176234054661740856e+03
-2.300016012514269278e+03
-2.392176557762883021e+03
4.172907536187368009e+02
7.083845615483081701e+02
2.541161103789851836e+02
-2.635550393381656249e+03
-3.398608351874530399e+03
-3.585094906872910087e+03
-3.568989243428941336e+03
-8.322034263477223703e+02
7.293257840113178645e+02
1.204623166477454106e+03
1.209687386837983922e+03
9.595185230135970187e+02
1.175200818228272738e+03
1.200776637290519147e+03
1.409201913093024359e+03
1.475490450870337327e+03
1.801694378017655481e+03
2.169881391994152182e+03
2.241055417450815185e+03
2.133226485622084510e+03
1.216435035075267024e+03
3.497262573434258002e+02
3.871140815041239307e+02
1.634985028362755770e+02
-2.531056447667012037e+02
-5.667379612022014044e+02
-5.002797735924976337e+02
-3.369353561504477312e+01
2.410163574712229604e+02
6.929179263495931309e+02
9.420663194654961217e+02
8.894505516251383597e+02
7.791035301740948853e+02
9.880926182772468565e+02
1.107457592305657954e+03
1.237255537935559460e+03
1.289648092702720760e+03
1.475578068385185588e+03
1.569163179275506081e+03
1.509571092491038598e+03
9.917921724328700748e+02
4.128524050834173522e+02
-2.742594142476391426e+02
-8.516186147926522381e+02
-1.627294602386774386e+03
-2.059406021056889585e+03
-1.935759251502575808e+03
-1.807250975200890480e+03
-7.409330268540583120e+02
2.422437286992855263e+02
6.270939478829963036e+02
8.377133289564698089e+02
6.550663723205847191e+02
5.412120152463502336e+02
3.872664721226473716e+02
9.127462695308583989e+02
9.527934421487969985e+02
1.164803899624601172e+03
1.216572194290620473e+03
1.376983916885452800e+03
5.880675476686884622e+02
-4.102172629337878789e+02
-9.148817646725517534e+02
-1.193959513108518649e+03
-1.071498909527792421e+03
-1.141510042345306601e+03
-9.989890046200048346e+02
-8.028330077929857680e+02
-5.020484031199428614e+02
-6.565840415519376450e+01
2.163299729492799202e+02
3.929476861870354014e+02
4.061910591580351593e+02
1.071059959177516021e+03
1.506556028063550684e+03
1.276662923417351749e+03
1.300357160377765922e+03
1.009649524515481971e+03
1.150592646739885367e+03
1.109145710734434033e+03
6.472944646800108330e+02
-4.994878714267175468e+01
-5.455853135806906948e+02
-6.076843942396681086e+02
-8.283071919992605672e+02
-1.104468419853498290e+03
-1.109183947004753236e+03
-6.874376233478790255e+02
-8.623159097351334879e+01
7.194390714102537459e+02
7.315840281348938561e+02
6.591998630113503168e+02
5.892769551330089826e+02
5.597884821934538877e+02
7.317120721146667393e+02
9.910130001403175584e+02
6.276880959858757478e+02
-1.134238824900606687e+03
-4.269795156652020523e+03
-6.560972833135951078e+03
-7.064810932614674130e+03
-7.257329435906408435e+03
-6.546558533703076137e+03
-1.460558708227650186e+03
-1.017406939442042130e+03
-5.634155065820201344e+03
-7.374834341268598109e+03
-2.070353578271182414e+03
-5.177554220993052922e+02
2.759862561283462696e+02
8.307819873196882554e+02
5.656271924690315700e+02
8.885086702018569440e+02
1.268439794318492432e+03
1.070322407685410781e+03
1.562139700335140105e+03
1.960884825995713754e+03
2.141618255595999017e+03
2.574256204620392509e+03
2.441795779626902913e+03
1.858205696489257889e+03
1.453420793897568274e+03
1.073405470384170258e+03
6.901432097392297464e+02
4.795899465550208447e+02
2.463026890893436160e+01
2.902233000439738362e+02
5.394367180012962990e+02
7.573002628936503697e+02
1.246778085310125789e+03
1.550860008850035229e+03
1.591524639499017894e+03
1.942782144559529797e+03
1.972581763181369752e+03
1.879914030638559780e+03
2.070706371799351018e+03
2.302951133440754802e+03
2.452624470831969120e+03
2.693752479757928995e+03
3.085335575324611909e+03
2.298337086504970102e+03
1.491763407421244438e+03
1.172569323361080933e+03
9.866943608023207162e+02
7.931008905615431104e+02
5.816864975979841574e+02
5.354439994767545841e+02
2.141990351237171453e+01
5.366824233799463855e+02
1.988202940399322188e+03
2.474943272749448170e+03
2.072923594885215607e+03
1.798143407101366847e+03
1.931632308716440775e+03
2.473306011147862591e+03
2.615099034287602535e+03
2.634083740104739263e+03
2.674288374855032089e+03
2.940689560771734705e+03
2.782238498299745970e+03
2.533007977057503012e+03
1.941980335536894927e+03
1.279145742685459254e+03
8.484815825575085455e+02
2.119544074612824147e+02
-7.153088745930152470e+01
1.480787403458053859e+02
3.807584750886587699e+02
9.815968783649784655e+02
1.648572599943931209e+03
1.956693697989373049e+03
2.054009017339660659e+03
1.900537942339546362e+03
1.886335440537412524e+03
2.245368827132051138e+03
6.885459704631753084e+02
-2.587125153369797317e+03
-5.813509337464477539e+03
-5.904599792398861609e+03
-5.876431523556372667e+03
-5.509966847307651733e+03
-6.278176376937315581e+03
-7.170042320462186581e+03
-6.839569427537231604e+03
-6.839835000372248032e+03
-7.069906144812937782e+03
-7.375757151137875553e+03
-7.096307176740479917e+03
-6.020565591249968747e+03
-5.041409936489917527e+03
-1.501833943738063908e+03
-6.798377345891668710e+02
-4.013384674070517121e+03
-5.083434247284534649e+03
-4.944989603244113823e+03
-4.771040016330833168e+03
-4.514568663104067127e+03
-4.070548364244938966e+03
-3.897926752969331574e+03
-3.279688321568180072e+03
-3.572825488108106128e+03
-4.501335156001783616e+03
-4.856185257304984589e+03
-5.383379221367441460e+03
-5.525936384313047711e+03
-1.870888673627601293e+03
1.832811462634487953e+03
1.755199453646176153e+03
2.573622891182292278e+02
-6.967601164159160021e+01
3.284073307223135544e+03
3.660677505445959468e+03
3.294130336228683973e+03
3.415478230264807735e+03
3.771747950922387190e+03
3.886913868169624038e+03
3.686988455094204255e+03
3.881104890787840304e+03
3.820241343362305088e+03
3.890417794509112809e+03
3.553681471576081549e+03
2.789043029438452777e+03
2.209457689550288706e+03
2.200979955262210296e+03
2.043573640756370651e+03
1.417142485447515128e+03
9.837743736450976257e+02
8.174935199126292673e+02
1.172238924337682420e+03
1.830012086545922557e+03
2.655982544008064451e+03
2.624373451925171594e+03
2.114206774209153082e+03
2.173547531954093301e+03
2.357368933786710841e+03
2.463673097133510964e+03
2.412489029423901684e+03
2.505877986920073909e+03
2.709103224065471295e+03
1.911022353662552632e+03
2.268510078606524985e+03
2.084826615281326212e+03
1.116593943926130351e+03
9.761978141325516845e+02
8.284555183906105640e+02
6.569678789425955756e+02
1.517134109762730816e+02
4.321798461436965795e+02
9.811325034305579038e+02
1.360808340821033198e+03
2.119053695426892318e+03
2.278934305444543952e+03
2.005536342619558582e+03
1.871586316482470693e+03
1.905464027505947570e+03
2.204082786922487230e+03
2.374338452328635867e+03
2.358023883037069027e+03
2.407490982392665956e+03
2.369676206863120569e+03
2.329515687354599322e+03
1.632822703534368884e+03
6.966239507858699653e+02
2.858982595249461838e+02
-3.166942169352591208e+01
-1.660968867096561041e+02
-2.703475640503535260e+02
-5.933568509237279613e+02
1.178880161732506622e+02
1.202320442169534999e+03
1.718992503707447895e+03
1.728868428410852175e+03
1.641958160642582015e+03
1.589229051425417083e+03
1.372689635013611678e+03
1.285310526493002271e+03
1.285014724353829251e+03
1.795901998708836800e+03
2.255954827694093638e+03
2.163097855212983177e+03
1.926312932576480080e+03
7.726111102865796738e+02
2.959813338889908323e+02
3.833886653266308713e+02
-5.523061970562698519e+01
-5.429463654269555946e+02
-5.718030158916242272e+02
-5.197865295349209873e+02
-2.118575325257199324e+02
4.229919843948028415e+02
9.237077786450834083e+02
-1.057307560727498554e+02
-2.601307309373723456e+03
-6.213983672345437299e+03
-7.229734082633822254e+03
-7.007639513024642838e+03
-6.531788927332068852e+03
-5.825132720456929746e+03
-5.677665678483635929e+03
-5.199340955444037718e+03
-5.449197430449607054e+03
-5.932212846668525344e+03
-6.385415973379483148e+03
-7.033887341236160864e+03
-7.652768226981934276e+03
-7.378009836285645179e+03
-6.872499541156684245e+03
-3.403340625556485065e+03
-2.095330955407900149e+02
1.500973868208387785e+03
-5.778546140355829266e+02
-5.795977059119811202e+03
-4.513422246361118596e+03
3.588293355018184343e+02
1.952737535338227644e+03
2.288297675625923148e+03
2.554478742358961426e+03
2.772344200768407063e+03
2.846927227342515835e+03
2.807209730743738874e+03
2.330210383696418376e+03
1.888902887357862255e+03
1.260309721613141846e+03
1.154386756269521129e+03
1.114141962825061455e+03
5.115136292900841113e+02
2.774813733000638081e+02
5.841168803333234791e+02
9.504652901951111517e+02
1.448511475725840228e+03
1.748247422674807012e+03
2.075696993657883922e+03
1.735968181102367225e+03
9.830666180854070717e+02
1.348010073073935018e+03
1.572746545437304576e+03
1.493269925786730028e+03
1.759647038534247031e+03
1.892940375992049894e+03
1.847176925745830204e+03
1.579372537819152967e+03
1.236522725847492211e+03
5.286413832740728367e+02
-1.224683511020590387e+01
-5.951807244509631118e+02
-1.109168416381836096e+03
-1.066240363081295072e+03
-1.111336658403336742e+03
-8.704241846743268525e+02
-1.854227177233344435e+02
3.146864255483339434e+02
6.129248884966647211e+02
5.373501705283867977e+02
4.010562739452981873e+02
4.341854198854858851e+02
9.238939831878021778e+02
7.430654045827653817e+02
7.395668835141385671e+02
9.433568704914554246e+02
1.201646039470781716e+03
1.251156767784732892e+03
6.962364019548405167e+02
-3.235976995384282873e+02
-8.234588280630637200e+02
-1.184846795232151408e+03
-1.256642103577123407e+03
-1.217887972352185898e+03
-1.168661768833879705e+03
-8.898474335240651953e+02
-6.355052888008773380e+02
-1.906290278631658168e+02
3.498624551359266661e+02
1.309507505959103923e+02
2.536674579859474932e+02
1.007391886174756657e+01
2.751482061166871631e+02
4.929199814847914922e+02
5.494261855236566134e+02
7.086406059670958939e+02
1.056629063306539820e+03
1.031408558463684130e+03
4.180094731331319053e+02
-6.065148772590355293e+02
-1.329242687449429013e+03
-1.320190570098389117e+03
-1.373367738281100173e+03
-1.541774959095460190e+03
-1.379391591864043448e+03
-6.801620316630545631e+02
-2.421049709521013540e+02
4.087886365049906203e+02
6.495870958512759898e+02
6.172926938029645498e+02
1.058887017180846044e+02
2.843445577235803157e+01
2.098815703864963211e+02
2.711508662241257639e+02
6.583410057847811458e+02
7.914739242761422702e+02
9.875223422206439636e+02
1.240539866624182650e+03
5.674997013743465004e+02
-3.236289208166498952e+02
-6.668709349885824622e+02
-7.362091477240220456e+02
-8.517416380730842320e+02
-1.240599288832689126e+03
-1.344723781056115058e+03
-1.102011749873056715e+03
-2.451570003116785745e+00
3.528735745755480480e+02
2.029645460854499106e+02
4.478464394053435171e+02
6.695025257064824018e+02
5.948633962160637338e+02
3.048212834095904213e+02
4.637028427704996716e+02
7.263030027114139102e+02
1.128576321832517806e+03
1.470531946883811315e+03
1.287139874368009941e+03
7.594104804237321105e+02
3.532729268596618795e+02
-3.093513362453515469e+02
-5.954881804829386738e+02
-1.069214523319319596e+03
-1.384603205835788003e+03
-1.197646974370508588e+03
-1.089407627699967406e+03
-2.179198519492523758e+02
4.651243186721584948e+02
2.834659934786943722e+02
-6.589437293316332500e+01
4.370910835803408077e+02
6.679226540632568003e+02
7.871471693227372270e+02
1.029807978001398851e+03
1.194693679562205944e+03
1.321007465531402431e+03
1.852323552603936605e+03
1.983932652449223724e+03
1.468563120625057763e+03
1.017410201832026019e+03
3.216018128491912762e+02
-1.940218203494626721e+02
-3.620173396964763697e+02
-2.552031479339905786e+02
-2.629999972276864924e+02
-1.511668732563921935e+02
3.575605905361914552e+02
1.017098166631117579e+03
1.733357853541647046e+03
1.804162326159506847e+03
1.512491794019767440e+03
1.765447337068109391e+03
2.128987163466640595e+03
2.209057000341075309e+03
2.392527295982226860e+03
2.442093154290864277e+03
2.432307814369759399e+03
2.401897823805341432e+03
1.749508187626801373e+03
1.198201064050648483e+03
8.679282704469516148e+02
8.457343795779405582e+02
7.366054811907437170e+02
5.422893487796939098e+02
6.844743575836066611e+02
8.846390445977411900e+02
1.601673233219469921e+03
2.110452219793418863e+03
2.284964992644711401e+03
2.106214446070081067e+03
1.997255474143519905e+03
1.874035576251494831e+03
1.874543805943706275e+03
2.087708597619680404e+03
2.428521038005073478e+03
2.402046823837441480e+03
2.865267035421611581e+03
2.734101666988574834e+03
2.050561256803748165e+03
1.652676800218925109e+03
8.204393545449362364e+02
-1.677180624944102647e+03
-5.102270919315951687e+03
-7.390869707015416679e+03
-7.503998102665090300e+03
-7.421596558212444506e+03
-6.453599967892550012e+03
-5.711966253924581906e+03
-4.999746630433760402e+03
-4.477019461945127659e+03
-5.024728507158325556e+03
-5.280522499724948830e+03
-4.845529433373711072e+03
-5.169810997206687716e+03
-4.587459403307628236e+03
-4.234444410076745953e+03
-1.752665860262590286e+03
4.837027396980163374e+00
-3.509891984053533633e+03
-4.623844789823595420e+03
-5.161971097655446101e+03
-5.673321198021199052e+03
-5.852910039505371060e+03
-5.961728292875995066e+03
-6.415818821521575046e+03
-5.656088872062121482e+03
-5.174432935191014622e+03
-4.790857795812839868e+03
-4.458324735956573932e+03
-4.497815015916227821e+03
-3.781221238551517672e+03
2.751244710337402921e+01
3.293348082608209097e+03
3.455316484179313647e+03
2.990404474687905804e+03
3.514727222392210479e+03
4.324337868749975314e+03
4.509274679218920937e+03
4.023564112811148334e+03
3.217210826714836003e+03
2.877285318072051268e+03
2.517818796049978118e+03
1.823734683439036644e+03
1.738990122558793701e+03
1.579687521677030418e+03
1.635948977883971793e+03
1.827777523143176495e+03
2.606249718496706464e+03
3.165432220496671107e+03
2.802365520195827685e+03
2.983108664771169970e+03
3.018671837721770771e+03
3.146076280026456061e+03
3.000385028996648543e+03
2.942597109448807259e+03
3.002827136384290952e+03
3.259124996729069153e+03
3.487487855530670004e+03
2.935015274443665930e+03
2.154759473443465140e+03
1.490714805474370223e+03
1.152896286094583047e+03
9.963027382502891669e+02
6.228849370511628649e+02
2.069653323897738773e+01
-2.390657782387055192e+02
1.536946392981861607e+02
1.463130062866093795e+03
2.134113316318484067e+03
1.743847678218384317e+03
1.570400724030860601e+03
1.394829695044124719e+03
1.750242283794745845e+03
1.778618735085370872e+03
1.915843196558107365e+03
2.083994296640810262e+03
1.902152305795075335e+03
-1.995934965189624108e+02
-7.952092276330530467e+02
4.522171617813748412e+02
1.947074505060438696e+02
-1.399612682919329814e+02
-1.756722513605514848e+02
-6.204588005698615234e+02
-6.012801053657651664e+02
-1.020227266847866190e+02
4.149167992265249154e+02
7.707785510054168299e+02
1.050738908516281981e+03
1.131590685366344587e+03
9.933085112920080064e+02
7.879562949324218835e+02
5.815363390423273131e+02
7.100205891284521158e+02
8.974053503976323327e+02
1.220705205517217792e+03
1.192986778768193517e+03
1.323253235913886556e+03
6.944524947848993861e+02
-2.603951161963832419e+02
-6.362384184637904809e+02
-6.521613039822333349e+02
-1.215230991522978002e+03
-1.390446881466449895e+03
-1.556860817690871272e+03
-1.119464974074194060e+03
-4.231739457527473292e+02
1.210364451442789289e+02
3.041367249881411112e+02
1.613923383356789998e+01
-1.839440467484191970e+02
-2.291464142144883738e+02
-1.054618931262546369e+02
4.330741361897992192e+02
5.664537917909217413e+02
5.236493005172848143e+02
8.136912201325166052e+02
8.755837676495941651e+02
8.913149722123996526e+02
5.898673621278791188e+02
-4.180883971671308075e+01
-8.317505359706279933e+02
-1.053990465155807669e+03
-1.405642612024412529e+03
-1.667747040589616972e+03
-1.376284348450357129e+03
-7.242186554722379697e+02
-8.356552296563074833e+01
3.756741447286016751e+02
-9.485579177265807402e+02
-3.345220639306607609e+03
-7.183333010646018920e+03
-8.319932603736471719e+03
-8.383083992963789569e+03
-8.243814961912981744e+03
-7.277132080075731210e+03
-5.724997434855347819e+03
-2.792488859549441713e+03
-8.227664745575033294e+02
2.445069787101379859e+02
8.019358935227059249e+01
3.461449695930723465e+02
1.523465278381220003e+02
-1.652882454123856917e+02
-3.459045556916951796e+02
-3.395399284258409693e+02
-1.548010218839413312e+02
5.180571886005020588e+02
1.151019153212298079e+03
1.518049704825716390e+03
1.635142605777821245e+03
1.188277713941427919e+03
1.234456948976614967e+03
1.184579593988716397e+03
1.450621808169760243e+03
1.993618553018772445e+03
2.151566237336786799e+03
1.990488214060616201e+03
1.507290726935755856e+03
1.121987211482691691e+03
6.745535042813755808e+02
5.139216329389904558e+02
3.060175986289474963e+02
-2.721882628470501686e+02
-2.827807836005878244e+02
-2.371401235282583642e+01
9.203635383853536212e+01
1.015520614181067344e+03
1.618712298168910820e+03
1.470569156233960257e+03
1.304105938387152264e+03
1.149302983220920851e+03
9.571549417418743815e+02
1.621645237072105601e+03
2.091727973523466517e+03
2.256416749050139515e+03
2.362756620491158174e+03
2.260739712762472209e+03
2.007360044215054586e+03
1.272575876560639244e+03
5.204396994838292585e+02
2.249129162891061355e+02
2.359444263945133002e+02
-3.355862005517474813e+02
-2.846583990583574746e+02
2.078049911533616267e+01
2.947436458334809117e+02
-8.577097205195688900e+01
-1.603727775564280364e+03
1.061896452985506130e+03
1.641116504214290899e+03
1.532922623690334149e+03
1.604292273113366264e+03
1.724249033795633295e+03
2.024801710392469204e+03
2.043934370339130282e+03
1.900659598205088287e+03
1.851024224387645290e+03
1.643028387454336553e+03
1.011709077218204243e+03
4.820745044995494482e+02
-8.529218334026018056e+02
-2.955225603706147012e+03
-5.469438891787131070e+02
-2.871475551802511745e+02
-1.847747381445991095e+03
-5.399681089460053954e+03
-3.045002641183675678e+03
-3.032640135948852731e+03
-1.676547971259909673e+03
-2.005733964838060729e+03
-1.981746308840792494e+02
-3.935834612582622412e+03
-2.574768537409375767e+03
-4.544975409083172053e+03
-3.913406290565316340e+03
-7.420435195889267561e+02
2.347153195997759212e+03
-8.177897299084946781e+01
2.931695997267422626e+02
-1.180021685686730734e+03
-1.394367860009308970e+03
-2.336854320708941941e+03
-2.276500486135785650e+03
-1.642363962637725308e+03
-2.746411317830490134e+03
-3.723562703710931601e+03
-2.593771288965599524e+03
-1.376043506517785772e+03
6.266386714554288346e+02
9.052866520340843408e+02
-3.591073025834213240e+03
-2.374077969086130224e+02
3.152926548343185118e+02
-3.325019787097264270e+03
-1.714294472481176854e+03
1.349527989862908271e+03
2.683439933082457173e+03
2.815414826861370784e+03
7.875041372293857194e+02
-1.338254554920608143e+03
5.070747014652602616e+02
7.994763990283520343e+02
2.168965552159256731e+02
-2.570304738755415741e+01
-1.912566430348493611e+02
3.243035822106911610e+02
9.509988205921529243e+02
1.596833946122824727e+03
1.779835767842184850e+03
1.607044921569397275e+03
1.906444445730146981e+03
2.223991425739151509e+03
2.205558153683254659e+03
2.306136612378115842e+03
2.383997497457119607e+03
2.545195022284412516e+03
2.648822119004559681e+03
2.207044320465618057e+03
1.636050922479374549e+03
1.033736198058538321e+03
2.660052736108071372e+02
-4.302219753714138051e+02
-1.760270142179604989e+02
-4.924254543409713847e+02
-2.207421285211232771e+03
-3.914019441004011242e+03
-9.179904951448418160e+02
1.105731646471823069e+03
1.422744873038347805e+03
1.557842642472395482e+03
1.389209076048282213e+03
1.359772573848364345e+03
1.296314279328547855e+03
1.564995894556309167e+03
1.700232698101714277e+03
1.859865653293900095e+03
1.904868421875836702e+03
1.870271109315412104e+03
1.579978142247966161e+03
8.219649112868027032e+02
2.772371548266457921e+02
2.106733193602845517e+02
-2.967334387213233526e+02
-6.430415934671543710e+02
-9.151799928104649098e+02
-2.250252197348902712e+02
8.319344487430845447e+02
1.243680201512679332e+03
1.645254076872117366e+03
1.456443892948844450e+03
1.535213617525325617e+03
1.382952600482828984e+03
1.630599846034512666e+03
1.818025870288389569e+03
1.745084798140979046e+03
2.158634522235291115e+03
2.306025442528556596e+03
2.072039460240720473e+03
1.279637385380910018e+03
7.789163611983216242e+02
8.439032279887381947e+02
2.564232501456476143e+02
4.265467145772865365e+01
-8.273009672600923636e+01
-1.497437982355050679e+02
1.186920832752989696e+02
6.815513116014559500e+02
1.215835398092071273e+03
1.663483250018999343e+03
1.418586919288545005e+03
9.341670609391924245e+02
9.851876120064163160e+02
1.019583097683945653e+03
1.305299502988341601e+03
1.689383566640268555e+03
2.003834560903783085e+03
2.189682812450321762e+03
2.227896985532798226e+03
1.535463481672771422e+03
9.104310410926943860e+02
6.317812226909828723e+02
-1.048508010806071070e+03
-3.707543924215023708e+03
-7.265426143894009329e+03
-8.080137004137169242e+03
-8.228571299181770883e+03
-7.602695802686652314e+03
-6.162489873017199898e+03
-4.533016286039423903e+03
-5.338232723557784084e+03
-5.999105578988913294e+03
-6.159649542195005779e+03
-5.797799884441148606e+03
-5.315410377803647862e+03
-5.319651041766173876e+03
-4.906657443359995341e+03
-3.925289235039833329e+03
-4.865332882171454116e+02
2.290601267293490309e+03
1.866186652291935388e+03
-1.937790502726489422e+03
-6.069409170243608060e+03
-3.021667265104227681e+03
5.854060173232339821e+02
8.988190509029011537e+02
7.956377654701132087e+02
1.492885202721837231e+03
2.201646453623640355e+03
2.489947923790646200e+03
2.152793429547974938e+03
1.771200907291669182e+03
1.840148784194807149e+03
2.446691017613435179e+03
2.519798946364718631e+03
2.188564967705015988e+03
2.849019572572176003e+03
3.159211309141021047e+03
2.812148403973664244e+03
2.734848609761721946e+03
1.850323464854800477e+03
1.036671772986073393e+03
5.728361385129032897e+02
-2.022008508905686881e+02
-2.934808796868454124e+02
-1.619722733730698678e+02
1.145858617315878902e+01
3.388758757874454091e+02
9.442785155151782419e+02
1.214702589223205678e+03
1.360153651858897547e+03
1.186696118750948926e+03
1.074384386690760493e+03
1.250211482555701423e+03
1.357189431354897579e+03
1.441358188737451655e+03
1.689747269551753106e+03
1.683436030646951167e+03
1.877528484839769135e+03
1.428971495269842308e+03
5.518241310476834087e+02
-8.486046570552753110e+01
-4.501243186977159212e+02
-9.260457689234553982e+02
-1.043725993296030992e+03
-1.114156108751993315e+03
-9.788915426398888258e+02
-5.566367928120464512e+02
6.581454114054342597e+01
4.193462739024281518e+02
6.448936776475137549e+02
4.416544014973987373e+02
3.407370311053953742e+02
-1.924755197539510903e+02
-2.849338273307532290e+03
-6.732154822490424522e+02
6.329494806081128218e+02
5.620078706133634796e+02
9.669353077658105349e+02
6.637828734048649721e+02
-1.168443170470904079e+03
-3.485729426153119675e+03
-1.154091144124419316e+03
-1.153559542135190668e+03
-1.466168091630333493e+03
-1.452928314365501365e+03
-1.161798534756630261e+03
-8.817360604504546018e+02
3.374812932753960659e+00
2.985174272328008556e+02
2.817196219085819280e+02
3.289832947899996043e+02
-6.270745686002154429e+01
1.756956999165698221e+02
1.521838594273197884e+02
5.567628508686375426e+02
8.694298480850026181e+02
9.542079941390544491e+02
1.012089903038479747e+03
8.000864859249021492e+02
-5.975934897279289970e+01
