1.826877807986912785e+02
1.906608280113083538e+02
1.716893978077300460e+02
4.137253902552218960e+02
3.728093837868463538e+02
3.429679187601380477e+02
5.451663482675969590e+02
5.964161857153511619e+02
4.317618862544095464e+02
3.822005554588914151e+02
-1.912629486632499436e+02
-1.617631633145905880e+03
-3.199119921753828066e+02
9.886535698717695198e+01
6.731889717132077955e+00
8.679594679083638908e+00
-3.652707777633988826e+02
-3.751526840060321888e+02
-9.296400569205079023e+01
-1.846444361686628213e+02
-3.422099733511419117e+01
-2.671874131638516303e+01
-9.412471382499606420e+01
-3.234108843350207394e+02
-3.064887586467156098e+02
-7.250585392364695281e+01
2.724854104145730957e+02
6.277362632710481876e+02
7.883661947775207182e+02
3.562989604577697378e+02
2.574606714419470563e+02
1.866844135184367133e+02
2.484908444737829214e+01
-1.895911545543136072e+03
-2.386175617475459489e+02
-1.729744921825687598e+01
1.080682350757497687e+02
1.215547980289557302e+02
3.428424052695017110e+01
2.242837111349058432e+02
1.725355112588752036e+02
1.845531830734387881e+02
4.225799260254100318e+02
5.118299173363741943e+02
1.781068257065688272e+02
2.173752638463081439e+02
1.676449062119138489e+02
5.659226739539665232e+02
7.232059679044918994e+02
9.265380479006108772e+02
1.151855344105871382e+03
5.852007597934388059e+02
4.515835958171537072e+02
5.402948850547559232e+02
2.442017799472792774e+02
3.990952994229434694e+02
2.881217226511044487e+02
2.631629316225406683e+02
3.188476680498010865e+02
4.976040396809437993e+02
3.634747888285774025e+02
3.332022551982448704e+02
4.108106298212837260e+02
5.793147162912058548e+02
6.606829644497244090e+02
8.418172217993169397e+02
6.300015876227798799e+02
6.701615511818149571e+02
9.842134464069257547e+02
1.020098124102403517e+03
8.868790021961460752e+02
8.127105623109382577e+02
5.433215792165435687e+02
5.777845742109775529e+02
2.581208707850375390e+02
-1.573509721696263952e+01
-2.776280023083526416e+01
1.380354842475643693e+02
2.426522592590234240e+02
1.740719708215924868e+02
1.482694516133398963e+02
3.828145036572313842e+01
6.309413142850847578e+01
3.516921753261298136e+02
3.321361200928755011e+02
5.833914483393006094e+02
6.284432200533035484e+02
6.332939406488541181e+02
7.529339860366050061e+02
9.313797151317534144e+02
8.896538514787897611e+02
4.647005872570927636e+02
-1.345101652139080102e+02
-7.249482744983964722e+02
1.513870072832588960e+02
2.354846654385063403e+02
-5.536374525450816009e+02
-3.949007460146139238e+03
-2.910608461391856054e+03
-3.754422889403739987e+02
-2.205574019623243203e+03
-5.173919777070897908e+03
-4.868484711928382239e+03
-4.730276605794058923e+03
-4.731320261717143694e+03
-4.785612693630590911e+03
-4.090153904663214234e+03
-4.189360622145925390e+02
1.075070749408671873e+03
-2.711760293353106022e+02
-1.131634413844820983e+03
4.317121769775975508e+02
9.488284434571467045e+02
9.957133203866459326e+02
1.268402957027862158e+03
1.054920894882747007e+03
1.053214755876400886e+03
9.372815849899664045e+02
8.291413869227648092e+02
8.647965405777713386e+02
7.322753977558687666e+02
6.864764056457738661e+02
7.024568449536736807e+02
6.372201402890883628e+02
7.037989452752586885e+02
7.821889880108668649e+02
4.244127737018825428e+02
3.974398367047809302e+02
7.392706957660409444e+02
7.679847976786450090e+02
7.255739654654649939e+02
7.130140169669567740e+02
6.383529689160189946e+02
9.855716296215161947e+02
4.136621237685478718e+02
1.716238071093211488e+02
3.605161119220619526e+02
4.262490102861069090e+02
3.798576618940146545e+02
8.836891821080328668e+01
4.147840919031898466e+02
1.810980377553586038e+02
-2.764488264985473265e+01
-7.645569595774357197e+01
1.817008833670763863e+02
2.068331571729806626e+02
2.299318574445157140e+02
3.509893779606530870e+02
2.810102037686936569e+02
4.761062802817200463e+02
5.403627473618238355e+02
5.368775636411851337e+02
1.953896441765558052e+02
2.187235747794119618e+02
5.591053897831928907e+02
2.236818364926058109e+02
-5.745900266161816461e+01
-7.953189081444250519e+01
1.073029651251326726e+02
1.291823871211497874e+02
-1.859703100119371015e+02
-1.060883341692456554e+02
4.596555732065780120e+01
2.091098671494436019e+02
3.705010292137612282e+02
2.680444598107706042e+02
-7.248547421230444598e+00
-5.623238411538729054e+01
2.198297821535381331e+02
1.479943923067513651e+02
-1.486239852450434853e+02
1.100828190152584369e+02
2.628663293544130397e+02
1.578487040212963848e+02
2.541270477745644030e+02
6.544571061070409712e+01
4.292037998167830182e+01
1.354164399625078374e+01
-5.469014930152928144e+01
-2.207733316172402738e+02
-1.276499851245428516e+02
-2.643133685327277362e+02
-3.827670294431554794e+02
-3.680141328459980627e+02
-3.420596547905479952e+02
5.011722184210906761e+01
2.805343089791937814e+02
-1.382160396372887767e+01
-1.049635500202516027e+02
4.316000179640712275e+01
-1.448333729280472326e+01
1.061364419511523920e+02
1.510316864271120778e+02
2.101794070457533508e+02
-2.294451746495309976e+02
-6.782361213484897178e+01
-1.719513502778256964e+02
-3.718242795083465353e+02
-1.984316065576861945e+02
-4.381806294850476746e+01
2.300638162492553818e+02
1.551916092907780182e+02
4.495783784351750683e+02
3.932290381697310409e+02
1.891341244203946133e+02
2.493146321322211634e+02
3.857771820456183036e+02
9.522996289565158534e+00
-1.124607843170967669e+02
1.398345972779162878e+02
-1.416122844359342139e+02
-2.607829014112857067e+02
-1.248699822297106493e+03
-7.163706750542016835e+02
-7.877771274104760550e+02
-3.649412391429568743e+02
-3.468766936730344241e+02
-4.826006124560217359e+02
-2.350417972184256143e+02
-3.472277450299022803e+02
-1.961799392613378075e+02
-4.309214965028328379e+02
-1.994664822244195364e+02
-1.728462169027737332e+02
-6.806453907303463779e+01
-1.981274008646720972e+02
-8.180297494247355417e+01
1.197886204021003351e+02
-1.333616304136788528e+02
-1.461624428114319869e+02
2.322839268275416487e+02
2.870426691382526769e+02
2.200926196312566674e+02
2.151562728618180529e+02
3.133996627115192837e+02
4.338160494662768087e+02
2.764372948765359297e+02
4.509574189924286003e+01
-1.071359206658414820e+02
5.662057164982533664e+01
-3.933668205130136641e+01
-1.209457357400052757e+01
-7.273002773578303959e+01
1.588083355088952544e+02
3.624259566449462682e+02
7.510943150614018577e+02
7.856544339688853142e+02
3.883078551695180067e+02
3.822023474810683297e+01
1.225435375118217074e+01
2.055077406224421281e+02
1.878195547218648471e+02
4.061693429810965768e+02
4.965495542339418193e+02
5.939302481535114566e+02
6.933453044360187505e+02
7.627242324166088565e+02
5.669484584606379940e+02
3.611773838677319191e+02
8.948581561447689126e+01
1.226446542719177444e+02
8.191303466242180775e+01
4.506388185633868915e+01
-5.900020359651473711e+01
-5.487286452384380908e+01
9.319152780720865792e+01
4.132505874858879906e+02
6.773710735027104874e+02
5.435456135214959659e+02
3.485689029474833092e+02
4.245132230653158558e+02
4.163725852848887712e+02
7.101260222756003486e+02
5.747964940960201830e+02
-4.462817365965632632e+01
1.087857167575654245e+02
1.760581906254452633e+02
-3.825353019049348546e+00
-8.784669513563429177e+01
-3.340296275119471261e+02
-1.583530604841817819e+02
-3.338578132923251474e+02
-2.294534908822908164e+03
-3.621399045370162185e+03
-2.458464417465876977e+03
7.824096450859249785e+01
5.087757620499405675e+02
5.371461274400746788e+02
7.383214756103081982e+02
8.533395199991846312e+02
8.573057181222465033e+02
6.209586121969822443e+02
4.463818811179074828e+02
3.565783689437017756e+02
-2.313419853524550945e+03
-2.458607079951537798e+03
-4.402502059876473339e+01
-9.556736715670854210e+02
-1.375541084589812726e+03
4.073479960403726068e+02
4.389920720362092084e+02
3.984640629036135238e+02
1.917233025653476943e+02
-5.124924134282206012e+01
-1.034918392609597646e+02
8.605366097952700954e+01
2.893767202420523859e+02
5.804654051318042320e+02
4.073684071508755551e+02
1.010873339591931170e+02
3.255758864556162848e+02
-8.481073575501835649e+02
-4.769984934200448947e+02
-3.880466093232716958e+02
-1.532311627744521502e+03
1.152370872892477820e+02
2.605769108902192102e+02
5.437377776942754508e+02
3.657237074771976495e+02
1.065133705560832595e+02
-2.449137199567541359e+02
-2.314519883258330538e+03
-8.323221286794412208e+02
5.973690463356089708e+01
8.763176823731537013e+01
-8.366081729729965843e+01
8.989142493580141036e+01
1.652935086651407062e+02
2.915461371476934005e+02
6.187147252206002577e+02
7.957694419396821104e+02
4.677309067562979408e+02
5.536140077495073228e+02
6.504139021726005012e+02
5.340943594827673451e+02
3.866769410470935213e+02
1.531684279821355972e+02
1.985648523068257987e+02
8.814200398097000289e+00
-2.481456485351856713e+02
9.980292797239779645e+01
7.779425495911280564e+01
1.681985338100605887e+01
-6.043971953233956640e+00
-6.190064292943819879e+01
1.873277537463227702e+02
3.596198867182775984e+02
3.360046663776554396e+02
2.215276618425407662e+02
1.233097298337761174e+02
1.265098774568998152e+02
2.972290168416324008e+01
2.909484924133314507e+02
1.182804766164674390e+02
1.369603005680084209e+02
1.856403222055463971e+02
-6.578015170488197327e+02
-4.781609237741749894e+02
-2.633684225752268162e+02
6.459412484106118768e+01
1.377579410437916074e+01
5.732822133945752796e+01
3.025795036453780540e+01
-9.288630429913040132e+01
1.237666439852173141e+02
1.314243334564638133e+02
1.423604419790415534e+02
3.406290075504637684e+02
4.709305706218922438e+01
-8.309633723450428278e+00
3.223325256532213530e+02
6.639731167197572859e+02
5.966778821338421039e+02
3.654009478690043125e+02
3.051788435308851035e+02
5.139838618728152824e+02
1.001809809821248223e+03
3.846921848889712692e+02
4.196194951653477005e+02
3.105609451367038218e+02
2.455258975697572055e+02
6.448553336336152597e+01
6.747890674881008977e+01
2.552552113302482795e+01
-1.393885150368591610e+02
1.906932677915769716e+02
3.317815639326587416e+02
2.728995691191885840e+02
1.800405061265994959e+02
1.092011496001014876e+02
2.873483713262450578e+02
2.615709175810290503e+02
4.448303309711818088e+02
1.830514927149735342e+02
8.328408109125565773e+01
6.551934760743131392e+01
-5.721896092971216774e+01
-4.099802164355742917e+01
-1.227738483247142653e+02
-3.755025480020643869e+01
1.556939041305718376e+02
-6.076808839892096969e+00
-4.788408949048975671e+01
5.228389678599855017e+01
-6.356230336616435039e+01
-1.384305246897756945e+02
1.336407383866860812e+02
2.126760463115798814e+02
-1.235025748177451099e+01
1.006159431080901783e+02
4.245481508604743226e+02
3.704341066673198384e+02
-1.177093203710348917e+02
-1.275875020933186761e+03
-4.820526204646120050e+02
2.226765455188526062e+02
-1.244672632164641982e+03
-2.491080461548139738e+03
-2.122572650289338526e+03
-2.525164696394073417e+03
-9.408263010179950925e+02
-3.236157782715558255e+02
-8.499158133355882327e+00
1.255296034963750884e+01
5.518501591955886632e+00
2.503984606067027698e+02
2.962017297174657529e+02
1.109471606966359900e+02
2.395726844704111613e+02
3.560827806017833268e+02
7.045371920681886877e+02
5.658903343731155928e+02
4.881450584841365412e+02
4.533061795948748340e+02
3.863896767089673290e+02
-1.460737169184056405e+01
-4.706237720368353195e+00
1.060923641432176794e+02
1.418061166938037161e+02
2.940935433541264388e+01
-8.209817458896461062e+01
1.472999076622473353e+02
3.665626153488877890e+02
2.447232570850435138e+02
-4.718806165543975339e+01
1.280588056516567086e+01
7.471837903654029844e+01
5.665475939995727686e+02
6.322521851211863577e+02
4.718787236995895569e+02
2.484090690994013642e+02
1.108985064786833163e+02
1.753102890809213079e+02
2.096520936957486470e+02
2.889261610109028311e+02
2.761218062667183517e+02
4.982574890368870797e+02
3.542954956422922805e+02
1.062772384630723224e+02
-9.082540788851308378e+01
2.600490621238503763e+01
6.179987557168576018e+01
-3.148322251530710503e+01
-1.882105614746905076e+01
2.982794075695158398e+01
1.134747631105237531e+02
2.310551863010944373e+02
5.936361611906771714e+02
2.462381708951568839e+02
2.519296035514178413e+02
5.846355070743898068e+02
4.643854421028174215e+02
1.891315647564393601e+02
-1.750869922749666046e+02
8.710387247709547864e+00
1.405099379021505399e+02
3.803625423428754857e+02
4.882517143411972143e+02
1.881714244963642670e+02
-2.218548715812559351e+02
-1.246801465965344278e+03
-2.368695991619293636e+03
-3.425256667496290106e+02
1.066067661925627448e+02
2.609049723339464322e+02
1.714269044143169367e+02
3.030522036212381636e+02
6.567419287813712572e+02
7.005299766140395832e+02
5.734404420351385170e+02
7.094800164407035936e+02
6.146264376565396788e+02
3.818799134121002226e+02
1.552509461395715391e+02
-2.100230930747989532e+03
-2.807562145988451903e+03
-2.382731221951620228e+03
-2.368732675584748449e+03
-1.003553573680853788e+03
1.737908298595687313e+02
3.824912819117631813e+01
-3.371176307198448967e+02
-2.941340545133430624e+03
-3.462433328914718004e+03
-1.829327069058954748e+03
-1.654011040899209547e+03
2.415184056767853349e+02
6.802516961366128498e+02
6.801931070690477554e+02
7.843133276097194084e+02
7.136408263381772485e+02
1.081146197210400942e+03
8.648078542176332348e+02
-9.703290584895672737e+02
-1.035249469385435532e+03
5.600799599814392593e+01
-1.478533752904212179e+03
1.601285416578452327e+02
-9.660184548626767764e+02
-3.494957028380355496e+03
-8.306913069106027478e+02
-1.305270432617606957e+03
-8.836728972247263982e+02
4.711949689666153773e+01
-3.594089239513706246e+01
3.816480311025922134e+01
5.544835373132975747e+02
6.969832284892243024e+02
7.626432841495260391e+02
7.934619893271734554e+02
1.109435135418648770e+03
1.011615869293204582e+03
8.689285657010979094e+02
8.403755663105946496e+02
1.014986833859170929e+03
8.747175954391148025e+02
8.496006277558285547e+02
5.375980045357385961e+02
6.215565339965093017e+02
7.948916779997870208e+02
9.895999951170113036e+02
7.373996610862662919e+02
6.022922807565684025e+02
8.672998757937469918e+02
8.123592825172270295e+02
1.203385403144498014e+03
9.783913651715195101e+02
9.435730635290500459e+02
8.097079886261680031e+02
6.508798579628465859e+02
8.371694140221885618e+02
1.060694009837199928e+03
1.090265794147241650e+03
8.876619618166226928e+02
8.800994114874949901e+02
8.095487606161719896e+02
5.748436667399673752e+02
8.210295533445467981e+02
9.200814702837578807e+02
6.560008146472997623e+02
3.007906634759700069e+02
4.856289499531220599e+02
6.532097666241813840e+02
7.567498382299305604e+02
6.161298626003601839e+02
8.151817612535944590e+02
6.033223890388704831e+02
6.812312226533147168e+02
7.060633125101851419e+02
1.150884713512238250e+03
8.785654675527219979e+02
1.029150232734726842e+03
1.018391895482911877e+03
1.041379463320619607e+03
1.171084227958984684e+03
1.099535523562546587e+03
7.847059746152225443e+02
8.046297324192669294e+02
6.644109379624291023e+02
8.006897650938572042e+02
7.917376317807788837e+02
7.284708402189129401e+02
7.768687019547536465e+02
6.219312916557136077e+02
3.816475121103644028e+02
6.739923700944340226e+02
8.429234380954661674e+02
8.334623273618839221e+02
9.216594862309618748e+02
1.142469093436462117e+03
1.041894347127399669e+03
1.118923098848359814e+03
1.042577355280560369e+03
8.348685372169228458e+02
-4.122616571982763389e+02
-2.915783904254125900e+03
-4.202655021569854398e+03
-4.331959250663981038e+03
-4.407696083802397879e+03
-3.695842916720630456e+03
-4.462409764776362863e+03
-4.281366554303975136e+03
-4.371741046650045973e+03
-4.416573476452306750e+03
-4.431778736931722960e+03
-3.128368397683529111e+03
6.676469853917486716e+02
1.288272587592111677e+03
1.273508812570388955e+03
1.480353782527252179e+03
1.649824953297543516e+03
1.452915060518643031e+03
1.638633239216604579e+03
-4.393852566653089298e+01
-3.282860884734661340e+03
-3.902166116812473774e+03
-4.137883896888467461e+03
-2.362921773159664554e+03
-2.731444406449028861e+01
-2.699037008863328538e+03
-4.010085238812181160e+03
-4.408482219446164891e+03
-4.176221561564530020e+03
-2.889271560432935985e+03
-3.605998963037627618e+02
1.120834155022207369e+03
1.290022101645687599e+03
1.137966929446726908e+03
1.369647076745418872e+03
1.214111662459632953e+03
1.416344896068593471e+03
1.261383949374378062e+03
1.141224881119021347e+03
1.322842975748396384e+03
1.487320244604623440e+03
1.340670740951242351e+03
1.216889365580221465e+03
8.110032705625835661e+02
9.260333569787824217e+02
8.519859010808728499e+02
9.078880617272607196e+02
8.467304366583606452e+02
6.585234135561556741e+02
7.102563473488351065e+02
7.429709516590738758e+02
6.946921685672498370e+02
7.114511754872995652e+02
9.992479863439822338e+02
1.111132715394685420e+03
6.860751460613247446e+02
8.170947643767882482e+02
7.852189226587215671e+02
8.164976592659545531e+02
6.359435284457398438e+02
4.765285675849805784e+02
2.293190409125571136e+02
4.222782215676804185e+02
5.934033632675027548e+02
3.287569957508772518e+02
2.213413317733886174e+02
4.291605826369897727e+02
4.292525760006642486e+02
2.406302751323463553e+02
3.022548725630710464e+02
-1.284833712461957589e+01
-1.162820033229251848e+01
2.288871317579731368e+01
3.606423150963889270e+02
3.266310854556849108e+02
4.110403527752310993e+02
9.850901277524608304e+02
8.547561211618216248e+02
8.050309036629054162e+02
6.548653864993409570e+02
5.522657530282589278e+02
3.591192797861646682e+02
6.653643521296061181e+02
2.940294227337967641e+02
5.920957966192126065e+01
-3.015122460382654879e+01
-2.260292269450257550e+02
-2.344444718416961493e+01
3.457200542157020351e+01
1.050415806504613130e+02
-5.902282980227999332e+01
-2.405885699374257740e+02
1.393022619231119847e+02
2.106545969633427831e+02
2.248532376978061365e+01
2.378028503044767561e+01
2.605352227801452614e+02
4.797696938344838031e+02
3.145360364096970898e+02
3.857768201184192094e+02
4.765038077927895301e+02
2.017106208661140272e+02
-2.160767872702977854e+01
-5.443560626035548466e+01
-2.267977685223096671e+02
-6.370683935773056561e+01
-3.716606163065134893e+01
-1.841500869488258445e+02
8.332440757275584531e+01
1.572458698740487080e+02
-1.714201827953890529e+02
-4.657750157118118572e+00
-5.945530431700598228e+01
1.716856131446704481e+01
1.842284975831600491e+02
1.777009647558886343e+02
2.546698159990677279e+00
-4.204914961787646455e+00
2.394267312672139667e+02
1.483862376010567630e+02
2.147152004889034060e+02
2.833902009477072284e+02
1.984079984727292185e+02
2.807326272087842653e+02
-3.066055179665496766e+01
-4.573079748673551137e+01
-1.525315851181249514e+02
1.192232277582196254e+01
-3.513815244900911807e+02
-5.344577503302230070e+02
-4.273405337377171236e+02
-5.259786631211626400e+02
-1.614354318810310929e+02
4.825597456863157930e+01
1.570906282798147799e+02
3.991192789085720278e+02
1.513203751703671855e+02
-3.497225957227247384e-01
7.610367263931242121e+01
1.546186810343492084e+02
-3.767928631631958183e+02
-2.751238033683983417e+02
-4.840608919688252598e+01
-1.415827412244287871e+02
-4.386124286818985070e+02
-2.161738319556529405e+03
-1.347926801569725512e+03
-5.816005896675702047e+01
-1.142816757964528485e+01
-1.067662613507277314e+02
-1.232189639136785502e+02
-1.677769944340491648e+01
1.975424082447777039e+02
1.987038561729000889e+02
1.817415002601601088e+02
-9.034398260485764354e+01
-2.305606635182422508e+02
-4.037255693503852854e+02
-1.669627314332743140e+02
-1.363802193371577118e+02
1.600426420454274989e+02
1.521438604351583024e+02
-3.170766139074913212e+02
-5.052265522441032175e+01
8.182319460328447747e+01
-3.488781826386021407e+02
-4.987787518277286267e+02
-6.470523055221954110e+02
-5.166258685358167213e+02
-2.516475309456907610e+02
-9.501503990212817996e+01
-5.374808882693791645e+01
2.941367824608336718e+02
3.266626161279075404e+02
6.278918764932474517e+01
3.625620108302815083e+02
6.421074502581438992e+02
3.582979394644834770e+02
1.800045755317915450e+02
3.174688587977453267e+02
2.244274182254243897e+02
3.750799583567823561e+02
4.345673542608299726e+02
-7.951473887024003773e+01
-2.129762584035412942e+02
1.841357699653197244e+02
5.680731975003948975e+01
-2.299221579504976205e+02
1.394597624819684434e+01
2.003530930129301737e+02
1.073071147423580385e+02
4.118235612463475377e+02
3.409451314981898804e+02
4.336302580103734385e+02
3.318909815064993154e+02
2.507359640829394607e+02
3.731652374190550745e+02
3.118629460339268533e+01
-7.120418885037896928e+01
-1.919771094214886205e+02
-2.926090297288524653e+03
-2.626588376107835757e+03
-1.948483049891117616e+03
-2.269777762654907292e+03
-3.924398395824568979e+02
5.335761898548108775e+02
5.422164768016958760e+02
-3.414886095634900016e+02
-1.223557909863596251e+03
5.450483025741331176e+02
-6.216646994846713596e+02
-7.586679191497697730e+02
4.560617676811735919e+02
5.395032462600323697e+02
5.176660027083707973e+02
6.595628459895094693e+02
6.232507587369514113e+02
6.756714385215873335e+02
1.199867008837302365e+03
9.848625343030117847e+02
4.156424245188985083e+02
-3.737778176498488847e+02
-1.311345064841505973e+03
4.329553670332948059e+02
-1.363926383730601628e+03
-2.659705815994511795e+02
-2.691570256731726545e+02
-3.130457614101297622e+03
-7.728719253200777075e+02
-1.700376344686675566e+03
-2.222968236611010980e+03
-1.186365528387484289e+02
6.055792429115109599e+02
7.967598666714284263e+02
8.478908657150012687e+02
9.370165440197299631e+02
1.007105883981100078e+03
1.169191455478901617e+03
9.642951212768950882e+02
1.151439556017386394e+03
7.395951376511790158e+02
-9.762072385740247000e+02
6.230469414271029791e+02
7.423543768678583774e+02
4.657222080340373509e+02
6.241341458239214717e+02
7.066254082693052396e+02
6.432357145228719446e+02
3.349491534172040019e+02
2.497548397351878293e+02
3.666834299707902005e+02
3.617141192338589804e+02
5.188429645200092182e+02
3.651273731359223689e+02
4.785436118896035964e+02
6.981127656177616245e+02
4.688550001254033077e+02
3.598864382538799305e+02
7.553369305209889717e+02
7.731392724627237385e+02
4.582301526053146858e+02
3.466146533880154834e+02
9.723662680054272300e+01
1.731863829169340363e+02
2.403122787348717111e+02
-3.033714577878498062e+02
2.413887972385922254e+01
1.270344888299904511e+02
5.820974357937117816e+01
1.074357590500850819e+02
1.909445135445200226e+00
2.206427336707191103e+02
2.176666832397827136e+02
2.359642529510718418e+02
3.665661781714777021e+02
5.244246115437418894e+02
8.297308482643339858e+02
7.656914675534632124e+02
3.612445796228379322e+02
7.041093568945904053e+02
6.330568644924363753e+02
7.120076719162358359e+02
6.203501390906073993e+02
4.340192227804338927e+02
-6.123612165210588643e+01
-3.814283376140905375e+02
-2.312753937469020400e+02
-1.779954305744170711e+02
-1.816766221852168712e+02
1.717606313123639268e+02
2.502909722584577707e+02
4.668669756812582818e+02
9.249076975536904399e+01
1.141540566918262556e+02
2.188671852828405520e+02
2.136015682129603022e+02
-8.065062067195231066e+01
1.940781190267403247e+02
8.582478888126489380e+01
1.545763008956066642e+02
1.643585604020905180e+02
2.351473248664328253e+02
4.509026639637880294e+02
1.976353106589926085e+02
3.923581681674727974e+02
1.150624954456463485e+02
-7.830833826995613833e+01
-2.577413847657695101e+02
-2.652249931254939952e+02
-2.077888761562898310e+02
1.615428005089499948e+02
2.257534674084091932e+02
-1.610916981168500683e+02
-3.640235177775850843e+02
-4.505753327340037373e+01
1.837714519944164522e+02
-1.548472118741069892e+01
3.581675062898948454e+02
2.727110716010618603e+02
6.713158975158860642e+01
1.014160971151409996e+02
6.957147264700668643e+01
4.956280299395183420e+01
1.223792829148844277e+02
2.220427098049028700e+02
5.565597264355527152e+00
-2.710874779680402185e+02
-4.448803162545188457e+02
-8.878470474987040006e+02
-2.241988772262799557e+03
-4.629336792343139678e+03
-5.793906674556441430e+03
-5.286711926599020444e+03
-2.983813165450955694e+03
-1.339162651821202417e+02
9.083206055611097440e+01
1.913939770002243677e+02
2.707835130775550283e+02
-1.534978255286618378e+03
-1.103949478014833858e+03
-1.511076457108048032e+01
2.735371637445985584e+02
6.280025477385030399e+02
6.863114611407141865e+02
5.584342002837314567e+02
4.603872865606199412e+02
1.781693325297285924e+02
5.967789271260395481e+02
5.012535311866651000e+02
7.535163344792156295e+02
7.766116775173572933e+02
6.155472488032626188e+02
3.633293179594750768e+02
2.669831145957577405e+02
4.644924377142859271e+02
2.998694754788330670e+02
4.170885936285448565e+02
4.422201735268841389e+02
2.582864524680815634e+02
2.612526728913152283e+02
3.661234886207240606e+02
4.339515699288489259e+02
1.646863615421754048e+02
5.313899465741003247e+00
3.923239216980464850e+00
-5.751963492134655098e+01
2.797565358495198851e+01
7.245282874167904197e+01
1.348839281981923364e+02
-7.367945842145633151e+01
3.975228584555547684e+01
1.931720626085373453e+02
-6.842775299655521337e+01
2.400376941158801856e+02
4.115646316294822213e+02
2.761385124108469427e+02
4.697805131965975534e+02
3.664902271359961787e+02
3.522865883916400662e+02
3.341994510447731273e+02
6.321475367253055566e+01
3.473996285573421687e+02
2.326845782115144061e+02
1.161363551984468643e+02
4.374165114203460547e+01
8.551115460363794440e+00
1.956588027223899218e+01
1.867193964296418471e+02
3.603839177043701625e+01
-7.484838869047521825e+00
-4.107474711773231206e+02
-2.065624871996220975e+02
-2.380768175385409791e+02
-9.633229027460423310e+01
2.257109294635556864e+02
1.390521188196904916e+02
3.306762929091784144e+02
4.166382280252794317e+02
5.190888939245139255e+01
-2.735142625707484854e+02
-2.856134174556763696e+02
1.036669387207608821e+02
-9.553776496509678395e+01
-1.124095207413856485e+02
-3.500498059975812737e+01
2.872937382242417215e+01
-1.831078794960038503e-01
7.275518873690859145e+00
-2.058899107179370844e+02
-5.286993085530402823e+02
-4.921230647804287059e+02
-4.451333917518174985e+02
-3.697337363842431728e+02
-7.689926858068612603e+01
1.034571141905328417e+01
-1.035807784446109769e+00
9.401675634131935055e+01
-2.125308320093352279e+02
-2.546521428046750088e+02
-6.532008198032524149e+01
2.554090455572255109e+02
2.075197636299860733e+02
-9.352958700160606265e-01
-1.698179104229615533e+01
-1.955881966405640640e+02
-1.738008083947763680e+02
1.813699562269087835e+02
3.791811352837537186e+01
-1.431748829749623440e+02
-1.279013798801470614e+02
-5.525783173975497675e+01
1.547683511777587171e+02
2.111273692382910951e+02
2.358079043537611597e+02
-6.814600917203011932e+01
9.424684432037702209e+01
1.459588865224140193e+02
1.240050555747002363e+02
6.835475940998942690e+01
7.098107320460781011e+01
-3.470481386645017210e+02
-5.317726346214183195e+02
-1.662403654785326523e+02
-1.334227801752940366e+02
7.166837377699093281e+01
6.499625280013283657e+01
-1.724879730650990268e+02
-3.357751653621577930e+02
2.311618924531569874e+01
2.152236742099752007e+02
1.514822917064241494e+02
5.188317927446082933e+01
-3.555282717685066274e+01
1.471483621542198250e+02
-9.900619912631262309e+01
3.393908913300218444e+01
3.609868781006326230e+02
4.563604503970890391e+02
4.518597514572365981e+02
3.703973574986251833e+02
1.120487425311377336e+02
4.065979133518282538e+02
3.520690031705797196e+02
2.664975306503792467e+02
3.069382853804982574e+02
1.234053692421860688e+02
-4.334992923416828070e+00
-3.108784590505364775e+01
5.008156233498301901e+01
8.906619079748971046e+01
2.258858775332909943e+02
2.454925119799758590e+02
6.557548993455801565e+02
3.538445731153525458e+02
3.309885597036516174e+02
2.658110511398086828e+02
3.335469332425383300e+02
3.601298046146416141e+02
5.625031617555501953e+02
6.706538193132437300e+02
4.963896476577704675e+02
4.209530513947508439e+02
4.121109580337306397e+02
3.519404011450367307e+02
5.026594484751204277e+02
3.958040532088508030e+02
4.325318410877349606e+02
4.230411025741349249e+02
2.048788213589780867e+02
1.382780121819040744e+02
1.292655238744598307e+02
4.348699541803238731e+02
2.429816395403687750e+02
4.517015049969066922e+02
6.578392041627694198e+02
7.616299543741307616e+02
6.418882263172328067e+02
5.866229040514244844e+02
8.979873646349154797e+02
9.617049600285079123e+02
9.358470883446186690e+02
6.494445288131520329e+02
4.114674643933420839e+02
3.988941170938120990e+02
6.417071252947786206e+02
6.029544301734764531e+02
7.066232892677663813e+02
5.436724265441590660e+02
3.611369168215042009e+02
5.129749851006223480e+02
4.571718624918447631e+02
4.217471612681162014e+02
3.867166796715118835e+02
5.580843004080480796e+02
6.198388933240694314e+02
4.859354074303071229e+02
4.654000500731780221e+02
5.282777469474959844e+02
7.735512086800200677e+02
7.162342685411800858e+02
-5.996908141939229608e+02
-2.404222975655659411e+03
-4.679299640744864519e+03
-4.804004965419184373e+03
-4.829302526203530761e+03
-4.623173452099205861e+03
-4.455628430107639360e+03
-4.735641602735172455e+03
-4.387218513284524306e+03
-4.195364988930384243e+03
-3.933070674300995506e+03
-3.869346272110843074e+03
-3.331208328601707763e+03
-2.084668811375151108e+03
1.122345934570759937e+03
1.558908716472372362e+03
1.401975117498989903e+03
1.399564629020032726e+03
1.430661790563394561e+03
1.586284007742855692e+03
-1.008538881163312112e+03
-3.754742330981016948e+03
-1.601312998899812101e+03
1.016953671187350778e+02
5.343056725601254584e+02
1.127530449904824309e+03
1.271388756537249492e+03
1.327878671383119354e+03
1.117007165323588197e+03
1.257843249115002436e+03
1.311361298733024341e+03
1.078589669131447863e+03
1.139561819317009167e+03
8.933221874651284224e+02
8.858441782063476921e+02
7.891695956311569944e+02
7.642864619154354386e+02
1.054243031891310920e+03
7.560227752145221984e+02
7.986415882875357966e+02
1.035175158809749973e+03
1.156592405900273889e+03
8.589382315679321209e+02
7.782509426572549955e+02
8.725326721291995682e+02
7.467726299821799785e+02
7.020142763451207202e+02
3.702459515435824642e+02
3.464968715440324445e+02
5.637920150408642712e+02
5.521821526896761725e+02
1.986461524460680721e+02
3.391759609404313665e+02
4.988421328543428217e+02
3.896305770423626313e+02
6.295929900544136899e+02
8.747431380960794058e+02
8.710988514862519878e+02
5.616759911674840851e+02
4.594820008564052500e+02
5.185260696708198793e+02
6.078050316724264803e+02
5.383802354777259325e+02
5.772478775861965232e+02
5.014494646462516698e+02
4.879932058045972099e+02
4.648509366151976678e+02
-1.336905717825991076e+02
-9.364991505212233278e+02
-2.197892956161208531e+03
-2.219346511166296807e+02
2.583907152299793211e+02
1.901165153557697067e+02
3.332386086503424849e+02
6.877022346511579372e+02
8.838366433738125352e+02
6.335173709053390212e+02
3.526144229237186778e+02
2.121606072444300821e+02
2.291556835615319585e+02
2.466021075444943733e+02
3.565226844561485109e+02
4.769702591174794293e+02
2.869474688835678649e+02
4.743779128419984090e+02
2.062964338658552208e+02
