3.304952174561205084e+03
3.724486955100489013e+03
3.718937655744557560e+03
3.971382388017799258e+03
3.810856762030897244e+03
3.606337042175511669e+03
3.761835062073203972e+03
4.056382213640868486e+03
3.149017259703926811e+03
2.136735928151210373e+03
2.045526808798457068e+03
9.853377613855166146e+02
-1.457907808802469845e+02
-7.318735421358543363e+02
-8.918578487925113905e+02
-9.177282267458500655e+02
-7.075348843751808090e+02
-5.722051572873060650e+02
-2.256963539013207480e+02
5.270641438736369082e+02
9.141316219928278315e+02
1.427542654453571004e+03
2.207393814868766640e+03
2.468705200621131553e+03
2.559423962468654281e+03
2.641664058927803580e+03
2.315513487355751295e+03
2.015294844803534033e+03
1.807008481636280067e+03
1.260526427194781718e+03
2.858158345563704188e+02
-7.560773324242414901e+02
-1.254178443106164650e+03
-1.792611014594860308e+03
-1.933343095122864952e+03
-1.640331739493291479e+03
-1.748626735529725238e+03
-1.647363495752233348e+03
-1.172486364556139051e+03
-9.548332038530415957e+02
-3.945835487711639189e+02
3.902495693452009391e+02
1.200732936494183605e+03
1.560895467661445309e+03
1.818799076261362416e+03
1.804425656845318599e+03
1.605730470526562613e+03
1.199792232793673747e+03
7.806349257315870318e+02
1.701884904469860089e+02
-4.925852238754372365e+02
-1.359683493135969456e+03
-2.088093908268215273e+03
-2.530899719137609281e+03
-2.497136006889584223e+03
-2.669796066982709817e+03
-2.803904658567882507e+03
-2.590507216333142424e+03
-1.783580989688516411e+03
-1.014078054819762428e+03
-5.909683883916276272e+02
8.478367747546485589e+01
7.551760092919313365e+02
1.280210964791200695e+03
1.629938937794708863e+03
1.738307071997257481e+03
1.786320507685201846e+03
1.267067938360037715e+03
6.215318858670516420e+02
2.836034709204826072e+02
2.062596913737277191e+02
-9.152428391083581971e+01
-9.997844654152610246e+02
-1.358559893596370557e+03
-1.599884760634334953e+03
-1.311742733548720935e+03
-1.334179824326136895e+03
-1.263253526618814703e+03
-5.729652480273415449e+02
1.386948390058426810e+02
5.947627625878918707e+02
4.262745627448510959e+02
3.662433027187072980e+02
1.039657916018353717e+03
1.324530345833875344e+03
1.292862355860573416e+03
1.457576587638990077e+03
1.498637953606083556e+03
1.461088952477058001e+03
6.528911278362335224e+02
-2.699821314454517847e+02
-1.101611224277400879e+03
-2.208026603862054344e+03
-2.441236886366883027e+03
-2.510391283608144022e+03
-2.672552236820374674e+03
-2.903652494280241626e+03
-2.698659603387681727e+03
-1.949655457770249541e+03
-1.281621701458992220e+03
-3.664080322162032530e+02
2.801712992905651731e+02
6.868965135417598731e+02
1.207616946773412565e+03
1.482256165584011114e+03
1.602059069017500633e+03
1.542036157124439342e+03
1.636929875620000757e+03
1.049032356873908839e+03
4.480390204881415457e+02
5.040404198350315710e+02
1.809362421510563195e+02
-9.571422360932836000e+02
-1.807407151416225815e+03
-2.007074092075449926e+03
-2.149985590952599068e+03
-2.302377352468682602e+03
-1.906935638537851901e+03
-1.320981099008982710e+03
-3.442621753321037090e+02
7.370566124286474405e+02
1.224181291292414471e+03
1.129829028534640202e+03
1.729340441160525188e+03
2.244810212544098249e+03
2.562775572226326858e+03
2.478528267679105284e+03
2.588784776889298882e+03
2.457837461075416286e+03
2.154857522866241652e+03
7.074510558731244600e+02
-3.056017555252684019e+02
-8.440251960597515790e+02
-1.240978768269289731e+03
-1.651522570392521857e+03
-1.936447392802949253e+03
-2.208918750802184150e+03
-1.828174145523380730e+03
-1.194239206997862766e+03
-3.717926553798297391e+02
5.330137289733822854e+02
9.370924303761767078e+02
1.257576830865510601e+03
2.265501965350092632e+03
2.615902403853674969e+03
2.566767005805274493e+03
2.577059869730079299e+03
2.810838885425291664e+03
2.565073568472299030e+03
1.687770940927732909e+03
1.574886170039407943e+03
1.669485223917471330e+03
6.515431576800847324e+02
-1.396921788972378842e+01
-6.281486401679803748e+02
-6.560915969227620508e+02
-8.146948583073875625e+02
-5.039854530178917571e+02
1.271296818512322915e+02
4.946174577534567334e+02
4.395360070394949048e+02
-2.736066580233438799e+03
-2.360159496062342441e+03
-1.557679706632580519e+03
-2.494605931819259695e+03
3.180656605637228722e+02
-1.016845961477808942e+02
1.529145270872136962e+03
9.860502454081594692e+01
-7.622942767663414543e+02
-3.130585944206870408e+03
-1.156266105415041693e+03
-6.313372627589392323e+02
-4.222836783518552693e+03
-6.911786333910961730e+03
-6.609217638786078169e+03
-4.810121392603703498e+03
-3.184454569017229460e+03
-2.881101086707752074e+03
-1.996104432708949616e+03
-8.184142344256650858e+02
-7.309549660350490967e+02
1.569272344868760001e+03
1.925315132056393850e+03
4.052443345272781130e+02
9.060938406788540078e+02
5.278625569428021436e+02
1.035887854336412914e+02
2.302836600475358466e+02
-9.790451847325326753e+02
-1.124441497169268814e+03
1.291235425942049915e+02
-4.733718993329187015e+02
-2.541935902587310920e+03
-1.171605485222632979e+03
-9.953702897734683575e+02
-9.683070549392440398e+02
-1.059370901412785315e+03
-1.013520257070664911e+03
-4.407731178504322997e+02
4.489740090615487702e+02
9.907357509496649755e+02
1.520555300615278384e+03
1.996476915039896312e+03
2.302612668646074326e+03
2.725943751202854855e+03
3.009458969841464750e+03
3.005192094530655140e+03
2.644164596568578872e+03
2.191373325529930298e+03
1.561771027799435160e+03
9.453646106405793716e+02
1.661256749947335720e+02
-5.820071530579145929e+02
-1.220127048383696774e+03
-1.721118945260107466e+03
-1.631708534163826698e+03
-1.398763099086017064e+03
-1.090500540056798854e+03
-4.158273199202999422e+02
3.882363150887088636e+02
9.876511305189231962e+02
1.181287913805558901e+03
1.864567927286385384e+03
1.911400214258622100e+03
2.018753380930518006e+03
2.846579196482909083e+03
2.506856745852620406e+03
1.928716343317699284e+03
1.845223727608057516e+03
1.525199743398196915e+03
1.987169528274019740e+03
1.263454798201713402e+03
2.382961406196975531e+02
-1.495617107470182532e+02
-1.021802397352294776e+02
-6.946292202226509005e+01
-2.104698010406101787e+02
-2.517998383064200851e+01
5.773161165703056668e+02
1.056081914681294620e+03
1.515161394936089891e+03
2.042340099155194594e+03
1.870892937176394753e+03
2.359745307869125554e+03
2.610614047086564824e+03
2.596527133973769196e+03
2.603397895888690073e+03
2.978305129981453319e+03
2.097281475818076160e+03
1.302265023355539597e+03
4.292142120731496675e+02
-4.129064916135505996e+02
-6.781602902632683936e+02
-1.331606805254823712e+03
-1.461296312898767837e+03
-1.636228223161886945e+03
-1.693400198644032571e+03
-1.332843554691981581e+03
-6.095361670727999126e+02
1.665595168479580934e+02
5.644969776260777508e+02
1.267302399818145432e+03
1.779917898967891688e+03
2.335338560796739785e+03
2.377653193603932777e+03
2.687875416130114900e+03
2.371883135005971326e+03
1.717777585147114905e+03
1.311550836607577594e+03
8.271127689071018949e+02
6.364243396678398312e+02
-3.575672042586160160e+02
-1.413883973650249118e+03
-1.973531212448910310e+03
-2.229569983040363695e+03
-2.613048109016759554e+03
-2.246955346807855221e+03
-1.597281408815197892e+03
-1.052041607714262000e+03
-1.495197315716505955e+03
-2.687710042536260516e+03
-5.558578294322743204e+03
-5.648734917641600077e+03
-3.925187542891538669e+03
-3.491963847406890181e+03
-3.942021178972628149e+03
-3.503334531911184513e+03
-3.133917221285282267e+03
-3.938784291305444185e+03
-4.619920696881880758e+03
-4.968404935220993139e+03
-5.868275884488491101e+03
-6.281530293241633444e+03
-4.019199681572312329e+03
-1.678333149154850844e+03
-1.352841107915792008e+03
-1.336783469778137487e+03
-9.162514356453132223e+02
-4.322332342774673180e+02
4.753402159147319708e+02
1.501497313451807031e+03
1.879272217525166980e+03
2.271701099056564999e+03
2.936834118106815367e+03
3.138686787260258825e+03
3.053295635833692813e+03
2.802623000979908284e+03
2.946735727125859285e+03
2.512702578849758993e+03
2.274450995283181328e+03
2.492943166004850809e+03
2.106219306876177143e+03
7.582791801800385656e+02
1.610678743447984971e+02
-1.575335300214842960e+02
-6.354611020565205308e+02
-3.076751298410103459e+02
-1.161782690729271650e+02
2.600597513616501146e+02
8.490778027459015220e+02
8.869093470966545283e+02
9.876451407378750673e+02
1.835348346083023898e+03
2.484059918715242475e+03
2.488834598829946117e+03
2.502644901834985831e+03
2.198478898560269045e+03
1.569389886730284843e+03
1.375420734028375364e+03
8.855337463402629510e+02
6.447635281328937253e+02
1.220506846818051372e+02
-8.625761335263036926e+02
-1.520113908592310281e+03
-1.900607045534412237e+03
-2.130033719702070812e+03
-2.070375824782154723e+03
-1.864543977088917018e+03
-1.536520297895986005e+03
-8.172968607165944377e+02
6.919281533880189272e+01
2.639210160384678261e+02
7.209128934194750400e+02
1.367153097033555696e+03
1.813992040728350503e+03
1.875779943128935429e+03
1.629240549231214573e+03
1.671248274245238690e+03
2.053859824149302312e+03
1.248009312148516074e+03
-2.133324126402654031e+02
-9.341315259810091902e+02
-1.225400607161761172e+03
-1.956148741955922787e+03
-2.745317884918536492e+03
-2.605981990364636658e+03
-2.522171015676882689e+03
-2.426873957810008505e+03
-2.055027586615452947e+03
-1.292593551636063239e+03
-6.355114207028428837e+02
1.322422643500840707e+02
8.157232817726569465e+02
1.264950263623929004e+03
1.923983619543439545e+03
1.936863500622734819e+03
1.467509394324672030e+03
1.478961138289213295e+03
1.329282499646889619e+03
1.067476043339925354e+03
-1.517469689965903701e+00
-7.427179869859387509e+02
-1.271149157704010349e+03
-1.994861382040732451e+03
-2.176866519759536004e+03
-2.420150772874928862e+03
-2.981817546036854310e+03
-2.847876604667445463e+03
-2.315229236699547528e+03
-1.544895176629006983e+03
-8.248644739484922184e+02
-1.620986526093734881e+02
3.934045651928439042e+02
8.536837389575510997e+02
1.485737301654211251e+03
1.868488215006381324e+03
1.773078062229871193e+03
1.711490161278072719e+03
1.341731641993089625e+03
9.377315343763851843e+02
8.274322276912979532e+02
7.718611631056585338e+02
-8.501139221343821362e+01
-7.782869302479983844e+02
-1.058012786447673307e+03
-1.159215888239012202e+03
-1.481925807860032364e+03
-1.154118323363988566e+03
-7.458127945285119722e+02
1.395456335249401825e+01
8.072283320519965173e+02
1.416024257746633793e+03
1.635324837012894704e+03
1.493127379674013127e+03
1.652399999481493751e+03
1.430233469748302014e+03
1.921568799112729721e+03
2.307313797980851177e+03
2.544507507617020565e+03
1.805116415364070690e+03
1.970806703198428522e+02
-3.926488242038842600e+02
-1.224130406310020589e+03
-1.636449132428415169e+03
-2.174694556167703922e+03
-2.411896036155836555e+03
-2.847247980139344691e+03
-2.468162907271426775e+03
-1.748609812597860582e+03
-1.039012514376790932e+03
-1.542083963837175418e+02
1.654823109473931027e+02
9.364122674946959251e+02
1.552201577475032991e+03
2.270163695047751389e+03
2.575257065234795391e+03
2.650440862284992818e+03
2.986550620705125766e+03
2.690333823785106233e+03
2.485398399859268466e+03
1.696320740710470773e+03
1.015014804248729661e+03
1.354322880304301293e+02
-6.672719212340767854e+02
-1.349492680759244877e+03
-1.468274709461875773e+03
-1.475528027830330984e+03
-1.265378189865795775e+03
-7.607060894838346030e+02
1.382833178949359194e+02
7.258493997679493077e+02
1.391976825873960934e+03
1.818545787894413934e+03
2.324376940087380717e+03
2.940760361343249315e+03
3.283686017229929348e+03
3.192006501755454792e+03
3.035627800597354053e+03
2.882756109300931257e+03
2.632434908552963861e+03
2.285221801753054478e+03
1.359120892004064672e+03
7.001279764975985245e+02
2.572164235112115307e+02
-8.816628464556486051e+02
-1.026534811297776514e+03
-1.123451982654754147e+03
-1.180479419554304286e+03
-8.396322868379653528e+02
-8.592708365867476061e+01
7.856711851053782993e+02
1.310166520944011836e+03
1.838572838734147808e+03
2.436905521671182214e+03
2.985210992637414165e+03
3.139478137794194481e+03
3.500698201014920414e+03
3.426853148132245678e+03
2.563963612047481547e+03
3.400430293212758102e+02
-2.654936465374979434e+03
-4.133952728034265419e+03
-4.330042716719301097e+03
-5.429249643648581696e+03
-5.759669947310666430e+03
-5.924334192559203984e+03
-6.261198346353143279e+03
-5.679256084397224186e+03
-5.175467625561013847e+03
-4.307877917644460467e+03
-3.169355821919001755e+03
-3.207874165690474911e+03
-3.613463115469429795e+03
-2.703164523367278434e+03
-3.616665255633849938e+02
5.629856315874063739e+02
-2.064326805831547063e+03
-2.230704835131137315e+03
-2.083730011881072187e+03
-3.097518180238780133e+03
-3.466212434611337358e+03
-3.831822699292871221e+03
-4.722333077379958013e+03
-5.042714151717446839e+03
-6.334959215660353038e+03
-6.675086710341517573e+03
-6.646093276940269789e+03
-6.019954497999016894e+03
-1.477641331728749719e+03
4.349677467152707209e+02
1.987878448649096754e+03
2.511129123261398036e+03
2.687804262083211597e+03
3.110969005274926985e+03
3.634632808199709871e+03
3.965913864371348609e+03
4.334831273343342218e+03
4.421417909696790957e+03
4.262715968317827901e+03
3.645695391261104305e+03
2.901405227130028834e+03
2.433799919082785436e+03
1.804930720855943264e+03
8.688554452917245499e+02
-2.764660436385761386e+02
-7.150635392228406317e+02
-7.989174111407423879e+02
-4.699867053800046506e+02
-3.332603583003820518e+02
1.583348157309817452e+02
7.958746218694991512e+02
1.583457915333052370e+03
1.872129342412705682e+03
2.638947112555073545e+03
3.297967105585976697e+03
3.390235679850026372e+03
3.513803890933900675e+03
3.221632734802426057e+03
3.008852376108541193e+03
2.807501558870611461e+03
2.134543627681631733e+03
1.346978800123689780e+03
3.688302120512354918e+02
-3.448962521654622719e+02
-8.892379970462989149e+02
-1.373163325199476731e+03
-1.497515928231247699e+03
-1.551290011546826463e+03
-1.071331725502417839e+03
-5.638353656768156270e+02
-2.249268064195420607e+02
4.016711299501537269e+02
9.232237207649627635e+02
1.083732515029148999e+03
1.526154694722677050e+03
2.186596405368271462e+03
2.304062903533895678e+03
2.462510447443633893e+03
2.332120218919857507e+03
1.973763011132202337e+03
1.321319950408357499e+03
1.614931486675018505e+03
1.619439695062158307e+03
7.178541780460918744e+02
-5.397438329424196013e+01
-4.431120371316519027e+02
-6.365183882746732706e+02
-7.562126041196752340e+02
-7.291632460623757197e+02
-3.973225996804272881e+02
4.306714264743462195e+00
5.697913853620225382e+02
3.711699249104912042e+02
5.064733991586784896e+02
1.490714184246876357e+03
1.724964471095392355e+03
1.829155129280368101e+03
2.167256573653004125e+03
2.462321826258779765e+03
2.299420639362757356e+03
1.003488921425545982e+03
2.734802356000807322e+02
-5.136168023584613138e+02
-1.346876080172988850e+03
-2.032312999834846551e+03
-2.600970805275946987e+03
-3.197854050109984655e+03
-3.135927036283071175e+03
-2.468202295987145135e+03
-2.020723159251419474e+03
-1.251490883558168207e+03
-7.484380278806331717e+02
-3.275500427387422633e+02
4.051835396168871739e+02
8.177988731232271675e+02
9.512597640334538482e+02
1.397571367222484014e+03
1.432700398019953127e+03
1.297643595864084773e+03
9.883927619771252466e+02
4.568948032181540384e+02
1.410122849669913236e+01
-7.350146888324669590e+02
-1.397512456644959912e+03
-2.247423330464564970e+03
-2.647797268733296733e+03
-2.841704105945188985e+03
-4.192209011195976927e+03
-5.704236752581023211e+03
-8.397842443402041681e+03
-7.203074048515803042e+03
-1.847893185630030302e+03
3.167001078945248196e+02
8.177401052383103206e+02
1.419206461434265520e+03
1.766035445239956744e+03
1.677293246449889239e+03
1.674997450815459388e+03
1.107121621586419906e+03
4.945520431398513779e+02
1.094290232509354382e+03
6.733728596332675806e+02
-2.538855621651897820e+01
-1.083027159438263425e+03
-1.884524648678015410e+03
-2.334033166319346492e+03
-2.430541161099865349e+03
-2.565092125573514295e+03
-2.341774559587749081e+03
-1.807604163251392947e+03
-1.279545739353477984e+03
-3.736373153719960101e+02
1.291169698879700150e+02
7.558067427433791181e+02
1.234396233164755813e+03
1.827850966894169233e+03
2.240133074330635736e+03
2.440255610698477085e+03
2.255242771716513744e+03
1.907081280167497425e+03
1.625720233815960910e+03
2.137089825924342676e+03
1.698197750431214899e+03
5.280443328372602991e+02
-1.524313760076917106e+02
-4.573862260624713372e+02
-6.298298541909415462e+02
-3.717728588185328249e+02
-4.042417865907975738e+02
3.927828661954338259e+02
1.186289676116642795e+03
8.922718385533835317e+02
1.115757113574704135e+03
1.404780352340069157e+03
2.342365260828573355e+03
2.703532632873271723e+03
2.371264738058703188e+03
2.587484740213764780e+03
2.579159840380580135e+03
2.068381202902411587e+03
1.388118287524586776e+03
7.833155530608261188e+02
1.569557509629821368e+02
-4.359748085345372033e+02
-1.237526665267553653e+03
-1.578758834748926347e+03
-1.665668019022085218e+03
-1.705291406677789610e+03
-1.688665408625204464e+03
-1.135704098037427912e+03
-1.152366248636218188e+03
-4.246361064195144763e+02
7.045487056429228687e+02
1.391147984751719378e+03
1.802200452133495901e+03
2.369696565573701719e+03
2.483711316709510811e+03
2.893314818772251783e+03
2.805442599002741645e+03
2.422139508608926008e+03
1.535349915290287754e+03
2.130833292480208740e+02
-4.424639436752106121e+03
-5.467855132360885364e+03
-2.298627980574416142e+03
-3.346991989976103469e+03
-3.902970540143888684e+03
-4.341575295789860320e+03
-2.630706741855653490e+03
-3.057473760238221985e+03
-2.043834030288271833e+03
-5.917163071749431538e+02
-1.072077168180374429e+03
1.283105335617927494e+03
-1.981234479850170374e+02
2.144299454075149242e+03
-4.896162147443403683e+02
-1.605822531391243956e+03
-1.231331958817886289e+03
2.368917010521557586e+03
4.809441692654780809e+02
-1.314279301602216719e+03
-1.215787141651218235e+03
-3.574581287459006489e+03
-1.556663266575526904e+03
-3.395095493165345943e+03
-3.904897487539208214e+03
-2.242020128502335410e+03
-2.459509514148673588e+03
-5.202328784461084979e+03
-3.535474082938241281e+03
-2.856916906801884579e+03
-2.774598380588483906e+03
-1.922429368997719621e+03
5.566225194250478125e+02
2.702581899058990075e+03
3.181415957945491300e+03
3.095169711234619172e+03
3.132975151259607628e+03
2.981812050502885540e+03
2.533639398477411305e+03
2.588501371894073145e+03
2.759350959803474780e+03
2.103256685262372685e+03
1.415153747835937338e+03
5.809459171562814390e+02
1.256430187055263161e+02
5.251918856205978869e+00
1.488146967993156693e+02
4.053363615841149112e+02
1.077823018998700945e+03
1.668314760778846676e+03
2.039790645403255212e+03
2.173201316506831063e+03
2.333622140497701821e+03
2.617392931458082785e+03
2.553698299290276736e+03
2.835662509346444040e+03
3.314205396070980441e+03
3.539184802752339692e+03
2.580661908259137817e+03
1.429575900571091779e+03
9.039439577300158817e+02
2.097682509729413880e+02
-5.610636257528437909e+02
-1.670556592626038992e+03
-1.960755813013354100e+03
-2.028643547916437001e+03
-1.795114296745122374e+03
-3.607470724579731723e+03
-2.011613884446900784e+03
-3.805871726249653761e+02
-5.982557956487537467e+02
-1.721338170109145267e+03
1.326029921247765969e+03
2.695812689795391179e+03
2.611128879516890720e+03
2.523904341527445013e+03
2.347030043526749978e+03
2.026602251190591005e+03
1.766592553046755484e+03
1.414041326531806362e+03
6.650072661204844735e+02
-2.136990655918351081e+02
-1.107442413811865435e+03
-1.651379083938817075e+03
-1.910208647333352246e+03
-2.298921522997351531e+03
-2.294678772156808009e+03
-1.780570612535830605e+03
-9.715909468352554086e+02
-1.747016924485266713e+02
5.110743588512838187e+02
1.074748189663682524e+03
1.742321785512801171e+03
2.202831882816093184e+03
2.485318979210347607e+03
2.206752726697854541e+03
2.045124465428855501e+03
2.329415024747610005e+03
2.169622322474899192e+03
1.632741920461004838e+03
1.030748692254363050e+03
1.005638679055350764e+02
-9.378927928559891143e+02
-1.763616074469768819e+03
-2.037613739525369510e+03
-1.967918017600057055e+03
-1.389660568111622069e+03
-1.026792141159857920e+03
-7.863059615110817049e+02
-1.742209427630955929e+02
6.555086544093032899e+02
9.098850503314995422e+02
1.590971388132021502e+03
2.213752944241745354e+03
2.372243007295808184e+03
2.384444096418040317e+03
2.085330310071132317e+03
2.237995305424502931e+03
1.964423128378984302e+03
1.740557351139156026e+03
2.247358125297344941e+03
1.500801735506616296e+03
-1.120895617134643203e+02
-2.694396774830767754e+03
-5.949150029249179170e+03
-7.626355755209208837e+03
-7.288059729469872764e+03
-6.169258778743615949e+03
-5.648854188031106787e+03
-5.145843264189735237e+03
-4.801270979081666155e+03
-5.056020602257319297e+03
-3.790106834993926896e+03
-3.925483490927637376e+03
-2.712154392945668860e+03
1.544916871392861367e+03
2.667641370221781926e+03
3.818050368740928207e+03
3.506212555409925699e+03
2.207082514207508666e+03
1.686662083906888711e+03
1.030936883225753036e+03
-1.612536892699733215e+01
-6.635168093543812802e+02
-1.190269651027346981e+03
-1.404397204341483530e+03
-1.529869258279211863e+03
-1.564603343835908163e+03
-1.061617509697047353e+03
-1.009158686950923141e+02
2.195852382282525923e+02
7.109038210471028378e+02
1.421058329143565288e+03
2.039082001164101030e+03
2.522041693637124808e+03
2.727058246138185496e+03
2.621090244058346798e+03
2.409130186677577058e+03
1.952207284187039022e+03
1.147325730250144034e+03
5.584862050419491197e+02
-8.030992598551341644e+01
-8.600555140214950143e+02
-1.363800066989974312e+03
-1.888637436415134061e+03
-2.060513559240337145e+03
-1.890373629998494835e+03
-1.745204454490016133e+03
-1.341996414366804402e+03
-7.626799835769159017e+02
-1.431737954525655994e+02
5.995009276380521896e+02
1.350413653182404232e+03
1.738630058825722926e+03
1.897198176245558898e+03
1.875155546013490266e+03
1.872529062733190131e+03
1.645363580801044009e+03
1.451584778452633600e+03
1.041275792743114152e+03
4.424234492226208886e+02
-5.110930452372800232e+02
-9.231348453539782213e+02
-1.528701124822244310e+03
-2.299357908253846290e+03
-2.461295336736468471e+03
-2.703939027922001060e+03
-2.557912638647770109e+03
-2.023210171693224311e+03
-1.462003376629492777e+03
-8.252811446534059314e+02
-4.639893856785781736e+02
5.239734279547041069e+02
8.706738029746780967e+02
1.094084982160540903e+03
2.050117010469176421e+03
1.905891893081369290e+03
1.627474905656509691e+03
2.003928305787579120e+03
1.055213293126088502e+03
1.026297304057176916e+03
8.431648859656119157e+02
2.987295615465336951e+01
-7.637248447293731033e+02
-1.014629802653636375e+03
-1.146787819489279855e+03
-1.686235502776570684e+03
-1.358943742630147881e+03
-6.509397720976769506e+02
-1.181776576913171510e+02
1.493718348490537835e+02
-1.172609711361668730e+02
3.189582475640787038e+02
1.069080169466902134e+03
1.206116548786148996e+03
1.164075892959004022e+03
1.409879759966518122e+03
1.563597479893498075e+03
1.911224011050654553e+03
9.057382529594059406e+02
2.080853616151542838e+02
-4.277495456559675517e+02
-1.265740717159548922e+03
-1.789913732884730507e+03
-2.400447244459838657e+03
-2.755306859826388973e+03
-2.779416359181506323e+03
-2.655801585315560715e+03
-1.991541722264893679e+03
-1.105636604008763015e+03
-2.390261029759054168e+02
1.423281365520477664e+02
3.144094406165921214e+02
9.432481128408521727e+02
1.377932713496024462e+03
1.562382469008050066e+03
1.800519315206576721e+03
1.685380634458546638e+03
1.622893837086182884e+03
9.430451568361332875e+02
7.398067337302292117e+02
2.301880265082104700e+02
-9.649644434887330817e+02
-1.589629654554746594e+03
-2.233895218456629209e+03
-2.541764675357811939e+03
-2.532310033852141260e+03
-2.326638786797030207e+03
-1.556746288706184259e+03
-8.616039228444789160e+02
-1.412295248280691453e+02
3.853774821052136872e+02
8.682075117387024648e+02
1.583271765598388129e+03
1.903539025170766308e+03
2.090044459156497851e+03
2.786784827160801342e+03
2.735949343848221361e+03
2.557250420071645749e+03
2.277378236701559217e+03
1.654792250044415823e+03
9.783980150538677663e+02
9.491035369101667811e+02
-1.852685697349440943e+02
-1.193608497134309118e+03
-1.340041752359810744e+03
-1.428689241892854170e+03
-1.656501739092329899e+03
-1.155704605147350094e+03
-5.309822849044867326e+02
2.193502147543092065e+02
8.516540998193269161e+02
1.166995776766942981e+03
1.804974790680485285e+03
2.553127681118856799e+03
2.816087560605964427e+03
2.993845662309658110e+03
3.115225082924567232e+03
3.341365882817768124e+03
2.965921706538998933e+03
2.654138569808976627e+03
2.631856445872233962e+03
1.981806679469520759e+03
1.341095762405305095e+03
5.569296716592205030e+02
4.959979544431073251e+00
-2.697793649594942167e+02
-3.114853205559765215e+01
3.895009871608172602e+02
1.008108939451749620e+03
9.107895086709697807e+02
1.009439521081965381e+03
2.003052953909180815e+03
2.852638039942215073e+03
3.237190258762890608e+03
3.165674789885171322e+03
3.152018543278518791e+03
4.003209497514092618e+03
4.021291214333561584e+03
2.970236607994881069e+03
2.232031170110080438e+03
1.591596880673323085e+03
1.022886520617620704e+03
3.458548518588625598e+02
-3.734824975074016038e+02
-7.842023731708185323e+02
-2.164410712032412903e+03
-4.574081382441928326e+03
-7.267143862410842303e+03
-7.013551685370391169e+03
-6.186387514096853920e+03
-5.115617475714765533e+03
-3.966179640011264382e+03
-3.442071478724328699e+03
-3.160333287852507965e+03
-3.075858544091942349e+03
-2.628585182557239932e+03
-2.304507455783622390e+03
-2.453715412744660171e+03
-2.641212622203916453e+03
-2.917936740754360471e+03
-2.386902314273721004e+03
-1.301119500367151659e+03
-4.832637131457363466e+03
-6.361341030006587062e+03
-6.847456130231828865e+03
-6.621971055291163793e+03
-6.503730662569592823e+03
-5.922665055576188024e+03
-5.289098622241782323e+03
-4.106863908058807283e+03
-3.039785013462722873e+03
-3.259811743593272695e+03
-2.789934913679703641e+03
-1.980100720748679578e+03
-1.525244842062450061e+03
9.766450170785691398e+02
2.029626587311260437e+03
-9.842618249265499344e+02
-1.722003220998475626e+03
-9.657538852535637375e+01
2.459003381731232366e+03
2.723754475229355194e+03
1.627707542544019589e+03
8.447839354751403107e+02
8.219847160103693113e+02
5.333579582565582768e+02
6.368672014377976893e+02
7.115590621448548063e+02
1.227507664206908657e+03
2.028797749001650800e+03
2.455486871963077192e+03
3.213660850437426234e+03
3.771400758793791738e+03
4.090690635751226637e+03
4.107585340883216304e+03
4.563147922414415007e+03
4.557466525552003077e+03
4.110578874174416342e+03
3.683571467284244136e+03
3.737441814281211919e+03
3.884154936072571218e+03
2.717816344246354674e+03
1.700375701599025206e+03
1.353799428084949341e+03
8.681626436697077907e+02
5.134811104123720042e+02
2.817842944164228243e+02
5.321474176435369827e+02
7.735678890014230547e+02
1.352144627697238320e+03
1.583966576642651717e+03
1.264109081254873672e+03
1.861661900114459286e+03
2.571537626586439728e+03
2.788807775032472364e+03
2.517533467277975433e+03
2.250880379418819302e+03
2.395982235289382061e+03
2.165003362185349943e+03
1.686109398961624265e+03
9.703575433864003799e+02
-1.132839661126508020e+02
-1.399926327277082464e+03
-1.924627197962913442e+03
-2.166402238384730936e+03
-2.759171775717129094e+03
-2.356878080781385506e+03
-2.017457579113332031e+03
-1.282911493354680260e+03
-7.860421612149896191e+02
-1.611967957969433769e+02
2.996844067246328791e+02
9.987188318091333485e+02
1.665752497457947584e+03
1.675916387066726656e+03
1.896329348526768399e+03
2.017930300614282260e+03
1.637772947704099806e+03
1.303872270863381345e+03
6.731951429131355553e+02
-2.962479231791089660e+02
-9.394839682783140233e+02
-1.562512818627106299e+03
-2.464365176181305742e+03
-2.767072750020404328e+03
-2.832687269519492020e+03
-2.994169144997041258e+03
-2.849522982772921750e+03
-2.385755742950892909e+03
-1.567841401461226042e+03
-5.067355054421504974e+02
3.475909539802827339e+02
8.011887457614434425e+02
1.277065315948701254e+03
1.654258456755354246e+03
1.857780238138511322e+03
1.691613490627565625e+03
2.014735312226768656e+03
2.264181615313606471e+03
8.569017462905171669e+02
1.018807743526279239e+02
-4.779628971569848090e+02
-1.301648941588728121e+03
-2.022224245312093217e+03
-2.464730986168311119e+03
-2.423183954813188393e+03
-2.588668763089340700e+03
-2.535233140008173905e+03
-2.064908771254202748e+03
-1.365646934580621291e+03
-6.314434045412032219e+02
3.387284159524897404e+02
1.406852785714158472e+03
1.268953254089666189e+03
1.568005533493638950e+03
1.792971504150899364e+03
1.508387558929575505e+02
-1.800379308069097533e+03
-5.259797512517952782e+03
-5.650380846937634487e+03
-5.016109100770972873e+03
-4.995071867506696435e+03
-2.234276606593327870e+03
-3.649126153829363943e+02
-4.860479742331089597e+02
-9.246890593387438457e+02
-1.454891466712645069e+03
-8.496411576266754082e+02
-9.499611256327737863e+01
-3.983677872173843060e+00
-7.657380799484829481e+01
2.411214380993237398e+02
8.992258340846028659e+02
1.786725161929580736e+03
2.192453796358975069e+03
2.285532353661816614e+03
2.347836892058113790e+03
3.053355466124776285e+03
2.104108780602171009e+03
1.196978874483093705e+03
8.469440188715237809e+02
3.809624357285399014e+02
-1.649628697029531850e+02
-1.083969662808575322e+03
-1.722224390992819963e+03
-1.940714333562786351e+03
-1.940436991642900921e+03
-1.681366353638756209e+03
-1.118568861341377897e+03
-5.450992791934538673e+02
2.660816422628889768e+02
1.087977962442438638e+03
2.100566290230168761e+03
2.279847664555921710e+03
2.528786771645582576e+03
2.390456599055939478e+03
2.152777409164019446e+03
2.831751946161639808e+03
3.153343862130861453e+03
2.126499366835197179e+03
1.666189170023982570e+03
1.153388775279039010e+03
8.320145239298668685e+02
-4.539942587537991585e+02
-1.039706694196127728e+03
-1.221179215339381017e+03
-1.517449774679516850e+03
-1.356492360727364030e+03
-7.293005170333677825e+02
9.590718197721539582e+02
1.832627776506188866e+03
1.977394885462496859e+03
2.800388913350679104e+03
2.966650732937033808e+03
2.862183893416508454e+03
3.023010875243682676e+03
3.972082695478485221e+03
3.359416985638705683e+03
3.331074650862398812e+03
3.106999360664483447e+03
2.599172735461984303e+03
2.251546737023278638e+03
1.366087823490074925e+03
4.557871332068744437e+02
-5.348045550636822298e+01
-2.486288019922178023e+02
-5.077722281245677891e+02
-1.579265164455268575e+02
3.569500768462700080e+02
5.808630724643412577e+02
1.059844871541261455e+03
1.253982585956676303e+03
5.920404738274434209e+01
-1.983405198473667269e+03
-3.560824787531966194e+03
-2.863997963977934432e+03
-2.539927180857483108e+03
-2.992603674254393354e+03
-3.034121170408292073e+03
-3.226307309666950914e+03
-3.085186219721313591e+03
-3.313779266376584928e+03
-4.473040351982887842e+03
-5.294073310817737365e+03
-5.513898761253353769e+03
-5.470518045392377644e+03
