-3.132000000000000000e+03
-3.132000000000000000e+03
-1.048576000000000000e+06
-4.024000000000000000e+03
-4.024000000000000000e+03
-5.337000000000000000e+03
-7.434000000000000000e+03
-1.224100000000000000e+04
-1.890400000000000000e+04
-2.197800000000000000e+04
-2.277700000000000000e+04
-2.487100000000000000e+04
-2.032100000000000000e+04
-1.530800000000000000e+04
-9.519000000000000000e+03
-6.036000000000000000e+03
-7.606000000000000000e+03
-5.751000000000000000e+03
-3.481000000000000000e+03
-9.760000000000000000e+02
-1.562000000000000000e+03
-3.013000000000000000e+03
-4.026000000000000000e+03
-5.969000000000000000e+03
-7.414000000000000000e+03
-8.632000000000000000e+03
-8.103000000000000000e+03
-8.179000000000000000e+03
-7.671000000000000000e+03
-5.302000000000000000e+03
-5.512000000000000000e+03
-7.311000000000000000e+03
-9.955000000000000000e+03
-1.147700000000000000e+04
-9.884000000000000000e+03
-3.878000000000000000e+03
-3.308000000000000000e+03
-5.429000000000000000e+03
-8.609000000000000000e+03
-1.268700000000000000e+04
-1.685200000000000000e+04
-1.983100000000000000e+04
-1.446200000000000000e+04
-5.144000000000000000e+03
9.290000000000000000e+02
1.543000000000000000e+03
-2.785000000000000000e+03
-4.225000000000000000e+03
-3.109000000000000000e+03
-4.755000000000000000e+03
-5.411000000000000000e+03
-5.085000000000000000e+03
-5.514000000000000000e+03
-7.613000000000000000e+03
-9.745000000000000000e+03
-8.649000000000000000e+03
-5.547000000000000000e+03
-2.477000000000000000e+03
-2.655000000000000000e+03
-4.537000000000000000e+03
-6.472000000000000000e+03
-7.541000000000000000e+03
-1.078700000000000000e+04
-1.496900000000000000e+04
-1.410500000000000000e+04
-6.033000000000000000e+03
-3.384000000000000000e+03
-5.167000000000000000e+03
-5.819000000000000000e+03
-8.655000000000000000e+03
-1.264900000000000000e+04
-1.453500000000000000e+04
-1.682300000000000000e+04
-1.648900000000000000e+04
-9.594000000000000000e+03
-4.443000000000000000e+03
-7.239000000000000000e+03
-9.240000000000000000e+03
-1.047800000000000000e+04
-9.796000000000000000e+03
-6.491000000000000000e+03
-5.111000000000000000e+03
-5.447000000000000000e+03
-4.607000000000000000e+03
-3.650000000000000000e+03
-4.797000000000000000e+03
-5.441000000000000000e+03
-6.507000000000000000e+03
-7.394000000000000000e+03
-8.214000000000000000e+03
-1.215700000000000000e+04
-1.682600000000000000e+04
-1.464600000000000000e+04
-1.003700000000000000e+04
-7.657000000000000000e+03
-6.966000000000000000e+03
-1.008000000000000000e+04
-1.111900000000000000e+04
-8.175000000000000000e+03
-7.009000000000000000e+03
-7.197000000000000000e+03
-7.879000000000000000e+03
-8.814000000000000000e+03
-9.293000000000000000e+03
-1.019200000000000000e+04
-1.115300000000000000e+04
-9.970000000000000000e+03
-7.307000000000000000e+03
-6.372000000000000000e+03
-7.650000000000000000e+03
-8.226000000000000000e+03
-7.829000000000000000e+03
-8.755000000000000000e+03
-9.009000000000000000e+03
-9.297000000000000000e+03
-9.129000000000000000e+03
-9.568000000000000000e+03
-1.059400000000000000e+04
-1.342000000000000000e+04
-1.632200000000000000e+04
-1.848700000000000000e+04
-1.554900000000000000e+04
-1.226100000000000000e+04
-1.007200000000000000e+04
-1.075100000000000000e+04
-1.101600000000000000e+04
-1.030600000000000000e+04
-1.068400000000000000e+04
-1.150700000000000000e+04
-1.319900000000000000e+04
-1.395600000000000000e+04
-1.266000000000000000e+04
-1.199700000000000000e+04
-1.184700000000000000e+04
-1.202400000000000000e+04
-1.027900000000000000e+04
-8.462000000000000000e+03
-8.364000000000000000e+03
-9.542000000000000000e+03
-1.055600000000000000e+04
-1.076800000000000000e+04
-9.018000000000000000e+03
-7.815000000000000000e+03
-8.144000000000000000e+03
-9.234000000000000000e+03
-1.047300000000000000e+04
-1.008500000000000000e+04
-1.181400000000000000e+04
-1.320900000000000000e+04
-1.379700000000000000e+04
-1.498100000000000000e+04
-1.613400000000000000e+04
-1.609400000000000000e+04
-1.270600000000000000e+04
-7.656000000000000000e+03
-5.669000000000000000e+03
-5.168000000000000000e+03
-5.807000000000000000e+03
-7.391000000000000000e+03
-8.232000000000000000e+03
-7.278000000000000000e+03
-6.224000000000000000e+03
-9.149000000000000000e+03
-1.324400000000000000e+04
-1.669100000000000000e+04
-1.747400000000000000e+04
-1.488500000000000000e+04
-1.208600000000000000e+04
-9.278000000000000000e+03
-9.847000000000000000e+03
-1.176600000000000000e+04
-1.082700000000000000e+04
-1.007200000000000000e+04
-1.112400000000000000e+04
-1.232100000000000000e+04
-1.276000000000000000e+04
-1.242100000000000000e+04
-1.391300000000000000e+04
-1.598500000000000000e+04
-1.585000000000000000e+04
-1.424800000000000000e+04
-1.328600000000000000e+04
-1.149700000000000000e+04
-1.108800000000000000e+04
-1.265300000000000000e+04
-1.410100000000000000e+04
-1.665700000000000000e+04
-1.693300000000000000e+04
-1.683900000000000000e+04
-1.757500000000000000e+04
-1.866600000000000000e+04
-2.123300000000000000e+04
-2.292500000000000000e+04
-2.230100000000000000e+04
-2.186000000000000000e+04
-2.131500000000000000e+04
-2.160100000000000000e+04
-2.096800000000000000e+04
-1.892500000000000000e+04
-1.885900000000000000e+04
-1.818900000000000000e+04
-1.643600000000000000e+04
-1.286600000000000000e+04
-1.399100000000000000e+04
-1.724400000000000000e+04
-1.796000000000000000e+04
-1.889400000000000000e+04
-1.946300000000000000e+04
-2.098100000000000000e+04
-2.255700000000000000e+04
-2.227200000000000000e+04
-2.193700000000000000e+04
-2.044200000000000000e+04
-1.960900000000000000e+04
-1.967700000000000000e+04
-2.010500000000000000e+04
-2.095500000000000000e+04
-1.932000000000000000e+04
-1.839400000000000000e+04
-2.156900000000000000e+04
-2.189700000000000000e+04
-1.891600000000000000e+04
-1.748400000000000000e+04
-1.625300000000000000e+04
-1.181100000000000000e+04
-1.159600000000000000e+04
-1.269700000000000000e+04
-1.346200000000000000e+04
-1.375900000000000000e+04
-1.427700000000000000e+04
-1.357100000000000000e+04
-1.365600000000000000e+04
-1.406500000000000000e+04
-1.601700000000000000e+04
-1.849500000000000000e+04
-1.685600000000000000e+04
-1.730400000000000000e+04
-1.758300000000000000e+04
-1.478400000000000000e+04
-1.374500000000000000e+04
-1.345700000000000000e+04
-1.240500000000000000e+04
-1.453300000000000000e+04
-1.734000000000000000e+04
-1.563700000000000000e+04
-1.256600000000000000e+04
-1.163900000000000000e+04
-1.397900000000000000e+04
-1.545200000000000000e+04
-1.458200000000000000e+04
-1.221600000000000000e+04
-1.142300000000000000e+04
-1.384600000000000000e+04
-1.576900000000000000e+04
-1.638000000000000000e+04
-1.690400000000000000e+04
-1.716000000000000000e+04
-1.603400000000000000e+04
-1.283100000000000000e+04
-1.093100000000000000e+04
-1.149500000000000000e+04
-1.113400000000000000e+04
-1.245200000000000000e+04
-1.321900000000000000e+04
-1.430900000000000000e+04
-1.537600000000000000e+04
-1.680900000000000000e+04
-1.821600000000000000e+04
-1.943000000000000000e+04
-2.016100000000000000e+04
-1.564300000000000000e+04
-8.261000000000000000e+03
-9.121000000000000000e+03
-1.186600000000000000e+04
-1.331200000000000000e+04
-1.459700000000000000e+04
-1.525500000000000000e+04
-1.503200000000000000e+04
-1.424100000000000000e+04
-1.363000000000000000e+04
-1.345400000000000000e+04
-1.409900000000000000e+04
-1.527700000000000000e+04
-1.545200000000000000e+04
-1.399400000000000000e+04
-1.395900000000000000e+04
-1.500600000000000000e+04
-1.550900000000000000e+04
-1.552200000000000000e+04
-1.356900000000000000e+04
-1.258400000000000000e+04
-1.412200000000000000e+04
-1.534300000000000000e+04
-1.667600000000000000e+04
-1.520400000000000000e+04
-1.240600000000000000e+04
-1.173300000000000000e+04
-1.146400000000000000e+04
-1.269600000000000000e+04
-1.542400000000000000e+04
-1.740600000000000000e+04
-1.730600000000000000e+04
-1.437400000000000000e+04
-1.221400000000000000e+04
-1.191600000000000000e+04
-1.258900000000000000e+04
-1.344800000000000000e+04
-1.382100000000000000e+04
-1.412300000000000000e+04
-1.622200000000000000e+04
-1.735500000000000000e+04
-1.833600000000000000e+04
-1.971700000000000000e+04
-2.288800000000000000e+04
-2.407500000000000000e+04
-2.434100000000000000e+04
-2.303300000000000000e+04
-2.275900000000000000e+04
-2.158700000000000000e+04
-2.227700000000000000e+04
-2.382000000000000000e+04
-2.416200000000000000e+04
-2.377600000000000000e+04
-2.566500000000000000e+04
-2.892400000000000000e+04
-2.985900000000000000e+04
-2.186600000000000000e+04
-1.566900000000000000e+04
-1.116800000000000000e+04
-1.460800000000000000e+04
-1.694400000000000000e+04
-1.396700000000000000e+04
-1.159900000000000000e+04
-1.466400000000000000e+04
-1.754700000000000000e+04
-1.883700000000000000e+04
-1.726100000000000000e+04
-1.478800000000000000e+04
-1.583000000000000000e+04
-1.673100000000000000e+04
-1.639700000000000000e+04
-1.593800000000000000e+04
-1.447600000000000000e+04
-1.496600000000000000e+04
-1.600500000000000000e+04
-1.705000000000000000e+04
-1.575500000000000000e+04
-1.563100000000000000e+04
-1.735400000000000000e+04
-1.517600000000000000e+04
-1.410600000000000000e+04
-1.442900000000000000e+04
-1.561200000000000000e+04
-1.735600000000000000e+04
-1.827600000000000000e+04
-2.042900000000000000e+04
-2.154100000000000000e+04
-2.266100000000000000e+04
-2.027200000000000000e+04
-1.379800000000000000e+04
-1.316900000000000000e+04
-1.500700000000000000e+04
-1.573100000000000000e+04
-1.543400000000000000e+04
-1.633700000000000000e+04
-1.714400000000000000e+04
-1.752200000000000000e+04
-1.820200000000000000e+04
-1.748600000000000000e+04
-1.652500000000000000e+04
-1.579200000000000000e+04
-1.613800000000000000e+04
-1.665200000000000000e+04
-1.696200000000000000e+04
-1.761900000000000000e+04
-1.986500000000000000e+04
-2.279600000000000000e+04
-2.224400000000000000e+04
-2.058400000000000000e+04
-2.051900000000000000e+04
-2.175800000000000000e+04
-2.451800000000000000e+04
-2.321900000000000000e+04
-1.896100000000000000e+04
-2.002000000000000000e+04
-2.065100000000000000e+04
-1.982300000000000000e+04
-1.868000000000000000e+04
-1.749900000000000000e+04
-1.848300000000000000e+04
-1.926000000000000000e+04
-1.879100000000000000e+04
-1.881000000000000000e+04
-1.778200000000000000e+04
-1.625900000000000000e+04
-1.905400000000000000e+04
-1.957900000000000000e+04
-1.907400000000000000e+04
-2.048400000000000000e+04
-2.011600000000000000e+04
-1.867600000000000000e+04
-1.767400000000000000e+04
-1.767400000000000000e+04
-1.982500000000000000e+04
-2.238400000000000000e+04
-2.140600000000000000e+04
-1.805600000000000000e+04
-1.964800000000000000e+04
-2.582900000000000000e+04
-3.038300000000000000e+04
-2.715900000000000000e+04
-1.962900000000000000e+04
-1.502600000000000000e+04
-1.271800000000000000e+04
-1.416100000000000000e+04
-1.744100000000000000e+04
-1.792300000000000000e+04
-1.821600000000000000e+04
-1.746500000000000000e+04
-1.723800000000000000e+04
-1.734100000000000000e+04
-1.757300000000000000e+04
-1.780600000000000000e+04
-1.683700000000000000e+04
-1.521600000000000000e+04
-1.654500000000000000e+04
-1.946800000000000000e+04
-2.063100000000000000e+04
-2.194200000000000000e+04
-2.436600000000000000e+04
-2.519400000000000000e+04
-2.273400000000000000e+04
-1.839700000000000000e+04
-1.482400000000000000e+04
-1.751600000000000000e+04
-2.012100000000000000e+04
-2.156700000000000000e+04
-2.223800000000000000e+04
-2.325900000000000000e+04
-2.700100000000000000e+04
-3.143000000000000000e+04
-2.852600000000000000e+04
-1.996700000000000000e+04
-1.500400000000000000e+04
-1.551700000000000000e+04
-1.470600000000000000e+04
-1.336700000000000000e+04
-1.461200000000000000e+04
-1.666700000000000000e+04
-1.953900000000000000e+04
-2.220700000000000000e+04
-2.680700000000000000e+04
-2.554700000000000000e+04
-2.204200000000000000e+04
-1.915700000000000000e+04
-1.790400000000000000e+04
-1.715500000000000000e+04
-1.446300000000000000e+04
-1.587600000000000000e+04
-1.785300000000000000e+04
-1.781700000000000000e+04
-1.695900000000000000e+04
-1.434300000000000000e+04
-1.388200000000000000e+04
-1.434500000000000000e+04
-1.506600000000000000e+04
-1.588100000000000000e+04
-1.647700000000000000e+04
-1.780100000000000000e+04
-1.781800000000000000e+04
-1.728300000000000000e+04
-1.733400000000000000e+04
-1.622100000000000000e+04
-1.574700000000000000e+04
-1.622500000000000000e+04
-1.758200000000000000e+04
-1.759400000000000000e+04
-1.642200000000000000e+04
-1.830700000000000000e+04
-1.797200000000000000e+04
-1.719500000000000000e+04
-1.643300000000000000e+04
-1.743200000000000000e+04
-1.879100000000000000e+04
-1.952200000000000000e+04
-2.206800000000000000e+04
-2.205300000000000000e+04
-1.892400000000000000e+04
-1.507600000000000000e+04
-9.929000000000000000e+03
-9.607000000000000000e+03
-1.322400000000000000e+04
-1.590400000000000000e+04
-1.637200000000000000e+04
-1.577200000000000000e+04
-1.404100000000000000e+04
-1.239700000000000000e+04
-1.338900000000000000e+04
-1.332200000000000000e+04
-1.302200000000000000e+04
-1.481400000000000000e+04
-1.697800000000000000e+04
-1.695700000000000000e+04
-1.484900000000000000e+04
-1.189300000000000000e+04
-1.124700000000000000e+04
-1.309000000000000000e+04
-1.446200000000000000e+04
-1.742300000000000000e+04
-2.085400000000000000e+04
-2.309000000000000000e+04
-2.439200000000000000e+04
-2.450100000000000000e+04
-2.470500000000000000e+04
-2.105800000000000000e+04
-1.934700000000000000e+04
-2.119600000000000000e+04
-1.915100000000000000e+04
-1.479100000000000000e+04
-1.480100000000000000e+04
-1.828900000000000000e+04
-1.778400000000000000e+04
-1.675700000000000000e+04
-1.397100000000000000e+04
-1.579900000000000000e+04
-2.196400000000000000e+04
-2.314400000000000000e+04
-1.947600000000000000e+04
-1.317300000000000000e+04
-1.228400000000000000e+04
-1.523100000000000000e+04
-1.371000000000000000e+04
-1.135500000000000000e+04
-1.146400000000000000e+04
-1.250800000000000000e+04
-1.310200000000000000e+04
-1.179900000000000000e+04
-1.035600000000000000e+04
-1.018600000000000000e+04
-1.024000000000000000e+04
-1.157400000000000000e+04
-1.202400000000000000e+04
-1.203000000000000000e+04
-1.043600000000000000e+04
-6.856000000000000000e+03
-8.731000000000000000e+03
-1.122700000000000000e+04
-1.358200000000000000e+04
-1.435200000000000000e+04
-9.386000000000000000e+03
-3.984000000000000000e+03
-6.308000000000000000e+03
-7.219000000000000000e+03
-9.595000000000000000e+03
-1.152400000000000000e+04
-1.095700000000000000e+04
-9.562000000000000000e+03
-1.043700000000000000e+04
-1.406700000000000000e+04
-1.596700000000000000e+04
-1.380700000000000000e+04
-8.528000000000000000e+03
-6.201000000000000000e+03
-4.761000000000000000e+03
-3.318000000000000000e+03
-4.389000000000000000e+03
-5.774000000000000000e+03
-6.479000000000000000e+03
-8.152000000000000000e+03
-9.604000000000000000e+03
-9.683000000000000000e+03
-8.342000000000000000e+03
-7.269000000000000000e+03
-8.749000000000000000e+03
-1.140200000000000000e+04
-1.265400000000000000e+04
-1.143400000000000000e+04
-1.016000000000000000e+04
-9.239000000000000000e+03
-1.001100000000000000e+04
-1.006200000000000000e+04
-1.002400000000000000e+04
-9.434000000000000000e+03
-8.381000000000000000e+03
-7.778000000000000000e+03
-8.050000000000000000e+03
-8.516000000000000000e+03
-7.981000000000000000e+03
-7.605000000000000000e+03
-8.634000000000000000e+03
-9.896000000000000000e+03
-1.104400000000000000e+04
-1.177400000000000000e+04
-1.037700000000000000e+04
-1.007700000000000000e+04
-9.499000000000000000e+03
-8.904000000000000000e+03
-1.125900000000000000e+04
-1.096300000000000000e+04
-8.208000000000000000e+03
-7.506000000000000000e+03
-8.649000000000000000e+03
-8.551000000000000000e+03
-9.117000000000000000e+03
-9.062000000000000000e+03
-1.036400000000000000e+04
-1.300700000000000000e+04
-1.552800000000000000e+04
-1.587600000000000000e+04
-1.375100000000000000e+04
-1.237200000000000000e+04
-1.282600000000000000e+04
-1.366200000000000000e+04
-1.401300000000000000e+04
-1.406200000000000000e+04
-1.187900000000000000e+04
-8.836000000000000000e+03
-8.949000000000000000e+03
-1.104700000000000000e+04
-1.146400000000000000e+04
-1.114200000000000000e+04
-1.111600000000000000e+04
-1.207100000000000000e+04
-1.119100000000000000e+04
-9.116000000000000000e+03
-1.079600000000000000e+04
-1.281100000000000000e+04
-1.375100000000000000e+04
-1.358200000000000000e+04
-1.388900000000000000e+04
-1.382500000000000000e+04
-1.400000000000000000e+04
-1.381100000000000000e+04
-1.465700000000000000e+04
-1.438800000000000000e+04
-1.289600000000000000e+04
-1.391900000000000000e+04
-1.310300000000000000e+04
-1.043600000000000000e+04
-1.053300000000000000e+04
-1.310000000000000000e+04
-1.454800000000000000e+04
-1.561100000000000000e+04
-1.692900000000000000e+04
-1.911000000000000000e+04
-1.801600000000000000e+04
-1.750600000000000000e+04
-1.574100000000000000e+04
-1.544400000000000000e+04
-1.616100000000000000e+04
-1.400100000000000000e+04
-1.384700000000000000e+04
-1.502900000000000000e+04
-1.448900000000000000e+04
-1.456400000000000000e+04
-1.507900000000000000e+04
-1.545200000000000000e+04
-1.570500000000000000e+04
-1.532500000000000000e+04
-1.471200000000000000e+04
-1.457100000000000000e+04
-1.609000000000000000e+04
-1.720300000000000000e+04
-1.649600000000000000e+04
-1.621900000000000000e+04
-1.744700000000000000e+04
-1.882600000000000000e+04
-1.750200000000000000e+04
-1.403800000000000000e+04
-1.278100000000000000e+04
-1.483700000000000000e+04
-1.710500000000000000e+04
-1.668900000000000000e+04
-1.473900000000000000e+04
-1.347800000000000000e+04
-1.297900000000000000e+04
-1.502600000000000000e+04
-1.614100000000000000e+04
-1.638900000000000000e+04
-1.681800000000000000e+04
-1.715600000000000000e+04
-1.678700000000000000e+04
-1.635400000000000000e+04
-1.583100000000000000e+04
-1.585400000000000000e+04
-1.631700000000000000e+04
-1.609900000000000000e+04
-1.428800000000000000e+04
-1.441100000000000000e+04
-1.463500000000000000e+04
-1.562400000000000000e+04
-1.663400000000000000e+04
-1.574200000000000000e+04
-1.532400000000000000e+04
-1.598000000000000000e+04
-1.673200000000000000e+04
-1.603600000000000000e+04
-1.468900000000000000e+04
-1.348400000000000000e+04
-1.320000000000000000e+04
-1.635300000000000000e+04
-2.091200000000000000e+04
-2.233900000000000000e+04
-2.218100000000000000e+04
-2.104000000000000000e+04
-2.124100000000000000e+04
-2.123500000000000000e+04
-1.854900000000000000e+04
-1.647400000000000000e+04
-1.615900000000000000e+04
-1.338900000000000000e+04
-9.589000000000000000e+03
-8.241000000000000000e+03
-7.996000000000000000e+03
-1.341100000000000000e+04
-1.446700000000000000e+04
-1.460000000000000000e+04
-1.271500000000000000e+04
-1.296600000000000000e+04
-1.503700000000000000e+04
-1.599700000000000000e+04
-1.682200000000000000e+04
-1.545300000000000000e+04
-1.371900000000000000e+04
-9.696000000000000000e+03
-8.509000000000000000e+03
-9.037000000000000000e+03
-8.662000000000000000e+03
-7.730000000000000000e+03
-6.169000000000000000e+03
-6.435000000000000000e+03
-6.027000000000000000e+03
-3.128000000000000000e+03
-4.736000000000000000e+03
-6.880000000000000000e+03
-7.402000000000000000e+03
-7.334000000000000000e+03
-3.786000000000000000e+03
-3.115000000000000000e+03
-2.782000000000000000e+03
5.700000000000000000e+02
2.085000000000000000e+03
2.153000000000000000e+03
2.151000000000000000e+03
6.770000000000000000e+02
-5.130000000000000000e+02
-1.401000000000000000e+03
-2.193000000000000000e+03
-2.827000000000000000e+03
-1.968000000000000000e+03
-3.070000000000000000e+02
2.420000000000000000e+02
6.310000000000000000e+02
9.190000000000000000e+02
1.910000000000000000e+02
4.290000000000000000e+02
1.377000000000000000e+03
1.591000000000000000e+03
1.479000000000000000e+03
1.625000000000000000e+03
2.522000000000000000e+03
3.557000000000000000e+03
3.743000000000000000e+03
2.728000000000000000e+03
2.070000000000000000e+03
2.358000000000000000e+03
2.127000000000000000e+03
1.661000000000000000e+03
1.868000000000000000e+03
2.276000000000000000e+03
-5.100000000000000000e+01
-2.592000000000000000e+03
4.060000000000000000e+02
-2.150000000000000000e+02
-3.460000000000000000e+02
1.093000000000000000e+03
3.154000000000000000e+03
4.341000000000000000e+03
3.921000000000000000e+03
4.426000000000000000e+03
6.027000000000000000e+03
7.583000000000000000e+03
8.518000000000000000e+03
9.801000000000000000e+03
1.084300000000000000e+04
1.120100000000000000e+04
1.141900000000000000e+04
1.072400000000000000e+04
1.044800000000000000e+04
1.248700000000000000e+04
1.515600000000000000e+04
1.473400000000000000e+04
1.372600000000000000e+04
1.409300000000000000e+04
1.579400000000000000e+04
1.721100000000000000e+04
1.644200000000000000e+04
1.661300000000000000e+04
1.598900000000000000e+04
1.643800000000000000e+04
1.875100000000000000e+04
1.935300000000000000e+04
2.015200000000000000e+04
2.264300000000000000e+04
2.440100000000000000e+04
2.535400000000000000e+04
2.560300000000000000e+04
2.576000000000000000e+04
2.720100000000000000e+04
2.794400000000000000e+04
2.698300000000000000e+04
2.598000000000000000e+04
2.602100000000000000e+04
2.634800000000000000e+04
2.601000000000000000e+04
2.575300000000000000e+04
2.572500000000000000e+04
2.510900000000000000e+04
2.455200000000000000e+04
2.401700000000000000e+04
2.434600000000000000e+04
2.432100000000000000e+04
2.384800000000000000e+04
2.300800000000000000e+04
2.177500000000000000e+04
2.072200000000000000e+04
1.969800000000000000e+04
1.884200000000000000e+04
1.698500000000000000e+04
1.419800000000000000e+04
1.118200000000000000e+04
1.030400000000000000e+04
8.491000000000000000e+03
7.002000000000000000e+03
6.860000000000000000e+03
6.171000000000000000e+03
5.192000000000000000e+03
5.411000000000000000e+03
5.183000000000000000e+03
6.443000000000000000e+03
8.131000000000000000e+03
7.910000000000000000e+03
7.922000000000000000e+03
8.098000000000000000e+03
9.337000000000000000e+03
1.040400000000000000e+04
1.102600000000000000e+04
1.069400000000000000e+04
1.049400000000000000e+04
1.039900000000000000e+04
9.826000000000000000e+03
8.902000000000000000e+03
8.633000000000000000e+03
8.563000000000000000e+03
8.754000000000000000e+03
9.575000000000000000e+03
1.127000000000000000e+04
1.213100000000000000e+04
1.328300000000000000e+04
1.496900000000000000e+04
1.579300000000000000e+04
1.628900000000000000e+04
1.769500000000000000e+04
1.852900000000000000e+04
1.894900000000000000e+04
2.021900000000000000e+04
2.215400000000000000e+04
2.394800000000000000e+04
2.362300000000000000e+04
2.242100000000000000e+04
2.096900000000000000e+04
2.035000000000000000e+04
1.834200000000000000e+04
1.847800000000000000e+04
2.004700000000000000e+04
1.941300000000000000e+04
1.766400000000000000e+04
1.609100000000000000e+04
1.511000000000000000e+04
1.348100000000000000e+04
1.239500000000000000e+04
1.382600000000000000e+04
1.631100000000000000e+04
1.769400000000000000e+04
1.733600000000000000e+04
1.641100000000000000e+04
1.686600000000000000e+04
1.725800000000000000e+04
1.732000000000000000e+04
1.817400000000000000e+04
1.970100000000000000e+04
2.039800000000000000e+04
2.120900000000000000e+04
2.315800000000000000e+04
2.470900000000000000e+04
2.555100000000000000e+04
2.622600000000000000e+04
2.803100000000000000e+04
2.908500000000000000e+04
3.101800000000000000e+04
3.363800000000000000e+04
3.658500000000000000e+04
4.025300000000000000e+04
4.194800000000000000e+04
4.220400000000000000e+04
4.207300000000000000e+04
4.256900000000000000e+04
4.190500000000000000e+04
4.127500000000000000e+04
4.206100000000000000e+04
4.555300000000000000e+04
5.117300000000000000e+04
5.372800000000000000e+04
5.590200000000000000e+04
5.891300000000000000e+04
6.051600000000000000e+04
6.042700000000000000e+04
5.979000000000000000e+04
5.941400000000000000e+04
5.780300000000000000e+04
5.699800000000000000e+04
5.688400000000000000e+04
5.708900000000000000e+04
5.805600000000000000e+04
5.936800000000000000e+04
6.074300000000000000e+04
6.241400000000000000e+04
6.540300000000000000e+04
6.837500000000000000e+04
7.001800000000000000e+04
7.137100000000000000e+04
7.236400000000000000e+04
7.270700000000000000e+04
7.260100000000000000e+04
7.203500000000000000e+04
7.195200000000000000e+04
7.148000000000000000e+04
7.169600000000000000e+04
7.195100000000000000e+04
7.221400000000000000e+04
7.309700000000000000e+04
7.300800000000000000e+04
7.099300000000000000e+04
6.975700000000000000e+04
7.000400000000000000e+04
7.077900000000000000e+04
7.255800000000000000e+04
7.382300000000000000e+04
7.376000000000000000e+04
7.412600000000000000e+04
7.564300000000000000e+04
7.650400000000000000e+04
7.651600000000000000e+04
7.757700000000000000e+04
7.719700000000000000e+04
7.608700000000000000e+04
7.221300000000000000e+04
7.087900000000000000e+04
7.385700000000000000e+04
7.919300000000000000e+04
8.431600000000000000e+04
8.788600000000000000e+04
8.887600000000000000e+04
8.784100000000000000e+04
8.601600000000000000e+04
8.288400000000000000e+04
8.048300000000000000e+04
8.096100000000000000e+04
8.138500000000000000e+04
8.067800000000000000e+04
7.997200000000000000e+04
8.013700000000000000e+04
8.119900000000000000e+04
8.234700000000000000e+04
8.296800000000000000e+04
8.313000000000000000e+04
8.222800000000000000e+04
8.110900000000000000e+04
8.087400000000000000e+04
8.113800000000000000e+04
8.121300000000000000e+04
8.084500000000000000e+04
8.054600000000000000e+04
8.035300000000000000e+04
8.008100000000000000e+04
7.952800000000000000e+04
7.867800000000000000e+04
7.820100000000000000e+04
7.729000000000000000e+04
7.635900000000000000e+04
7.599700000000000000e+04
7.534800000000000000e+04
7.642100000000000000e+04
7.836300000000000000e+04
7.879400000000000000e+04
7.827800000000000000e+04
7.746400000000000000e+04
7.645600000000000000e+04
7.526400000000000000e+04
7.447800000000000000e+04
7.403500000000000000e+04
7.396900000000000000e+04
7.329600000000000000e+04
7.239000000000000000e+04
7.125100000000000000e+04
7.096700000000000000e+04
7.132300000000000000e+04
7.165100000000000000e+04
7.138500000000000000e+04
7.050400000000000000e+04
7.022400000000000000e+04
6.969400000000000000e+04
6.921300000000000000e+04
6.890100000000000000e+04
6.787700000000000000e+04
6.545800000000000000e+04
6.628300000000000000e+04
6.757900000000000000e+04
6.507600000000000000e+04
6.045300000000000000e+04
5.972400000000000000e+04
6.019900000000000000e+04
6.111800000000000000e+04
6.219100000000000000e+04
6.080300000000000000e+04
5.846300000000000000e+04
5.747900000000000000e+04
5.666300000000000000e+04
5.554900000000000000e+04
5.400800000000000000e+04
5.325900000000000000e+04
5.317800000000000000e+04
5.323300000000000000e+04
5.444800000000000000e+04
5.243500000000000000e+04
4.959800000000000000e+04
4.900800000000000000e+04
4.807300000000000000e+04
4.719600000000000000e+04
4.804800000000000000e+04
4.995800000000000000e+04
4.434900000000000000e+04
4.070000000000000000e+04
3.988100000000000000e+04
3.882100000000000000e+04
3.901900000000000000e+04
4.274300000000000000e+04
4.339900000000000000e+04
4.178300000000000000e+04
3.814600000000000000e+04
3.442100000000000000e+04
3.237700000000000000e+04
3.289100000000000000e+04
3.355800000000000000e+04
3.242600000000000000e+04
3.039400000000000000e+04
2.824800000000000000e+04
2.520100000000000000e+04
2.188200000000000000e+04
1.942600000000000000e+04
1.755700000000000000e+04
1.716800000000000000e+04
1.802900000000000000e+04
1.803400000000000000e+04
1.593600000000000000e+04
1.338900000000000000e+04
1.078400000000000000e+04
8.689000000000000000e+03
7.279000000000000000e+03
5.774000000000000000e+03
3.400000000000000000e+03
4.410000000000000000e+02
-2.831000000000000000e+03
-4.573000000000000000e+03
-5.534000000000000000e+03
-7.845000000000000000e+03
-1.031600000000000000e+04
-1.249000000000000000e+04
-1.407400000000000000e+04
-1.505800000000000000e+04
-1.649600000000000000e+04
-1.707800000000000000e+04
-1.758700000000000000e+04
-1.913600000000000000e+04
-2.117500000000000000e+04
-2.265400000000000000e+04
-2.348500000000000000e+04
-2.475200000000000000e+04
-2.712200000000000000e+04
-3.078700000000000000e+04
-3.436300000000000000e+04
-3.657300000000000000e+04
-3.782100000000000000e+04
-3.782100000000000000e+04
-3.739400000000000000e+04
-3.812400000000000000e+04
-3.941800000000000000e+04
-4.132600000000000000e+04
-4.393600000000000000e+04
-4.620500000000000000e+04
-4.776200000000000000e+04
-4.916700000000000000e+04
-5.078300000000000000e+04
-5.309000000000000000e+04
-5.453500000000000000e+04
-5.615400000000000000e+04
-5.748900000000000000e+04
-5.948400000000000000e+04
-6.141100000000000000e+04
-6.303900000000000000e+04
-6.457400000000000000e+04
-6.568200000000000000e+04
-6.651000000000000000e+04
-6.730100000000000000e+04
-6.898200000000000000e+04
-7.162900000000000000e+04
-7.438300000000000000e+04
-7.665800000000000000e+04
-7.799100000000000000e+04
-7.944900000000000000e+04
-8.182400000000000000e+04
-8.482400000000000000e+04
-8.843400000000000000e+04
-9.052100000000000000e+04
-9.136300000000000000e+04
-9.075100000000000000e+04
-9.125200000000000000e+04
-9.296700000000000000e+04
-9.504000000000000000e+04
-9.811300000000000000e+04
-1.007740000000000000e+05
-1.038640000000000000e+05
-1.043910000000000000e+05
-1.024260000000000000e+05
-1.021180000000000000e+05
-1.039200000000000000e+05
-1.052030000000000000e+05
-1.072050000000000000e+05
-1.083190000000000000e+05
-1.080330000000000000e+05
-1.087000000000000000e+05
-1.103420000000000000e+05
-1.122530000000000000e+05
-1.141910000000000000e+05
-1.161800000000000000e+05
-1.218400000000000000e+05
-1.300550000000000000e+05
-1.327590000000000000e+05
-1.310290000000000000e+05
-1.316020000000000000e+05
-1.336060000000000000e+05
-1.371610000000000000e+05
-1.387260000000000000e+05
-1.420210000000000000e+05
-1.475560000000000000e+05
-1.541180000000000000e+05
-1.611110000000000000e+05
-1.690470000000000000e+05
-1.738760000000000000e+05
-1.693530000000000000e+05
-1.623270000000000000e+05
-1.646530000000000000e+05
-1.707130000000000000e+05
-1.740020000000000000e+05
-1.825240000000000000e+05
-2.000370000000000000e+05
-2.115060000000000000e+05
-2.170420000000000000e+05
-2.175260000000000000e+05
-2.209920000000000000e+05
-2.344900000000000000e+05
-2.497420000000000000e+05
-2.528540000000000000e+05
-2.457350000000000000e+05
-2.437740000000000000e+05
-2.531870000000000000e+05
-2.692170000000000000e+05
-2.756270000000000000e+05
-2.685570000000000000e+05
-2.676380000000000000e+05
-2.779130000000000000e+05
-2.808480000000000000e+05
-2.813760000000000000e+05
-2.909060000000000000e+05
-2.901440000000000000e+05
-2.855190000000000000e+05
-2.827040000000000000e+05
-2.835660000000000000e+05
-2.897800000000000000e+05
-2.852960000000000000e+05
-2.801500000000000000e+05
-2.869390000000000000e+05
-2.925900000000000000e+05
-2.978650000000000000e+05
-3.077830000000000000e+05
-3.196670000000000000e+05
-3.277340000000000000e+05
-3.335110000000000000e+05
-3.411690000000000000e+05
-3.507840000000000000e+05
-3.549660000000000000e+05
-3.604510000000000000e+05
-3.774440000000000000e+05
-3.962480000000000000e+05
-4.156990000000000000e+05
-4.303280000000000000e+05
-4.356310000000000000e+05
-4.218240000000000000e+05
-4.026880000000000000e+05
-4.028700000000000000e+05
-4.151110000000000000e+05
-4.232370000000000000e+05
-4.252220000000000000e+05
-4.196110000000000000e+05
-4.175780000000000000e+05
-4.205190000000000000e+05
-4.205200000000000000e+05
-4.161370000000000000e+05
-4.133070000000000000e+05
-4.124490000000000000e+05
-4.120890000000000000e+05
-4.073710000000000000e+05
-4.025740000000000000e+05
-3.939860000000000000e+05
-3.766100000000000000e+05
-3.611700000000000000e+05
-3.520420000000000000e+05
-3.245090000000000000e+05
-2.865610000000000000e+05
-2.435990000000000000e+05
-2.022610000000000000e+05
-1.606440000000000000e+05
-1.241760000000000000e+05
-1.019270000000000000e+05
-9.207400000000000000e+04
-8.347200000000000000e+04
-7.315700000000000000e+04
-6.515200000000000000e+04
-5.107900000000000000e+04
-3.473700000000000000e+04
-1.825900000000000000e+04
-2.761000000000000000e+03
1.273800000000000000e+04
2.170300000000000000e+04
2.505000000000000000e+04
2.947600000000000000e+04
2.628100000000000000e+04
2.945500000000000000e+04
3.739600000000000000e+04
4.920800000000000000e+04
7.011800000000000000e+04
1.009650000000000000e+05
1.390040000000000000e+05
1.846940000000000000e+05
2.306760000000000000e+05
2.735510000000000000e+05
3.210560000000000000e+05
3.671210000000000000e+05
4.054100000000000000e+05
4.405960000000000000e+05
4.704870000000000000e+05
4.902360000000000000e+05
5.105230000000000000e+05
5.295340000000000000e+05
5.478460000000000000e+05
5.630880000000000000e+05
5.741600000000000000e+05
5.806590000000000000e+05
5.822260000000000000e+05
5.865310000000000000e+05
5.938260000000000000e+05
6.020810000000000000e+05
6.107610000000000000e+05
6.181350000000000000e+05
6.241110000000000000e+05
6.341530000000000000e+05
6.443420000000000000e+05
6.509330000000000000e+05
6.597190000000000000e+05
6.684890000000000000e+05
6.740160000000000000e+05
6.723680000000000000e+05
6.663680000000000000e+05
6.609090000000000000e+05
6.563960000000000000e+05
6.459180000000000000e+05
6.343590000000000000e+05
6.228890000000000000e+05
6.128740000000000000e+05
6.056490000000000000e+05
6.002870000000000000e+05
5.948720000000000000e+05
5.860110000000000000e+05
5.753690000000000000e+05
5.627740000000000000e+05
5.492910000000000000e+05
5.360040000000000000e+05
5.236780000000000000e+05
5.135420000000000000e+05
5.049610000000000000e+05
4.972430000000000000e+05
4.902060000000000000e+05
4.827910000000000000e+05
4.757330000000000000e+05
4.689140000000000000e+05
4.623040000000000000e+05
4.558390000000000000e+05
4.495710000000000000e+05
4.423630000000000000e+05
4.318240000000000000e+05
4.196590000000000000e+05
4.124000000000000000e+05
4.094340000000000000e+05
4.048620000000000000e+05
3.997210000000000000e+05
3.960580000000000000e+05
3.909890000000000000e+05
3.864620000000000000e+05
3.849610000000000000e+05
3.823660000000000000e+05
3.755090000000000000e+05
3.676220000000000000e+05
3.628380000000000000e+05
3.574240000000000000e+05
3.502830000000000000e+05
3.411390000000000000e+05
3.303290000000000000e+05
3.191710000000000000e+05
3.081280000000000000e+05
2.954550000000000000e+05
2.823480000000000000e+05
2.715330000000000000e+05
2.618460000000000000e+05
2.565230000000000000e+05
2.499960000000000000e+05
2.382510000000000000e+05
2.230230000000000000e+05
2.086580000000000000e+05
1.982770000000000000e+05
1.885740000000000000e+05
1.790610000000000000e+05
1.695420000000000000e+05
1.607510000000000000e+05
1.528240000000000000e+05
1.454730000000000000e+05
1.358590000000000000e+05
1.248280000000000000e+05
1.112690000000000000e+05
9.901100000000000000e+04
9.296600000000000000e+04
9.462100000000000000e+04
9.524500000000000000e+04
9.018200000000000000e+04
8.521600000000000000e+04
7.928700000000000000e+04
7.439100000000000000e+04
6.686800000000000000e+04
5.687500000000000000e+04
5.160100000000000000e+04
4.825400000000000000e+04
4.624200000000000000e+04
4.194100000000000000e+04
3.633100000000000000e+04
3.036800000000000000e+04
2.377800000000000000e+04
1.689300000000000000e+04
1.208800000000000000e+04
6.273000000000000000e+03
-1.095000000000000000e+03
-1.003700000000000000e+04
-1.980700000000000000e+04
-2.914100000000000000e+04
-3.607700000000000000e+04
-4.359100000000000000e+04
-4.918000000000000000e+04
-5.026600000000000000e+04
-5.092400000000000000e+04
-5.311600000000000000e+04
-5.691100000000000000e+04
-6.132400000000000000e+04
-6.528800000000000000e+04
-6.952400000000000000e+04
-7.287700000000000000e+04
-7.643100000000000000e+04
-8.001700000000000000e+04
-8.470500000000000000e+04
-9.016700000000000000e+04
-9.215700000000000000e+04
-9.349900000000000000e+04
-9.723700000000000000e+04
-1.021590000000000000e+05
-1.082870000000000000e+05
-1.134590000000000000e+05
-1.181040000000000000e+05
-1.227550000000000000e+05
-1.285150000000000000e+05
-1.340790000000000000e+05
-1.401150000000000000e+05
-1.466500000000000000e+05
-1.534760000000000000e+05
-1.599580000000000000e+05
-1.653890000000000000e+05
-1.713550000000000000e+05
-1.789160000000000000e+05
-1.848100000000000000e+05
-1.882870000000000000e+05
-1.896280000000000000e+05
-1.901710000000000000e+05
-1.913970000000000000e+05
-1.919460000000000000e+05
-1.919950000000000000e+05
-1.951720000000000000e+05
-1.968120000000000000e+05
-1.947950000000000000e+05
-1.938430000000000000e+05
-1.928320000000000000e+05
-1.916620000000000000e+05
-1.915720000000000000e+05
-1.912740000000000000e+05
-1.896410000000000000e+05
-1.883860000000000000e+05
-1.872220000000000000e+05
-1.861060000000000000e+05
-1.857590000000000000e+05
-1.861180000000000000e+05
-1.848610000000000000e+05
-1.823340000000000000e+05
-1.810480000000000000e+05
-1.810690000000000000e+05
-1.813240000000000000e+05
-1.817260000000000000e+05
-1.821740000000000000e+05
-1.812730000000000000e+05
-1.809670000000000000e+05
-1.824110000000000000e+05
-1.829810000000000000e+05
-1.833460000000000000e+05
-1.833310000000000000e+05
-1.829800000000000000e+05
-1.855790000000000000e+05
-1.867720000000000000e+05
-1.865540000000000000e+05
-1.886050000000000000e+05
-1.919430000000000000e+05
-1.937510000000000000e+05
-1.944970000000000000e+05
-1.940060000000000000e+05
-1.953680000000000000e+05
-1.980230000000000000e+05
-1.998140000000000000e+05
-2.004120000000000000e+05
-1.989620000000000000e+05
-1.990440000000000000e+05
-1.997150000000000000e+05
-2.003620000000000000e+05
-2.002610000000000000e+05
-2.000850000000000000e+05
-1.996270000000000000e+05
-1.994860000000000000e+05
-1.994930000000000000e+05
-1.977240000000000000e+05
-1.944650000000000000e+05
-1.935030000000000000e+05
-1.938640000000000000e+05
-1.932270000000000000e+05
-1.921920000000000000e+05
-1.915580000000000000e+05
-1.904940000000000000e+05
-1.882610000000000000e+05
-1.866540000000000000e+05
-1.859820000000000000e+05
-1.850720000000000000e+05
-1.845160000000000000e+05
-1.841860000000000000e+05
-1.832290000000000000e+05
-1.816940000000000000e+05
-1.792090000000000000e+05
-1.780760000000000000e+05
-1.781090000000000000e+05
-1.777180000000000000e+05
-1.752270000000000000e+05
-1.715240000000000000e+05
-1.689370000000000000e+05
-1.671220000000000000e+05
-1.670860000000000000e+05
-1.661600000000000000e+05
-1.640760000000000000e+05
-1.623930000000000000e+05
-1.592130000000000000e+05
-1.558210000000000000e+05
-1.533390000000000000e+05
-1.516550000000000000e+05
-1.513510000000000000e+05
-1.512360000000000000e+05
-1.502590000000000000e+05
-1.495770000000000000e+05
-1.487810000000000000e+05
-1.490830000000000000e+05
-1.496940000000000000e+05
-1.495260000000000000e+05
-1.493790000000000000e+05
-1.494290000000000000e+05
-1.496890000000000000e+05
-1.511250000000000000e+05
-1.521210000000000000e+05
-1.511620000000000000e+05
-1.501730000000000000e+05
-1.492020000000000000e+05
-1.499070000000000000e+05
-1.501180000000000000e+05
-1.491510000000000000e+05
-1.486000000000000000e+05
-1.490260000000000000e+05
-1.493340000000000000e+05
-1.504500000000000000e+05
-1.522230000000000000e+05
-1.553690000000000000e+05
-1.566990000000000000e+05
-1.542170000000000000e+05
-1.524790000000000000e+05
-1.515760000000000000e+05
-1.504500000000000000e+05
-1.507710000000000000e+05
-1.486610000000000000e+05
-1.460090000000000000e+05
-1.436390000000000000e+05
-1.413700000000000000e+05
-1.396320000000000000e+05
-1.400020000000000000e+05
-1.404720000000000000e+05
-1.416940000000000000e+05
-1.417470000000000000e+05
-1.393130000000000000e+05
-1.421800000000000000e+05
-1.417400000000000000e+05
-1.393960000000000000e+05
-1.367010000000000000e+05
-1.340850000000000000e+05
-1.323460000000000000e+05
-1.305710000000000000e+05
-1.296610000000000000e+05
-1.291810000000000000e+05
-1.284460000000000000e+05
-1.261190000000000000e+05
-1.228200000000000000e+05
-1.176180000000000000e+05
-1.176570000000000000e+05
-1.190730000000000000e+05
-1.179560000000000000e+05
-1.162010000000000000e+05
-1.142670000000000000e+05
-1.125160000000000000e+05
-1.108340000000000000e+05
-1.077120000000000000e+05
-1.077010000000000000e+05
-1.062670000000000000e+05
-1.052040000000000000e+05
-1.040740000000000000e+05
-1.019960000000000000e+05
-9.599800000000000000e+04
-9.212700000000000000e+04
-8.886400000000000000e+04
-8.696700000000000000e+04
-8.549800000000000000e+04
-8.599200000000000000e+04
-8.461200000000000000e+04
-8.166100000000000000e+04
-8.039400000000000000e+04
-7.807000000000000000e+04
-7.579500000000000000e+04
-7.483700000000000000e+04
-7.447600000000000000e+04
-7.483400000000000000e+04
-7.508400000000000000e+04
-7.363800000000000000e+04
-7.210100000000000000e+04
-7.025000000000000000e+04
-6.827600000000000000e+04
-6.667900000000000000e+04
-6.631700000000000000e+04
-6.472600000000000000e+04
-6.285300000000000000e+04
-6.237200000000000000e+04
-6.125900000000000000e+04
-6.007600000000000000e+04
-5.929200000000000000e+04
-6.013700000000000000e+04
-6.088900000000000000e+04
-6.044100000000000000e+04
-5.925500000000000000e+04
-5.845100000000000000e+04
-5.842900000000000000e+04
-5.895400000000000000e+04
-5.861600000000000000e+04
-5.797100000000000000e+04
-5.792900000000000000e+04
-5.822500000000000000e+04
-5.961900000000000000e+04
-6.080500000000000000e+04
-6.150200000000000000e+04
-6.105900000000000000e+04
-6.060600000000000000e+04
-5.992700000000000000e+04
-6.241400000000000000e+04
-6.082800000000000000e+04
-5.532300000000000000e+04
-5.164400000000000000e+04
-5.092000000000000000e+04
-4.924000000000000000e+04
-4.876600000000000000e+04
-4.888700000000000000e+04
-4.867700000000000000e+04
-4.812100000000000000e+04
-4.876400000000000000e+04
-4.978900000000000000e+04
-4.947400000000000000e+04
-4.919700000000000000e+04
-4.928100000000000000e+04
-5.043600000000000000e+04
-5.099400000000000000e+04
-5.087200000000000000e+04
-5.093200000000000000e+04
-5.106600000000000000e+04
-5.099600000000000000e+04
-5.079200000000000000e+04
-5.020100000000000000e+04
-4.991500000000000000e+04
-4.992900000000000000e+04
-5.023500000000000000e+04
-5.013400000000000000e+04
-4.943900000000000000e+04
-4.894600000000000000e+04
-4.885000000000000000e+04
-4.943700000000000000e+04
-5.092400000000000000e+04
-5.087700000000000000e+04
-5.079000000000000000e+04
-5.149600000000000000e+04
-5.231100000000000000e+04
-5.166100000000000000e+04
-5.094500000000000000e+04
-5.077700000000000000e+04
-5.170500000000000000e+04
-5.159800000000000000e+04
-5.050700000000000000e+04
-5.011700000000000000e+04
-5.053700000000000000e+04
-5.130000000000000000e+04
-5.128200000000000000e+04
-5.129000000000000000e+04
-5.251300000000000000e+04
-5.395200000000000000e+04
-5.479600000000000000e+04
-5.536100000000000000e+04
-5.517500000000000000e+04
-5.436000000000000000e+04
-5.404800000000000000e+04
-5.517300000000000000e+04
-5.613700000000000000e+04
-5.710700000000000000e+04
-5.611600000000000000e+04
-5.552700000000000000e+04
-5.389900000000000000e+04
-5.306600000000000000e+04
-5.318500000000000000e+04
-5.483200000000000000e+04
-5.580600000000000000e+04
-5.489100000000000000e+04
-5.327700000000000000e+04
-5.274200000000000000e+04
-5.402200000000000000e+04
-5.514100000000000000e+04
-5.705300000000000000e+04
-5.868200000000000000e+04
-5.877000000000000000e+04
-5.968200000000000000e+04
-6.149500000000000000e+04
-6.302600000000000000e+04
-6.331600000000000000e+04
-6.343400000000000000e+04
-6.364500000000000000e+04
-6.290400000000000000e+04
-6.216100000000000000e+04
-6.105700000000000000e+04
-5.914400000000000000e+04
-5.650200000000000000e+04
-5.516300000000000000e+04
-5.486700000000000000e+04
-5.368200000000000000e+04
-5.200500000000000000e+04
-5.144900000000000000e+04
-5.207800000000000000e+04
-5.219000000000000000e+04
-5.201100000000000000e+04
-5.200200000000000000e+04
-5.183700000000000000e+04
-5.204100000000000000e+04
-5.223100000000000000e+04
-5.275100000000000000e+04
-5.299100000000000000e+04
-5.195100000000000000e+04
-4.999400000000000000e+04
-4.828700000000000000e+04
-4.630400000000000000e+04
-4.530900000000000000e+04
-4.571100000000000000e+04
-4.627000000000000000e+04
-4.509100000000000000e+04
-4.268900000000000000e+04
-4.109400000000000000e+04
-3.975500000000000000e+04
-3.885700000000000000e+04
-3.769200000000000000e+04
-3.806700000000000000e+04
-3.721700000000000000e+04
-3.447400000000000000e+04
-3.214900000000000000e+04
-3.111600000000000000e+04
-2.976300000000000000e+04
-2.742600000000000000e+04
-2.532400000000000000e+04
-2.344400000000000000e+04
-2.251200000000000000e+04
-2.186200000000000000e+04
-2.124800000000000000e+04
-2.023400000000000000e+04
-1.758700000000000000e+04
-1.652100000000000000e+04
-1.742700000000000000e+04
-1.762700000000000000e+04
-1.660000000000000000e+04
-1.735800000000000000e+04
-1.734100000000000000e+04
-1.839300000000000000e+04
-1.717200000000000000e+04
-1.333900000000000000e+04
-1.213700000000000000e+04
-1.254400000000000000e+04
-1.241700000000000000e+04
-1.506900000000000000e+04
-1.422700000000000000e+04
-1.570600000000000000e+04
-1.644100000000000000e+04
-1.626000000000000000e+04
-1.336400000000000000e+04
-1.424100000000000000e+04
-8.896000000000000000e+03
-8.324000000000000000e+03
-8.946000000000000000e+03
-8.064000000000000000e+03
-7.279000000000000000e+03
-6.507000000000000000e+03
-6.814000000000000000e+03
-9.609000000000000000e+03
-8.402000000000000000e+03
-8.277000000000000000e+03
-7.317000000000000000e+03
-1.031700000000000000e+04
-1.374900000000000000e+04
-1.118600000000000000e+04
-1.060200000000000000e+04
-9.998000000000000000e+03
-8.541000000000000000e+03
-1.126200000000000000e+04
-8.582000000000000000e+03
-6.637000000000000000e+03
-5.447000000000000000e+03
-5.306000000000000000e+03
-4.692000000000000000e+03
-4.268000000000000000e+03
-3.806000000000000000e+03
-3.161000000000000000e+03
-2.572000000000000000e+03
-2.661000000000000000e+03
-2.940000000000000000e+03
-3.909000000000000000e+03
-3.887000000000000000e+03
-2.824000000000000000e+03
-2.413000000000000000e+03
-2.158000000000000000e+03
-5.410000000000000000e+02
2.793000000000000000e+03
6.036000000000000000e+03
7.651000000000000000e+03
7.809000000000000000e+03
7.163000000000000000e+03
8.540000000000000000e+03
9.653000000000000000e+03
1.012700000000000000e+04
1.086100000000000000e+04
1.215700000000000000e+04
1.239100000000000000e+04
1.232400000000000000e+04
1.185600000000000000e+04
1.231800000000000000e+04
1.260600000000000000e+04
1.209500000000000000e+04
9.990000000000000000e+03
1.087600000000000000e+04
1.263400000000000000e+04
1.537600000000000000e+04
1.726100000000000000e+04
1.877900000000000000e+04
2.346400000000000000e+04
3.076000000000000000e+04
3.856100000000000000e+04
4.471700000000000000e+04
5.026100000000000000e+04
5.191600000000000000e+04
5.120900000000000000e+04
5.097000000000000000e+04
5.238800000000000000e+04
5.646400000000000000e+04
6.051100000000000000e+04
6.354400000000000000e+04
6.589800000000000000e+04
6.801400000000000000e+04
6.903100000000000000e+04
6.993300000000000000e+04
7.216800000000000000e+04
7.387900000000000000e+04
7.542300000000000000e+04
7.717300000000000000e+04
7.768300000000000000e+04
7.768900000000000000e+04
7.829700000000000000e+04
7.911600000000000000e+04
7.955000000000000000e+04
8.023900000000000000e+04
8.172800000000000000e+04
8.284900000000000000e+04
8.327900000000000000e+04
8.183800000000000000e+04
8.127800000000000000e+04
8.193100000000000000e+04
8.308800000000000000e+04
8.499400000000000000e+04
8.630000000000000000e+04
8.772800000000000000e+04
8.874500000000000000e+04
8.844100000000000000e+04
8.920500000000000000e+04
9.104600000000000000e+04
9.244300000000000000e+04
9.356900000000000000e+04
9.594100000000000000e+04
9.853300000000000000e+04
9.921800000000000000e+04
9.900400000000000000e+04
9.912600000000000000e+04
1.005610000000000000e+05
1.028230000000000000e+05
1.043500000000000000e+05
1.061460000000000000e+05
1.076500000000000000e+05
1.072790000000000000e+05
1.048260000000000000e+05
1.034660000000000000e+05
1.060590000000000000e+05
1.077230000000000000e+05
1.097710000000000000e+05
1.154640000000000000e+05
1.190790000000000000e+05
1.234330000000000000e+05
1.303880000000000000e+05
1.371650000000000000e+05
1.419240000000000000e+05
1.467510000000000000e+05
1.520860000000000000e+05
1.544270000000000000e+05
1.549180000000000000e+05
1.542650000000000000e+05
1.576230000000000000e+05
1.605490000000000000e+05
1.624490000000000000e+05
1.638200000000000000e+05
1.647930000000000000e+05
1.675400000000000000e+05
1.703610000000000000e+05
1.726490000000000000e+05
1.773790000000000000e+05
1.802960000000000000e+05
1.810630000000000000e+05
1.816120000000000000e+05
1.813960000000000000e+05
1.804670000000000000e+05
1.799290000000000000e+05
1.807740000000000000e+05
1.814680000000000000e+05
1.809410000000000000e+05
1.787630000000000000e+05
1.774680000000000000e+05
1.764470000000000000e+05
1.755950000000000000e+05
1.750210000000000000e+05
1.761510000000000000e+05
1.784520000000000000e+05
1.789700000000000000e+05
1.772370000000000000e+05
1.760980000000000000e+05
1.787710000000000000e+05
1.832400000000000000e+05
1.884910000000000000e+05
1.901440000000000000e+05
1.869510000000000000e+05
1.849650000000000000e+05
1.873860000000000000e+05
1.943660000000000000e+05
2.019890000000000000e+05
2.037910000000000000e+05
2.037690000000000000e+05
2.035740000000000000e+05
2.022940000000000000e+05
2.010890000000000000e+05
2.001890000000000000e+05
1.983750000000000000e+05
1.961140000000000000e+05
1.946090000000000000e+05
1.968060000000000000e+05
2.048320000000000000e+05
2.070490000000000000e+05
2.051290000000000000e+05
2.019480000000000000e+05
1.993160000000000000e+05
1.968350000000000000e+05
1.939710000000000000e+05
1.917610000000000000e+05
1.903140000000000000e+05
1.908090000000000000e+05
1.923720000000000000e+05
1.946660000000000000e+05
1.967680000000000000e+05
1.963850000000000000e+05
1.942800000000000000e+05
1.929830000000000000e+05
1.917160000000000000e+05
1.893370000000000000e+05
1.871140000000000000e+05
1.847980000000000000e+05
1.802480000000000000e+05
1.744860000000000000e+05
1.702110000000000000e+05
1.691670000000000000e+05
1.691880000000000000e+05
1.680570000000000000e+05
1.658610000000000000e+05
1.622630000000000000e+05
1.589780000000000000e+05
1.563140000000000000e+05
1.532990000000000000e+05
1.500800000000000000e+05
1.456510000000000000e+05
1.402610000000000000e+05
1.355080000000000000e+05
1.313270000000000000e+05
1.251780000000000000e+05
1.180350000000000000e+05
1.120640000000000000e+05
1.075890000000000000e+05
1.039090000000000000e+05
1.003110000000000000e+05
9.634300000000000000e+04
9.252200000000000000e+04
8.588400000000000000e+04
7.758100000000000000e+04
7.191600000000000000e+04
6.717200000000000000e+04
6.380000000000000000e+04
6.119100000000000000e+04
5.954400000000000000e+04
5.863900000000000000e+04
5.837100000000000000e+04
5.739800000000000000e+04
5.594000000000000000e+04
5.452700000000000000e+04
5.186300000000000000e+04
4.878100000000000000e+04
4.643800000000000000e+04
4.322900000000000000e+04
4.006600000000000000e+04
3.809900000000000000e+04
3.591900000000000000e+04
3.381400000000000000e+04
3.151300000000000000e+04
2.822600000000000000e+04
2.547300000000000000e+04
2.399800000000000000e+04
2.169500000000000000e+04
1.955300000000000000e+04
1.707900000000000000e+04
1.457200000000000000e+04
1.073800000000000000e+04
7.087000000000000000e+03
6.596000000000000000e+03
5.679000000000000000e+03
3.273000000000000000e+03
6.390000000000000000e+02
-1.361000000000000000e+03
-4.399000000000000000e+03
-7.604000000000000000e+03
-9.965000000000000000e+03
-1.179200000000000000e+04
-1.362300000000000000e+04
-1.522200000000000000e+04
-1.671300000000000000e+04
-1.833900000000000000e+04
-2.156100000000000000e+04
-2.489100000000000000e+04
-2.722700000000000000e+04
-2.973600000000000000e+04
-3.162700000000000000e+04
-3.346200000000000000e+04
-3.668600000000000000e+04
-3.963600000000000000e+04
-4.259200000000000000e+04
-4.492800000000000000e+04
-4.768600000000000000e+04
-5.064100000000000000e+04
-5.324400000000000000e+04
-5.302700000000000000e+04
-5.150200000000000000e+04
-5.178000000000000000e+04
-5.357700000000000000e+04
-5.525600000000000000e+04
-5.688600000000000000e+04
-5.780500000000000000e+04
-5.818100000000000000e+04
-5.859600000000000000e+04
-5.976300000000000000e+04
-6.130400000000000000e+04
-6.163400000000000000e+04
-6.224500000000000000e+04
-6.317500000000000000e+04
-6.328600000000000000e+04
-6.255000000000000000e+04
-6.137900000000000000e+04
-6.166100000000000000e+04
-6.348100000000000000e+04
-6.484000000000000000e+04
-6.436600000000000000e+04
-6.258400000000000000e+04
-6.238700000000000000e+04
-6.479600000000000000e+04
-6.538100000000000000e+04
-6.535700000000000000e+04
-6.678400000000000000e+04
-6.832400000000000000e+04
-7.080600000000000000e+04
-7.244600000000000000e+04
-7.313900000000000000e+04
-7.426400000000000000e+04
-7.628000000000000000e+04
-8.203200000000000000e+04
-8.706100000000000000e+04
-8.900700000000000000e+04
-8.785400000000000000e+04
-8.541400000000000000e+04
-8.311700000000000000e+04
-8.279700000000000000e+04
-8.287800000000000000e+04
-8.210300000000000000e+04
-8.194900000000000000e+04
-8.658700000000000000e+04
-8.929300000000000000e+04
-9.073700000000000000e+04
-9.121200000000000000e+04
-9.177500000000000000e+04
-9.238900000000000000e+04
-9.283700000000000000e+04
-9.298000000000000000e+04
-9.382200000000000000e+04
-9.367700000000000000e+04
-9.183100000000000000e+04
-8.879800000000000000e+04
-8.802100000000000000e+04
-8.557000000000000000e+04
-8.556100000000000000e+04
-8.636300000000000000e+04
-8.727900000000000000e+04
-8.833000000000000000e+04
-8.942800000000000000e+04
-8.887900000000000000e+04
-8.723400000000000000e+04
-8.795200000000000000e+04
-8.972700000000000000e+04
-8.912200000000000000e+04
-8.849200000000000000e+04
-8.913100000000000000e+04
-8.939800000000000000e+04
-8.972200000000000000e+04
-9.026400000000000000e+04
-8.933400000000000000e+04
-8.860300000000000000e+04
-8.910200000000000000e+04
-8.970700000000000000e+04
-8.967400000000000000e+04
-8.943100000000000000e+04
-8.924900000000000000e+04
-8.944500000000000000e+04
-9.029300000000000000e+04
-9.092100000000000000e+04
-9.158300000000000000e+04
-9.225500000000000000e+04
-9.243600000000000000e+04
-9.123400000000000000e+04
-9.031100000000000000e+04
-9.034800000000000000e+04
-8.929600000000000000e+04
-8.912700000000000000e+04
-8.878300000000000000e+04
-8.988100000000000000e+04
-9.195000000000000000e+04
-9.317300000000000000e+04
-9.282900000000000000e+04
-9.346400000000000000e+04
-9.385600000000000000e+04
-9.337700000000000000e+04
-9.368900000000000000e+04
-9.472200000000000000e+04
-9.596600000000000000e+04
-9.587500000000000000e+04
-9.667100000000000000e+04
-9.694700000000000000e+04
-9.706400000000000000e+04
-9.770200000000000000e+04
-9.843400000000000000e+04
-9.822400000000000000e+04
-9.868200000000000000e+04
-9.914100000000000000e+04
-9.875100000000000000e+04
-9.719000000000000000e+04
-9.539100000000000000e+04
-9.619400000000000000e+04
-9.896100000000000000e+04
-9.974000000000000000e+04
-9.804700000000000000e+04
-9.972700000000000000e+04
-1.003050000000000000e+05
-9.886200000000000000e+04
-9.607300000000000000e+04
-9.461500000000000000e+04
-9.559600000000000000e+04
-9.821200000000000000e+04
-9.985200000000000000e+04
-9.845400000000000000e+04
-9.598700000000000000e+04
-9.567600000000000000e+04
-9.827100000000000000e+04
-9.851400000000000000e+04
-9.748300000000000000e+04
-9.772200000000000000e+04
-9.855600000000000000e+04
-9.788400000000000000e+04
-9.772200000000000000e+04
-9.809700000000000000e+04
-9.886800000000000000e+04
-1.004890000000000000e+05
-1.012660000000000000e+05
-1.005130000000000000e+05
-9.999400000000000000e+04
-1.005270000000000000e+05
-1.006160000000000000e+05
-9.797200000000000000e+04
-9.677000000000000000e+04
-9.811400000000000000e+04
-1.002260000000000000e+05
-1.012790000000000000e+05
-1.027070000000000000e+05
-1.020940000000000000e+05
-1.029400000000000000e+05
-1.049170000000000000e+05
-1.070580000000000000e+05
-1.105190000000000000e+05
-1.103910000000000000e+05
-1.062530000000000000e+05
-1.006860000000000000e+05
-1.011050000000000000e+05
-1.029780000000000000e+05
-1.031570000000000000e+05
-1.041040000000000000e+05
-1.065250000000000000e+05
-1.074820000000000000e+05
-1.086490000000000000e+05
-1.124220000000000000e+05
-1.128360000000000000e+05
-1.122670000000000000e+05
-1.130490000000000000e+05
-1.142490000000000000e+05
-1.149390000000000000e+05
-1.100270000000000000e+05
-1.083310000000000000e+05
-1.143440000000000000e+05
-1.185260000000000000e+05
-1.162610000000000000e+05
-1.151640000000000000e+05
-1.175780000000000000e+05
-1.178080000000000000e+05
-1.138950000000000000e+05
-1.140380000000000000e+05
-1.168710000000000000e+05
-1.200710000000000000e+05
-1.253830000000000000e+05
-1.299920000000000000e+05
-1.345640000000000000e+05
-1.383790000000000000e+05
-1.391140000000000000e+05
-1.404230000000000000e+05
-1.443680000000000000e+05
-1.495040000000000000e+05
-1.551550000000000000e+05
-1.607230000000000000e+05
-1.635190000000000000e+05
-1.645970000000000000e+05
-1.670970000000000000e+05
-1.695820000000000000e+05
-1.733560000000000000e+05
-1.831060000000000000e+05
-1.919850000000000000e+05
-1.939740000000000000e+05
-1.971090000000000000e+05
-1.970920000000000000e+05
-1.924300000000000000e+05
-1.968640000000000000e+05
-2.071670000000000000e+05
-2.181310000000000000e+05
-2.271020000000000000e+05
-2.325200000000000000e+05
-2.371650000000000000e+05
-2.412410000000000000e+05
-2.422640000000000000e+05
-2.417540000000000000e+05
-2.413650000000000000e+05
-2.410910000000000000e+05
-2.472140000000000000e+05
-2.535910000000000000e+05
-2.484790000000000000e+05
-2.478640000000000000e+05
-2.553810000000000000e+05
-2.645590000000000000e+05
-2.772950000000000000e+05
-2.794560000000000000e+05
-2.780590000000000000e+05
-2.868940000000000000e+05
-3.020520000000000000e+05
-3.108080000000000000e+05
-3.116910000000000000e+05
-2.994760000000000000e+05
-2.811960000000000000e+05
-2.697310000000000000e+05
-2.553820000000000000e+05
-2.343920000000000000e+05
-2.161240000000000000e+05
-2.066090000000000000e+05
-2.021460000000000000e+05
-1.870120000000000000e+05
-1.577670000000000000e+05
-1.372170000000000000e+05
-1.256550000000000000e+05
-1.213980000000000000e+05
-1.243210000000000000e+05
-1.289670000000000000e+05
-1.294800000000000000e+05
-1.300170000000000000e+05
-1.314070000000000000e+05
-1.301380000000000000e+05
-1.220270000000000000e+05
-1.012420000000000000e+05
-7.155700000000000000e+04
-3.433200000000000000e+04
-8.310000000000000000e+02
2.590500000000000000e+04
5.760100000000000000e+04
8.577700000000000000e+04
1.175960000000000000e+05
1.488630000000000000e+05
1.765680000000000000e+05
2.064580000000000000e+05
2.387720000000000000e+05
2.625850000000000000e+05
2.864590000000000000e+05
3.130990000000000000e+05
3.347960000000000000e+05
3.514730000000000000e+05
3.672260000000000000e+05
3.843230000000000000e+05
3.988830000000000000e+05
4.171020000000000000e+05
4.338310000000000000e+05
4.496060000000000000e+05
4.650330000000000000e+05
4.726190000000000000e+05
4.730060000000000000e+05
4.673160000000000000e+05
4.557640000000000000e+05
4.400510000000000000e+05
4.237870000000000000e+05
4.069290000000000000e+05
3.908230000000000000e+05
3.812130000000000000e+05
3.739480000000000000e+05
3.661530000000000000e+05
3.574360000000000000e+05
3.483040000000000000e+05
3.385110000000000000e+05
3.320260000000000000e+05
3.266860000000000000e+05
3.177420000000000000e+05
3.096200000000000000e+05
3.089160000000000000e+05
3.033010000000000000e+05
2.947780000000000000e+05
2.876300000000000000e+05
2.848560000000000000e+05
2.840770000000000000e+05
2.847140000000000000e+05
2.867280000000000000e+05
2.883660000000000000e+05
2.891530000000000000e+05
2.912890000000000000e+05
2.914110000000000000e+05
2.918610000000000000e+05
2.960310000000000000e+05
3.010140000000000000e+05
3.084110000000000000e+05
3.145340000000000000e+05
3.193010000000000000e+05
3.235080000000000000e+05
3.255760000000000000e+05
3.275180000000000000e+05
3.319590000000000000e+05
3.342490000000000000e+05
3.362140000000000000e+05
3.380560000000000000e+05
3.395650000000000000e+05
3.392140000000000000e+05
3.376960000000000000e+05
3.374830000000000000e+05
3.369610000000000000e+05
3.375210000000000000e+05
3.358830000000000000e+05
3.317670000000000000e+05
3.274450000000000000e+05
3.223420000000000000e+05
3.191230000000000000e+05
3.153210000000000000e+05
3.091280000000000000e+05
3.006630000000000000e+05
2.936350000000000000e+05
2.864010000000000000e+05
2.798960000000000000e+05
2.734410000000000000e+05
2.637260000000000000e+05
2.548030000000000000e+05
2.472730000000000000e+05
2.370190000000000000e+05
2.264520000000000000e+05
2.167340000000000000e+05
2.049230000000000000e+05
1.934650000000000000e+05
1.823570000000000000e+05
1.710880000000000000e+05
1.589610000000000000e+05
1.454990000000000000e+05
1.333080000000000000e+05
1.213480000000000000e+05
1.089410000000000000e+05
9.815600000000000000e+04
9.336100000000000000e+04
9.215100000000000000e+04
9.422100000000000000e+04
9.989600000000000000e+04
1.047160000000000000e+05
1.053360000000000000e+05
1.010340000000000000e+05
9.273600000000000000e+04
8.673700000000000000e+04
8.278800000000000000e+04
7.774100000000000000e+04
7.313400000000000000e+04
6.507000000000000000e+04
5.487900000000000000e+04
4.458400000000000000e+04
3.461100000000000000e+04
2.713700000000000000e+04
2.050600000000000000e+04
1.302400000000000000e+04
3.674000000000000000e+03
-6.644000000000000000e+03
-1.288200000000000000e+04
-2.129100000000000000e+04
-2.873000000000000000e+04
-3.643000000000000000e+04
-4.558400000000000000e+04
-5.344700000000000000e+04
-6.084000000000000000e+04
-6.917400000000000000e+04
-7.575300000000000000e+04
-7.872700000000000000e+04
-7.998600000000000000e+04
-8.104400000000000000e+04
-8.182200000000000000e+04
-8.242900000000000000e+04
-8.488200000000000000e+04
-8.911400000000000000e+04
-9.119900000000000000e+04
-9.144400000000000000e+04
-9.180400000000000000e+04
-9.441500000000000000e+04
-9.373100000000000000e+04
-8.964200000000000000e+04
-8.497400000000000000e+04
-7.993300000000000000e+04
-7.420200000000000000e+04
-6.701200000000000000e+04
-6.044700000000000000e+04
-5.699800000000000000e+04
-5.757400000000000000e+04
-5.630500000000000000e+04
-5.009200000000000000e+04
-4.244100000000000000e+04
-3.510100000000000000e+04
-2.994800000000000000e+04
-2.711200000000000000e+04
-2.404300000000000000e+04
-1.897800000000000000e+04
-1.234400000000000000e+04
-6.732000000000000000e+03
-3.537000000000000000e+03
-1.604000000000000000e+03
-3.720000000000000000e+02
-5.100000000000000000e+02
-2.536000000000000000e+03
-9.960000000000000000e+02
6.240000000000000000e+02
5.030000000000000000e+02
-1.651000000000000000e+03
-1.677000000000000000e+03
1.610000000000000000e+02
1.616000000000000000e+03
3.962000000000000000e+03
7.338000000000000000e+03
8.946000000000000000e+03
9.960000000000000000e+03
1.313600000000000000e+04
1.658300000000000000e+04
1.838400000000000000e+04
2.157600000000000000e+04
2.528400000000000000e+04
2.972100000000000000e+04
3.472400000000000000e+04
4.029600000000000000e+04
4.326800000000000000e+04
4.237400000000000000e+04
4.460300000000000000e+04
4.613100000000000000e+04
4.670800000000000000e+04
4.763000000000000000e+04
5.144300000000000000e+04
5.245600000000000000e+04
5.254700000000000000e+04
5.325800000000000000e+04
5.332500000000000000e+04
5.266900000000000000e+04
5.044300000000000000e+04
4.854300000000000000e+04
4.710600000000000000e+04
4.642900000000000000e+04
4.579800000000000000e+04
4.509600000000000000e+04
4.220600000000000000e+04
3.785900000000000000e+04
3.435000000000000000e+04
3.088800000000000000e+04
2.836300000000000000e+04
2.742900000000000000e+04
2.721100000000000000e+04
2.636600000000000000e+04
2.455700000000000000e+04
2.337100000000000000e+04
2.241300000000000000e+04
2.146600000000000000e+04
1.970600000000000000e+04
1.797600000000000000e+04
1.642100000000000000e+04
1.406100000000000000e+04
1.165100000000000000e+04
9.838000000000000000e+03
8.279000000000000000e+03
6.910000000000000000e+03
5.419000000000000000e+03
3.373000000000000000e+03
-4.180000000000000000e+02
-5.212000000000000000e+03
-7.751000000000000000e+03
-8.813000000000000000e+03
-9.692000000000000000e+03
-1.140900000000000000e+04
-1.354200000000000000e+04
-1.649400000000000000e+04
-2.194300000000000000e+04
-2.877100000000000000e+04
-3.420800000000000000e+04
-3.769200000000000000e+04
-4.166300000000000000e+04
-4.588400000000000000e+04
-5.222900000000000000e+04
-5.750600000000000000e+04
-5.857100000000000000e+04
-6.108200000000000000e+04
-6.480100000000000000e+04
-6.901600000000000000e+04
-7.380600000000000000e+04
-7.852400000000000000e+04
-8.186800000000000000e+04
-8.317000000000000000e+04
-8.318900000000000000e+04
-8.222600000000000000e+04
-8.123400000000000000e+04
-7.962700000000000000e+04
-7.725400000000000000e+04
-7.671200000000000000e+04
-7.749200000000000000e+04
-7.825600000000000000e+04
-7.898800000000000000e+04
-7.889100000000000000e+04
-7.823400000000000000e+04
-7.640200000000000000e+04
-7.473400000000000000e+04
-7.374000000000000000e+04
-7.261100000000000000e+04
-7.170100000000000000e+04
-7.201100000000000000e+04
-7.288000000000000000e+04
-7.458800000000000000e+04
-7.641200000000000000e+04
-7.865600000000000000e+04
-8.195700000000000000e+04
-8.682000000000000000e+04
-9.019900000000000000e+04
-9.251500000000000000e+04
-9.300500000000000000e+04
-9.251400000000000000e+04
-9.171600000000000000e+04
-9.135700000000000000e+04
-9.043600000000000000e+04
-8.882500000000000000e+04
-8.894600000000000000e+04
-9.007100000000000000e+04
-9.020100000000000000e+04
-9.028900000000000000e+04
-9.052400000000000000e+04
-8.985700000000000000e+04
-8.901100000000000000e+04
-8.760700000000000000e+04
-8.567200000000000000e+04
-8.337100000000000000e+04
-8.167800000000000000e+04
-8.105700000000000000e+04
-8.294100000000000000e+04
-8.670900000000000000e+04
-9.124300000000000000e+04
-9.280800000000000000e+04
-9.090700000000000000e+04
-8.792700000000000000e+04
-9.137900000000000000e+04
-9.213700000000000000e+04
-8.806600000000000000e+04
-8.205800000000000000e+04
-8.138800000000000000e+04
-8.129400000000000000e+04
-8.040600000000000000e+04
-7.942400000000000000e+04
-8.020700000000000000e+04
-8.206900000000000000e+04
-8.444300000000000000e+04
-8.677300000000000000e+04
-8.407800000000000000e+04
-7.893600000000000000e+04
-8.365100000000000000e+04
-8.874700000000000000e+04
-8.989700000000000000e+04
-9.085900000000000000e+04
-9.196600000000000000e+04
-9.143900000000000000e+04
-9.320600000000000000e+04
-9.102900000000000000e+04
-9.096400000000000000e+04
-9.206800000000000000e+04
-9.273700000000000000e+04
-9.386400000000000000e+04
-9.516800000000000000e+04
-9.552100000000000000e+04
-9.606900000000000000e+04
-9.849100000000000000e+04
-1.011950000000000000e+05
-1.023390000000000000e+05
-1.035190000000000000e+05
-1.064950000000000000e+05
-1.092890000000000000e+05
-1.118190000000000000e+05
-1.150490000000000000e+05
-1.172520000000000000e+05
-1.175940000000000000e+05
-1.168990000000000000e+05
-1.187020000000000000e+05
-1.225010000000000000e+05
-1.267990000000000000e+05
-1.311920000000000000e+05
-1.349790000000000000e+05
-1.376760000000000000e+05
-1.392390000000000000e+05
-1.418090000000000000e+05
-1.455710000000000000e+05
-1.477680000000000000e+05
-1.492120000000000000e+05
-1.478870000000000000e+05
-1.462470000000000000e+05
-1.465100000000000000e+05
-1.472680000000000000e+05
-1.495630000000000000e+05
-1.534990000000000000e+05
-1.567870000000000000e+05
-1.585430000000000000e+05
-1.596510000000000000e+05
-1.599200000000000000e+05
-1.600720000000000000e+05
-1.616810000000000000e+05
-1.645240000000000000e+05
-1.675890000000000000e+05
-1.710250000000000000e+05
-1.762960000000000000e+05
-1.766910000000000000e+05
-1.769400000000000000e+05
-1.754410000000000000e+05
-1.742600000000000000e+05
-1.770340000000000000e+05
-1.744260000000000000e+05
-1.741790000000000000e+05
-1.755760000000000000e+05
-1.768100000000000000e+05
-1.776140000000000000e+05
-1.784070000000000000e+05
-1.800060000000000000e+05
-1.826350000000000000e+05
-1.842560000000000000e+05
-1.834960000000000000e+05
-1.821390000000000000e+05
-1.820860000000000000e+05
-1.831030000000000000e+05
-1.838970000000000000e+05
-1.848780000000000000e+05
-1.856540000000000000e+05
-1.863790000000000000e+05
-1.877230000000000000e+05
-1.881430000000000000e+05
-1.883430000000000000e+05
-1.884940000000000000e+05
-1.872820000000000000e+05
-1.889460000000000000e+05
-1.914900000000000000e+05
-1.929870000000000000e+05
-1.928230000000000000e+05
-1.933160000000000000e+05
-1.942370000000000000e+05
-1.940880000000000000e+05
-1.925500000000000000e+05
-1.907180000000000000e+05
-1.900820000000000000e+05
-1.901370000000000000e+05
-1.891210000000000000e+05
-1.880780000000000000e+05
-1.874100000000000000e+05
-1.877590000000000000e+05
-1.888310000000000000e+05
-1.888450000000000000e+05
-1.895820000000000000e+05
-1.906000000000000000e+05
-1.913330000000000000e+05
-1.910390000000000000e+05
-1.885920000000000000e+05
-1.850550000000000000e+05
-1.807120000000000000e+05
-1.778640000000000000e+05
-1.780440000000000000e+05
-1.781130000000000000e+05
-1.775670000000000000e+05
-1.767500000000000000e+05
-1.756520000000000000e+05
-1.740880000000000000e+05
-1.721540000000000000e+05
-1.716150000000000000e+05
-1.712710000000000000e+05
-1.713020000000000000e+05
-1.702600000000000000e+05
-1.695450000000000000e+05
-1.680350000000000000e+05
-1.644030000000000000e+05
-1.615840000000000000e+05
-1.598360000000000000e+05
-1.594190000000000000e+05
-1.582200000000000000e+05
-1.574820000000000000e+05
-1.558320000000000000e+05
-1.536810000000000000e+05
-1.513670000000000000e+05
-1.484460000000000000e+05
-1.452710000000000000e+05
-1.430070000000000000e+05
-1.408020000000000000e+05
-1.381910000000000000e+05
-1.365820000000000000e+05
-1.351140000000000000e+05
-1.339210000000000000e+05
-1.332590000000000000e+05
-1.315840000000000000e+05
-1.282170000000000000e+05
-1.259100000000000000e+05
-1.243060000000000000e+05
-1.225290000000000000e+05
-1.210510000000000000e+05
-1.206820000000000000e+05
-1.199260000000000000e+05
-1.172160000000000000e+05
-1.156090000000000000e+05
-1.147070000000000000e+05
-1.140490000000000000e+05
-1.139420000000000000e+05
-1.143570000000000000e+05
-1.142590000000000000e+05
-1.140160000000000000e+05
-1.133130000000000000e+05
-1.133010000000000000e+05
-1.134260000000000000e+05
-1.142220000000000000e+05
-1.159750000000000000e+05
-1.173870000000000000e+05
-1.200520000000000000e+05
-1.234730000000000000e+05
-1.258510000000000000e+05
-1.276970000000000000e+05
-1.294440000000000000e+05
-1.323670000000000000e+05
-1.349240000000000000e+05
-1.373400000000000000e+05
-1.405650000000000000e+05
-1.446270000000000000e+05
-1.456410000000000000e+05
-1.468040000000000000e+05
-1.487370000000000000e+05
-1.520090000000000000e+05
-1.544000000000000000e+05
-1.560570000000000000e+05
-1.557760000000000000e+05
-1.558750000000000000e+05
-1.567560000000000000e+05
-1.573610000000000000e+05
-1.587230000000000000e+05
-1.596040000000000000e+05
-1.613070000000000000e+05
-1.650730000000000000e+05
-1.658870000000000000e+05
-1.645800000000000000e+05
-1.634500000000000000e+05
-1.636370000000000000e+05
-1.607870000000000000e+05
-1.558780000000000000e+05
-1.530290000000000000e+05
-1.523160000000000000e+05
-1.578390000000000000e+05
-1.584260000000000000e+05
-1.569490000000000000e+05
-1.545740000000000000e+05
-1.534250000000000000e+05
-1.516970000000000000e+05
-1.462780000000000000e+05
-1.436040000000000000e+05
-1.427850000000000000e+05
-1.462350000000000000e+05
-1.452770000000000000e+05
-1.402730000000000000e+05
-1.342710000000000000e+05
-1.340940000000000000e+05
-1.344160000000000000e+05
-1.308760000000000000e+05
-1.236070000000000000e+05
-1.139010000000000000e+05
-1.107810000000000000e+05
-1.108760000000000000e+05
-1.073460000000000000e+05
-1.042720000000000000e+05
-1.038390000000000000e+05
-1.054040000000000000e+05
-1.002040000000000000e+05
-8.737900000000000000e+04
-7.997800000000000000e+04
-7.677700000000000000e+04
-7.411300000000000000e+04
-7.012500000000000000e+04
-6.388400000000000000e+04
-6.092400000000000000e+04
-5.542100000000000000e+04
-4.715200000000000000e+04
-3.952400000000000000e+04
-3.126300000000000000e+04
-2.462200000000000000e+04
-1.993600000000000000e+04
-1.398300000000000000e+04
-9.805000000000000000e+03
-6.845000000000000000e+03
-2.589000000000000000e+03
2.133000000000000000e+03
5.003000000000000000e+03
6.949000000000000000e+03
9.169000000000000000e+03
1.235600000000000000e+04
1.188800000000000000e+04
1.140700000000000000e+04
1.277000000000000000e+04
1.491400000000000000e+04
1.717600000000000000e+04
1.908900000000000000e+04
2.001500000000000000e+04
2.108800000000000000e+04
2.226600000000000000e+04
2.918600000000000000e+04
3.988100000000000000e+04
4.889400000000000000e+04
5.062200000000000000e+04
5.111900000000000000e+04
5.335200000000000000e+04
5.902900000000000000e+04
6.546600000000000000e+04
6.927400000000000000e+04
7.130000000000000000e+04
7.470800000000000000e+04
7.689100000000000000e+04
7.850800000000000000e+04
8.020300000000000000e+04
8.319700000000000000e+04
8.511300000000000000e+04
8.553000000000000000e+04
8.742900000000000000e+04
9.070900000000000000e+04
9.436300000000000000e+04
9.581400000000000000e+04
9.883400000000000000e+04
1.058580000000000000e+05
1.128330000000000000e+05
1.167430000000000000e+05
1.216320000000000000e+05
1.251740000000000000e+05
1.263180000000000000e+05
1.306240000000000000e+05
1.358940000000000000e+05
1.411310000000000000e+05
1.438740000000000000e+05
1.470160000000000000e+05
1.527760000000000000e+05
1.606760000000000000e+05
1.671630000000000000e+05
1.695880000000000000e+05
1.714440000000000000e+05
1.765910000000000000e+05
1.816160000000000000e+05
1.829060000000000000e+05
1.848130000000000000e+05
1.871460000000000000e+05
1.888510000000000000e+05
1.909290000000000000e+05
1.936100000000000000e+05
1.966830000000000000e+05
1.984460000000000000e+05
1.999240000000000000e+05
2.000270000000000000e+05
2.004690000000000000e+05
2.003610000000000000e+05
2.011630000000000000e+05
2.031360000000000000e+05
2.054290000000000000e+05
2.079190000000000000e+05
2.085900000000000000e+05
2.100990000000000000e+05
2.127390000000000000e+05
2.194730000000000000e+05
2.229190000000000000e+05
2.261590000000000000e+05
2.301330000000000000e+05
2.302350000000000000e+05
2.276520000000000000e+05
2.269230000000000000e+05
2.295240000000000000e+05
2.272110000000000000e+05
2.297540000000000000e+05
2.367340000000000000e+05
2.444030000000000000e+05
2.470410000000000000e+05
2.488240000000000000e+05
2.477660000000000000e+05
2.452320000000000000e+05
2.425510000000000000e+05
2.395330000000000000e+05
2.443830000000000000e+05
2.519620000000000000e+05
2.562160000000000000e+05
2.561560000000000000e+05
2.543580000000000000e+05
2.513860000000000000e+05
2.481090000000000000e+05
2.455710000000000000e+05
2.455730000000000000e+05
2.469250000000000000e+05
2.465260000000000000e+05
2.447810000000000000e+05
2.440310000000000000e+05
2.436910000000000000e+05
2.407520000000000000e+05
2.361890000000000000e+05
2.325630000000000000e+05
2.292160000000000000e+05
2.255190000000000000e+05
2.224510000000000000e+05
2.206080000000000000e+05
2.202370000000000000e+05
2.194560000000000000e+05
2.191140000000000000e+05
2.185340000000000000e+05
2.179810000000000000e+05
2.171510000000000000e+05
2.145730000000000000e+05
2.124490000000000000e+05
2.118410000000000000e+05
2.083040000000000000e+05
2.033240000000000000e+05
1.995690000000000000e+05
1.961510000000000000e+05
1.919890000000000000e+05
1.869600000000000000e+05
1.826040000000000000e+05
1.783920000000000000e+05
1.731900000000000000e+05
1.676920000000000000e+05
1.616660000000000000e+05
1.550910000000000000e+05
1.483570000000000000e+05
1.401630000000000000e+05
1.322980000000000000e+05
1.253430000000000000e+05
1.184120000000000000e+05
1.110590000000000000e+05
1.031840000000000000e+05
1.020920000000000000e+05
9.952300000000000000e+04
9.705700000000000000e+04
9.498900000000000000e+04
9.074600000000000000e+04
8.303100000000000000e+04
7.636600000000000000e+04
7.210400000000000000e+04
6.849600000000000000e+04
6.327300000000000000e+04
5.540600000000000000e+04
5.063900000000000000e+04
4.966900000000000000e+04
4.761300000000000000e+04
4.639600000000000000e+04
4.042300000000000000e+04
3.500600000000000000e+04
2.691300000000000000e+04
1.920100000000000000e+04
1.777800000000000000e+04
1.493400000000000000e+04
1.229200000000000000e+04
9.041000000000000000e+03
3.488000000000000000e+03
2.027000000000000000e+03
-1.170000000000000000e+03
-5.592000000000000000e+03
-1.051700000000000000e+04
-1.666400000000000000e+04
-1.577800000000000000e+04
-1.249700000000000000e+04
-1.183700000000000000e+04
-1.537500000000000000e+04
-1.449700000000000000e+04
-1.691400000000000000e+04
-1.870600000000000000e+04
-2.213400000000000000e+04
-2.899100000000000000e+04
-3.234600000000000000e+04
-3.439600000000000000e+04
-3.785900000000000000e+04
-3.942400000000000000e+04
-3.903900000000000000e+04
-4.072200000000000000e+04
-4.275900000000000000e+04
-4.474000000000000000e+04
-4.684200000000000000e+04
-4.899000000000000000e+04
-5.027900000000000000e+04
-5.296800000000000000e+04
-5.459000000000000000e+04
-5.474800000000000000e+04
-5.610400000000000000e+04
-5.541200000000000000e+04
-5.489700000000000000e+04
-5.473700000000000000e+04
-5.621100000000000000e+04
-5.738100000000000000e+04
-5.903700000000000000e+04
-6.086700000000000000e+04
-6.286700000000000000e+04
-6.548200000000000000e+04
-6.567100000000000000e+04
-6.654600000000000000e+04
-6.700800000000000000e+04
-6.808400000000000000e+04
-6.882900000000000000e+04
-7.038400000000000000e+04
-7.151900000000000000e+04
-7.230700000000000000e+04
-7.471400000000000000e+04
-7.355300000000000000e+04
-7.335400000000000000e+04
-7.425100000000000000e+04
-7.492100000000000000e+04
-7.524800000000000000e+04
-7.609100000000000000e+04
-7.778000000000000000e+04
-7.972000000000000000e+04
-8.121900000000000000e+04
-8.160800000000000000e+04
-8.111700000000000000e+04
-8.022600000000000000e+04
-8.116000000000000000e+04
-8.311500000000000000e+04
-8.505600000000000000e+04
-8.644400000000000000e+04
-8.632800000000000000e+04
-8.725300000000000000e+04
-8.969400000000000000e+04
-9.186600000000000000e+04
-9.445100000000000000e+04
-9.607900000000000000e+04
-9.586100000000000000e+04
-9.542200000000000000e+04
-9.499200000000000000e+04
-9.545900000000000000e+04
-9.671100000000000000e+04
-9.786900000000000000e+04
-9.761700000000000000e+04
-9.869300000000000000e+04
-1.006760000000000000e+05
-1.022190000000000000e+05
-1.029600000000000000e+05
-1.035820000000000000e+05
-1.041740000000000000e+05
-1.045070000000000000e+05
-1.045820000000000000e+05
-1.056710000000000000e+05
-1.065510000000000000e+05
-1.076160000000000000e+05
-1.093130000000000000e+05
-1.102630000000000000e+05
-1.111780000000000000e+05
-1.123860000000000000e+05
-1.130360000000000000e+05
-1.140870000000000000e+05
-1.153640000000000000e+05
-1.150840000000000000e+05
-1.147900000000000000e+05
-1.167060000000000000e+05
-1.183710000000000000e+05
-1.202790000000000000e+05
-1.205160000000000000e+05
-1.210810000000000000e+05
-1.206410000000000000e+05
-1.210540000000000000e+05
-1.204280000000000000e+05
-1.236960000000000000e+05
-1.297530000000000000e+05
-1.303150000000000000e+05
-1.290630000000000000e+05
-1.284070000000000000e+05
-1.279590000000000000e+05
-1.270840000000000000e+05
-1.258580000000000000e+05
-1.251360000000000000e+05
-1.251970000000000000e+05
-1.249410000000000000e+05
-1.255370000000000000e+05
-1.253860000000000000e+05
-1.247490000000000000e+05
-1.239150000000000000e+05
-1.233460000000000000e+05
-1.282070000000000000e+05
-1.313500000000000000e+05
-1.310620000000000000e+05
-1.295020000000000000e+05
-1.289810000000000000e+05
-1.263880000000000000e+05
-1.258560000000000000e+05
-1.299420000000000000e+05
-1.296440000000000000e+05
-1.303280000000000000e+05
-1.330920000000000000e+05
-1.369170000000000000e+05
-1.348170000000000000e+05
-1.334220000000000000e+05
-1.322220000000000000e+05
-1.305570000000000000e+05
-1.304430000000000000e+05
-1.308130000000000000e+05
-1.314520000000000000e+05
-1.323860000000000000e+05
-1.326080000000000000e+05
-1.327300000000000000e+05
-1.336970000000000000e+05
-1.348460000000000000e+05
-1.363980000000000000e+05
-1.375910000000000000e+05
-1.391710000000000000e+05
-1.397950000000000000e+05
-1.391270000000000000e+05
-1.398300000000000000e+05
-1.406190000000000000e+05
-1.413020000000000000e+05
-1.418980000000000000e+05
-1.427260000000000000e+05
-1.433340000000000000e+05
-1.433660000000000000e+05
-1.434380000000000000e+05
-1.424740000000000000e+05
-1.425160000000000000e+05
-1.436990000000000000e+05
-1.440090000000000000e+05
-1.449230000000000000e+05
-1.482180000000000000e+05
-1.493760000000000000e+05
-1.494720000000000000e+05
-1.510060000000000000e+05
-1.507770000000000000e+05
-1.520410000000000000e+05
-1.533270000000000000e+05
-1.540240000000000000e+05
-1.554140000000000000e+05
-1.573240000000000000e+05
-1.559440000000000000e+05
-1.541390000000000000e+05
-1.524510000000000000e+05
-1.507040000000000000e+05
-1.526510000000000000e+05
-1.545250000000000000e+05
-1.557600000000000000e+05
-1.572240000000000000e+05
-1.593720000000000000e+05
-1.608790000000000000e+05
-1.584860000000000000e+05
-1.537820000000000000e+05
-1.520590000000000000e+05
-1.522270000000000000e+05
-1.531750000000000000e+05
-1.561190000000000000e+05
-1.586530000000000000e+05
-1.607060000000000000e+05
-1.633190000000000000e+05
-1.630210000000000000e+05
-1.629000000000000000e+05
-1.618720000000000000e+05
-1.565360000000000000e+05
-1.521850000000000000e+05
-1.516060000000000000e+05
-1.527480000000000000e+05
-1.496570000000000000e+05
-1.468690000000000000e+05
-1.473580000000000000e+05
-1.494650000000000000e+05
-1.513640000000000000e+05
-1.533790000000000000e+05
-1.546160000000000000e+05
-1.537540000000000000e+05
-1.529110000000000000e+05
-1.548440000000000000e+05
-1.564840000000000000e+05
-1.566220000000000000e+05
-1.552590000000000000e+05
-1.529310000000000000e+05
-1.506520000000000000e+05
-1.506770000000000000e+05
-1.509940000000000000e+05
-1.509320000000000000e+05
-1.506770000000000000e+05
-1.534080000000000000e+05
-1.565720000000000000e+05
-1.582490000000000000e+05
-1.579160000000000000e+05
-1.533970000000000000e+05
-1.495960000000000000e+05
-1.517270000000000000e+05
-1.543920000000000000e+05
-1.560230000000000000e+05
-1.507240000000000000e+05
-1.414370000000000000e+05
-1.370390000000000000e+05
-1.365310000000000000e+05
-1.375740000000000000e+05
-1.426810000000000000e+05
-1.443790000000000000e+05
-1.432670000000000000e+05
-1.436450000000000000e+05
-1.441970000000000000e+05
-1.431740000000000000e+05
-1.429340000000000000e+05
-1.455600000000000000e+05
-1.447920000000000000e+05
-1.445780000000000000e+05
-1.454850000000000000e+05
-1.480270000000000000e+05
-1.536980000000000000e+05
-1.580660000000000000e+05
-1.591610000000000000e+05
-1.570360000000000000e+05
-1.583460000000000000e+05
-1.552660000000000000e+05
-1.495790000000000000e+05
-1.500470000000000000e+05
-1.553420000000000000e+05
-1.596040000000000000e+05
-1.626770000000000000e+05
-1.577290000000000000e+05
-1.579410000000000000e+05
-1.611730000000000000e+05
-1.605400000000000000e+05
-1.586290000000000000e+05
-1.523540000000000000e+05
-1.456870000000000000e+05
-1.482790000000000000e+05
-1.589080000000000000e+05
-1.653910000000000000e+05
-1.645460000000000000e+05
-1.676050000000000000e+05
-1.784910000000000000e+05
-1.794520000000000000e+05
-1.702160000000000000e+05
-1.677250000000000000e+05
-1.726410000000000000e+05
-1.746940000000000000e+05
-1.800990000000000000e+05
-1.926140000000000000e+05
-2.046490000000000000e+05
-2.121860000000000000e+05
-2.152760000000000000e+05
-2.138990000000000000e+05
-2.207570000000000000e+05
-2.265840000000000000e+05
-2.226580000000000000e+05
-2.305290000000000000e+05
-2.417430000000000000e+05
-2.454880000000000000e+05
-2.434050000000000000e+05
-2.455020000000000000e+05
-2.626860000000000000e+05
-2.736120000000000000e+05
-2.792430000000000000e+05
-2.887310000000000000e+05
-3.011820000000000000e+05
-3.054280000000000000e+05
-3.054280000000000000e+05
-3.110020000000000000e+05
-3.195460000000000000e+05
-3.316730000000000000e+05
-3.410160000000000000e+05
-3.431790000000000000e+05
-3.516000000000000000e+05
-3.659420000000000000e+05
-3.758760000000000000e+05
-3.868340000000000000e+05
-3.872610000000000000e+05
-3.801190000000000000e+05
-3.723170000000000000e+05
-3.772510000000000000e+05
-3.823610000000000000e+05
-3.842490000000000000e+05
-3.839160000000000000e+05
-3.820960000000000000e+05
-3.829660000000000000e+05
-3.840250000000000000e+05
-3.815060000000000000e+05
-3.792840000000000000e+05
-3.747840000000000000e+05
-3.753060000000000000e+05
-3.769870000000000000e+05
-3.812270000000000000e+05
-3.940180000000000000e+05
-4.107530000000000000e+05
-4.255990000000000000e+05
-4.335640000000000000e+05
-4.388970000000000000e+05
-4.507810000000000000e+05
-4.747960000000000000e+05
-4.885870000000000000e+05
-4.826670000000000000e+05
-4.454070000000000000e+05
-3.887690000000000000e+05
-3.308980000000000000e+05
-2.551170000000000000e+05
-1.928210000000000000e+05
-1.791590000000000000e+05
-1.898770000000000000e+05
-1.868030000000000000e+05
-1.699320000000000000e+05
-1.473950000000000000e+05
-1.182460000000000000e+05
-8.624800000000000000e+04
-6.320000000000000000e+04
-4.900200000000000000e+04
-4.005200000000000000e+04
-2.701300000000000000e+04
-1.144700000000000000e+04
1.045300000000000000e+04
2.749800000000000000e+04
3.715300000000000000e+04
4.460900000000000000e+04
4.212900000000000000e+04
3.737300000000000000e+04
3.404800000000000000e+04
3.206300000000000000e+04
3.470200000000000000e+04
3.901200000000000000e+04
4.487800000000000000e+04
6.149800000000000000e+04
8.696600000000000000e+04
1.099270000000000000e+05
1.256550000000000000e+05
1.409960000000000000e+05
1.570990000000000000e+05
1.708020000000000000e+05
1.840150000000000000e+05
1.974350000000000000e+05
2.050190000000000000e+05
2.088980000000000000e+05
2.113580000000000000e+05
2.159940000000000000e+05
2.192710000000000000e+05
2.219860000000000000e+05
2.239200000000000000e+05
2.217530000000000000e+05
2.168170000000000000e+05
2.103040000000000000e+05
1.998730000000000000e+05
1.915350000000000000e+05
1.876790000000000000e+05
1.887980000000000000e+05
1.931280000000000000e+05
1.992200000000000000e+05
2.046420000000000000e+05
2.058660000000000000e+05
2.065160000000000000e+05
2.127190000000000000e+05
2.251460000000000000e+05
2.398620000000000000e+05
2.551390000000000000e+05
2.711730000000000000e+05
2.915540000000000000e+05
3.135710000000000000e+05
3.312330000000000000e+05
3.467610000000000000e+05
3.644860000000000000e+05
3.878220000000000000e+05
4.100210000000000000e+05
4.228410000000000000e+05
4.354680000000000000e+05
4.507960000000000000e+05
4.643460000000000000e+05
4.735260000000000000e+05
4.794180000000000000e+05
4.850290000000000000e+05
4.905470000000000000e+05
4.981630000000000000e+05
5.029430000000000000e+05
5.068040000000000000e+05
5.075990000000000000e+05
5.070990000000000000e+05
5.090160000000000000e+05
5.102920000000000000e+05
5.111600000000000000e+05
5.157920000000000000e+05
5.198780000000000000e+05
5.226060000000000000e+05
5.179580000000000000e+05
5.147870000000000000e+05
5.181060000000000000e+05
5.185730000000000000e+05
5.103460000000000000e+05
5.087430000000000000e+05
5.103090000000000000e+05
5.047180000000000000e+05
4.979040000000000000e+05
4.885250000000000000e+05
4.775380000000000000e+05
4.726580000000000000e+05
4.662710000000000000e+05
4.603880000000000000e+05
4.562530000000000000e+05
4.534570000000000000e+05
4.528740000000000000e+05
4.473690000000000000e+05
4.442390000000000000e+05
4.438570000000000000e+05
4.470680000000000000e+05
4.530440000000000000e+05
4.592940000000000000e+05
4.665240000000000000e+05
4.726570000000000000e+05
4.722480000000000000e+05
4.707870000000000000e+05
4.724540000000000000e+05
4.709480000000000000e+05
4.687210000000000000e+05
4.678700000000000000e+05
4.687060000000000000e+05
4.695510000000000000e+05
4.684630000000000000e+05
4.644410000000000000e+05
4.617050000000000000e+05
4.644360000000000000e+05
4.628720000000000000e+05
4.581290000000000000e+05
4.533850000000000000e+05
4.474910000000000000e+05
4.413660000000000000e+05
4.357550000000000000e+05
4.311910000000000000e+05
4.219230000000000000e+05
4.118880000000000000e+05
4.052960000000000000e+05
4.013340000000000000e+05
3.938280000000000000e+05
3.850280000000000000e+05
3.762910000000000000e+05
3.674960000000000000e+05
3.582240000000000000e+05
3.496690000000000000e+05
3.405490000000000000e+05
3.286480000000000000e+05
3.191610000000000000e+05
3.112060000000000000e+05
3.016740000000000000e+05
2.912890000000000000e+05
2.789690000000000000e+05
2.675400000000000000e+05
2.610550000000000000e+05
2.547690000000000000e+05
2.438230000000000000e+05
2.317090000000000000e+05
2.237220000000000000e+05
2.162820000000000000e+05
2.067250000000000000e+05
1.963580000000000000e+05
1.851930000000000000e+05
1.751130000000000000e+05
1.642350000000000000e+05
1.518140000000000000e+05
1.395010000000000000e+05
1.329200000000000000e+05
1.267660000000000000e+05
1.175530000000000000e+05
1.085540000000000000e+05
1.001490000000000000e+05
9.251300000000000000e+04
8.321600000000000000e+04
7.216800000000000000e+04
6.338300000000000000e+04
5.452300000000000000e+04
4.377700000000000000e+04
3.297300000000000000e+04
2.405700000000000000e+04
1.507500000000000000e+04
6.882000000000000000e+03
-1.020000000000000000e+02
-9.498000000000000000e+03
-2.185900000000000000e+04
-3.382600000000000000e+04
-4.382000000000000000e+04
-5.334400000000000000e+04
-6.227200000000000000e+04
-7.271500000000000000e+04
-8.458200000000000000e+04
-9.581700000000000000e+04
-1.066280000000000000e+05
-1.171290000000000000e+05
-1.276420000000000000e+05
-1.366410000000000000e+05
-1.446340000000000000e+05
-1.542820000000000000e+05
-1.645960000000000000e+05
-1.770620000000000000e+05
-1.905310000000000000e+05
-2.053270000000000000e+05
-2.236510000000000000e+05
-2.449040000000000000e+05
-2.695280000000000000e+05
-3.000160000000000000e+05
-3.328310000000000000e+05
-3.586260000000000000e+05
-3.654120000000000000e+05
-3.397010000000000000e+05
-2.866490000000000000e+05
-2.570500000000000000e+05
-2.575730000000000000e+05
-2.619110000000000000e+05
-2.633590000000000000e+05
-2.623140000000000000e+05
-2.604710000000000000e+05
-2.584670000000000000e+05
-2.570850000000000000e+05
-2.517390000000000000e+05
-2.457580000000000000e+05
-2.405070000000000000e+05
-2.369090000000000000e+05
-2.346600000000000000e+05
-2.339960000000000000e+05
-2.329590000000000000e+05
-2.327620000000000000e+05
-2.352970000000000000e+05
-2.360560000000000000e+05
-2.354960000000000000e+05
-2.359310000000000000e+05
-2.371470000000000000e+05
-2.372630000000000000e+05
-2.359380000000000000e+05
-2.324320000000000000e+05
-2.280910000000000000e+05
-2.232020000000000000e+05
-2.172110000000000000e+05
-2.115400000000000000e+05
-2.060310000000000000e+05
-1.997290000000000000e+05
-1.928630000000000000e+05
-1.847510000000000000e+05
-1.757690000000000000e+05
-1.673170000000000000e+05
-1.609620000000000000e+05
-1.574970000000000000e+05
-1.542770000000000000e+05
-1.512370000000000000e+05
-1.490500000000000000e+05
-1.481610000000000000e+05
-1.471020000000000000e+05
-1.464850000000000000e+05
-1.456250000000000000e+05
-1.449520000000000000e+05
-1.431760000000000000e+05
-1.422440000000000000e+05
-1.425620000000000000e+05
-1.430520000000000000e+05
-1.425480000000000000e+05
-1.424170000000000000e+05
-1.432060000000000000e+05
-1.438160000000000000e+05
-1.440750000000000000e+05
-1.451920000000000000e+05
-1.473740000000000000e+05
-1.469580000000000000e+05
-1.447020000000000000e+05
-1.424600000000000000e+05
-1.398410000000000000e+05
-1.372240000000000000e+05
-1.336670000000000000e+05
-1.302020000000000000e+05
-1.283390000000000000e+05
-1.277480000000000000e+05
-1.256410000000000000e+05
-1.218920000000000000e+05
-1.230380000000000000e+05
-1.240890000000000000e+05
-1.232920000000000000e+05
-1.221860000000000000e+05
-1.198160000000000000e+05
-1.181530000000000000e+05
-1.153980000000000000e+05
-1.129910000000000000e+05
-1.117920000000000000e+05
-1.116140000000000000e+05
-1.102880000000000000e+05
-1.089640000000000000e+05
-1.058280000000000000e+05
-1.025280000000000000e+05
-1.023860000000000000e+05
-1.048490000000000000e+05
-1.065960000000000000e+05
-1.021640000000000000e+05
-1.022800000000000000e+05
-1.006270000000000000e+05
-9.841300000000000000e+04
-9.537200000000000000e+04
-9.008400000000000000e+04
-9.178700000000000000e+04
-9.372200000000000000e+04
-9.068600000000000000e+04
-9.251100000000000000e+04
-9.452100000000000000e+04
-9.843900000000000000e+04
-1.056100000000000000e+05
-1.048190000000000000e+05
-9.835000000000000000e+04
-9.594400000000000000e+04
-9.529700000000000000e+04
-9.540500000000000000e+04
-9.271400000000000000e+04
-8.687200000000000000e+04
-8.643800000000000000e+04
-9.165600000000000000e+04
-9.150600000000000000e+04
-8.753100000000000000e+04
-8.176800000000000000e+04
-7.921600000000000000e+04
-7.776300000000000000e+04
-7.519600000000000000e+04
-7.550300000000000000e+04
-7.326600000000000000e+04
-7.209300000000000000e+04
-7.259100000000000000e+04
-7.111900000000000000e+04
-6.896100000000000000e+04
-6.703400000000000000e+04
-6.497100000000000000e+04
-6.356900000000000000e+04
-6.299400000000000000e+04
-6.250900000000000000e+04
-6.010900000000000000e+04
-5.558900000000000000e+04
-5.065500000000000000e+04
-4.768700000000000000e+04
-4.781100000000000000e+04
-4.970600000000000000e+04
-5.025100000000000000e+04
-4.870200000000000000e+04
-4.777900000000000000e+04
-4.787700000000000000e+04
-4.621400000000000000e+04
-4.254400000000000000e+04
-4.014400000000000000e+04
-3.950100000000000000e+04
-3.794000000000000000e+04
-3.715000000000000000e+04
-3.518100000000000000e+04
-3.302600000000000000e+04
-3.138400000000000000e+04
-3.029000000000000000e+04
-3.070100000000000000e+04
-2.959000000000000000e+04
-3.180000000000000000e+04
-3.282800000000000000e+04
-3.373100000000000000e+04
-3.169900000000000000e+04
-2.902100000000000000e+04
-2.726300000000000000e+04
-2.676600000000000000e+04
-2.564700000000000000e+04
-2.361400000000000000e+04
-2.098900000000000000e+04
-2.061100000000000000e+04
-1.978600000000000000e+04
-1.714200000000000000e+04
-1.707500000000000000e+04
-1.632700000000000000e+04
-1.483400000000000000e+04
-1.294600000000000000e+04
-1.052300000000000000e+04
-7.496000000000000000e+03
-2.727000000000000000e+03
3.810000000000000000e+02
2.420000000000000000e+03
4.911000000000000000e+03
5.976000000000000000e+03
9.365000000000000000e+03
1.224100000000000000e+04
1.483600000000000000e+04
1.632300000000000000e+04
1.695100000000000000e+04
1.840600000000000000e+04
2.154600000000000000e+04
2.438100000000000000e+04
2.842100000000000000e+04
3.090600000000000000e+04
3.278700000000000000e+04
3.672700000000000000e+04
3.943900000000000000e+04
4.067600000000000000e+04
4.169800000000000000e+04
4.509000000000000000e+04
5.024300000000000000e+04
5.328900000000000000e+04
5.515400000000000000e+04
5.808900000000000000e+04
6.044000000000000000e+04
6.384800000000000000e+04
6.736100000000000000e+04
6.974800000000000000e+04
7.175000000000000000e+04
7.520700000000000000e+04
7.874000000000000000e+04
8.120800000000000000e+04
8.448800000000000000e+04
8.649100000000000000e+04
8.756600000000000000e+04
8.977100000000000000e+04
8.950300000000000000e+04
8.784800000000000000e+04
9.092800000000000000e+04
9.424300000000000000e+04
9.790800000000000000e+04
9.952300000000000000e+04
1.019130000000000000e+05
1.067890000000000000e+05
1.075410000000000000e+05
1.102100000000000000e+05
1.164700000000000000e+05
1.203090000000000000e+05
1.221820000000000000e+05
1.226590000000000000e+05
1.232580000000000000e+05
1.271230000000000000e+05
1.290390000000000000e+05
1.300310000000000000e+05
1.303920000000000000e+05
1.305580000000000000e+05
1.311840000000000000e+05
1.311230000000000000e+05
1.302310000000000000e+05
1.307640000000000000e+05
1.316420000000000000e+05
1.333110000000000000e+05
1.322980000000000000e+05
1.314110000000000000e+05
1.317640000000000000e+05
1.322650000000000000e+05
1.335780000000000000e+05
1.340540000000000000e+05
1.345750000000000000e+05
1.345640000000000000e+05
1.341040000000000000e+05
1.332850000000000000e+05
1.319050000000000000e+05
1.302650000000000000e+05
1.283940000000000000e+05
1.257900000000000000e+05
1.236700000000000000e+05
1.221490000000000000e+05
1.207030000000000000e+05
1.180590000000000000e+05
1.162690000000000000e+05
1.165150000000000000e+05
1.166880000000000000e+05
1.152880000000000000e+05
1.138530000000000000e+05
1.136880000000000000e+05
1.132130000000000000e+05
1.117310000000000000e+05
1.091800000000000000e+05
1.077010000000000000e+05
1.082660000000000000e+05
1.096400000000000000e+05
1.105710000000000000e+05
1.116390000000000000e+05
1.120340000000000000e+05
1.118110000000000000e+05
1.100580000000000000e+05
1.087080000000000000e+05
1.083410000000000000e+05
1.081840000000000000e+05
1.076940000000000000e+05
1.074510000000000000e+05
1.055260000000000000e+05
1.048500000000000000e+05
1.046710000000000000e+05
1.027010000000000000e+05
1.041640000000000000e+05
1.089640000000000000e+05
1.120120000000000000e+05
1.122120000000000000e+05
1.112030000000000000e+05
1.103290000000000000e+05
1.095720000000000000e+05
1.074190000000000000e+05
1.044440000000000000e+05
1.007980000000000000e+05
1.021340000000000000e+05
1.015150000000000000e+05
1.011310000000000000e+05
1.022290000000000000e+05
1.042890000000000000e+05
1.027920000000000000e+05
1.015740000000000000e+05
9.817100000000000000e+04
9.544700000000000000e+04
9.756800000000000000e+04
9.835000000000000000e+04
9.745400000000000000e+04
9.656000000000000000e+04
9.503900000000000000e+04
9.349300000000000000e+04
9.236100000000000000e+04
9.003400000000000000e+04
8.859800000000000000e+04
9.204800000000000000e+04
9.214900000000000000e+04
9.145700000000000000e+04
8.880400000000000000e+04
9.068500000000000000e+04
9.071300000000000000e+04
8.974100000000000000e+04
8.630800000000000000e+04
8.606200000000000000e+04
8.791000000000000000e+04
8.715100000000000000e+04
8.558700000000000000e+04
8.511900000000000000e+04
8.441600000000000000e+04
8.212700000000000000e+04
8.428300000000000000e+04
8.334600000000000000e+04
8.033400000000000000e+04
7.748300000000000000e+04
8.050900000000000000e+04
8.294500000000000000e+04
8.394400000000000000e+04
8.461600000000000000e+04
8.323500000000000000e+04
8.345300000000000000e+04
8.609300000000000000e+04
8.776200000000000000e+04
8.879100000000000000e+04
8.993100000000000000e+04
9.101900000000000000e+04
9.313700000000000000e+04
9.567700000000000000e+04
9.763100000000000000e+04
9.945900000000000000e+04
1.013150000000000000e+05
1.020700000000000000e+05
1.026510000000000000e+05
1.058240000000000000e+05
1.080310000000000000e+05
1.088550000000000000e+05
1.096610000000000000e+05
1.102130000000000000e+05
1.086930000000000000e+05
1.110100000000000000e+05
1.149710000000000000e+05
1.179740000000000000e+05
1.211470000000000000e+05
1.227900000000000000e+05
1.258380000000000000e+05
1.288980000000000000e+05
1.310260000000000000e+05
1.344900000000000000e+05
1.383210000000000000e+05
1.396690000000000000e+05
1.402280000000000000e+05
1.398360000000000000e+05
1.420030000000000000e+05
1.439410000000000000e+05
1.455230000000000000e+05
1.472430000000000000e+05
1.468440000000000000e+05
1.440290000000000000e+05
1.403740000000000000e+05
1.364290000000000000e+05
1.317960000000000000e+05
1.262720000000000000e+05
1.215240000000000000e+05
1.169070000000000000e+05
1.125670000000000000e+05
1.097360000000000000e+05
1.060480000000000000e+05
1.017790000000000000e+05
9.810600000000000000e+04
9.388000000000000000e+04
8.968000000000000000e+04
8.480000000000000000e+04
7.993300000000000000e+04
7.609000000000000000e+04
7.239100000000000000e+04
6.834100000000000000e+04
6.609900000000000000e+04
6.520600000000000000e+04
6.209600000000000000e+04
5.612500000000000000e+04
5.090900000000000000e+04
4.477300000000000000e+04
3.798900000000000000e+04
3.465800000000000000e+04
3.581300000000000000e+04
3.642300000000000000e+04
3.428200000000000000e+04
3.114200000000000000e+04
2.144500000000000000e+04
1.094000000000000000e+04
2.285000000000000000e+03
-4.030000000000000000e+03
-6.314000000000000000e+03
-8.499000000000000000e+03
-8.009000000000000000e+03
-6.650000000000000000e+03
-8.546000000000000000e+03
-1.821900000000000000e+04
-2.767300000000000000e+04
-3.040200000000000000e+04
-3.850300000000000000e+04
-3.771400000000000000e+04
-4.603200000000000000e+04
-6.307800000000000000e+04
-7.402200000000000000e+04
-8.448600000000000000e+04
-9.044100000000000000e+04
-9.299400000000000000e+04
-1.016450000000000000e+05
-1.094410000000000000e+05
-1.175810000000000000e+05
-1.276130000000000000e+05
-1.320690000000000000e+05
-1.345870000000000000e+05
-1.355550000000000000e+05
-1.353490000000000000e+05
-1.399660000000000000e+05
-1.488790000000000000e+05
-1.564600000000000000e+05
-1.621460000000000000e+05
-1.638870000000000000e+05
-1.621510000000000000e+05
-1.625220000000000000e+05
-1.661390000000000000e+05
-1.710140000000000000e+05
-1.764090000000000000e+05
-1.807290000000000000e+05
-1.861420000000000000e+05
-1.921720000000000000e+05
-1.959890000000000000e+05
-1.969210000000000000e+05
-1.974220000000000000e+05
-1.982940000000000000e+05
-1.976070000000000000e+05
-1.909610000000000000e+05
-1.862690000000000000e+05
-1.852770000000000000e+05
-1.853310000000000000e+05
-1.887060000000000000e+05
-1.905330000000000000e+05
-1.906280000000000000e+05
-1.908610000000000000e+05
-1.907540000000000000e+05
-1.905140000000000000e+05
-1.924610000000000000e+05
-1.946350000000000000e+05
-1.957450000000000000e+05
-1.960160000000000000e+05
-1.962400000000000000e+05
-1.975290000000000000e+05
-1.994480000000000000e+05
-2.026470000000000000e+05
-2.047560000000000000e+05
-2.027770000000000000e+05
-1.985530000000000000e+05
-1.943820000000000000e+05
-1.906670000000000000e+05
-1.895790000000000000e+05
-1.895520000000000000e+05
-1.878370000000000000e+05
-1.857030000000000000e+05
-1.839220000000000000e+05
-1.821060000000000000e+05
-1.791840000000000000e+05
-1.761610000000000000e+05
-1.722490000000000000e+05
-1.709320000000000000e+05
-1.648640000000000000e+05
-1.584430000000000000e+05
-1.551460000000000000e+05
-1.541130000000000000e+05
-1.549310000000000000e+05
-1.543140000000000000e+05
-1.530280000000000000e+05
-1.521660000000000000e+05
-1.559410000000000000e+05
-1.642730000000000000e+05
-1.701990000000000000e+05
-1.741870000000000000e+05
-1.762370000000000000e+05
-1.749040000000000000e+05
-1.723860000000000000e+05
-1.695520000000000000e+05
-1.665240000000000000e+05
-1.660470000000000000e+05
-1.671280000000000000e+05
-1.659720000000000000e+05
-1.637910000000000000e+05
-1.632120000000000000e+05
-1.637570000000000000e+05
-1.647020000000000000e+05
-1.654450000000000000e+05
-1.658470000000000000e+05
-1.661390000000000000e+05
-1.656650000000000000e+05
-1.664060000000000000e+05
-1.668870000000000000e+05
-1.655810000000000000e+05
-1.647070000000000000e+05
-1.644670000000000000e+05
-1.649440000000000000e+05
-1.665570000000000000e+05
-1.667150000000000000e+05
-1.667920000000000000e+05
-1.662940000000000000e+05
-1.650940000000000000e+05
-1.661310000000000000e+05
-1.686230000000000000e+05
-1.697570000000000000e+05
-1.694070000000000000e+05
-1.677790000000000000e+05
-1.664840000000000000e+05
-1.669670000000000000e+05
-1.671820000000000000e+05
-1.689870000000000000e+05
-1.710140000000000000e+05
-1.712140000000000000e+05
-1.705750000000000000e+05
-1.716650000000000000e+05
-1.728520000000000000e+05
-1.713040000000000000e+05
-1.696530000000000000e+05
-1.685670000000000000e+05
-1.664340000000000000e+05
-1.638810000000000000e+05
-1.631940000000000000e+05
-1.643580000000000000e+05
-1.652050000000000000e+05
-1.670290000000000000e+05
-1.678440000000000000e+05
-1.650640000000000000e+05
-1.641800000000000000e+05
-1.644370000000000000e+05
-1.635580000000000000e+05
-1.643120000000000000e+05
-1.681540000000000000e+05
-1.686550000000000000e+05
-1.666440000000000000e+05
-1.658050000000000000e+05
-1.637990000000000000e+05
-1.584550000000000000e+05
-1.528240000000000000e+05
-1.498670000000000000e+05
-1.491320000000000000e+05
-1.495250000000000000e+05
-1.506300000000000000e+05
-1.514210000000000000e+05
-1.512790000000000000e+05
-1.503910000000000000e+05
-1.489330000000000000e+05
-1.462680000000000000e+05
-1.460060000000000000e+05
-1.472160000000000000e+05
-1.475180000000000000e+05
-1.463040000000000000e+05
-1.443640000000000000e+05
-1.410970000000000000e+05
-1.391650000000000000e+05
-1.395010000000000000e+05
-1.404280000000000000e+05
-1.391830000000000000e+05
-1.376550000000000000e+05
-1.372660000000000000e+05
-1.368920000000000000e+05
-1.367880000000000000e+05
-1.383110000000000000e+05
-1.399620000000000000e+05
-1.362120000000000000e+05
-1.312060000000000000e+05
-1.297010000000000000e+05
-1.287690000000000000e+05
-1.295340000000000000e+05
-1.314470000000000000e+05
-1.327640000000000000e+05
-1.331090000000000000e+05
-1.348660000000000000e+05
-1.370570000000000000e+05
-1.356470000000000000e+05
-1.314700000000000000e+05
-1.260540000000000000e+05
-1.222670000000000000e+05
-1.208860000000000000e+05
-1.191320000000000000e+05
-1.189340000000000000e+05
-1.197060000000000000e+05
-1.190620000000000000e+05
-1.180750000000000000e+05
-1.169930000000000000e+05
-1.170960000000000000e+05
-1.177340000000000000e+05
-1.208120000000000000e+05
-1.230000000000000000e+05
-1.229040000000000000e+05
-1.219150000000000000e+05
-1.194080000000000000e+05
-1.155370000000000000e+05
-1.103000000000000000e+05
-1.095140000000000000e+05
-1.106540000000000000e+05
-1.113470000000000000e+05
-1.121760000000000000e+05
-1.135740000000000000e+05
-1.128720000000000000e+05
-1.132690000000000000e+05
-1.137620000000000000e+05
-1.116320000000000000e+05
-1.067440000000000000e+05
-1.050190000000000000e+05
-1.076620000000000000e+05
-1.099720000000000000e+05
-1.082950000000000000e+05
-1.041780000000000000e+05
-1.026460000000000000e+05
-1.043310000000000000e+05
-1.014310000000000000e+05
-1.003830000000000000e+05
-9.954700000000000000e+04
-9.928400000000000000e+04
-9.964900000000000000e+04
-9.897900000000000000e+04
-9.860400000000000000e+04
-9.843200000000000000e+04
-9.868800000000000000e+04
-9.936200000000000000e+04
-1.015610000000000000e+05
-9.840500000000000000e+04
-9.756900000000000000e+04
-9.808200000000000000e+04
-9.853100000000000000e+04
-9.801100000000000000e+04
-9.643400000000000000e+04
-9.611100000000000000e+04
-9.676700000000000000e+04
-9.714700000000000000e+04
-9.650400000000000000e+04
-9.512200000000000000e+04
-9.395300000000000000e+04
-9.344300000000000000e+04
-9.463200000000000000e+04
-9.721900000000000000e+04
-9.529700000000000000e+04
-9.352700000000000000e+04
-9.186100000000000000e+04
-9.137400000000000000e+04
-9.132700000000000000e+04
-9.097600000000000000e+04
-9.082500000000000000e+04
-9.126100000000000000e+04
-9.177000000000000000e+04
-9.166400000000000000e+04
-9.153600000000000000e+04
-9.203700000000000000e+04
-9.302100000000000000e+04
-9.334400000000000000e+04
-9.281700000000000000e+04
-9.340600000000000000e+04
-9.320900000000000000e+04
-9.324900000000000000e+04
-9.451300000000000000e+04
-9.491200000000000000e+04
-9.404700000000000000e+04
-9.312800000000000000e+04
-9.322700000000000000e+04
-9.554600000000000000e+04
-9.673300000000000000e+04
-9.638600000000000000e+04
-9.639700000000000000e+04
-9.522200000000000000e+04
-9.361200000000000000e+04
-9.265600000000000000e+04
-9.256700000000000000e+04
-9.301300000000000000e+04
-9.412400000000000000e+04
-9.415700000000000000e+04
-9.404100000000000000e+04
-9.529000000000000000e+04
-9.616700000000000000e+04
-9.757600000000000000e+04
-9.867500000000000000e+04
-9.898400000000000000e+04
-9.903700000000000000e+04
-9.948100000000000000e+04
-1.009160000000000000e+05
-1.027970000000000000e+05
-1.028180000000000000e+05
-1.030840000000000000e+05
-1.041670000000000000e+05
-1.055190000000000000e+05
-1.062730000000000000e+05
-1.070760000000000000e+05
-1.075010000000000000e+05
-1.081010000000000000e+05
-1.089570000000000000e+05
-1.108880000000000000e+05
-1.131810000000000000e+05
-1.155290000000000000e+05
-1.164920000000000000e+05
-1.178700000000000000e+05
-1.205070000000000000e+05
-1.221880000000000000e+05
-1.233010000000000000e+05
-1.243490000000000000e+05
-1.276020000000000000e+05
-1.309990000000000000e+05
-1.310770000000000000e+05
-1.331920000000000000e+05
-1.362440000000000000e+05
-1.381570000000000000e+05
-1.419880000000000000e+05
-1.476360000000000000e+05
-1.539280000000000000e+05
-1.551470000000000000e+05
-1.603410000000000000e+05
-1.636300000000000000e+05
-1.668220000000000000e+05
-1.705450000000000000e+05
-1.754790000000000000e+05
-1.795730000000000000e+05
-1.842000000000000000e+05
-1.887480000000000000e+05
-1.875310000000000000e+05
-1.923290000000000000e+05
-2.008570000000000000e+05
-2.084620000000000000e+05
-2.180180000000000000e+05
-2.251870000000000000e+05
-2.301120000000000000e+05
-2.342380000000000000e+05
-2.424990000000000000e+05
-2.526290000000000000e+05
-2.585960000000000000e+05
-2.620660000000000000e+05
-2.669540000000000000e+05
-2.692320000000000000e+05
-2.672050000000000000e+05
-2.637860000000000000e+05
-2.560560000000000000e+05
-2.479370000000000000e+05
-2.424140000000000000e+05
-2.381090000000000000e+05
-2.368570000000000000e+05
-2.366340000000000000e+05
-2.383720000000000000e+05
-2.418020000000000000e+05
-2.445470000000000000e+05
-2.455830000000000000e+05
-2.471000000000000000e+05
-2.432430000000000000e+05
-2.370280000000000000e+05
-2.326060000000000000e+05
-2.299050000000000000e+05
-2.310730000000000000e+05
-2.325060000000000000e+05
-2.321990000000000000e+05
-2.333430000000000000e+05
-2.357750000000000000e+05
-2.369610000000000000e+05
-2.376940000000000000e+05
-2.405690000000000000e+05
-2.397650000000000000e+05
-2.369420000000000000e+05
-2.334810000000000000e+05
-2.306020000000000000e+05
-2.303990000000000000e+05
-2.308570000000000000e+05
-2.313940000000000000e+05
-2.323910000000000000e+05
-2.304920000000000000e+05
-2.288370000000000000e+05
-2.310760000000000000e+05
-2.268090000000000000e+05
-2.194210000000000000e+05
-2.117360000000000000e+05
-2.089610000000000000e+05
-2.107840000000000000e+05
-2.111180000000000000e+05
-2.089580000000000000e+05
-2.079250000000000000e+05
-2.025030000000000000e+05
-1.985480000000000000e+05
-1.984200000000000000e+05
-1.965390000000000000e+05
-1.946670000000000000e+05
-1.919640000000000000e+05
-1.921780000000000000e+05
-1.913520000000000000e+05
-1.870560000000000000e+05
-1.823270000000000000e+05
-1.785170000000000000e+05
-1.755630000000000000e+05
-1.757910000000000000e+05
-1.724840000000000000e+05
-1.615860000000000000e+05
-1.486570000000000000e+05
-1.307820000000000000e+05
-1.134820000000000000e+05
-9.910400000000000000e+04
-9.103700000000000000e+04
-8.555800000000000000e+04
-6.233600000000000000e+04
-3.200900000000000000e+04
-1.806600000000000000e+04
-2.118900000000000000e+04
-2.502900000000000000e+04
-3.444600000000000000e+04
-5.156400000000000000e+04
-7.035600000000000000e+04
-9.010800000000000000e+04
-9.940400000000000000e+04
-9.782500000000000000e+04
-9.019200000000000000e+04
-7.884700000000000000e+04
-6.899200000000000000e+04
-6.158400000000000000e+04
-5.264400000000000000e+04
-3.872600000000000000e+04
-2.102200000000000000e+04
-1.965000000000000000e+03
2.252100000000000000e+04
4.756100000000000000e+04
7.315000000000000000e+04
1.017380000000000000e+05
1.312120000000000000e+05
1.610350000000000000e+05
1.895960000000000000e+05
2.174000000000000000e+05
2.437240000000000000e+05
2.606510000000000000e+05
2.701820000000000000e+05
2.760740000000000000e+05
2.743690000000000000e+05
2.691750000000000000e+05
2.640360000000000000e+05
2.604310000000000000e+05
2.576690000000000000e+05
2.544340000000000000e+05
2.505380000000000000e+05
2.454190000000000000e+05
2.404430000000000000e+05
2.351990000000000000e+05
2.297080000000000000e+05
2.240260000000000000e+05
2.240270000000000000e+05
2.275640000000000000e+05
2.308490000000000000e+05
2.370660000000000000e+05
2.454060000000000000e+05
2.535440000000000000e+05
2.587650000000000000e+05
2.658970000000000000e+05
2.724840000000000000e+05
2.796710000000000000e+05
2.897700000000000000e+05
3.026480000000000000e+05
3.114900000000000000e+05
3.188600000000000000e+05
3.263840000000000000e+05
3.320470000000000000e+05
3.332830000000000000e+05
3.300180000000000000e+05
3.266200000000000000e+05
3.234650000000000000e+05
3.193990000000000000e+05
3.142200000000000000e+05
3.091040000000000000e+05
3.036800000000000000e+05
2.979580000000000000e+05
2.936610000000000000e+05
2.878440000000000000e+05
2.814160000000000000e+05
2.765660000000000000e+05
2.693240000000000000e+05
2.601360000000000000e+05
2.496340000000000000e+05
2.369230000000000000e+05
2.253860000000000000e+05
2.152530000000000000e+05
2.036340000000000000e+05
1.926460000000000000e+05
1.827570000000000000e+05
1.744810000000000000e+05
1.683540000000000000e+05
1.611360000000000000e+05
1.520080000000000000e+05
1.433660000000000000e+05
1.348960000000000000e+05
1.254400000000000000e+05
1.165360000000000000e+05
1.076110000000000000e+05
9.890200000000000000e+04
9.008800000000000000e+04
8.064600000000000000e+04
7.280400000000000000e+04
6.543500000000000000e+04
5.891200000000000000e+04
5.235100000000000000e+04
4.397500000000000000e+04
3.572200000000000000e+04
2.761900000000000000e+04
2.118300000000000000e+04
1.634900000000000000e+04
1.256600000000000000e+04
8.057000000000000000e+03
2.769000000000000000e+03
-3.205000000000000000e+03
-1.045900000000000000e+04
-1.728000000000000000e+04
-2.238600000000000000e+04
-2.713400000000000000e+04
-3.209100000000000000e+04
-3.764400000000000000e+04
-4.494500000000000000e+04
-5.124400000000000000e+04
-5.719200000000000000e+04
-6.407900000000000000e+04
-7.033700000000000000e+04
-7.519200000000000000e+04
-8.090100000000000000e+04
-8.506400000000000000e+04
-8.511900000000000000e+04
-9.042100000000000000e+04
-9.824700000000000000e+04
-1.025110000000000000e+05
-1.056440000000000000e+05
-1.083850000000000000e+05
-1.117470000000000000e+05
-1.128210000000000000e+05
-1.099610000000000000e+05
-1.100060000000000000e+05
-1.137170000000000000e+05
-1.184210000000000000e+05
-1.224870000000000000e+05
-1.271920000000000000e+05
-1.291390000000000000e+05
-1.278110000000000000e+05
-1.285200000000000000e+05
-1.317170000000000000e+05
-1.332820000000000000e+05
-1.340090000000000000e+05
-1.359710000000000000e+05
-1.385590000000000000e+05
-1.400720000000000000e+05
-1.403660000000000000e+05
-1.398770000000000000e+05
-1.396850000000000000e+05
-1.402990000000000000e+05
-1.397100000000000000e+05
-1.395470000000000000e+05
-1.396720000000000000e+05
-1.396390000000000000e+05
-1.398660000000000000e+05
-1.408320000000000000e+05
-1.415960000000000000e+05
-1.385470000000000000e+05
-1.352200000000000000e+05
-1.317140000000000000e+05
-1.291090000000000000e+05
-1.274600000000000000e+05
-1.250130000000000000e+05
-1.231620000000000000e+05
-1.221120000000000000e+05
-1.211110000000000000e+05
-1.194530000000000000e+05
-1.169300000000000000e+05
-1.136040000000000000e+05
-1.109730000000000000e+05
-1.084080000000000000e+05
-1.054880000000000000e+05
-1.034290000000000000e+05
-1.017480000000000000e+05
-9.666100000000000000e+04
-9.166200000000000000e+04
-8.725000000000000000e+04
-8.424400000000000000e+04
-8.293400000000000000e+04
-7.764100000000000000e+04
-7.416200000000000000e+04
-7.066400000000000000e+04
-6.771900000000000000e+04
-6.352100000000000000e+04
-5.750700000000000000e+04
-5.398900000000000000e+04
-5.320900000000000000e+04
-5.166600000000000000e+04
-4.897200000000000000e+04
-4.511900000000000000e+04
-3.948600000000000000e+04
-3.557700000000000000e+04
-3.229500000000000000e+04
-2.884800000000000000e+04
-2.425400000000000000e+04
-1.861600000000000000e+04
-1.388900000000000000e+04
-1.088300000000000000e+04
-8.166000000000000000e+03
-5.039000000000000000e+03
-1.917000000000000000e+03
6.860000000000000000e+02
3.128000000000000000e+03
8.534000000000000000e+03
1.438800000000000000e+04
1.789900000000000000e+04
2.087800000000000000e+04
2.305800000000000000e+04
2.466900000000000000e+04
2.659200000000000000e+04
2.946600000000000000e+04
3.169900000000000000e+04
3.330100000000000000e+04
3.527800000000000000e+04
3.744300000000000000e+04
3.742900000000000000e+04
3.696200000000000000e+04
3.760300000000000000e+04
3.913900000000000000e+04
3.993000000000000000e+04
4.103800000000000000e+04
4.163600000000000000e+04
4.030400000000000000e+04
3.914600000000000000e+04
3.818600000000000000e+04
3.777800000000000000e+04
3.835600000000000000e+04
3.861900000000000000e+04
3.859500000000000000e+04
3.836400000000000000e+04
3.809900000000000000e+04
3.463800000000000000e+04
3.165900000000000000e+04
3.085800000000000000e+04
2.930300000000000000e+04
2.841600000000000000e+04
2.824900000000000000e+04
2.661100000000000000e+04
2.470100000000000000e+04
2.230400000000000000e+04
1.926100000000000000e+04
1.599500000000000000e+04
1.403300000000000000e+04
1.277800000000000000e+04
1.066000000000000000e+04
8.490000000000000000e+03
7.575000000000000000e+03
6.160000000000000000e+03
3.560000000000000000e+03
5.390000000000000000e+02
-1.631000000000000000e+03
-2.526000000000000000e+03
-3.521000000000000000e+03
-3.454000000000000000e+03
-3.270000000000000000e+03
-4.147000000000000000e+03
-3.541000000000000000e+03
-2.007000000000000000e+03
-2.530000000000000000e+03
-2.339000000000000000e+03
-5.180000000000000000e+02
2.293000000000000000e+03
3.199000000000000000e+03
2.411000000000000000e+03
3.311000000000000000e+03
3.873000000000000000e+03
4.038000000000000000e+03
4.317000000000000000e+03
4.903000000000000000e+03
4.170000000000000000e+03
2.194000000000000000e+03
1.634000000000000000e+03
1.327000000000000000e+03
1.041000000000000000e+03
5.560000000000000000e+02
-1.121000000000000000e+03
-2.418000000000000000e+03
-8.190000000000000000e+02
6.590000000000000000e+02
1.173000000000000000e+03
3.373000000000000000e+03
5.442000000000000000e+03
6.224000000000000000e+03
4.832000000000000000e+03
3.267000000000000000e+03
2.917000000000000000e+03
2.794000000000000000e+03
3.096000000000000000e+03
3.618000000000000000e+03
3.790000000000000000e+03
3.593000000000000000e+03
2.431000000000000000e+03
1.639000000000000000e+03
2.371000000000000000e+03
4.236000000000000000e+03
5.747000000000000000e+03
7.024000000000000000e+03
7.513000000000000000e+03
6.421000000000000000e+03
2.874000000000000000e+03
-1.560000000000000000e+03
-6.128000000000000000e+03
-6.952000000000000000e+03
-6.879000000000000000e+03
-5.252000000000000000e+03
-2.782000000000000000e+03
-2.942000000000000000e+03
-3.463000000000000000e+03
-4.509000000000000000e+03
-4.116000000000000000e+03
-2.574000000000000000e+03
-1.534000000000000000e+03
-3.232000000000000000e+03
-5.222000000000000000e+03
-7.119000000000000000e+03
-5.835000000000000000e+03
-1.649000000000000000e+03
8.100000000000000000e+02
2.221000000000000000e+03
1.086000000000000000e+03
-3.834000000000000000e+03
-7.865000000000000000e+03
-8.241000000000000000e+03
-7.586000000000000000e+03
-6.967000000000000000e+03
-7.566000000000000000e+03
-7.903000000000000000e+03
-7.404000000000000000e+03
-7.896000000000000000e+03
-8.474000000000000000e+03
-8.306000000000000000e+03
-9.610000000000000000e+03
-8.102000000000000000e+03
-5.321000000000000000e+03
-1.004000000000000000e+03
1.046000000000000000e+03
2.296000000000000000e+03
3.829000000000000000e+03
4.058000000000000000e+03
4.434000000000000000e+03
2.306000000000000000e+03
2.218000000000000000e+03
4.409000000000000000e+03
6.031000000000000000e+03
8.145000000000000000e+03
5.896000000000000000e+03
7.469000000000000000e+03
7.621000000000000000e+03
6.855000000000000000e+03
7.306000000000000000e+03
7.532000000000000000e+03
7.923000000000000000e+03
8.933000000000000000e+03
9.288000000000000000e+03
7.518000000000000000e+03
7.797000000000000000e+03
9.887000000000000000e+03
1.228400000000000000e+04
1.539200000000000000e+04
1.671700000000000000e+04
1.766800000000000000e+04
1.912000000000000000e+04
1.980000000000000000e+04
1.976900000000000000e+04
1.871600000000000000e+04
1.656600000000000000e+04
1.630100000000000000e+04
1.721100000000000000e+04
1.587900000000000000e+04
1.367400000000000000e+04
1.340300000000000000e+04
1.534700000000000000e+04
