4.300335504223673411e+02
6.215801038221433572e+01
-2.207854073380024147e+02
-5.003274948415119070e+02
-7.184825205036080433e+02
-7.776500922633982782e+02
-7.448304643881393758e+02
-5.299352452119338750e+02
-5.318667721304783527e+02
5.458439088606559153e+01
9.986676856851062212e+02
2.128600995427939779e+03
3.167191601719636310e+03
4.113244133484073245e+03
3.684722885208341722e+03
2.695845462991003842e+03
1.998714341104207278e+03
1.652071550017021309e+03
1.468579724810346534e+03
9.528725118164305741e+02
7.019895064863901553e+02
3.784422632352411142e+02
3.960469992950447136e+02
4.355680617750304577e+02
4.549776031294269956e+02
2.682510295231897430e+02
2.942605121266346373e+02
5.109886232841288916e+02
7.055327168379167233e+02
1.150998429394868708e+03
2.112206590224826869e+03
2.445054813450240999e+03
2.382484506382200379e+03
2.407498816288034504e+03
2.845186423433943219e+03
3.284470381495374568e+03
2.666078201164711572e+03
2.355791882567185894e+03
2.319458922172560960e+03
1.537128816902082690e+03
4.697421075327045514e+02
-2.469426641809967578e+02
-8.899913195612393793e+02
-1.098712607976464597e+03
-1.270538162613997656e+03
-1.093451197550511552e+03
-1.643233780371316186e+02
5.311527142871777869e+02
8.945455392376818509e+02
1.349785577645821377e+03
2.018710216121454778e+03
2.853015193840117718e+03
3.598616384423051841e+03
3.571725109403789702e+03
3.577002095643797475e+03
3.367622497590741659e+03
2.912507397506293728e+03
2.464385411565158847e+03
2.013752901937721845e+03
1.151448941411171518e+03
3.198434136497429563e+02
1.223031336982974295e+02
-3.168444806920045380e+02
-7.419500164596811373e+02
-1.099322820553688871e+03
-1.259594312222440976e+03
-1.454877778959291163e+03
-1.226994586482280056e+03
-5.921334969938756103e+02
8.315680854755752307e+02
1.858086934508613012e+03
2.763231428625445915e+03
2.940200765156171201e+03
2.281666121983667381e+03
1.533737519308067476e+03
1.138345716849611563e+03
1.224314856845773193e+03
6.698003946230998054e+02
-2.967089650912998877e+01
-1.323507656336588809e+02
-1.040852686994072762e+01
5.598754125398367023e+02
1.684842077328705159e+02
-8.983710450461771870e+02
-2.241017172820306769e+03
-2.283459265705228518e+03
-1.350061274312967271e+03
-9.982011835828216135e+02
-5.887333689818264020e+02
1.065205005296274692e+02
3.594471972778478630e+02
-2.200561377400714491e+02
2.880036522723565326e+02
1.492768567708603086e+03
2.030268674519073329e+03
1.514469242349140359e+03
7.014292789881558292e+02
-5.939876832162672144e+02
-3.768008122707499751e+03
-4.849605025502562057e+03
-5.067883142984589540e+03
-2.473998539495755267e+03
-6.329641849460704179e+02
-9.446118673923552933e+02
-1.161891649234820079e+03
-1.521771769238419211e+03
-2.056299019707892967e+03
-3.747564328993816162e+03
-6.577497516692989848e+03
-5.481005334731606126e+03
-6.053126303902686232e+03
-6.081927798381867433e+03
-5.286282758671027295e+03
-5.126120205445293323e+03
-6.038609005268646797e+03
-6.182419029323851646e+03
-6.045379550158684651e+03
-5.374542993051207304e+03
-3.901928396311751840e+03
-2.545482636549070321e+03
-4.542130146460663127e+03
-5.385850739202900513e+03
-6.122575215748733171e+03
-6.398205637923329050e+03
-5.881645506898921667e+03
-5.085741046146229564e+03
-5.064464611554639305e+03
-5.292805294181517638e+03
-5.467684664895626156e+03
-5.339800679831788329e+03
-4.791955116763881961e+03
-4.272093214739369614e+03
-2.364193510880550093e+03
9.983913625479466702e+01
1.994283564110976158e+03
3.033287297671050965e+03
2.985929080977207832e+03
3.927328411657740162e+03
3.408594529021780090e+03
4.599629231447167967e+02
7.375259301942162438e+02
9.653720833659833716e+02
6.656784039512887148e+02
3.265672477077433768e+02
4.315179989117397952e+01
1.775094098462210468e+02
7.077410364412784247e+02
1.746934721698124122e+03
2.182364171365028596e+03
2.519128212343967789e+03
3.850334819636805605e+03
5.156243911179410134e+03
5.632070437489838696e+03
5.508956370356445404e+03
4.681047715446927214e+03
4.910461481814497347e+03
5.659342136302887411e+03
5.472862270596408962e+03
4.829231583990772378e+03
4.407595267862348010e+03
3.682016113931757900e+03
3.024632982993264704e+03
2.690666385967741462e+03
2.321313277817865583e+03
2.318839767394766568e+03
1.767258039842643257e+03
7.425778884014116557e+02
1.869640707492644083e+02
-2.235281786806376658e+02
-4.570436899657103424e+01
1.626664513743432735e+03
2.848773760357104493e+03
2.612664783643216651e+03
1.667397364044564483e+03
3.019144207327996355e+03
4.037153240358849871e+03
4.267595570158419832e+03
4.675579062726753364e+03
4.232957649497898274e+03
3.702654416020437111e+03
3.271962182498897619e+03
2.495120745617731245e+03
2.344350971107820442e+03
1.289547238425030855e+03
1.456183436883697198e+02
6.084494248653165869e+02
1.987388540675743570e+03
2.746530217987986816e+03
3.585767738119248406e+03
4.143202409663231265e+03
4.124005099338602122e+03
3.939148591775093337e+03
3.915795643910417766e+03
4.130078345441540478e+03
4.001967143917426711e+03
3.911505396449663294e+03
3.630695494796475032e+03
2.247511662793862797e+03
1.034046496979727181e+03
4.813451481080962253e+02
-2.086806364075926581e+02
-2.130775114126639096e+02
9.919675917291039013e+01
-3.497484646991800901e+02
-1.045892024470632805e+03
-9.651232497208201266e+02
-4.705327492562561247e+02
-3.221352760249336029e+02
3.820888788073881983e+02
1.659064234344573606e+03
2.174715002749750056e+03
1.555950556516673259e+03
8.697830533003500477e+02
8.862486946840213022e+02
4.003630707142082770e+02
-1.207840060537274212e+03
-5.313283494204143835e+02
1.836796993045991712e+03
2.872448038592125613e+03
2.408573425169603524e+03
1.452101375107814420e+03
2.799910698593083680e+02
-1.035791039155211820e+03
-2.270426454972864576e+03
-2.920985356236802545e+03
-3.656446455650973348e+03
-3.599806317220965866e+03
-3.226184265806330586e+03
-4.591628023163400030e+03
-6.338206308636307767e+03
-6.075033384147952347e+03
-5.726182465724311442e+03
-5.675696272997494816e+03
-6.848600121327902343e+03
-5.757951863882022735e+03
-2.307767033147371421e+03
-1.498117202149517425e+03
-1.162211015469081076e+03
-7.370886518539175540e+02
-1.228852712326535311e+03
-2.008540510627891081e+03
-3.223205925911314807e+03
-3.094070656194333424e+03
-1.066243921659265425e+03
5.031637919723161190e+02
9.909419541127503805e+01
-2.045085702088401547e+02
-5.337158355782511308e+02
-8.696414703449852368e+02
-1.432303758760978099e+03
-5.208104559942706828e+02
1.111706349976801221e+03
2.005228687680437588e+03
2.035749190605388321e+03
1.612169944329274585e+03
1.798407638729893733e+03
1.676308915963920072e+03
1.213822848601784926e+03
-2.381521748991074503e+02
-1.340697870701719921e+03
-1.671929446362519229e+03
-2.068920300481913728e+03
-2.397703198399451594e+03
-1.590335047206130639e+03
-1.260933769768608499e+03
-2.017557787430672533e+03
-2.568357136917214120e+03
-1.302450880264868374e+03
-5.919229190158981737e+02
-3.958273986106549387e+02
1.368289458542744796e+02
2.331187678331334325e+02
-1.959665331350333020e+02
5.043745187676097999e+02
2.560077037800343987e+03
2.761204365893871000e+03
1.743749443013260588e+03
1.181602171103771070e+03
1.247715411467777585e+03
1.069976100571998359e+03
7.623200563444670479e+02
2.617247209952994353e+02
-5.848564867545115931e+02
-1.509499578632119210e+03
-1.971271282880726176e+03
-1.149207985018102590e+03
-1.672904233393298057e+02
-9.404220852510449049e+02
-2.045529810483273877e+03
-1.852721650362300579e+03
-5.488891725059942246e+02
8.050792210464729806e+02
1.761347317689291458e+03
1.884953193120827109e+03
8.497507985719404360e+02
1.074868582101610627e+03
2.181557550436276870e+03
2.457662631203036199e+03
2.568637793633318324e+03
1.740969518861350707e+03
5.865174910830945976e+01
-1.836787510480939773e+03
-4.061072301068060824e+03
-3.452918899297437292e+03
-3.288127853446189874e+03
-2.030390150389024711e+03
-1.159279899698982945e+03
2.553263232109986234e+02
-9.944738953227886213e+01
1.061572415836966002e+03
5.188502821742765718e+02
2.314431617420733801e+03
2.003757869740531987e+03
1.424828260694169558e+03
1.398998909941231659e+03
2.265071596160247282e+03
-9.577893541624409863e+02
-2.663096681508440270e+03
-2.431819472685799610e+03
-3.008804337633213891e+03
-2.319440427415606791e+03
-5.167924271233964646e+02
1.253613069729557310e+02
1.198666350171638896e+03
5.229474582857228597e+02
6.682868909727725395e+02
-1.270272034488414619e+02
4.612342430565950480e+01
1.297168374621123803e+03
-1.749601174307709016e+03
-8.439104289912010017e+02
1.307875822576354494e+03
2.044558086327174351e+03
6.038269936985751883e+03
6.866505231278748397e+03
4.750068096871879789e+03
2.339816611637590995e+03
2.800940923875523367e+03
1.208263420820855117e+03
2.383568382774732072e+03
1.984159226373690217e+03
3.928927951592672343e+03
5.044351469973595158e+03
3.385237013603474225e+03
1.604824369750505412e+03
1.506711373119770997e+03
2.069653296840811890e+03
1.733518523743017568e+03
3.073304183522786843e+02
1.899390511988812875e+02
7.764223842259171988e+02
1.313671021383988318e+03
3.731694210842383654e+03
5.973533444718040300e+03
6.069898487565966207e+03
5.730061054073861669e+03
4.528652809221642201e+03
1.543923656481118996e+03
-2.049230681189495954e+03
-2.922524310440431236e+03
-1.841890102550568372e+03
-4.712013773960530330e+02
9.513035889210356117e+02
1.527282962210812912e+03
1.841781900812763297e+03
1.625390196031383539e+03
1.643422283985385548e+03
9.355823148624718897e+02
4.064652501216413043e+02
6.625845225609001545e+02
-3.180535586711385463e+02
2.759660458291539271e+02
3.017376242411478870e+03
5.033975986087441015e+03
4.947832363242548126e+03
4.417965055398831282e+03
3.897813374153632594e+03
3.018669403635351046e+03
2.270988478421981199e+03
1.523438773398873536e+03
-3.350290902632135044e+02
-1.413526503703690423e+03
-8.143095353468934263e+02
-7.618666784853835452e+02
-1.991445500383507579e+03
-1.731259558114284800e+03
-9.157320294653317205e+02
-5.385755018696894467e+02
-8.527413429247988006e+02
-1.401811321207411538e+03
-7.937655883046046483e+02
-1.038806170347786946e+02
2.373915930578692723e+01
-6.281489416803420909e+02
-1.229832499261938437e+03
-2.779533689055757577e+02
2.321176745901168772e+02
-5.122744753530472508e+02
-9.596987718227367168e+02
-6.644496893933180672e+02
-7.834720875354204281e+02
-1.447722798170020496e+03
-2.765144185448552435e+03
-3.462517974856501041e+03
-2.360167648414807445e+03
-2.779467992592916289e+03
-3.956808885161784019e+03
-3.568974905487961223e+03
-3.116969223404522836e+03
-3.186151538265773979e+03
-3.475899722363626097e+03
-3.576266926952180711e+03
-3.221075099937409959e+03
-3.167755089422021683e+03
-2.581713902309330933e+03
-1.814548816914457802e+03
-1.952795983389871253e+03
-2.108806261714373704e+03
-2.208269095495611509e+03
-2.998579108049211300e+03
-3.528531955698194452e+03
-3.567134391655823947e+03
-4.196996081160567883e+03
-5.069791200878737072e+03
-6.772280857620411552e+03
-8.249359433412355429e+03
-8.050269896461775716e+03
-7.520547939816226062e+03
-8.536947318493437706e+03
-9.434958499334514272e+03
-9.091263096574713927e+03
-8.700902748239825087e+03
-8.313804882293834453e+03
-7.352569018251870148e+03
-6.848588129254226260e+03
-6.844897423843327488e+03
-6.808143804771697432e+03
-6.704338555037744300e+03
-7.032753777417860874e+03
-5.093038476672598335e+03
-3.691526223075400594e+03
-6.271104991387452174e+03
-5.206436968509721737e+03
-3.810057032627253193e+03
-4.569513275539571623e+03
-5.164745048186919121e+03
-4.610387850998066824e+03
-4.735064937992085106e+03
-4.251254297231175769e+03
-2.440146866802903332e+03
-1.551106279730261576e+03
-7.706729759151235157e+02
2.388361982068380200e+02
2.894721106820195473e+02
6.147345891612045534e+02
1.860626379375826900e+03
1.821945672851650443e+03
4.304297871726207632e+02
-7.359559811049366544e+02
-1.308872704811088852e+03
-1.660164158129929547e+03
-1.061280098456654514e+03
-1.147443723396260339e+03
-4.442772479100596001e+02
5.924565052873773539e+02
1.101710028654353209e+03
1.431204851699256324e+03
1.651373218534513853e+03
1.473018704270099306e+03
1.398146101283060261e+03
1.430497677219364732e+03
2.211884516581857042e+03
3.504298539797223384e+03
4.089494054024073193e+03
4.133336041078086055e+03
4.271517863562575258e+03
4.339717612009301774e+03
4.433215115235013400e+03
4.614701298889112877e+03
3.905617573294560771e+03
2.701137170769523891e+03
2.600190661575907143e+03
3.713517192594685184e+03
3.900902075020620487e+03
4.024136586907562560e+03
4.828193778585784457e+03
5.386039481468343183e+03
5.667427972036904066e+03
6.066409749848397041e+03
6.099268367950397987e+03
6.167493083927462976e+03
6.881633306751832606e+03
7.759493166726674644e+03
7.624612789773290388e+03
7.897115215584962243e+03
7.899243747869138133e+03
8.538255665694296113e+03
9.378568817133345874e+03
9.266770245426192560e+03
8.751687347653591132e+03
8.202893789215992001e+03
7.966335361994938467e+03
7.683990199799663969e+03
7.745624114507656486e+03
7.629819483353020587e+03
8.154239916714516767e+03
8.269710250587642804e+03
7.804995726012278283e+03
7.826905283942178357e+03
8.827019315368333992e+03
9.914083634689559403e+03
1.114959218795088782e+04
1.134227302328633959e+04
1.166905613218178041e+04
1.179961639156395722e+04
1.191175847432607225e+04
1.141129976272222120e+04
1.079195418216098915e+04
1.074849203348677838e+04
1.104386963815741365e+04
1.100669254162975449e+04
1.093375318582734508e+04
1.042011085232667392e+04
9.640567013999807386e+03
8.886010724869398473e+03
8.263990020259156154e+03
8.454093971017533477e+03
9.152816550162719068e+03
9.939828120078916982e+03
8.956908456313187344e+03
7.788988386101836113e+03
8.116962279252681583e+03
8.738821109191700089e+03
8.880467592146931565e+03
8.950702915215768371e+03
8.448346626096385080e+03
7.585528760462769242e+03
6.792319935489475029e+03
5.456270350605956992e+03
3.427132405358657252e+03
6.281381058690171812e+02
-2.990748343814816053e+03
-6.555748514000999421e+03
-8.533190245629788478e+03
-1.016206819951117723e+04
-1.394522213614662360e+04
-1.686264985650367453e+04
-1.818934726396797851e+04
-1.710114114358053121e+04
-1.611320532714466754e+04
-1.652457035082033326e+04
-1.464682439810985306e+04
-9.200796748906297580e+03
-4.705356027148211069e+03
-6.471649850098760908e+03
-1.619974312198925327e+04
-2.837645353890732440e+04
-3.631057273936621641e+04
-4.209311729738906433e+04
-4.436390446797363256e+04
-4.437779610672094714e+04
-4.001431450313568348e+04
-2.770529389816949697e+04
-2.406073517947500659e+04
-3.167953985473453577e+04
-3.876714758337214153e+04
-4.181537634665228688e+04
-4.500865755441090005e+04
-4.283637896541664668e+04
-4.029233032116282266e+04
-4.650935257398875547e+04
-4.274123532875170349e+04
-2.103445922981882904e+04
-1.413330422724564244e+02
1.391218420066303952e+04
2.003715877971748705e+04
2.292586284578825871e+04
2.651361863018550866e+04
2.064687523711173708e+04
8.442706115392698848e+03
5.958560186234298271e+03
5.231502949411881673e+03
-4.373589244227316158e+03
-1.464034838199954356e+04
-2.099832435171996985e+04
-2.519081303234895677e+04
-2.718677403278875863e+04
-2.024610559458628632e+04
-1.340352511219055668e+04
-1.624070740766979907e+04
-1.285452837428089333e+04
3.754486591057323949e+03
9.813968403234182915e+03
6.783439332075054153e+03
1.606076727972091703e+03
6.151706861587114872e+03
1.637034962749296210e+04
2.829440156626791577e+04
3.835999311862109607e+04
5.094957265938278579e+04
5.675674859794935765e+04
4.486089729684471240e+04
2.722234322856640938e+04
1.756643777415449586e+04
5.035769926881829633e+03
-1.169005497049882797e+04
-1.600887483885776601e+04
-8.545540829954103174e+03
5.482848210625346610e+02
-1.868252640969434424e+03
-9.757819415189354913e+03
-3.653922726424637858e+03
1.588082075686111602e+04
3.161989691948481777e+04
4.005788144449581159e+04
4.097319694311549392e+04
2.671298073739862957e+04
1.048436306019158837e+04
6.535440235661161523e+02
-2.569292306442726840e+03
7.181135684106810004e+03
2.683411001183930057e+04
3.204896475606427339e+04
3.292794574930805538e+04
2.886437134835677352e+04
1.758343523722567625e+04
2.387320954492905912e+03
-1.279864185488274416e+04
-6.503339792614096041e+03
1.357322105515928342e+04
2.646615493366432929e+04
2.983978929288704239e+04
2.601931735620787003e+04
2.109991450505019748e+04
7.096746215799660604e+03
-1.678906513866566820e+04
-3.429537941682730889e+04
-2.917400421055656261e+04
-1.194294742748195858e+04
-1.324127563711844778e+04
-1.991794511013216106e+04
-1.805082357134489939e+04
-2.267601132761574627e+04
-2.506952021551885991e+04
-1.377734044179880038e+04
-6.936436776107933838e+03
2.357205530561133855e+03
9.162461341308922783e+03
1.471626993941543515e+04
3.085058539953923537e+04
3.290045829434209008e+04
2.320784559642976456e+04
1.520855903463125287e+04
1.174352045861242186e+04
1.210271812171919191e+04
5.998027796781741927e+03
-2.973772662305274480e+03
-1.025871722849149364e+03
1.015576032582103835e+03
-9.202508643306340673e+03
1.208581583469234147e+03
2.169047909080023237e+04
2.601711386392373970e+04
1.963534963406193856e+04
9.745878510841996103e+03
3.643442592696044358e+03
2.178842594736781393e+03
-3.612093025341481280e+03
-9.595652697885867383e+03
-1.047317673528301748e+04
-6.097891891487420253e+03
2.677906700529276350e+03
4.080876911325755827e+03
-1.998258438811515816e+03
-7.680756732888698025e+03
-8.155793771831945378e+03
-8.150640139940253903e+03
-1.012464350506251685e+04
-9.874398172045883257e+03
-7.722018371326188571e+03
-3.243693608880613283e+03
2.079305708886885441e+03
4.027543493602049693e+03
-1.369493036137969966e+03
-6.859117212621758881e+03
-1.003642200552693066e+04
-1.248580121501300164e+04
-1.559073567598705813e+04
-2.057843251424756818e+04
-2.384916748606003603e+04
-2.076629830077612132e+04
-2.012711539534105032e+04
-1.610382738697232344e+04
-1.274887643329091952e+04
-1.458789417185044658e+04
-2.757446335697339600e+04
-3.742311300585037679e+04
-2.091979473710808088e+04
6.069441865224692265e+03
1.884778221107783247e+04
1.133480136581446459e+04
1.952314797976154750e+03
-5.809017357531514790e+03
-1.172360258487054853e+04
-1.266573705796179820e+04
-2.387743685374545748e+03
5.464943530046461092e+03
7.008123150086384157e+03
4.140463508000759248e+03
7.656448445510480951e+02
2.222495381987034762e+03
4.061752545755619394e+03
4.190055759234739526e+03
4.563208237205624869e+02
-3.817617042678020425e+03
-3.447039940057673448e+03
-9.221988566623961106e+02
-4.002321573252328562e+03
-9.679702390256135914e+03
-9.995524104691881803e+03
-6.155093958997625123e+03
1.053766123700174688e+02
6.451707939403202545e+03
7.206721107467420552e+03
5.570282070799819849e+03
4.948264082527261053e+03
2.849571451034800702e+03
-1.420938778668895566e+03
-6.726419077337264753e+03
-1.272600040021519089e+04
-1.801070132108277539e+04
-1.345062663693190370e+04
3.248087829804569992e+03
1.614444672959172385e+04
1.576542090512702634e+04
9.328920441854706951e+03
6.148982533052895633e+03
4.375621659532979720e+03
9.837267742462972819e+02
-2.649833884126026078e+03
-6.832044953027489100e+03
-1.157191954292337141e+04
-1.584952183874662478e+04
-1.959786297217158790e+04
-2.010884001403076036e+04
-1.333839873209329198e+04
-1.002046946671671321e+04
-6.029998991139567806e+03
3.525099238296544627e+03
1.072886306751407392e+04
1.080046665993705938e+04
3.981021870189972560e+03
1.911629271421581961e+03
8.991295062527979098e+03
1.550112075511366129e+04
1.227334538495656670e+04
8.540148183666957266e+03
7.141676520250968679e+03
7.140145278161036913e+03
7.925680899286808199e+03
6.893340459923978415e+03
4.702300834566782214e+03
3.079683609750924006e+03
3.444609257341462580e+03
6.498290415630066491e+03
7.972917282244239686e+03
9.430561220149196743e+03
7.375426535533906645e+03
5.406679612109362097e+03
5.473604243427064830e+03
4.227401261118689945e+03
2.182252427519110825e+03
6.653750271193785011e+02
-1.105986220611838917e+03
-3.308568093245899490e+03
-3.244117321306830945e+03
-4.084453707855847824e+03
-5.185399048746613516e+03
-3.701720382468946809e+03
-1.386156334052360990e+03
5.411572164988288023e+03
1.040369077740545436e+04
1.346233659569886913e+04
1.345164757584560903e+04
1.102480378985367861e+04
6.676056088984111739e+03
3.902774176251926292e+03
3.127268788998911987e+03
2.461537321315885492e+03
7.506875455822413414e+02
-2.162048805875486323e+03
-6.166476891771968440e+03
-8.110300443555875063e+03
-8.331192881938306527e+03
5.481148567004737515e+02
9.134782352337057091e+03
9.785034902856674307e+03
1.148219790366545203e+04
1.285863430756907110e+04
1.100459928314507852e+04
7.238098752183438592e+03
4.403237183661527524e+03
2.282435725796676252e+03
1.085847527514233661e+03
2.369494184276596570e+03
9.982564120166771318e+02
-2.591784906680130462e+03
-3.394368457343628506e+03
-1.502573023060781452e+03
3.055393482627029243e+03
4.844645868218140095e+03
4.704745897234872245e+03
4.483495164215053592e+03
4.200314113681570234e+03
9.152330621742808034e+02
-3.725583630664139946e+03
-6.958281915204963298e+03
-6.918941665309553173e+03
-5.530953618885371725e+03
-6.612091390284246700e+03
-8.515827493433145719e+03
-7.670334346112649655e+03
-5.244494806380968839e+03
1.104502570272645698e+03
3.046652156871534316e+03
2.881515200350043415e+03
8.210712174668226453e+02
-2.109902523553585524e+03
-1.140110931095133083e+03
1.111747228057434540e+03
1.376334530826816263e+03
3.308091609305307088e+02
-2.485520659123740188e+03
-4.537428206211747238e+03
-3.650057507795085712e+03
-7.236616812037635100e+03
-9.496408662911875581e+03
-3.706108927472274900e+03
-2.269004532072928214e+03
-1.332306356692510690e+03
2.314229288241320319e+03
-1.178669113906244547e+03
-9.490888162198992859e+02
-3.681342460624041451e+02
9.723453034948972800e+02
7.881293378270909216e+02
1.246860905204628580e+03
2.899118040769471349e+02
-9.220547044416122162e+02
-1.533462440003920392e+03
-2.439669098518216288e+03
3.275523592269332767e+02
1.617376004830789270e+03
1.747129099051348703e+03
1.058427683401676404e+03
5.851542647241885788e+02
-1.819720824787103197e+01
-1.583309563882105294e+03
-2.818973664195434139e+03
-4.013304146091018538e+03
-3.431597072404299979e+03
-7.526426400768347094e+02
9.759427241649478901e+02
9.543300657519563401e+02
7.455432026209066407e+02
6.298790663974799031e+00
-6.826293990525140316e+02
-1.509906209487644446e+03
-2.486661602526547085e+03
-2.736248198914401655e+03
-2.058781565511106237e+03
-1.312952525297888542e+03
-4.014219542040082729e+02
5.890841802324283663e+02
1.268035541315604178e+03
1.200135421798741618e+03
5.658794006942908936e+02
-1.739861689331784191e+02
-5.816513364610144663e+02
-8.828786339695091101e+02
-1.004642261231088810e+03
-1.625484857009284497e+03
-2.045920279754720468e+03
-2.281417749293964789e+03
-2.024718853386151295e+03
-1.512568560566666974e+03
-1.828056328665394858e+03
-1.928096647035974911e+03
-2.042327804145903201e+03
-1.804041244850834573e+03
-1.548256828886778521e+03
-1.188801036518877481e+03
-3.706751055343680719e+02
5.651374724306153894e+02
1.011656020778738707e+03
1.552926097265522685e+03
1.650108090324411478e+03
1.540827047684778336e+03
1.128298470271470478e+03
1.047997696734033070e+03
7.706179966591581660e+02
3.251124327372647258e+02
-7.659777089983967358e+01
-5.687193601116061927e+02
-1.100345493782805534e+03
-2.109397832710896182e+03
-2.596980374688848769e+03
-2.766278575242891748e+03
-2.516289247056332442e+03
-2.046931788921100861e+03
-1.330495287169434278e+03
-1.382091569249643612e+02
1.075563369666132758e+03
1.705285987517461535e+03
1.942098034281153332e+03
2.640960784024156965e+03
2.410029897572565005e+03
1.731689299553836463e+03
1.229599312438468814e+03
6.507753756814139479e+02
3.712087731444673864e+02
-1.275224154855475405e+02
-6.655752925466288161e+02
-4.893537570353971660e+02
-5.224209590945807804e+02
-1.076658853014770330e+03
-1.372376381210430964e+03
-1.245931283540392087e+03
-1.465721029229665646e+03
-2.447346846103459484e+03
-3.162181859578006879e+03
-2.145086969840984693e+03
-1.143353943819761980e+03
-1.849261233710579404e+02
-2.480631619612733630e+03
-3.116606953304042690e+03
-2.371046552428914310e+03
-1.796190644890550175e+03
-2.712286678859410586e+03
-4.702190828926818540e+03
-6.357209357369298232e+03
-6.639224020451666547e+03
-7.861438642226987213e+03
-1.008170408416463033e+04
-1.072781447789680533e+04
-1.038655542932121716e+04
-9.215905522572977134e+03
-7.135297811824354540e+03
-2.841628855491757349e+03
1.439708406550870905e+03
2.962721869056852029e+03
9.657994923689342386e+02
-1.480059600141828923e+03
1.012135913380157717e+03
3.798294405688431198e+03
4.345114599631342571e+03
4.485255166411249775e+03
4.450325123224846720e+03
4.192633236977729212e+03
3.909249127647668502e+03
3.126174588361521273e+03
2.681009148295969226e+03
2.057722130766606824e+03
2.014329322519769676e+03
1.475257229356674316e+03
7.658237352062991476e+02
4.341149174769509500e+02
4.558119047768706196e+02
2.998039320822534251e+02
1.293255991167184447e+03
2.003523288656062959e+03
2.148682015856491944e+03
2.456425957736530563e+03
2.899543507805277841e+03
3.431513909797838551e+03
3.760631744243275989e+03
3.563364852306827288e+03
3.604406829588974233e+03
3.260607526254925233e+03
2.572789131417791850e+03
1.991236136973983321e+03
1.098157596971484281e+03
6.443990003100039985e+02
-4.698808015561080254e+01
-4.688162923106390281e+02
-4.559571905768348756e+02
2.027026188582583757e+02
2.801695545174938502e+02
-3.443246869801543539e+02
-1.398785048581262629e+02
6.045240802555204027e+02
1.104782162788698542e+03
1.782380234608338924e+03
2.466049645563657577e+03
3.103736254230363556e+03
3.720593934971323506e+03
3.926622513040184458e+03
3.876919617240041589e+03
3.548518650837470886e+03
2.495409004204660050e+03
1.926633867165595802e+03
1.557093540912272374e+03
9.430818860373208281e+02
4.575919059934003030e+01
-5.194310529051848846e+01
-3.906319661827585605e+02
-6.355921425510973677e+02
-2.544601947587448478e+02
-9.442884923519332574e+01
-6.318825181882867810e+02
-1.157747411169154248e+03
-1.186114991751798698e+03
-1.124246224355332743e+03
-1.149091453332926903e+03
6.820891698327858421e+01
1.145628050059557836e+03
1.432040821755943853e+03
1.809488920452435877e+03
2.425032952837580979e+03
2.087693893247525466e+03
1.452325402347625413e+03
1.242446888874156002e+03
5.511278515719852749e+02
2.683547371685232292e+02
-1.665830986053112861e+00
-8.397567431812512950e+01
1.745618156603066140e+01
-3.571526061023666898e+02
-6.948097879898248266e+02
-1.394686342868865722e+03
-1.864787175798827775e+03
-1.334014098328533464e+03
-7.294836803638802394e+02
-8.431046137150279947e+02
-8.069166612898276298e+02
-6.992066426284546878e+02
-1.390761012850952341e+02
5.300339998611035526e+02
1.931495454706579551e+02
-5.036222252893589939e+02
-1.186091089444221552e+03
-1.186108754024636028e+03
-9.144115346917342322e+02
4.008496853927961752e+02
6.145672705269799962e+02
-5.218325215822633822e+01
-9.243577693386728242e+02
-2.194884855105623046e+03
-3.124621515406307026e+03
-3.015512511449783233e+03
-1.895628726343532890e+03
-1.792762393515933127e+03
-2.336092452192824112e+03
-2.476093618956464070e+03
-1.747711125738891724e+03
-4.929085299199462611e+02
-1.224324316084673541e+02
-4.851593610462315951e+02
-1.811627890101672733e+02
4.096173011377657645e+02
7.402968314462067383e+02
2.947238007264902535e+02
-6.709624906649919467e+02
-1.298520440467608523e+03
-2.066039218004866143e+03
-2.504588876301259916e+03
-2.500517122731977452e+03
-2.462760061876568216e+03
-2.853102026842015675e+03
-4.529366017777486377e+03
-5.510566826041022068e+03
-4.877429562454942243e+03
-4.162719598331705129e+03
-2.807315955765043327e+03
-1.669187185621053231e+03
-4.414147329033492042e+02
9.542623890106233375e+02
1.050976226130477471e+03
1.011530899791595061e+03
1.141869703115379252e+03
9.066358523490355026e+01
-1.680862497793413922e+03
-3.015459904499954973e+03
-3.697885984488781105e+03
-3.608948696398397715e+03
-3.790893348575772052e+03
-3.235648894098279470e+03
-2.585121920226701604e+03
-3.149379650079187286e+03
-2.808179179603696412e+03
-2.610423606781815124e+03
-1.728987373610713121e+03
-6.542764623938509772e+01
1.426306575288597742e+03
1.122702073805798364e+03
1.156057611328933262e+03
1.678501992243799123e+03
1.096802476306776043e+03
8.274780018258101109e+02
1.494416450494333503e+03
1.865707559526722662e+03
2.108305680302320525e+03
2.448363085694392339e+03
1.913053167511920037e+03
7.544177063630752400e+02
6.134192009802575285e+01
-3.912240264902617923e+02
-3.611339278081069892e+02
-4.272580131419641134e+02
-6.824667247969782693e+02
-4.186920658162148356e+02
2.582527410055935206e+02
7.853792492701604715e+02
1.857781198679755789e+03
5.145757276017411641e+02
1.507863677570541768e+03
4.336672731139618008e+03
5.444951446784404652e+03
4.406637276287952773e+03
3.098862078325206312e+03
2.259775879068448830e+03
2.597291724522613094e+03
3.434463632184873404e+03
2.806434522824085434e+03
2.316337284528478449e+03
2.178292756263696901e+03
2.299262467702963932e+03
3.179155991893421287e+03
2.890979213313697983e+03
2.637869105565046539e+03
3.195894413004682519e+03
3.882102590776538818e+03
3.954487835289032319e+03
2.443189278225821454e+03
-3.527277686077373460e+02
2.246027075191399945e+03
2.630450391910958842e+03
4.382698682607897354e+03
3.890647345241490711e+03
3.304202003502053685e+03
2.581268853179249163e+03
7.493724166861866820e+01
1.383229269133582193e+03
1.769154594337565413e+03
-3.272741104594626336e+02
-4.650530773361224419e+02
-3.099167379806859572e+03
-2.045519895639289189e+03
-2.486090559203314569e+03
-1.068896281541329017e+03
-3.571946611274723182e+03
-2.861200566909256850e+03
-3.019712734608400297e+03
-7.624594543134659261e+02
3.096263995002831280e+02
1.488583784951173357e+03
6.304446303744988427e+02
1.748242931070152054e+03
2.089569800272543034e+02
8.555998082664083313e+02
2.371875271379039134e+02
1.272702107779004791e+03
1.906116787008087840e+03
1.359353740031557663e+03
7.694374912167130560e+02
4.233415946215345684e+02
-8.339514676322692139e+02
-1.948546276611940357e+03
-2.321526937050322886e+03
-1.550867810263736146e+03
-1.765544727983250596e+03
-1.903508924047990376e+03
-3.478204181369014805e+02
1.542578973524181947e+03
3.956721858367299660e+02
-1.123562940916992375e+03
-1.385060209275931811e+03
2.013877839516606016e+01
1.214997402426372673e+03
7.834965923354732240e+02
4.174924296766789098e+02
-4.870795140640004774e+02
-1.542218408216724811e+03
-1.777947244762507808e+03
-1.090350788129657076e+03
-1.480426841171299657e+03
-2.309163317369556353e+03
-2.913586276175401963e+03
-3.181839308792271368e+03
-2.421000966355844412e+03
-1.665084282937079251e+03
-5.878982211863350358e+02
3.144665779423902450e+02
1.431955215992833928e+03
1.470619153947335235e+03
6.134665576012060910e+02
5.125725146228808171e+02
1.269258631211441326e+02
-2.253650461161253588e+03
-3.348141371409769363e+03
