3.173618109055673358e+03
2.540297987078864935e+03
1.797155601461713786e+03
1.936157810189153224e+03
1.964285206145905249e+03
2.094605288637480953e+03
1.556150877815085551e+03
1.464978648186018972e+03
1.648202179416602121e+03
1.930850641667603668e+03
2.287995905427725575e+03
2.592713378877220748e+03
3.201027735418916109e+03
3.007063210171870196e+03
3.208954182702447270e+03
3.986726550739541381e+03
3.836393352303003212e+03
3.110856875077036875e+03
2.712444674923887305e+03
1.985128849816229149e+03
1.234814487777383420e+03
7.025190873856923872e+02
-1.577493180129827977e+02
-5.269595578654071915e+02
-9.381210433420450272e+02
-2.597321744039265468e+03
-2.367478477064397339e+03
9.994397081941697252e+02
-1.525833707044859864e+02
-3.422474918366328438e+03
-2.952157015221377605e+03
4.303758835338852577e+02
1.443134709060725982e+03
-2.723813061069858577e+03
-3.466495139085017854e+03
-1.240867429942431954e+03
-1.536904101658082254e+03
-6.735035233785522450e+02
-3.857706683769008578e+02
-2.278500982944437681e+02
-1.651659084644253198e+03
-2.150087371215244730e+03
-4.355111914610719396e+03
-1.005875250909258398e+03
-1.538417735719286384e+03
-2.987631183027237057e+03
-3.640579448138896623e+03
-2.869369439232310924e+03
-3.011016361037396564e+03
-3.085484710344433552e+03
-2.874831595732038750e+03
1.547937313943322579e+03
6.178850058747366347e+02
-2.429606244425584975e+02
2.360309021268926699e+03
2.214724715240044588e+03
2.053239384045078623e+03
-5.202337260927718035e+02
-2.437687875203758267e+03
5.547796097391587864e+02
-2.143882574391363960e+03
-5.451643840847518732e+03
-3.569558175431877316e+03
3.922849491720490960e+02
-8.591673537349247454e+02
-1.817958069775158947e+03
2.889629256338906202e+02
3.874791816793231192e+02
-4.543176017753773266e+01
7.223620490193695787e+01
3.994123229187167112e+02
4.970757196456157203e+02
1.970238965744122197e+03
2.490837524233898421e+03
2.429803322646886954e+03
2.684088478855127050e+03
2.645700554554159226e+03
1.961595214265292270e+03
1.842782608293287467e+03
2.224200406826121252e+03
1.702671223839163531e+03
4.351922869811829173e+02
6.057029694314173867e+02
1.189213106720231963e+03
7.436989833026616452e+02
-5.658799556638691683e+02
-2.273632661321742034e+03
-3.939746099893221981e+03
-1.034718145601008246e+03
4.105105317450831990e+02
8.436191502821848189e+02
1.338203354696294809e+03
1.887803774867432594e+03
1.779546007306850925e+03
1.908228194943881817e+03
1.911647659855261736e+03
2.061805909227111897e+03
2.046021098236067246e+03
1.779991253766288310e+03
1.165705278521160153e+03
8.213052830716825383e+02
-1.474471655372728094e+02
-1.011325775205081300e+03
-1.677433533398407235e+03
-1.717029007751461222e+03
-1.629966992258390519e+03
-2.183018946745351514e+03
-2.506102402688279653e+03
-1.510388462595329656e+03
-8.082239538937059251e+02
-6.041894740984046166e+02
-1.329241936501786903e+00
1.319309101404644707e+03
2.156887086135358913e+03
1.084457813407462481e+03
-7.189697628595633887e+02
-4.024040856548050442e+02
2.842472368839411274e+02
6.016907246354783183e+02
3.739585453936668387e+02
4.754090745966390728e+02
8.369952978784270954e+02
2.336547128652612741e+02
-7.816338613754749076e+02
-2.227846875269290649e+03
-3.147983233827167169e+03
-2.784969324542356389e+03
-9.977103063872471012e+02
-2.316911228912332632e+01
-3.183228563670837730e+02
-5.760667790604870788e+02
-3.673270948556171902e+02
4.779834136873443526e+02
4.909621068775048229e+02
1.608690031261108288e+03
2.387225780394954199e+03
3.064633032391974211e+03
3.457998931082860054e+03
3.192338173904846826e+03
2.970750380285657229e+03
2.202273631324488179e+03
1.023957086243707522e+03
-1.350178966005901202e+03
-5.848117054176861529e+03
-8.417784028041562124e+03
-9.018115796247966500e+03
-8.453061228165061038e+03
-7.575498743534404639e+03
-6.732360724235197267e+03
-6.267613288879213542e+03
-5.661154861556509786e+03
-5.442900331503514280e+03
-5.886681899790469288e+03
-5.485446993493424998e+03
-4.600931944164694869e+03
-3.692266097575212370e+03
-2.231626691376202871e+03
2.477483928314038621e+03
4.154925622752833078e+03
2.308750930589004838e+03
-1.964990010121123532e+03
-5.687231777667495408e+03
-6.283900399963681593e+03
-6.109968834567055637e+03
-6.252339165020645851e+03
-6.649931725664077931e+03
-6.872692425130574520e+03
-6.360575890181405157e+03
-3.198543733219348269e+03
1.892442604815899585e+03
3.890480395185888028e+03
4.016650131084427812e+03
3.920069252642822903e+03
3.995797688134545751e+03
4.097960947740927622e+03
4.016601083293352076e+03
3.921850618239568576e+03
4.113778820262199588e+03
4.019403184499465169e+03
3.463713509152548795e+03
3.107699958156077628e+03
3.216341503453543737e+03
2.558665357475052133e+03
2.274704272452916939e+03
2.339464743262900811e+03
1.900029572758908444e+03
1.122491118625007402e+03
9.468624596361116801e+02
6.842468258921179540e+02
1.132782164637735605e+03
2.245581388617850280e+03
2.272722716996493091e+03
2.617320609532345770e+03
2.637371207348646294e+03
3.354824009562717947e+03
3.958673390717292932e+03
3.437057200142622605e+03
2.916989108235736239e+03
2.622264682041319702e+03
2.159722879892827677e+03
1.967543509096679827e+03
8.759674568711063785e+02
9.703076470356334937e+01
-2.253452508048501954e+02
-2.671670774207964882e+02
-4.611908360671843070e+02
-8.603161628406174941e+02
-8.184079455590124326e+02
6.453721389255346708e+01
4.681715628983163811e+02
3.631289073116969348e+02
5.646464422784382577e+02
9.367114403311566093e+02
1.598448476387718301e+03
2.107731368516030670e+03
2.330529696582877023e+03
1.765170152117256293e+03
9.547856250529022191e+02
7.074843866122583904e+02
3.350229175647615421e+02
3.271376941420188587e+02
-6.113201199798649554e+01
-7.425530418709029163e+02
-1.598961559643700866e+03
-9.664559199987265856e+02
1.405136928112025316e+02
-2.764215666350838205e+02
-2.069087182452328307e+03
-2.041286669589484745e+03
-6.109576462775075925e+02
-1.061234401285321240e+02
1.040176628720238767e+02
2.996846431434153146e+02
1.241853963192983429e+03
1.819332550805385608e+03
1.998361582121651963e+03
1.815050332715273726e+03
1.099793617047474072e+03
4.006429329225797460e+02
-1.334423803253439758e+02
-6.781265513277944592e+02
-7.554354771094747321e+02
-1.125431750285665885e+03
-1.395643845707824994e+03
-1.588631329573936227e+03
-1.756338107828079956e+03
-1.989832329623334317e+03
-2.334478687240706222e+03
-1.953603699260579333e+03
-1.677569560194406677e+03
-8.188368246884102746e+02
3.483561666638989891e+02
5.168137862944961398e+02
5.582961995548151890e+01
5.725759591480148174e+02
1.381523647928792116e+03
9.799943043040225348e+02
5.305183905716705794e+02
1.585181832313330460e+03
1.914352491701443341e+03
1.386799186178751370e+03
8.175582578186375713e+02
2.384956081135334216e+01
-9.285444090125661205e+02
-1.317036868201883181e+03
-1.581147136323339737e+03
-1.567292780836555039e+03
-1.432025924721468527e+03
-2.313056791504382545e+03
-2.794444645078411668e+03
-1.678050682249835745e+03
-2.999187273234132363e+02
1.070279032872751088e+02
-1.519150304818831273e+03
5.625061637284933340e+02
2.850826447767817172e+03
3.309369629863001592e+03
3.394507213317692276e+03
2.763895477830739310e+03
2.592869214749317052e+03
2.179107816974737943e+03
1.756681826634618574e+03
1.347161348506787135e+03
7.256880469476747066e+02
-3.708031973912352441e+01
-2.446531203176922986e+02
1.126984565021922151e+02
8.808610606963836176e+01
-4.245888393681895678e+01
1.735210450371490651e+02
3.538548306059723245e+02
7.251677922638117479e+02
1.074605926313972759e+03
2.196079865468076150e+03
2.592361276558457575e+03
1.874635813536140631e+03
1.352735464194292035e+03
1.821197167009458099e+03
2.693045878176345923e+03
2.867658979719496983e+03
2.504275124105109626e+03
2.982990858277120878e+03
3.159784372870893094e+03
2.489081160203099898e+03
1.646134008680830448e+03
1.379764301809799235e+03
8.402023438515120688e+02
1.059718808990842973e+02
6.136337984261469103e+01
6.110569557184448968e+02
1.169815127801778999e+03
2.175392967686884731e+03
2.599442338553895297e+03
2.586322295449907415e+03
3.093304143857545114e+03
2.916066141384819730e+03
2.432551759749844678e+03
2.678805234620620467e+03
2.611825956594905165e+03
1.947257666314663311e+03
1.236482805178231956e+03
6.364280574410466897e+02
6.585885090224089708e+02
2.174104760910290111e+02
-4.321194742479872275e+02
-4.546839115381887382e+02
-7.279576268802863979e+02
-1.021211693454961960e+03
-3.129174754189905912e+02
1.082790601609462158e+02
-9.963826978397664291e+00
-1.495840589292575658e+02
1.417751757530127747e+02
5.762987385367042634e+02
1.616504184955044366e+03
2.747226654193293143e+03
1.821202901690754061e+03
1.183067901238635386e+03
5.087056101056994066e+02
2.772880806326246557e+02
1.396637881505775738e+02
-7.702098939945180973e+02
-2.496853499300815201e+03
-7.008763305154517184e+03
-8.492280406326619413e+03
-4.669543511142016541e+03
-4.487361704179049411e+03
-7.907960791751995203e+03
-7.427477403327285174e+03
-6.637739392059284000e+03
-5.951128621731837484e+03
-5.194263165009404474e+03
-7.553880229621198851e+03
-5.893968779572538551e+03
-4.484391923370748373e+03
-3.733592503225139353e+03
-4.901159537945588454e+03
-5.536560345385890287e+03
-5.239940741917713240e+03
-5.551985842670536840e+03
-6.364595605079882262e+03
-6.701905054546810788e+03
-5.545425745511257446e+03
-5.887163303070823531e+03
-6.531522126617171125e+03
-9.491806781816729199e+03
-9.516525967762108849e+03
-1.025133667022652298e+04
-9.928092128876140123e+03
-1.064705428086629581e+04
-1.079946195739921859e+04
-8.054584528366289305e+03
-9.074680594709703655e+03
-6.798405489383195345e+03
-7.184618946187681104e+03
-9.219641691532382538e+03
-7.345468713846160426e+03
-6.306831598769408629e+03
-5.914366543910081418e+03
-6.352494217760209722e+03
-7.172580423225834238e+03
-8.080023890188749647e+03
-8.942306976784424478e+03
-9.435059572835840299e+03
-1.007470002422183643e+04
-1.072679374765173452e+04
-1.106380959354819970e+04
-1.160036966600448432e+04
-1.173003451314107951e+04
-1.155029944606500248e+04
-1.111652145956545792e+04
-1.042037189671613851e+04
-9.879378724212097950e+03
-9.280075617999375027e+03
-9.161044331735907690e+03
-8.842896594670755803e+03
-8.410945369489978475e+03
-7.878687584584623437e+03
-7.685467589401447185e+03
-8.035623881358414110e+03
-8.680191685020032310e+03
-9.436917235345777954e+03
-9.920840835086886727e+03
-9.850763718918633458e+03
-9.729582017115029885e+03
-1.008311001360070986e+04
-1.014215983897117803e+04
-1.018552348033150520e+04
-9.200733501243717910e+03
-8.544375205640417335e+03
-7.702716123605847315e+03
-7.334884600065965060e+03
-8.672469036529602818e+03
-5.633450008629873082e+03
-4.631655148826586810e+03
-4.042930477643158611e+03
-3.639244128932429703e+03
-3.478288905345693365e+03
-3.277566821437748331e+03
-3.248193976842286702e+03
-3.198897972533889515e+03
-2.997872033731657211e+03
-2.830416085896918958e+03
-2.163228432596743460e+03
-2.144688081699796840e+03
-2.182847130568060038e+03
-1.925053106030490653e+03
-1.604677463675835497e+03
-9.641131237471062150e+02
-4.776846215413095251e+02
4.383137282087468520e+02
1.424265529286439005e+03
3.295736922713234890e+03
5.875337413010263845e+03
7.989710284329152273e+03
9.650403002428216496e+03
1.060896166720070323e+04
1.103605548067207928e+04
1.082428179954094958e+04
1.001207497652100574e+04
8.885561269575639017e+03
8.202909497069131248e+03
7.556367967272990427e+03
6.430160315931420882e+03
5.460275381354578712e+03
4.611764667717015072e+03
4.805806334522442739e+03
6.205517230151037438e+03
9.131070035349841419e+03
1.182259500237475004e+04
1.299210983687459520e+04
1.388747041330203501e+04
1.634268930304395508e+04
1.878981178310268660e+04
1.872080068863116685e+04
1.587360086214417424e+04
1.379919609602011769e+04
1.385545864985718435e+04
1.424031113851817099e+04
1.318355181230439484e+04
1.166407872453236268e+04
1.262577679092370272e+04
1.572247273585658513e+04
2.124789398796491878e+04
2.834976796184711930e+04
3.144681389315761044e+04
2.814884145859809723e+04
2.451062038669168396e+04
2.188999070265406408e+04
2.084788840230070491e+04
1.786490397526835295e+04
1.378281693763106159e+04
1.202259332140712468e+04
1.119505015223382543e+04
1.283793882499378378e+04
1.391609568542317720e+04
1.471035290650177194e+04
1.387839438365401838e+04
1.531814659892596319e+04
1.949451573274750262e+04
2.403735408567399281e+04
2.419742362800252522e+04
1.889153443739128488e+04
1.594659154614008912e+04
1.564064664790231473e+04
1.606861300305475379e+04
1.682514653363381876e+04
1.590321978117863364e+04
1.791497368973684570e+04
2.051854243014474559e+04
2.162488681506317880e+04
2.753604207958389452e+04
3.726899959229134402e+04
4.167910553839041677e+04
3.400272263199304871e+04
2.452100268559450342e+04
1.834710185872399597e+04
1.031636653667838073e+04
-3.078665568917627411e+02
-5.840200793838139361e+03
-5.326288009929093278e+03
-2.406697811040006854e+03
1.068092891908697993e+03
1.666571611545840824e+03
-1.157714873738668757e+03
-8.993168983592362565e+03
-2.492816041795986894e+04
-3.402299984153871628e+04
-3.297802109869488049e+04
-2.561834168950487219e+04
-1.305808690785195358e+04
-3.507550897525685741e+03
-6.787066627260107055e+01
-5.078798956172994963e+02
1.167536275942218026e+03
1.014533523666290239e+04
2.114880930093071947e+04
2.302730867838050472e+04
1.601308261267029411e+04
4.739509036794504027e+03
1.038798338055710701e+03
5.561113717637925220e+03
7.407910765307644397e+03
3.805790543597055148e+03
-9.404758618942327303e+03
-2.513309302138500789e+04
-2.782452070433971676e+04
-2.972510472832852975e+04
-4.327981509604690655e+04
-5.932203682710810972e+04
-6.519082559855496220e+04
-5.872264824994930677e+04
-5.566664368846119760e+04
-5.948468071660391433e+04
-5.289157231860499451e+04
-3.803716278122802760e+04
-2.100023819633111270e+04
4.312675801458915885e+03
1.679779175588461658e+04
2.485820960741178715e+04
3.707029604428243329e+04
2.840353495864841534e+04
1.253542190220160774e+04
-1.755506511975136448e+02
-1.002886717809199217e+04
-1.596191449017817285e+04
-1.573603013722692231e+04
-1.567254539008573556e+04
-2.250378783503240629e+04
-3.334903237301453919e+04
-3.273658785894036919e+04
-2.781061279721358369e+04
-2.209219218182455006e+04
-2.164548473306355663e+04
-1.807364589772573891e+04
-8.356851916453510057e+03
1.483846911142857834e+03
-1.247503019238345360e+03
-4.700029771840042486e+03
-5.827134092967822880e+02
-2.959494109614769968e+03
-8.090368453046689865e+03
-9.866380916710329984e+03
-1.754154977250779484e+04
-3.131680225616796452e+04
-4.386509899841660081e+04
-4.832832659500578302e+04
-5.285453635997819219e+04
-6.619280057939575636e+04
-7.800503106873112847e+04
-7.759921357279203949e+04
-8.168133911360804632e+04
-8.203330303168075625e+04
-7.362806762384314789e+04
-6.439769528000424179e+04
-5.196914007265723194e+04
-5.656836441222489520e+04
-6.952740412491885945e+04
-7.956430248913803371e+04
-8.297622701852570754e+04
-7.555127305099555815e+04
-6.263356759766889445e+04
-5.601131943875228171e+04
-5.193973876973342703e+04
-5.475506924803464062e+04
-5.241664584209925670e+04
-4.155675344309057255e+04
-2.825472273781216791e+04
-6.399932136416000503e+03
8.586176044440595433e+03
3.383713196183903347e+04
6.382437273720105441e+04
8.388732675991945143e+04
8.781854984167522343e+04
8.903741480297151429e+04
9.347024370742509200e+04
9.626330032193100487e+04
9.662279633355233818e+04
1.012888703565727628e+05
1.121545019793965039e+05
1.189522465937258530e+05
1.144131443627577537e+05
1.080857312335500465e+05
1.079678533617678477e+05
1.033367656324029522e+05
9.717686140280449763e+04
9.448448010614790837e+04
9.357345794683552231e+04
9.262754088729392970e+04
8.802618900344369467e+04
7.993760671679346706e+04
7.313061193198445835e+04
6.539403370737910154e+04
5.872342748534586281e+04
5.691605260361285764e+04
5.404765133243033051e+04
4.658961180265634903e+04
4.491102386714841850e+04
4.457072975416963163e+04
3.754148766108273412e+04
3.146122029831112741e+04
2.942156561477560899e+04
2.778323903008674461e+04
2.398196785955718588e+04
1.532705268170868476e+04
9.480253718116966411e+03
6.148095658284587444e+03
3.523441182408648729e+03
2.858500799539860964e+03
2.314183814100951167e+03
-2.799902342429351393e+03
-6.817245350368503750e+03
-4.975532151466157302e+03
-5.447223818431961263e+03
-7.526381187060224875e+03
-1.004407275552009742e+04
-1.189738999926823089e+04
-1.350750346632526453e+04
-1.489160912998900494e+04
-1.698104948075449647e+04
-1.624017411010495744e+04
-1.641534865833773438e+04
-1.712998005118194123e+04
-1.942061793742784721e+04
-2.220080716723730438e+04
-2.420114907430369931e+04
-2.475429741903571630e+04
-2.567989035727614828e+04
-2.638162834305823708e+04
-2.652319669095194331e+04
-2.675435725594403630e+04
-2.794786335875630175e+04
-2.506155400260212991e+04
-2.010826301011625401e+04
-2.476085551421291893e+04
-2.797618534135480513e+04
-2.615912137717682708e+04
-2.338256007929344196e+04
-2.276943139998869083e+04
-2.159768985206543584e+04
-2.157637125362635561e+04
-2.191548942122106382e+04
-2.286204541660044197e+04
-2.344102404216882496e+04
-2.002840548819798278e+04
-1.230937657504095296e+04
-6.925955465581304452e+03
-2.355198655201445490e+03
-5.746126837834030084e+03
-9.491611580455819421e+03
-7.424029310194348000e+03
-4.900285921671386859e+03
-4.779341999926943572e+03
-2.955188582022969968e+03
-7.332803809570807971e+03
-1.016017897033709778e+04
-6.935198076676520031e+03
-3.473820044989649887e+03
-8.649858424037071245e+02
-4.361584946951330494e+03
-9.916588828927266150e+03
-1.021485942610471648e+04
-7.777239522660564944e+03
-7.690479200413330545e+03
-9.935385552865100180e+03
-1.222481432447342740e+04
-1.327051681585473671e+04
-1.719620192382029563e+04
-2.204655903585083433e+04
-2.690928342610908658e+04
-3.051404413177346942e+04
-3.416639862658337370e+04
-3.782284659672889393e+04
-3.853882687380446441e+04
-3.565874382046358369e+04
-3.152889146928091213e+04
-2.863457456254294448e+04
-2.620701561182112710e+04
-2.379646964470791499e+04
-2.129519532038220132e+04
-2.062431444266107064e+04
-2.174395659163829623e+04
-2.194421535011283413e+04
-2.134422665630269694e+04
-2.060607943794839230e+04
-1.847088792946943795e+04
-1.657861121218649714e+04
-1.583596229159576251e+04
-1.480670822731798035e+04
-1.397576558756660779e+04
-1.320688155176421787e+04
-1.221351584598030422e+04
-1.052698351090731558e+04
-8.811776385010934973e+03
-7.514536796640937609e+03
-7.070785768691649537e+03
-5.770747074791594059e+03
-3.445681990143205439e+03
-9.440944466754231144e+02
3.655555210910843016e+02
1.040755855257258190e+03
1.537120872725200115e+03
1.763890677704624295e+03
9.323648713111712141e+02
7.184319259961528132e+02
2.682233333281444629e+03
2.596152369653349979e+03
2.140372865581122824e+03
3.716232434476374692e+03
4.955942078526825753e+03
5.200744190457402510e+03
6.310736352155413442e+03
7.667321716706219377e+03
7.633899107713246849e+03
8.378226196359877576e+03
9.674392289586470724e+03
1.078251845859745117e+04
1.222899481817040214e+04
1.373794444464710432e+04
1.402527301010980773e+04
1.435441363147896118e+04
1.615791148083641019e+04
1.577540549878494494e+04
1.427656898480703239e+04
1.398727289083666437e+04
1.507010557456263996e+04
1.596979784343503707e+04
1.609525679137514089e+04
1.396195086617829293e+04
1.359633137671523400e+04
1.497659277763277532e+04
1.558569531650281169e+04
1.495293057245647833e+04
1.481420207567540092e+04
1.525582452541615385e+04
1.593727732166012720e+04
1.606430721761407949e+04
1.609650784322348773e+04
1.672764861258174278e+04
1.688267722013688399e+04
1.658089050775423675e+04
1.684269173192249946e+04
1.679665718500922958e+04
1.740978213485946253e+04
1.766374887371036675e+04
1.833495460305958841e+04
1.890103372358321576e+04
1.801243835308318376e+04
1.621602628979389374e+04
1.510226970729416644e+04
1.450957395558980897e+04
1.351379182051861790e+04
1.373234825931703199e+04
1.523502328241512623e+04
1.696557128855050905e+04
1.989890960366086802e+04
2.118662033241754762e+04
1.975723573526871041e+04
1.792714275041081419e+04
1.717664992041853475e+04
1.525523659543163558e+04
1.186770043689821250e+04
8.022456286962059494e+03
8.097689895656681074e+03
1.263737722631102952e+04
1.457852656611249586e+04
1.558653760395361678e+04
1.541163405061233971e+04
1.435255414911792650e+04
1.278568784142952973e+04
1.197930127573999562e+04
1.040934657829321804e+04
9.302809214790082478e+03
1.118502116406600726e+04
1.264669881232589432e+04
1.126016231822080772e+04
9.161320039910702690e+03
7.245485539889685242e+03
5.975996594815883327e+03
5.070327096336842260e+03
3.316173081242206081e+03
1.560198884411809331e+03
5.227851946064303092e+02
-4.229183589090455371e+02
-1.432312940517743073e+03
-2.465178339472395237e+03
-3.485432887681238299e+03
-4.445364870446001078e+03
-5.402973529094147125e+03
-6.487069798613784769e+03
-6.972811458410301384e+03
-7.811989276273595351e+03
-8.900819711740077764e+03
-9.198139927779415302e+03
-9.688594941685085359e+03
-9.728687540665207052e+03
-9.619692442326257151e+03
-9.718842692976286344e+03
-1.003756005422937233e+04
-1.132874624963457427e+04
-1.263657599229998232e+04
-1.345418417727164342e+04
-1.250929259403391370e+04
-1.231620744462307630e+04
-1.284264421626659714e+04
-1.311360661718407209e+04
-1.408491435777067818e+04
-1.485528757142238464e+04
-1.524927887125488996e+04
-1.571711750449892315e+04
-1.633448329271303737e+04
-1.648056805094468655e+04
-1.636891446090158024e+04
-1.620035817134512035e+04
-1.557704825254693424e+04
-1.517298131914565420e+04
-1.486060226859315662e+04
-1.456690837965005448e+04
-1.407457870639881548e+04
-1.386244308842894861e+04
-1.382660004774805566e+04
-1.356162691422644639e+04
-1.312607046934135360e+04
-1.303192367987545367e+04
-1.301975173812418871e+04
-1.289564902562459793e+04
-1.267070402213776651e+04
-1.242028580534268622e+04
-1.210743819264663216e+04
-1.192600388502041278e+04
-1.149003154038788307e+04
-1.108239841626424095e+04
-1.021551323801674334e+04
-9.075547947069549991e+03
-8.978518809748036801e+03
-1.209586087706772560e+04
-1.288219685107950136e+04
-1.067449558153112594e+04
-7.267009908616327266e+03
-6.892675251554103852e+03
-4.602155132528641843e+03
-2.972121182585766292e+03
-5.598263115678266331e+03
-5.975909602300013830e+03
-3.659423027851955339e+03
-5.272981821924365249e+03
-6.511435785745346038e+03
-1.587479458800167322e+03
-2.936143563024354535e+03
-2.607384940421772171e+03
-9.092793001417146570e+02
-3.443201238463133450e+03
-2.710069850455290180e+03
-1.219529265911234233e+03
-3.209838969216323790e+02
9.961891959438451067e+02
2.806246624878334387e+03
3.102088978688504994e+03
8.023316984662678806e+02
2.383881745773482180e+03
-2.172515247936668743e+02
1.548221193894538146e+03
4.030037408471923754e+03
3.388689758086633788e+02
-2.161448356316947411e+03
2.987396748549894028e+02
-1.114782549401817050e+03
-8.876244421351711367e+01
2.538716578759900131e+03
3.394106714692793048e+03
3.692347396484101864e+03
3.942416464273361271e+03
4.139304549505090108e+03
4.202695298687993272e+03
4.744263293933880050e+03
4.629807634915073322e+03
4.714225679434635822e+03
4.960205696391922174e+03
5.618688213845633982e+03
5.786488126532574825e+03
5.446478202071890337e+03
4.947604983437499868e+03
4.043634989991183375e+03
3.418203810653074015e+03
2.850194182784662644e+03
2.620359698056979141e+03
2.409525576768050087e+03
2.121420989982295396e+03
1.634854887777841668e+03
1.319235538099424502e+03
1.157487907024741389e+03
1.175410490825325269e+03
1.162822661033470695e+03
1.165061783535710674e+03
1.118803342707095453e+03
1.367914577091298497e+03
1.473067405403869543e+03
1.423315587450307021e+03
8.534064486327648638e+02
8.402753352755748892e+02
1.457870354406023353e+03
1.243761907797578260e+03
1.032420282264060006e+03
8.437515721911361197e+02
4.000565403336894974e+02
4.875413285583321255e+01
-3.070936532362777029e+02
-8.350707627890467393e+02
-1.027195757783470981e+03
-1.207147999480886938e+03
-1.483737277439174932e+03
-1.982029573767702914e+03
-1.663798214920733699e+03
-1.435434945405993631e+03
-1.145949696844428445e+03
-4.995549556107968669e+02
-2.299741231985410366e+02
-5.161814832146035315e+02
-1.035680752383725803e+03
-4.307004189787819541e+02
1.770393648321403361e+02
-5.602202266064693070e+00
-6.489126366937089188e+02
-1.030114282183900968e+03
-1.619061750772788628e+03
-2.003760073409524011e+03
-2.241179608578467196e+03
-2.516494783461442694e+03
-2.694820236630116142e+03
-2.902076833495478695e+03
-3.233525342886038743e+03
-3.009596726752953145e+03
-2.985555259738879158e+03
-2.441471068164747066e+03
-1.442533759632536885e+03
-9.468514049710697691e+02
-4.005228849888952141e+02
1.133896468372161337e+02
4.439583467289050986e+02
4.570602004631214754e+02
5.765488889351004218e+02
5.203442493262625703e+02
-3.979674747210200536e+01
-1.119990141675739039e+02
7.269152326795611430e+01
-5.784451296479864624e+01
-4.166545858525122981e+02
-8.478411868623588816e+02
-1.081438656412597766e+03
-6.145902022545431009e+02
-1.783642627932356959e+02
-4.197617790421717814e+02
-8.675065440020807728e+01
5.535550666167672489e+02
9.810244830678947210e+02
1.355541225532548424e+03
1.177166040379746164e+03
1.013940300960876698e+03
2.578854510308579847e+03
2.217925151300972175e+03
-1.484782151045496676e+03
-4.817356751089388126e+03
-3.721981067598490426e+03
-4.570466849117475249e+03
-5.807744122290761879e+03
-5.925082213831097761e+03
-5.839610384624949802e+03
-5.961048490115616005e+03
-5.649248494962092082e+03
-5.246390128972060666e+03
-1.824389024294495357e+03
-3.262468149113436766e+02
-1.249835186653765078e+02
-4.594918199142015283e+02
2.727221335265185644e+03
4.041163996856784252e+03
4.000503107348783033e+03
4.480299537017992407e+03
4.890488455502523720e+03
4.965283421795340473e+03
4.577834340745933332e+03
4.488120225330922949e+03
4.323107205460350087e+03
3.724903526677494938e+03
3.439594758578940855e+03
3.091448731094454160e+03
2.504461991800177657e+03
2.161588418884703970e+03
1.708949750546508085e+03
1.278658448294654136e+03
1.044898700037317212e+03
1.817710784653160090e+03
2.154108174578309445e+03
2.306358725785416937e+03
1.744599330683120797e+03
1.029835818745355482e+03
8.132783927053410480e+02
1.106106892507005568e+03
1.436330506737745736e+03
2.458075630699947851e+03
2.000341485373474598e+03
1.803255244464805173e+03
3.531058007863854527e+03
5.476824473557381680e+03
4.507708811830660125e+03
3.807937945560292064e+03
3.503546164853912614e+03
2.194622416878501554e+03
6.693515448924175644e+02
-5.482516858705992036e+02
-8.612233048239000937e+02
1.753047196011983289e+01
9.850648469288943261e+02
8.587324168778685589e+02
4.788627248920300872e+02
1.843528259798732734e+03
3.743831381319413140e+03
4.199076027445905311e+03
3.714427900859762303e+03
3.627997997636589844e+03
4.025610721907582501e+03
4.623251103841475924e+03
5.216509113003634411e+03
4.508199307956375378e+03
1.131394908996436698e+03
2.184210023121032464e+03
1.879764668524583158e+03
1.074214003010773467e+03
7.057015247489151761e+02
7.983147141703231000e+02
1.119933621976962058e+03
6.026659392720138158e+02
1.087886123408325574e+02
8.785190087039582068e+02
2.135938408918551431e+03
3.068113016799638444e+03
3.800119712769754187e+03
4.800135865684727833e+03
4.609221493973201177e+03
3.923431757944993933e+03
3.204853358916782327e+03
3.148541832807368337e+03
3.940507933892932215e+03
4.902803150481168814e+03
4.883392445521934860e+03
3.384348118044464172e+03
2.239732219380809056e+03
1.822525169919334530e+03
1.218780132863391373e+03
2.475413309495641840e+02
1.788045148695166517e+02
5.186443330866529777e+02
8.750104193892556168e+02
9.408922418724354202e+02
1.047312692914542367e+03
1.558260741863136218e+03
2.648847701693664021e+03
3.391041586029436530e+03
3.082797338103505808e+03
2.447937727960166285e+03
2.306567393549869394e+03
2.254672710455227843e+03
1.402164830560656128e+03
9.289712047145090992e+02
4.670838533710125375e+02
-3.736096827103302758e+02
-4.451878505014922780e+02
2.252996247362694930e+02
1.687645946040141212e+02
-8.028561074750218722e+02
-1.256644810127883829e+03
-1.121722826620166416e+03
-8.521396336814086681e+02
-8.529608125881677552e+02
-2.128277710713421556e+01
8.707976538423203010e+02
9.412294260463265800e+02
1.363951594597088388e+03
1.650834268966635364e+03
1.233829122435737645e+03
9.528552043231812831e+02
1.723777060106368936e+03
1.212448694947056083e+03
2.527284553646148026e+02
-6.834973853439767026e+02
-1.640329182500404841e+03
-2.086941281957632327e+03
-1.558474611526517265e+03
-6.950220310813431297e+02
-1.219721146439705990e+03
-2.770777455437897515e+03
-3.803320472891920417e+03
-3.174872698606053746e+03
-2.243652564659692871e+03
-1.048064627165631919e+03
-5.692008123304487981e+02
-1.865273245056918313e+03
-2.850323431593603800e+03
-1.134431738363353361e+03
7.587031056967368841e+02
1.290529117660393922e+03
9.708099047452993773e+02
-3.051159436673007690e+02
-1.385732085890808321e+03
-1.975372453343765756e+03
-3.260919477044433734e+03
-4.835475435457931781e+03
-5.889990638473286708e+03
-5.737632488765126254e+03
-4.825384107157899962e+03
-1.995645980234072567e+03
-2.456038440223115060e+02
-5.460021605083059058e+02
-8.201705311803017366e+02
-9.151464598995801225e+02
5.305087971586460327e+01
7.273740289356394442e+02
1.039902429792099156e+03
1.284419696179810444e+03
9.915828809997191229e+02
8.661131547899688030e+02
1.355601566471653712e+02
-1.259507303716599381e+03
-2.666720294380651922e+03
-3.048492836653035738e+03
-2.406815909329952774e+03
-2.089987665326734714e+03
-1.410726433590007218e+03
9.828212080454906072e+02
2.396556217457889488e+03
2.068459490995247961e+03
1.367434536654839803e+03
4.864907177800029103e+02
6.656073369233486119e+02
1.929727549955498034e+03
2.955817967876208968e+03
3.012903492664698661e+03
3.842006608524007788e+03
4.529132598456349115e+03
4.203309868004566852e+03
4.275500415720001911e+03
3.605669305060932857e+03
3.519779568978296993e+03
2.074840158605147735e+03
-1.156143712071255777e+03
-6.415180825615308095e+03
-8.122310988441032350e+03
-6.908533286601882537e+03
-4.903855867631732508e+03
-3.865243258135552878e+03
-2.875682292721647627e+03
-2.924149035722051849e+03
-4.362635149641548196e+03
-4.053103351324976757e+03
-5.351535195396778363e+03
-6.421821025066478796e+03
-5.941944055598582054e+03
-4.216900234099219233e+03
-7.616370118330897867e+02
4.002861553971145895e+03
2.730698063029051355e+03
5.158887542761665372e+02
-7.505460801688132051e+02
-2.433574270865495691e+03
-1.547141448428911417e+03
4.091735579833529300e+03
3.796105626423161084e+03
-3.052939013878471542e+03
-5.938340287619454102e+03
-6.509130400011965321e+03
-4.195216929139408421e+03
-2.510561320133529534e+03
-1.542119863489178897e+03
-1.805791091039521007e+03
-2.600498489797791990e+03
-1.721143113918403515e+03
3.042253411568045522e+03
5.948751029655283673e+03
6.540485307721221034e+03
6.739542507494767051e+03
