9.336373382564678423e+02
2.170736211004556935e+03
2.578151029163650946e+03
2.392756189032872044e+03
1.590612035072509570e+03
2.239744591849547305e+03
2.674150308927572041e+03
2.181916227271189200e+03
1.639922951414642966e+03
8.811599645096954418e+02
6.457090241418708274e+02
7.256183856124671365e+02
1.203897732293340823e+03
1.362500449751404631e+03
1.301391257528067854e+03
1.305552778986557314e+03
1.959095957120360708e+03
1.977064647933109427e+03
1.433459923494364830e+03
8.853028894531214519e+02
1.252598842017814604e+03
1.495363249345227814e+03
1.475587869306132006e+03
1.540405312764343762e+03
1.258893083586320245e+03
9.259694661497089783e+02
1.335051891518567686e+02
-2.885063581740341192e+02
4.805138265561438971e+01
7.672246783231067866e+02
3.480124381102236271e+02
-2.627369602349198363e+00
-3.264271320853385561e+01
-3.994049956280245084e+01
1.474947006396656377e+02
1.336292864604807278e+02
4.715471760341270056e+02
1.286216467505578521e+03
1.105568958421195248e+03
5.436216666144825922e+02
4.977543251511894482e+02
7.710571953492531065e+02
-3.525817983601805139e+01
-2.798574169401996414e+02
3.129298061117548286e+02
7.508328211743976226e+02
3.381393059956675415e+02
-1.987008131809449480e+02
-1.509674805382403520e+03
-4.522681185446271229e+03
-2.834204410137716422e+03
-1.637240375631170082e+03
-1.847608817158357397e+03
-2.068571713512747010e+03
-1.281305620055956297e+03
5.619582372438734552e+01
9.003161050450428604e+01
-2.867107386467725973e+02
1.159706203799530186e+02
5.709875320462775790e+02
6.421080015747261314e+02
8.214271783356541619e+02
9.561889109494760532e+02
9.463821488656321890e+02
3.209963272621611168e+02
-1.499836283146327531e+01
-1.135341459070361765e+02
-2.775614257252805146e+02
-4.531061948101757935e+02
-8.718939917611781709e+01
-1.767973710372777418e+02
-2.018518745560950265e+02
-6.831592893497837338e+01
-9.521803536627596998e+01
9.242928779907403225e+01
-1.253396025329221004e+02
-4.054252370552691787e+02
-3.558991552541708643e+02
2.272192351925299363e+02
4.438592154675142183e+02
2.630650942275270268e+02
6.579588367681698173e+02
8.094877621258560794e+02
4.885222865640304235e+02
5.851049291042731966e+02
5.562448039293615238e+02
1.369954833200859809e+02
-3.695894019908874384e+02
-1.134498449288580275e+02
-2.626606361814272077e+02
-9.862216550969020545e+02
-6.780773263860870657e+02
-3.891927135699435212e+02
-8.177374118795282811e+02
-7.379292568474361360e+02
-3.191908781707719456e+01
5.553273837073970753e+02
2.590883548062902264e+01
1.499360560674221574e+02
5.885220433751212568e+02
-1.154002256340493062e+02
-7.768260656291741952e+02
5.330278791326129806e+01
5.110135891207616687e+00
5.265011172609928281e+02
6.113517077976969176e+02
4.434593638380044922e+02
5.176856796054228198e+02
2.690499300104086160e+02
9.852174622120134018e+01
-1.293481845761082027e+01
-2.433169505913785429e+02
-9.148649816640955805e+02
-1.492322334265722930e+03
-2.781816705427597185e+02
-6.285323539881342185e+02
-7.778289746921186634e+02
6.895299246323793341e+02
9.258760313337036223e+02
-2.718519264574543286e+03
-2.113561754575824580e+03
3.167978353326613501e+02
1.241334582093910740e+03
1.717541439555625402e+03
1.334577098219182972e+03
1.327703415724359274e+03
1.205244940747065357e+03
9.019669249759272134e+02
7.390171408109002869e+02
9.088909890824016884e+02
7.094270378235622729e+02
4.697991595773438007e+02
4.228679503445544015e+02
7.995155723775552588e+02
5.963373096323476830e+02
5.390738982531167949e+02
8.475562228548541270e+02
1.050563821338045273e+03
1.068726706085174783e+03
1.013772529010798735e+03
1.268319062428830193e+03
1.321169842199743016e+03
1.134259035800687116e+03
1.606001792731478417e+03
1.961336488893828118e+03
1.893816560649379426e+03
1.717456084489623436e+03
1.669036101637051615e+03
1.770373765372746220e+03
1.360795134892854321e+03
5.295899331021851140e+02
6.022942287956124119e+02
7.608040227781349358e+02
9.041231289173799723e+02
8.927087810379140365e+02
6.467366998024658642e+02
9.454764802097732854e+02
1.139933649885302657e+03
1.404814268570411969e+03
1.692494557488274722e+03
2.783973448321585238e+03
2.856114520178805833e+03
2.386760644191171650e+03
2.040859415173385742e+03
1.677586392726437452e+03
1.603562541750710352e+03
1.789955372681451763e+03
1.246874592240184938e+03
1.055465282782846543e+03
1.614703655395362375e+03
2.036381193898143692e+03
5.335078112554523386e+02
-2.697695826941666382e+03
-6.983323149874978299e+03
-2.727543207687487211e+03
1.825308904532036649e+03
-6.968095189063027419e+02
-6.842857913866312629e+03
-7.648692723480758104e+03
-8.495316321725927992e+03
-7.286763073287630505e+03
-6.831005930524233008e+03
-6.642512695272119345e+03
-2.292609618163338382e+03
2.422116119212791546e+03
1.451214215301639797e+03
-5.503068573083080082e+03
-7.540054217811288254e+03
-7.646608592276325908e+03
-7.881104858051903648e+03
-7.646111094507985399e+03
-6.827678855868934079e+03
-2.940782149293627299e+03
-4.367454640017832389e+03
-7.287321395337226932e+03
-6.759348447166670667e+03
-6.492785085468876787e+03
-6.540752742209237113e+03
-7.446237271475721172e+03
-6.420296524746847354e+03
-1.316782041271524804e+03
3.810512264138814771e+03
1.662692966229073591e+03
1.114665487254662821e+03
2.409163149402915224e+03
4.197655110653581687e+03
3.876887335769903530e+03
3.825109575994706574e+03
4.082012189027650038e+03
3.669284907835738522e+03
3.109982002457955332e+03
2.703289285050038870e+03
2.665113288056483270e+03
2.813288344243811480e+03
3.085691298059800829e+03
3.313775552319727012e+03
3.375701205597705666e+03
3.529192348167791351e+03
3.039129738467419884e+03
3.016058331925657058e+03
3.046504620766530024e+03
2.683605367604490311e+03
2.742244997647454511e+03
2.448217730906103498e+03
2.084852157293935306e+03
1.860808922113826839e+03
1.676158172032025504e+03
1.953172669303923385e+03
2.185115100945436552e+03
2.717386821203975160e+03
2.788580461660375931e+03
2.486657234983327271e+03
2.365121592274425893e+03
2.542206228859075964e+03
2.554530509589669236e+03
2.142512158480261860e+03
2.214977789597514402e+03
2.502228922230111493e+03
2.239157997695403083e+03
1.852723753964151229e+03
9.809655484422434029e+02
-1.124664904872419584e+03
6.051770400767871934e+02
1.525962392434546928e+03
1.999744731607777112e+03
2.232712932330227432e+03
2.033819804977127660e+03
1.973332209052833605e+03
1.330962050236880259e+03
8.653542627556735169e+02
6.573002943765176269e+02
5.955467449689181194e+02
7.299753845406021355e+02
7.172507315308500893e+02
1.104203352956783419e+03
8.696865111147552625e+02
5.611082644474643075e+02
7.557127908344241405e+02
1.045446367407871094e+03
7.208872355725268335e+02
9.216485390498090737e+02
1.024197812863923900e+03
7.474665658325568529e+02
9.435157299298775797e+02
4.751504680310862341e+02
1.054812875154281784e+02
2.283147839944604129e+01
6.374147828641375213e+01
-1.404878569211128614e+01
-7.556705987260725976e+01
-4.968725985047402673e+02
-8.588191087898231899e+02
-7.727216321658894458e+02
-6.162682247088647500e+02
-3.559859913609037676e+02
-4.421248761584665772e+02
-3.193888083489039218e+02
-7.219684450808051679e+02
-1.565428419582229935e+03
-1.490151173998872991e+03
-1.799095353575351908e+02
1.098269819877305508e+03
1.483684080044607981e+03
1.061828736291787891e+03
1.291492173065831366e+03
1.206161734139303462e+03
8.781440724688541195e+02
2.509109632706515356e+02
1.449892019465104056e+02
2.080767994965946173e+02
5.775608802853590618e+01
-4.910715455633476267e+02
-7.696993781459663069e+02
-2.480414447547972486e+03
-5.517856121556167636e+03
-9.917217369883503125e+03
-1.087911087545676310e+04
-1.071868061231382489e+04
-7.620230649303183782e+03
-4.857473817621575449e+02
2.909334154629368641e+02
-5.104415632128590914e+03
-7.930429626533442388e+03
-8.544195921118752040e+02
6.354550637803628206e+02
-3.392138299652363003e+03
-5.165055991713162257e+03
-2.830775384957799815e+03
-9.492089869336886068e+02
-1.567310894601529014e+02
-1.285973981744733692e+02
-2.577246309978859884e+01
2.453156715884999528e+01
4.297810851569880697e+01
8.858202412280407145e+01
4.181895365484611489e+02
2.639110719455791241e+02
4.608243919014422545e+02
9.287241701804499598e+02
1.020467915184955245e+03
1.036255628188786886e+03
1.059947875982252071e+03
1.376940454084404337e+03
1.447864289199933637e+03
9.729026215640145665e+02
6.765336697951802307e+02
6.305423837291946256e+02
2.846499844929215328e+02
4.333817832933431760e+02
6.023709378981305917e+02
2.142462538566604167e+02
-2.449577563036659171e+02
4.818176604694123455e+01
8.245710104398897045e+01
2.332570781304243610e+02
8.382961500575974867e+01
7.433763789556201118e+01
2.918535190405363551e+02
1.347399215762484062e+02
-3.539382203231698441e+02
-1.312355617405445116e+02
-5.311095975820584414e+01
-4.294419433853270363e+01
-2.935938221834935575e+02
1.556559465393424091e+02
4.747973743485001705e+02
6.040108909622355213e+02
5.259707928338158354e+02
1.489955976003587921e+03
2.787764432238262543e+03
2.681041423891292197e+03
7.385556953215639169e+02
-1.191468652543626831e+03
-2.460899810052088469e+03
-2.903220650297515022e+03
-3.052652776431094480e+03
-3.505018817027810201e+03
-3.152763985534895255e+03
-2.049348068715878981e+03
1.027271145742162389e+03
4.714780556617060938e+03
6.939325010420926446e+03
7.382006134695602668e+03
7.053426336485101274e+03
6.343378414493900891e+03
5.071850974302174109e+03
3.989502442656539642e+03
3.245563655608650151e+03
-1.021135402407214428e+03
-3.623764020472340690e+03
-7.958858876346240550e+02
8.738968147272723286e+01
-4.035585153999226122e+02
-3.948229283491961041e+02
-1.259064504852785376e+03
-6.454150927435626727e+03
-9.435773110292353522e+03
-7.518293612504588964e+03
-5.979363234811246002e+03
-3.913328589651230232e+03
-2.967790800245879836e+03
-5.776817513028716348e+03
-6.789606339240110174e+03
-3.235097381066083472e+03
2.947875657018571474e+03
8.377535297990473282e+02
-3.254390904339250596e+02
2.346056730927012723e+03
3.258034454309718058e+03
3.259377177868148010e+03
-1.905989390200381422e+03
-3.545002682073021788e+03
4.453389191099035997e+03
7.783128252978669479e+03
7.508128297318845398e+03
2.624128760407724599e+02
-2.646780799558146100e+03
-4.398348098348564235e+03
-5.537005342345348254e+03
-1.076705526328090627e+03
4.195711363254865319e+03
4.947090131751609078e+03
6.416642282091280322e+03
7.254968025390350704e+03
7.286751251785393833e+03
4.841702955779079275e+03
3.142547889372511236e+03
1.730163144159095964e+03
2.221253124143651348e+03
3.486881246764483876e+03
-2.077441475664082645e+03
-4.963717485316248712e+03
-5.372842472014101986e+03
-4.815317163659440666e+03
-7.855146394851700279e+03
-4.315731223391768253e+03
-9.719219639673167421e+02
4.518518442837885374e+01
7.367579300155617261e+01
-9.112289163472167957e+02
1.613141916450000735e+03
-3.782599412683759397e+02
-1.528011365215339538e+03
-1.659389959666164486e+03
-2.549351830163386126e+02
1.231116345129108367e+03
1.859985661938054136e+03
2.747579887013335792e+03
5.875887951789502040e+03
9.779293375079045290e+03
1.313578662173181692e+04
1.129259927994645477e+04
7.534784656321870898e+03
3.893938704543612857e+03
2.337369216546879670e+03
-6.935584935395967250e+02
-5.428135042487858300e+03
-1.160403973146539465e+04
-1.353824400098941624e+04
-8.339963473294097639e+03
-5.194048638214646417e+03
-8.730953978067202115e+03
-1.150835637555191715e+04
-5.568832200084854776e+03
4.497136470369242488e+03
1.078387293348771345e+04
9.813387214083446452e+03
8.257265320640024584e+03
7.676673963067168188e+03
6.376189250963942868e+03
8.912120454829680966e+03
1.147070286131902139e+04
1.250895989130411908e+04
1.177886665872479352e+04
1.010243930347005335e+04
6.691934031417004917e+03
4.006963056254451658e+03
2.743878392606834041e+03
1.499317375807901726e+03
-2.549299021877338873e+03
-1.178875925098342486e+04
-1.725432409105182887e+04
-1.499543423863487078e+04
-7.797328415942037282e+03
-3.301283150825848224e+03
-2.970274080560888251e+03
-2.297983370155362991e+03
6.904897942665801338e+02
2.331955781848468177e+03
1.225344908075728654e+03
-2.106265040599417262e+03
1.851832719864263765e+02
4.220181566438796835e+03
5.110446340511079143e+03
5.778137941795564984e+03
1.429047785880718038e+04
3.023352412185349021e+04
3.819973429743893939e+04
3.128938711592344771e+04
1.921928396151624111e+04
6.523538470354399578e+03
-8.995646080864197529e+02
-9.533924757794013203e+03
-1.748560978846036596e+04
-2.444661556750046657e+04
-2.848294879942066473e+04
-2.600671188926216200e+04
-2.490479855310467974e+04
-3.115604299222996269e+04
-3.592443977385576000e+04
-3.411496153021860664e+04
-2.639951628522749161e+04
-1.986502278920814206e+04
-2.450954460909646150e+04
-3.577605089667168068e+04
-3.820440380779776024e+04
-2.422759525461302110e+04
3.487663160170191532e+03
1.203775949921115716e+04
4.552138592642687058e+02
-1.524777361700327310e+04
-1.777850317214126335e+04
-6.711366909844998190e+03
-4.935594247887026540e+03
-6.565359575332313398e+03
1.748451138912963643e+03
8.964071275637294093e+03
1.509754337491626393e+04
2.655691814212682220e+04
3.156735446092585335e+04
3.638686569927902747e+04
4.463033851395042439e+04
3.011903301156880843e+04
1.287702677515696996e+04
6.533237712892280797e+03
5.960768146873392652e+03
-1.348324553190958795e+03
-5.032033746463774150e+03
5.400723003712641912e+03
4.855055661020965999e+03
3.202350186892896033e+01
9.835674667624991343e+03
2.690911319848854328e+04
4.290743603485990752e+04
4.564568047572721116e+04
3.474692816918851895e+04
1.950622182611038806e+04
1.639159850382970399e+04
2.253515542390912015e+04
2.121610451163071048e+04
-3.796541991219267857e+03
-2.624488438018390298e+04
-2.202185556155489394e+04
-3.803411997922744376e+03
1.137052762152484320e+04
1.034405871233964353e+04
1.242918439076694267e+04
1.428789923261226795e+04
6.111179524551454961e+03
2.007036245074728640e+03
-6.361429220627508585e+03
-9.366169933170434888e+03
-8.335126389659866618e+03
-1.446226034890570190e+03
1.519963716615331941e+04
1.793048088591866690e+04
5.113474726239672918e+02
-2.354767926034808988e+04
-4.497951564660650183e+04
-4.755710168413034989e+04
-3.049330030379048912e+04
2.367962903975391328e+03
2.071989366899882225e+04
2.830727414234605749e+04
3.427352514742044150e+04
2.630850467562353515e+04
4.138708671047045755e+03
2.487637328546840763e+03
5.664783803256797000e+03
4.178436352288261332e+03
-4.671768101681668099e+02
2.115773406061744936e+03
1.979154327498952989e+04
1.143146645400890338e+04
-1.311555849659719388e+04
-3.752258008740421792e+04
-4.394757362662012019e+04
-3.613555735520107555e+04
-2.847453671062407011e+04
-1.019845189315562857e+04
1.323976599323643859e+04
1.286113812665961086e+04
-3.024330685563133375e+04
-4.145745621419035160e+04
-1.480530036937004661e+04
-1.193981622501577294e+04
-5.460937047961273493e+03
1.494538826109659567e+04
1.812322388681132361e+04
2.356564590713339840e+03
-1.554848212165074619e+04
-1.711480165563076298e+04
7.916627953218294351e+03
3.611582287794586591e+04
3.663785545213102887e+04
1.762273370226921907e+04
2.196498502190601812e+03
-2.210782760386460723e+03
-2.091050337093886810e+03
9.755685804566417573e+03
1.667949841318391918e+04
1.551542751951527862e+04
1.635255895174937541e+04
1.831294568455889021e+04
1.237364461726595255e+04
-9.241302401540708161e+03
-2.395784000231917162e+04
-2.734195863264704531e+04
-3.762160756960602885e+04
-6.446171588050448190e+04
-7.462918127009067393e+04
-4.305501826980861370e+04
-1.457224193458456102e+04
1.713027208155249900e+04
3.453562672067771928e+04
2.523775002762571967e+04
2.235560640523575057e+04
3.104733898215376394e+04
3.230616329078923445e+04
2.172012593668088812e+04
1.480629318428664737e+04
1.848469003400661677e+04
1.201727956614558934e+04
-3.948904719447774823e+03
-1.660877954772721569e+04
-3.052939086422586479e+04
-3.927193233508041158e+04
-1.804445817099595297e+04
1.103212281606019860e+04
1.362591066070598390e+04
1.476903806632291526e+04
1.627961646728885535e+04
1.381675430522999886e+04
1.465145093932634154e+04
1.364167250576198239e+04
9.779725439686946629e+03
1.172882820290713062e+04
1.543661576971141403e+04
1.003584055631250521e+04
2.386183814069341679e+03
5.944705081096724086e+01
-1.635675293154343763e+03
-3.723726906468283687e+03
-6.843315432168426923e+03
-1.747590141379844135e+04
-2.244530195035628640e+04
-8.071518552248380729e+03
9.240357427188226211e+03
1.512472545578136305e+04
9.443547552369313053e+03
4.925441660695712017e+03
6.332051182845753829e+03
9.610071101872319559e+03
1.060241770702650319e+04
9.453893750282237306e+03
7.128772696171424286e+03
4.243768225824241199e+03
1.455110708146087063e+03
-6.144295616424616355e+02
-3.059708418708427871e+03
-6.936481021631820113e+03
-1.121769952576850665e+04
-1.279583254630045485e+04
-1.234383689639428849e+04
-7.148620555559573404e+03
6.628529898261948574e+02
-1.069245660043591641e+02
-2.732167623218160770e+03
-2.794585580964062501e+03
-8.303356641790396679e+03
-4.602471071305218175e+03
-3.219484925107456547e+03
-5.461431327991003855e+03
4.615161572887486727e+03
1.505708414561557402e+04
1.575445962099330609e+04
1.026930432502650183e+04
3.696071454144402196e+03
-2.926598756195140595e+03
-2.864948109833778744e+03
-2.248131189471822381e+03
-6.591949455650093114e+03
-9.321010187388961640e+03
-1.259543289389796337e+04
-1.605831533561655488e+04
-1.747324464716332659e+04
-8.848266726756046410e+03
2.134185060625820824e+03
8.833220902159813704e+03
1.448273048077591557e+04
1.369753517187747821e+04
1.018141952089546430e+04
1.048025749991634075e+04
1.015298923506047322e+04
7.827460821205946559e+03
8.397383671935702296e+03
7.282524799842103675e+03
4.920753834521824501e+03
4.905287721486710325e+03
6.421162357681773756e+03
8.021645040267625518e+03
6.386377849510930901e+03
2.182530046763355926e+02
-1.294476419760887609e+02
-2.826357172553686610e+02
-3.424701769498380600e+03
6.046422627931261786e+02
1.324303010140135257e+03
1.427703290768346051e+03
8.272912892639581628e+01
-4.168483674131770385e+03
-2.693565755314165926e+03
-4.955162701713736055e+02
-2.902968190661221342e+03
-2.450950191161704424e+03
-3.633604489280911366e+03
-6.134022508115160235e+03
-8.117653061484060345e+03
-6.588678238526523273e+03
-4.990149127149977176e+03
-2.848029238292392620e+03
2.761646495786954802e+03
6.751903079936729227e+03
8.159624475331143003e+03
6.328640274942006727e+03
2.296826564518463783e+03
1.605340586569247989e+03
-9.573833544506734370e+02
4.954359313796203423e+03
6.842878214171427317e+03
5.370554722824584132e+03
4.073313503005276289e+03
6.139296422360114775e+03
6.878343988448459640e+03
4.873098293265544271e+03
1.355461801755519900e+03
-2.126453993797606472e+03
-5.943495153102447148e+03
-3.990230792244438362e+03
-6.192062656899948706e+03
-6.982950088606172358e+03
-5.983989242126594945e+03
-3.829939952221368458e+03
5.363270459857876631e+03
5.738909363402234703e+03
3.295036488655382072e+03
8.831915833126145117e+02
1.277565856592310411e+03
2.837851257401136536e+03
3.330206036666603268e+03
4.046666594050584990e+03
4.359192899315980867e+03
3.142556509240190280e+03
2.091142334013251002e+03
2.085929790250107544e+03
1.661405146810833457e+03
1.205482537920832783e+03
1.131605966096277143e+03
9.910688545398924134e+02
-3.412569622169949071e+02
-2.055578611252829432e+03
-3.642329918730500594e+03
-6.624087748615111195e+03
-7.811361666180509019e+03
-6.315714439430851598e+03
-7.935091703224716184e+03
-8.448978052832242611e+03
1.041500570306232589e+02
4.477392953280691472e+03
5.511676447782169816e+03
3.620492470613458408e+03
1.271056589574395048e+03
8.844726450098235091e+02
3.816888841642625039e+02
-2.254539563672398401e+02
7.374602053908095058e+02
1.205723388193209757e+03
-1.827351684768782434e+02
3.197332652873353140e+02
1.114141217734984139e+03
6.578789408861974835e+02
9.183418515101537878e+02
5.471611413321679720e+02
-1.020082088384371275e+02
-6.512654371666424140e+02
-1.066699619285653853e+03
-1.062561732735401620e+03
-2.016583592350536264e+03
-2.603930246756306587e+03
-2.543352722344764061e+03
-2.644040242239473173e+03
-2.571069837184317294e+03
-2.702198328757113813e+03
-3.665788454574748357e+03
-4.388531920807844472e+03
-2.569127059885185190e+03
-7.309656695430630862e+02
-4.509260977053476154e+02
-2.726884614746063562e+02
4.295422293813506087e+01
2.067310191406726290e+02
3.405615819544509577e+02
7.206383613388926506e+02
1.994826049810392533e+03
2.891239805854080259e+03
2.677779710670157328e+03
2.193370959219041197e+03
2.207552213743255834e+03
1.996052244855114168e+03
1.682642807955410035e+03
1.586828596068549132e+03
1.448752737125487329e+03
1.326420639669226375e+03
1.397655007895517429e+03
1.418411798280953008e+03
1.780039832623646817e+03
1.595417042456521131e+03
-5.202022046597616054e+02
-3.649428024708313387e+03
-8.521492560348286133e+03
-8.184758683208259754e+03
-6.681158016385244082e+03
-6.702373630970013437e+03
-6.194968868175259558e+03
-6.802348857953264996e+03
-2.335698049397022714e+03
3.442512376500020764e+03
2.650579484968586712e+03
-2.011966353127038019e+03
-2.124369752597514889e+03
3.723218516229222246e+02
2.368816383913460413e+03
3.831858555248996254e+03
4.054481728945022496e+03
3.707445417488669591e+03
3.436606120566077152e+03
3.404998026631185894e+03
3.041853651432252718e+03
2.699805680715578092e+03
2.718695865154804778e+03
2.613678287211572297e+03
2.538676756975775788e+03
2.386190676742858159e+03
2.173187954815828107e+03
2.155713231284097674e+03
1.738809390939234390e+03
1.854842131689859116e+03
2.304370952304065668e+03
2.596449478335503954e+03
2.743797353420019590e+03
2.893709721990700928e+03
3.046083023204173514e+03
3.223709690868945017e+03
3.078700082099408519e+03
2.862265245888431764e+03
2.571512808907708404e+03
2.313662164301471421e+03
2.021625819208470830e+03
1.854026915519789554e+03
1.843830530319082982e+03
2.253918259233807021e+03
2.276950039795125576e+03
1.942386609274645025e+03
1.722126157084454917e+03
1.357675303999334119e+03
1.159766930230430944e+03
1.375010170925217835e+03
1.572450607526687008e+03
8.616364553218450055e+02
9.111374993827168964e+02
1.557040860281056212e+03
1.966045474081578277e+03
2.004358334177225515e+03
2.037690657759932265e+03
2.151979579163939434e+03
1.741682209319901858e+03
1.810870617018346138e+03
2.331426149603577414e+03
2.092446456924750692e+03
1.229736073200496776e+03
1.653060336462044688e+03
2.023866558808826539e+03
1.962613073385201233e+03
2.213943639599476683e+03
2.486355427529756980e+03
2.046708736215595991e+03
1.945697886094310888e+03
2.258400370533186106e+03
2.736764679021095617e+03
2.650056430597157942e+03
1.608021517988166352e+03
-5.522596878187399625e+02
2.538167366147219752e+02
1.742656110566403640e+03
-2.094041130250485821e+03
1.038496358603446879e+03
2.288616505691132716e+03
-2.115142321841291505e+03
-7.376837289112831058e+03
-7.462310906215853720e+03
-9.216448381773685469e+03
-8.990575510406968533e+03
-7.833062021798383284e+03
-8.763529314748340767e+03
-8.899524860478308256e+03
-8.335434783147422422e+03
-7.750392475683239354e+03
-7.888324821776548561e+03
-6.835721035567910803e+03
-6.198915515085527659e+03
-3.681761926920088627e+03
2.178905277072346507e+03
4.741110152315060986e+03
4.888977312207325667e+03
4.904540421317070468e+03
4.554739379894668673e+03
4.297608927063467490e+03
1.203256764099686279e+03
-3.901208898937346930e+03
-6.190984082958009822e+03
-6.863214055388922134e+03
-6.556356705188573869e+03
-6.309834121973927722e+03
-6.311101362835401233e+03
-5.857012074143058271e+03
-6.271755895355911889e+03
-6.547873688421454062e+03
-5.901339552191428766e+02
4.087541310386502573e+03
3.297432739764638882e+03
-2.284532237875932310e+02
-1.643882158557495927e+02
2.145228365349781143e+03
4.231895184683100524e+03
4.391762339314769633e+03
4.409948820922258165e+03
4.365971335383933365e+03
3.855776433820024067e+03
3.023772403336091884e+03
2.179891034224106988e+03
-1.194855560801750471e+03
7.436192427374139697e+02
2.527231925734877677e+03
4.010091154010922310e+03
3.791779257628027153e+03
3.745522136281123494e+03
3.442245411542546663e+03
3.277366031145858869e+03
3.212063719447622134e+03
3.077009601600900623e+03
2.675288693785915257e+03
2.612104072037098831e+03
2.588303274309882909e+03
2.644014855452683150e+03
1.717343693253073980e+03
-4.458481895174740544e+02
1.317287261277086145e+03
1.599712278495192777e+03
-3.043361546015663066e+02
7.675095685004635016e+00
2.302974412352265006e+02
2.856455962458016984e+02
4.629340406560529573e+02
1.495455715757639155e+02
1.796412817604768861e+02
4.140927667001759005e+02
4.424663336789300274e+02
3.053144210663252238e+02
1.909246677581813003e+02
-1.968729920646431992e+02
-3.087021960255343060e+02
1.323019486225705350e+02
1.492707209494146241e+02
5.130437666737864078e+01
-6.358891699616589221e+01
-2.845604594894596744e+02
-1.425674963178026076e+02
-4.773575556097181050e+01
-4.294274525621008820e+02
-8.216046476851983016e+02
-8.861281451244483378e+02
-1.222743927754109336e+03
-1.416299579233796067e+03
-1.253609948049898776e+03
-1.264342769619621322e+03
-1.014165796546097113e+03
-6.580336972930211914e+02
-6.316295853969953669e+02
-5.958959465445954038e+02
-4.281081817878123843e+02
-3.711341236622470205e+02
-7.106562778056252228e+02
-7.414852721113768439e+02
9.250658787192219279e+01
9.004671348575494676e+02
7.739655397413729361e+02
8.545545096268425311e+01
-5.551167285660916377e+02
-5.639459727323982179e+02
-4.850881243827792559e+02
-5.740797073973459419e+02
-6.693380798891359973e+02
-3.316243999457470295e+02
-1.918258812728585667e+02
-1.400908461874773252e+02
-1.054720263036332710e+02
2.421344297506361443e+02
5.137349663752463584e+02
7.473943189623270200e+02
7.743153338136069124e+02
9.965628984557388321e+02
7.321061391704737389e+02
6.450257124711592951e+02
9.193462844104466285e+02
5.120885546863961508e+02
2.453750725896818210e+02
3.233778387390123044e+02
1.915475822903876235e+01
4.587304408914308738e+02
5.821484134974571134e+02
8.664190397050007277e+02
1.167628922054409259e+03
1.093932254367607811e+03
6.032372208147542096e+02
-1.692311952840946390e+02
6.407363688339873988e+02
8.974222538448514115e+02
1.108117518553259060e+03
1.100942487985570096e+03
1.837780011459331263e+03
1.520706250619897219e+03
1.441745078856548389e+03
7.697903553815556279e+02
2.489873389572767337e+01
-4.316892017097589473e+02
1.309902510368068988e+03
1.105580638744583439e+03
6.374608454196841194e+02
-4.448436716125759460e+01
-4.262070669465288120e+02
-1.336204179801246710e+02
1.132304393046827727e+03
2.379597468570140791e+03
1.826222900102856784e+03
1.005262476669147077e+03
7.037051094292718290e+02
5.465001167358130942e+02
6.616965704168624143e+02
1.268398549587749585e+03
1.538641446015167503e+03
1.898453370400714448e+03
2.221783183876229032e+03
2.800407615837398225e+03
2.689329711269791005e+03
2.151685089941424849e+03
2.102460894279227432e+03
1.975619501430740911e+03
1.267152418382191172e+03
4.250489631566289859e+02
-6.767369369384968536e+01
1.548626710403177924e+02
4.766419348696496172e+01
4.338029642554341194e+02
9.472924978013263626e+02
9.271254244074444841e+02
7.613045702424943784e+02
2.585926675788305218e+01
-2.322502526951052459e+01
3.870179744858426716e+02
1.104560036056419221e+03
9.813996966737777257e+02
1.015559491970993349e+03
1.587903693189575506e+03
4.203868629532856289e+02
-1.819408123315946000e+02
2.254002957681707642e+02
3.058122007128271775e+02
8.786791049963228772e+01
1.385382200925257166e+03
1.898400876346818450e+03
3.809264876471992238e+02
1.170896288492750728e+02
1.133672363681677325e+03
9.460266343727754474e+02
4.441756219003118531e+02
4.804849761234510197e+02
-5.448716159408584190e+02
-1.611047518118656853e+03
-4.453801788753701203e+02
1.801286829761407716e+03
2.093779926391101071e+03
1.645059005387252910e+03
1.982100207023856456e+03
2.276905157587188114e+03
1.710472998636687407e+03
8.697575297818547142e+02
-2.336029319222724254e+01
-1.595885614391960644e+03
-5.265815905416928217e+03
-5.936204624446683738e+03
-1.869079164903658693e+03
1.507559627386484408e+03
1.293640518752511525e+03
7.310971025671093457e+02
9.978980716179308956e+02
9.670107546196799149e+02
1.280444698072202982e+03
1.141133740113383055e+03
1.052039770432454361e+03
4.621291712116345707e+02
-3.185570545676115216e+03
-2.591081928754607361e+03
1.169541128417063874e+03
1.157286835935055024e+03
1.101064275429150030e+03
1.953836804788511927e+03
2.244576794162714123e+03
1.932193240827588852e+03
2.336524918525461487e+02
-1.585999738770710564e+03
-1.334842563001968983e+03
-4.398549441021991697e+02
-2.801100674730614628e+02
-5.326746429020471396e+02
-4.475640504792420984e+02
-1.070757747909046202e+03
-2.702351034854213140e+03
-3.864408160687493819e+03
-2.723918548854841447e+03
-4.378880008794683931e+02
6.096255947870175760e+02
1.281589611619522202e+03
2.578049446006062226e+03
3.774937728361804602e+03
3.454161672181223366e+03
2.642741575635935533e+03
-1.571322416306070863e+03
-1.005156275193176384e+03
1.157198946970816451e+03
1.503749471833408279e+03
1.671507291041569943e+03
1.967369338375000098e+03
1.860353284556493918e+03
1.813450957499469496e+03
1.868631705514087798e+03
1.215797284596880900e+03
2.349652279150863023e+02
-1.911927329571994051e+03
3.202078863115445984e+02
9.831414517508322888e+02
4.701898496127806197e+02
6.519039117902510725e+02
1.691030465543363562e+03
1.120114637238986688e+03
-1.385506272024138852e+01
1.816365611339806492e+02
5.616006700085371222e+02
7.584955363171309273e+02
2.363793209081888449e+02
-1.617608098741149263e+02
-7.461289495771013947e+01
-1.062158269780696855e+02
-2.536843583205648258e+02
8.068760783732951722e+02
1.722550608501134093e+03
1.266254428065019965e+03
1.273063660145195627e+03
1.656126116554266446e+03
1.049698629518202324e+03
1.107618335966994664e+03
1.395921344278663810e+03
1.464655499252454774e+03
1.467197959707772952e+03
9.969782128032005630e+02
8.518189629872149453e+02
5.844045109327339560e+02
8.707438954725545273e+02
1.400145047068270060e+03
1.408558949808114903e+03
1.203943413161525086e+03
9.633099283069010426e+02
9.026658221480990960e+02
1.029034876412345511e+03
6.855022243565551889e+02
1.558247519689962601e+01
-5.127270020210002031e+02
-6.059003306948367396e+01
4.528544768233443847e+02
8.081216740174596680e+02
1.098148311195370297e+03
9.226477419316427131e+02
7.407007988404551497e+02
4.253353030536935080e+02
3.396801773858554157e+02
3.567450079464206851e+02
5.265482313584961958e+02
-2.278774946066920677e+02
-7.753287716094740745e+02
-7.062026213825597551e+02
-7.675398589616917207e+02
-1.020317610446725439e+03
-3.337559017476509382e+01
9.573048674702345124e+02
1.832764909326629777e+03
1.895995271573695618e+03
1.066008737782887238e+03
5.478636669900050720e+02
1.815902741696690725e+02
5.072149751366698638e+02
7.877478827793038363e+02
