4.510837786572518962e+04
4.280093659960431251e+04
3.835874860214971704e+04
3.208315572700959456e+04
2.460929127311555567e+04
1.710711975560945939e+04
1.076664750925331646e+04
3.242500349449505393e+03
-8.162709943129449130e+03
-2.160862605200088365e+04
-3.447510650036221341e+04
-4.630704639379434957e+04
-5.497466364868359960e+04
-6.211036813475222152e+04
-6.789657684628595598e+04
-7.324278993934669415e+04
-7.779873350388379185e+04
-8.515012718956642493e+04
-8.682884636849306116e+04
-8.307895808616362046e+04
-8.338504377937600657e+04
-8.628952967000547505e+04
-9.147597611954639433e+04
-9.794198398420926242e+04
-1.053412909001891385e+05
-1.065117544015432795e+05
-1.084226091134890012e+05
-1.100099786308630864e+05
-1.113523931846704945e+05
-1.127972731427900289e+05
-1.122578993106651906e+05
-1.102866743666468246e+05
-1.090674271021798340e+05
-1.059019350290062139e+05
-1.031298738517835154e+05
-1.018350882117968140e+05
-9.893066316394149908e+04
-9.376461046031644219e+04
-8.896000576392201765e+04
-8.568495336223267077e+04
-8.324672942684656300e+04
-8.010964351753512165e+04
-7.739012140542252746e+04
-7.384743154064657574e+04
-6.943588954966954770e+04
-6.502692072585561255e+04
-6.227609203572622937e+04
-5.938690048908951576e+04
-5.604390380464572809e+04
-5.321474318374932773e+04
-4.909512726745607506e+04
-4.540271608593755809e+04
-4.209006998583989480e+04
-3.700481632342395460e+04
-3.374954655724905024e+04
-3.010468562287982422e+04
-2.531880831468504402e+04
-2.195845822271132056e+04
-1.778407735069498449e+04
-1.405609358496173627e+04
-1.132317726686803326e+04
-9.075647143923913973e+03
-4.817690344904169251e+03
-1.677551911120066279e+03
7.556192630887093173e+02
3.294542812423067971e+03
4.362859269216408393e+03
6.093634360232854306e+03
8.030816004749819513e+03
1.032230996318315920e+04
1.363333018608315979e+04
1.510225834124281027e+04
1.520272165933459110e+04
1.629381408855924565e+04
1.800086235467862207e+04
1.933165685994933301e+04
2.025096056875574141e+04
2.091955872085399096e+04
2.182509564103177036e+04
2.177921332738915953e+04
2.189692161527463395e+04
2.159021612050352269e+04
2.054401287575630704e+04
1.993830277338487213e+04
1.910765869245076465e+04
1.816606717596740054e+04
1.755627645997254149e+04
1.720485755001451616e+04
1.654413978888716883e+04
1.363015982454200821e+04
8.966181382937491435e+03
5.899603726325422940e+03
5.041878729063436367e+03
4.804510210880857812e+03
4.665282841160336829e+03
4.051040859447115054e+03
2.740455251408206550e+03
1.632892842522061983e+03
1.850029370302390589e+03
2.453898139142699620e+03
3.028650129637066129e+03
2.653511490789393520e+03
-4.070164716246167131e+02
-6.207655663073535834e+03
-1.134992653061286182e+04
-1.225422992518833234e+04
-8.238259601844914869e+03
-2.165095390636012780e+03
1.728387651140488288e+03
3.949012382191437609e+03
4.550810196076423381e+03
5.367378363949982486e+03
5.799343846521197520e+03
4.347268976690093041e+03
3.990964832463020230e+03
2.907084596726951986e+03
1.759553466198034130e+03
2.565997181405291940e+03
3.385929607864716672e+03
3.671458371565006928e+03
2.941365262425881156e+03
7.989655681538872614e+02
-1.807356048526974291e+03
-3.111267789718754102e+03
-1.131541187669361989e+03
1.511951058029783781e+03
2.558500450998067663e+03
1.431014638085622209e+03
-4.151624103513447039e+01
5.118236446703451179e+02
9.181888283192773770e+02
-1.177956941962746214e+03
-2.026216078810305135e+03
-4.547596440164944056e+02
2.519387213658487781e+03
4.526688053240599402e+03
4.288160380858645112e+03
4.933428020784253022e+03
7.603913445196164503e+03
1.046875998969040847e+04
1.242362756011475722e+04
1.384872715687757773e+04
1.672644147000058365e+04
1.911986602168098034e+04
2.135222391820056146e+04
2.280137150192428089e+04
2.367861387017140441e+04
2.457011226693385470e+04
2.808125692830853222e+04
3.289826037624047603e+04
3.572221401254614466e+04
3.516360882049204520e+04
3.485332762719783204e+04
3.242289115660410971e+04
3.140307487619477979e+04
3.344034602430558880e+04
3.465348387231530069e+04
3.499273127561424917e+04
3.571808534491722821e+04
3.676235885247628903e+04
3.770021207462082384e+04
3.719904986076323985e+04
3.601791255984249437e+04
3.649168813220621814e+04
3.785145840386511554e+04
3.823503248523444927e+04
3.844447450061931158e+04
3.863270032484789408e+04
3.853692427919781039e+04
3.803925434574697283e+04
3.692894439001601131e+04
3.615833274578776036e+04
3.539950511758239736e+04
3.382696191501860449e+04
3.252020931501236919e+04
3.105346567264386613e+04
2.948359214793431966e+04
2.795791964256945357e+04
2.630939820998581126e+04
2.555289492221169348e+04
2.560828438479146280e+04
2.486217820310378738e+04
2.407144988965989978e+04
2.361540644801790404e+04
2.342802406579554008e+04
2.285842504733104943e+04
2.048653819272973124e+04
1.736478436907128707e+04
1.452516774157606051e+04
1.246911593121002625e+04
1.190587381962738800e+04
1.187036065961632085e+04
1.098075913014937214e+04
9.853769636082073703e+03
8.060833207999008664e+03
7.253099893961912130e+03
6.812279408347596473e+03
5.682988517210817008e+03
4.014966024701468541e+03
2.527867838226938602e+03
1.413047838521818221e+03
-3.582581190240392743e+02
-2.777385274995156124e+03
-5.300002879614943595e+03
-7.023670768609506922e+03
-7.980991162718975829e+03
-1.212238811126341352e+04
-1.079221195583138069e+04
-6.483294990142822826e+03
-8.819717980359726425e+03
-1.399342680390466012e+04
-1.286182751541087055e+04
-1.295636851122598273e+04
-1.411020858629759641e+04
-1.476119019525719341e+04
-1.745671753705514857e+04
-2.393928268587515777e+04
-2.603342863662862874e+04
-2.392204385597580767e+04
-2.461433637371260920e+04
-2.885712491183016027e+04
-2.684509710382042613e+04
-2.408617296006909601e+04
-2.507275678948430141e+04
-2.566209689205241739e+04
-2.591812199668909670e+04
-2.784568556638006703e+04
-2.580642538168619285e+04
-2.576899419682362350e+04
-2.628600826340511048e+04
-2.727999808140567256e+04
-2.907818159351096256e+04
-3.058898738876329662e+04
-3.145773582698941027e+04
-3.091382791303162594e+04
-2.976571048066868389e+04
-2.882880679121881258e+04
-2.912770447275677725e+04
-2.869272846227777700e+04
-2.789887008496260387e+04
-2.743613707835727473e+04
-2.663862825569998677e+04
-2.713508629480441596e+04
-2.833041663193704153e+04
-3.063517688382247798e+04
-3.265585019336176629e+04
-3.318088079413284140e+04
-3.329154784064509295e+04
-3.316510997898680216e+04
-3.331204508762963815e+04
-3.373868858620506217e+04
-3.388827230651317223e+04
-3.346225009675900947e+04
-3.324408421704868670e+04
-3.231021640272881996e+04
-3.060302524906262261e+04
-2.834689050084837800e+04
-2.826725435702496179e+04
-2.908356728176959950e+04
-2.958918599528076811e+04
-3.011048301741263276e+04
-3.010458234817747871e+04
-2.956771354566189257e+04
-2.936320274897632771e+04
-2.824330116813696441e+04
-2.734401126443763860e+04
-2.712244792348463307e+04
-2.566395437966431928e+04
-2.411892628536094344e+04
-2.313700273288764947e+04
-2.253693752404367842e+04
-2.096333593270224083e+04
-2.113868874807062821e+04
-2.066141864212676228e+04
-1.976713578150425747e+04
-1.803302131137644028e+04
-1.642016615302949867e+04
-1.653305385557623595e+04
-1.691198757294082679e+04
-1.657608597043700865e+04
-1.487311740555686993e+04
-1.161584271608580093e+04
-9.530562006978989302e+03
-9.181085511163968476e+03
-9.713264149448430544e+03
-9.559857511388276180e+03
-9.641611354039618163e+03
-8.955518431798695019e+03
-8.122586743401443528e+03
-7.354760213175750323e+03
-5.713101683056932416e+03
-2.654471381359654970e+03
-1.257422690421384459e+02
2.748092968412268533e+02
-2.021404673643258150e+02
1.171420717582572024e+03
2.948426568430205407e+03
4.458704627110293586e+03
6.337922882909961118e+03
7.725899509645294529e+03
1.005438190595204287e+04
1.281314743215981616e+04
1.446296320238056978e+04
1.666064634999301052e+04
1.869580559547587109e+04
2.069998833862542597e+04
2.224784144267386728e+04
2.379391198255791460e+04
2.589179725980718285e+04
2.666603484291695713e+04
2.707808871244092370e+04
2.648161646391912655e+04
2.603506324423466504e+04
2.874080213721953623e+04
3.228544339553607279e+04
3.376034439310438756e+04
3.208189240930713277e+04
3.207159060792312812e+04
3.285992598523203924e+04
3.325615402147429995e+04
3.416268637398503779e+04
3.584290913243268733e+04
3.585510133828719700e+04
3.573157765844007372e+04
3.612456677918103378e+04
3.475237941223565576e+04
3.134839065036203829e+04
2.937471639745509674e+04
3.158242928980258512e+04
3.055547965113836472e+04
2.805984516817983967e+04
2.668172399453246180e+04
2.624531345660537045e+04
2.576078906709259900e+04
2.526146866224087717e+04
2.469672932719165692e+04
2.520595706184671508e+04
2.395344425364289054e+04
2.163340801649693822e+04
1.978219353009439874e+04
1.809012863810420458e+04
1.638061938485284372e+04
1.414810665410839283e+04
1.247300544149821872e+04
1.035754635508777574e+04
7.304961821914160282e+03
5.168814504342186410e+03
3.503662473433977993e+03
1.149851398784420780e+03
-8.913542925299975650e+02
-3.095616963689712975e+03
-5.702618336731419731e+03
-8.181841178696811767e+03
-1.117476324620133164e+04
-1.415092876802301726e+04
-1.703400105982244349e+04
-2.001363233074748132e+04
-2.377745997758510930e+04
-2.637684650336557388e+04
-2.670593575956932182e+04
-2.691386582341121539e+04
-2.755805739565735712e+04
-2.884724337455301065e+04
-2.960925677791701310e+04
-3.176374368393302575e+04
-3.410499848236489925e+04
-3.740234202824599924e+04
-4.188307941806583403e+04
-4.482278713417928520e+04
-4.621072812816714577e+04
-4.709594198468547256e+04
-4.589776064844521170e+04
-4.453629943651782378e+04
-4.557176113638659444e+04
-4.610150602548429742e+04
-4.565367326686303568e+04
-4.428139416077140777e+04
-4.309276391832300578e+04
-4.291372689664345671e+04
-4.202031619909032452e+04
-4.137459233420852252e+04
-4.215685612947189657e+04
-4.286111790279037814e+04
-4.266727376784740773e+04
-4.178720048506637249e+04
-4.131985321225354710e+04
-4.140530451461212215e+04
-3.991853739229158964e+04
-3.912030062589944282e+04
-3.765646325844195962e+04
-3.478503639089193166e+04
-3.207506869379059572e+04
-3.029538361103947318e+04
-2.963057278798222978e+04
-2.992953910405597708e+04
-2.969728914191995500e+04
-2.804862857796884782e+04
-2.707744842493048782e+04
-2.537458815452846102e+04
-2.398185874027818500e+04
-2.492595057053609344e+04
-2.601581677464418681e+04
-2.371299964404397178e+04
-1.963093512737949641e+04
-1.509239176305932597e+04
-1.259039623026455411e+04
-1.046990934447208929e+04
-8.241584866274492015e+03
-7.334938265393087022e+03
-6.387686890760380265e+03
-4.807377605378260341e+03
-3.169744750212617873e+03
-8.177420765126851165e+02
3.001945051567066002e+03
4.757655361666400495e+03
8.006647462385781182e+03
9.342047876534807074e+03
7.006105091225404976e+03
8.470088201305274197e+03
9.872187902926798415e+03
9.887435265120599070e+03
1.065690587693931047e+04
1.152675406338845096e+04
1.234218356494100044e+04
1.349831713869804298e+04
1.345520018891575273e+04
1.320390078634608108e+04
1.300151318838508632e+04
1.331908908260976386e+04
1.673171600125765326e+04
2.316049249703001624e+04
2.553736183997910848e+04
2.684528903526217618e+04
2.862328465905882331e+04
2.892129699210149920e+04
2.874823903685383993e+04
2.928698100454655287e+04
3.060227804707624455e+04
3.302103715046647267e+04
3.438618276553404576e+04
3.500348437854275107e+04
3.651168770682455943e+04
3.823658607599048264e+04
3.976907924048288987e+04
4.039892127959590289e+04
4.107779652459429781e+04
4.231437441731902072e+04
4.335515679125391034e+04
4.348271667974077718e+04
4.395774814793576661e+04
4.475585882705327094e+04
4.538062456223573099e+04
4.575145764527567371e+04
4.594782283151190495e+04
4.651720270887771767e+04
4.738302571108166012e+04
4.783666595148027409e+04
4.797642420555311401e+04
4.839302739695963828e+04
4.810616825196822901e+04
4.804433404265990248e+04
4.731183563672746823e+04
4.642603141162412794e+04
4.553943030487304350e+04
4.633309914699886576e+04
4.817015705100336345e+04
4.693723509462551010e+04
4.498483078872719489e+04
4.563479412821526785e+04
4.675247574240395625e+04
4.643020355473184463e+04
4.558739639287627506e+04
4.522055665209254948e+04
4.468108665246432065e+04
4.415823545199074579e+04
4.259003850604479521e+04
3.981999421120907209e+04
3.741273121254591388e+04
3.593607561186856765e+04
3.583636071058428206e+04
3.510323683780415013e+04
3.340711976909281657e+04
3.092841599064156981e+04
2.915777568242941925e+04
2.740244298937506028e+04
2.618380367680150812e+04
2.531126319483738189e+04
2.452531445547752082e+04
2.412286384421212279e+04
2.395750455883414907e+04
2.277393967643687938e+04
2.093872471689397207e+04
1.880453662530700240e+04
1.555194609540746023e+04
1.260679913425700397e+04
9.280022945211456317e+03
7.371304664994387167e+03
9.350570490385680387e+03
1.232272678118132535e+04
1.180090364951825359e+04
9.180224058938032613e+03
5.836918126112209393e+03
2.845137483559066368e+03
1.463940254409649242e+03
-2.351536925776967735e+01
-3.058938191348830514e+03
-6.279929409634934927e+03
-7.672034367676796137e+03
-9.581780931935720218e+03
-1.132972882804781148e+04
-1.213738627535776504e+04
-1.481815470236232250e+04
-1.828031622857136972e+04
-1.981921407737080517e+04
-2.125506464037510159e+04
-2.414395932644775166e+04
-2.936894313752731978e+04
-3.362500238792134041e+04
-3.693214100868658716e+04
-3.878036163513248175e+04
-4.019546370269912586e+04
-4.108736052775523422e+04
-4.155072728824315709e+04
-4.181715812303964776e+04
-4.159536128673190979e+04
-4.100898210698813637e+04
-4.258246797905966378e+04
-4.433120739689904440e+04
-4.517879185105494980e+04
-4.302840842235244054e+04
-4.394130558767107868e+04
-4.687676986498400220e+04
-4.950616138198774570e+04
-5.328567632723415591e+04
-5.503528172837362217e+04
-5.154097608872008277e+04
-4.992676331099034724e+04
-5.028465530377269170e+04
-5.185077809930857620e+04
-5.466711337392307905e+04
-5.830438114552395564e+04
-6.141219639573010500e+04
-6.374535225751737016e+04
-6.577166825587565836e+04
-6.747900512520494522e+04
-6.997701611270301510e+04
-7.172124179904453922e+04
-7.168233989453814866e+04
-7.076710300526712672e+04
-7.082215786377374025e+04
-7.123008032445622666e+04
-6.958942498869879637e+04
-6.780089007752563339e+04
-6.666808178614874487e+04
-6.671846991659267223e+04
-6.705166055963223334e+04
-6.703523667226414545e+04
-6.553384679791221424e+04
-6.284107964458318020e+04
-5.972645087087451247e+04
-5.701472825656823261e+04
-5.499052319667927804e+04
-5.322951591481002106e+04
-5.081340614081647800e+04
-4.837186031721368636e+04
-4.657965794381785236e+04
-4.376749892850840843e+04
-4.065605454657060909e+04
-3.770106548659079999e+04
-3.466233821584345424e+04
-3.075296223439861569e+04
-2.671692895393010986e+04
-2.322517512686609552e+04
-1.934039001779052342e+04
-1.458167862307305404e+04
-8.766307337537320564e+03
-2.496394323840900142e+03
4.412775773356360332e+03
1.164477439301826053e+04
1.802631695272677462e+04
2.457605604923857391e+04
3.237441527225642858e+04
4.321719686523083510e+04
5.537605937410550541e+04
6.538832817383602378e+04
7.102405389280024974e+04
7.416266862125495391e+04
7.723307709997305938e+04
7.918217840155985323e+04
7.925168288765508623e+04
7.910947162881998520e+04
8.016437832577520749e+04
8.146594601937124389e+04
8.289345840592018794e+04
8.266755107583361678e+04
8.163893441096658353e+04
8.060302448293144698e+04
7.995181025984995358e+04
8.036115853685763432e+04
8.227506396214732376e+04
8.338043554523306375e+04
8.273404971485496208e+04
8.198569510323790018e+04
8.092686258934113721e+04
8.006911925561224052e+04
7.945604139988156385e+04
7.872474055521648552e+04
7.691754421079867461e+04
7.577915217086531629e+04
7.499131512507084699e+04
7.447253428226124379e+04
7.389170560208091047e+04
7.238132817077942309e+04
6.923879408783254621e+04
6.659957600794461905e+04
6.507573698037335271e+04
6.399643702249144553e+04
6.271697755775890982e+04
6.121748351289785933e+04
5.988591594044739031e+04
5.902311728354732622e+04
5.877899680544411967e+04
5.865009947447546438e+04
5.817993953083123779e+04
5.485547707981251006e+04
5.143208871906039712e+04
4.881114652894039318e+04
4.592538772035657894e+04
4.356257823707255739e+04
4.093554719824366475e+04
3.794445028451640246e+04
3.550793803097079217e+04
3.289154270966759213e+04
2.947912095146797583e+04
2.613669054054340086e+04
2.208933261009720445e+04
1.859465013604276101e+04
1.495015509308452965e+04
1.269240823592766537e+04
1.088895814335386967e+04
8.443218091599390391e+03
5.455935444451310104e+03
2.750035428871875865e+03
-7.434083971569179994e+02
-5.171458678733462875e+03
-8.715895644155340051e+03
-1.154251116051513600e+04
-1.482194055167244915e+04
-1.826399331916070878e+04
-2.067534442292600579e+04
-2.315767545045316365e+04
-2.570553833453233528e+04
-2.732796867235387981e+04
-3.057598102239770742e+04
-3.514277194655372296e+04
-3.875653306009493099e+04
-4.158715480098419357e+04
-4.716382713535160292e+04
-5.123986034702039615e+04
-5.186252360817059525e+04
-5.239501553677423362e+04
-5.329225108821586764e+04
-5.467150532509853656e+04
-5.610024653020101687e+04
-5.800325970289925317e+04
-5.981505598158820794e+04
-6.197752175747305591e+04
-6.337293273088010028e+04
-6.439116456764686154e+04
-6.502282867708883714e+04
-6.504012524207297247e+04
-6.396254438930665492e+04
-6.326087681977889588e+04
-6.157163356345859938e+04
-5.992719992413515865e+04
-5.880411715174981509e+04
-5.773324284004222136e+04
-5.641186076452139969e+04
-5.558564555113687675e+04
-5.373343696948810975e+04
-5.138164116589680634e+04
-4.964694080891885096e+04
-4.839183202234715282e+04
-4.753406025664594199e+04
-4.652025294821686111e+04
-4.483136869187586126e+04
-4.289294792114224401e+04
-4.147365915001887333e+04
-4.057892967532602052e+04
-3.935718099161480495e+04
-3.815342315913568746e+04
-3.737667670316166914e+04
-3.617630109399030334e+04
-3.563480907819496497e+04
-3.524011333367726183e+04
-3.370739372824341990e+04
-3.216759932540778391e+04
-3.061599555115381736e+04
-2.877168403162900358e+04
-2.659204610013649290e+04
-2.495435659829328142e+04
-2.358314992285262269e+04
-2.168956747409104355e+04
-2.009423806558025899e+04
-1.831299459283416218e+04
-1.582067610414667251e+04
-1.281834792036606086e+04
-9.939411970623319576e+03
-7.387376383757936310e+03
-4.705489831973906803e+03
-2.575739305591230732e+03
-1.704840860420221588e+03
-2.245503653731975646e+03
-5.178622916865146180e+03
-5.942642533841570184e+03
-4.365599942156067300e+03
-2.048040791541717681e+03
-2.325794455519983472e+01
2.712925328991214428e+03
3.858081170490777822e+03
6.851224735632865304e+03
1.156360970485682628e+04
1.455673442176634308e+04
1.637785200114818508e+04
1.823096912638103458e+04
1.968498570591912357e+04
2.014567687781620771e+04
2.237669984222471248e+04
2.498001663729810025e+04
2.367503765760806345e+04
2.447473363758226697e+04
2.587468274138422203e+04
2.693322183188523195e+04
2.751377741300074194e+04
2.713920079054754751e+04
2.754840000241388407e+04
2.780797931107530894e+04
2.841797523058623119e+04
2.912479506565815245e+04
3.077320028453693521e+04
3.418227067813716712e+04
3.507700527624551614e+04
3.389463224916311447e+04
3.082709031401561879e+04
3.042426710001442189e+04
2.959818305029179101e+04
2.994089651535528174e+04
3.034329022803971384e+04
3.149041635203106853e+04
3.061906971109148799e+04
2.922738412968110424e+04
2.996936663773213513e+04
2.907203973820744068e+04
2.815943482951608894e+04
2.705064372174590244e+04
2.631096802614904300e+04
2.565290860240261463e+04
2.525576242171453123e+04
2.482286261588154593e+04
2.391363185898763913e+04
2.217146365023512044e+04
2.044508520165118171e+04
1.896161337132015615e+04
1.774265785235698786e+04
1.697242714422430436e+04
1.598329027410694835e+04
1.380361643073985033e+04
1.195770217676183711e+04
1.176176257738261847e+04
1.190599222702846237e+04
1.012924209086441624e+04
7.847534603738150508e+03
6.038045153425169701e+03
4.526280229419221541e+03
2.988667041246262670e+03
7.413348148344680340e+02
-1.250806024556225339e+03
-3.934870261218037740e+03
-6.062325813309640580e+03
-7.783634421664147339e+03
-9.219257865532395954e+03
-1.131559854048484522e+04
-1.299776655395467606e+04
-1.401989386888716763e+04
-1.634070724635709848e+04
-1.841638320657555232e+04
-1.925711310071241314e+04
-1.991140942175914461e+04
-2.147349532583287146e+04
-2.351935115423376556e+04
-2.564438241740447120e+04
-2.764554139072390899e+04
-2.902574737243074196e+04
-2.928055207703966153e+04
-2.971218696332655236e+04
-3.191891697693622700e+04
-3.423505262575019879e+04
-3.509087966028341907e+04
-3.540092095363304543e+04
-3.684710472352422221e+04
-3.959151882123299583e+04
-4.195320759613028349e+04
-4.276608434197930910e+04
-4.243404723918766103e+04
-4.194234076779425232e+04
-4.117328870078141335e+04
-4.177747382668873615e+04
-4.307549652031542792e+04
-4.427879182922044856e+04
-4.545392543809614290e+04
-4.542170235844339913e+04
-4.513890907451106614e+04
-4.520824265953667782e+04
-4.496389509680206538e+04
-4.373805585664365935e+04
-4.191683917863692477e+04
-4.107485952271882707e+04
-3.976004160872630018e+04
-3.849141651551172981e+04
-3.785997677761351952e+04
-3.679495891216901509e+04
-3.575749858924722503e+04
-3.545437960474512511e+04
-3.438798885716450604e+04
-3.381279205119171820e+04
-3.310713116062340850e+04
-3.188274950338854978e+04
-2.997973803651886556e+04
-2.927780464102744736e+04
-2.782620136752057442e+04
-2.547382238571794005e+04
-2.417203070398756245e+04
-2.253299894069749644e+04
-2.100396753771145450e+04
-2.036039231063980333e+04
-2.076860134228280367e+04
-2.103165750344292610e+04
-2.269694829437434601e+04
-2.237610554714907630e+04
-2.140000011672009350e+04
-1.947549986834741867e+04
-1.519531272561447440e+04
-9.397790086787188557e+03
-6.877253960256362916e+03
-4.526651325970166909e+03
-3.806840818827727162e+03
-2.401641359560980163e+03
5.389973377129983874e+02
2.449985877849235749e+03
1.999303654476558677e+03
1.671803251802934938e+03
4.375374159746625082e+03
9.790889127316377198e+03
1.362522549212165541e+04
1.487919470550433471e+04
1.546726852145717748e+04
1.664583652738163073e+04
1.698684417643155393e+04
1.713023125558484389e+04
1.623972008996815384e+04
1.632875108731269574e+04
1.797151612035565267e+04
1.737060961981668879e+04
1.803068776113659624e+04
2.702149651951007399e+04
3.495863484176706697e+04
3.859354869537351624e+04
4.454280411925057706e+04
4.927205125015844533e+04
5.212524703064060304e+04
5.429428121566975460e+04
5.327727075925793179e+04
5.277035563000903494e+04
5.431403531975566875e+04
5.661891074482473050e+04
5.846446519540735608e+04
6.064899035330546758e+04
6.326422655749786645e+04
6.351384083048976754e+04
6.044437554048372840e+04
6.031140951315410348e+04
5.979197117012355011e+04
6.038568582171058370e+04
6.812111556162871420e+04
7.416520133572808118e+04
7.818693713175429730e+04
8.218522433218218794e+04
8.275431740110744431e+04
7.883163590819470119e+04
7.497266576268484641e+04
7.325977530225897499e+04
7.496738322530355072e+04
7.679196055155132490e+04
7.713901909463306947e+04
7.536828648179523589e+04
7.283332877675878990e+04
6.898489660946960794e+04
6.891206533279977157e+04
7.569506529243134719e+04
7.900106825479463441e+04
7.880137081691664935e+04
7.610239026130764978e+04
7.181533615368223400e+04
6.917184961707041657e+04
6.464289806241793849e+04
5.870464024272223469e+04
5.035612039323131467e+04
4.063528560541934712e+04
3.838513372830973822e+04
3.262272471228363065e+04
1.713245597494184040e+04
5.227998084304011172e+03
1.048544068465934743e+03
-5.021741002012353192e+02
1.464957808213625867e+03
-1.928252941490447483e+03
-1.275802353003811368e+04
-1.596613642283876652e+04
-1.821411881188297411e+04
-2.108837235746621081e+04
-2.955834011867936715e+04
-4.379332431952581828e+04
-5.567839117880455160e+04
-5.544044035328940663e+04
-4.958134622206990753e+04
-4.716587858728950232e+04
-5.759770967917404778e+04
-6.455441263566626731e+04
-6.839247753745927184e+04
-6.899225303162678028e+04
-6.736417361720223562e+04
-7.232834133437431592e+04
-8.072647307206557889e+04
-8.799644943671410147e+04
-9.839325792495039059e+04
-1.171774241883455543e+05
-1.271312928620547609e+05
-1.304451406428694900e+05
-1.403250576701009413e+05
-1.480282026278405683e+05
-1.521915373278055340e+05
-1.424937418549709546e+05
-1.358906826175171009e+05
-1.356901460049926245e+05
-1.351335873007922783e+05
-1.327583264773813426e+05
-1.364457604062298487e+05
-1.520580090144820861e+05
-1.741130458633931994e+05
-1.922229890922930208e+05
-1.975656842630799219e+05
-1.910409383116205863e+05
-1.843336642557622399e+05
-1.834153986089597747e+05
-1.871696037245859625e+05
-1.884488794104548288e+05
-1.868777653397577815e+05
-1.878925103068227181e+05
-1.869643238798540842e+05
-1.915204327773026307e+05
-1.937460413144137128e+05
-1.658153860374026699e+05
-7.204560578691937553e+04
4.269521927717239305e+04
1.524793696014586312e+05
1.549959515183421900e+05
7.927295593762498174e+04
3.753746619959158124e+04
5.327076694589453109e+04
9.453813604256173130e+04
1.301810562109085004e+05
1.491776282086463470e+05
1.957718783646598458e+05
2.672289149691697676e+05
3.613071843463249388e+05
4.608944497400563559e+05
5.143888433868340799e+05
5.124131272519337363e+05
4.991966755066532060e+05
4.758439160143164336e+05
4.212320455040499219e+05
3.413039377561476431e+05
2.520843695962540223e+05
1.593556984834462346e+05
8.008184472584797186e+04
2.424556134663812918e+04
-9.900069483027771639e+03
-3.765138270203907450e+04
-6.336179945543969370e+04
-8.687365238951153879e+04
-1.155772003824856656e+05
-1.505619277748324384e+05
-1.837554816983446362e+05
-2.115551869080862089e+05
-2.284877457501045137e+05
-2.269387672937302850e+05
-2.103684704470392317e+05
-1.766024873687130748e+05
-1.314869390498914581e+05
-9.099364234327687882e+04
-5.774688757197802624e+04
-3.182558455830121238e+04
-1.525942919287449513e+04
-5.603987816733250611e+02
1.408965961639119814e+04
2.486773849156652796e+04
3.422387354825488728e+04
4.116076564758512541e+04
4.418184976875421853e+04
4.428778954233559489e+04
4.497979846402553812e+04
4.681200610414514085e+04
4.743335971020560100e+04
4.416165078023096430e+04
3.748947639440364583e+04
2.890135516802138591e+04
1.916970647908788305e+04
1.121281533106774805e+04
9.567849253183960172e+03
1.017777129816273373e+04
1.065230366098079685e+04
1.115896498300486746e+04
1.281725897453736434e+04
1.639552155100179152e+04
1.836389463653162238e+04
1.930225691830441065e+04
1.764836255788409471e+04
1.393085747053355772e+04
8.376211449198472110e+03
4.365829866197313095e+03
5.492883901690147468e+03
9.945331940319318164e+03
1.727709061403228043e+04
2.797789133560049595e+04
3.902127392472951760e+04
5.160653106933230447e+04
6.703880060901930847e+04
7.372298147449406679e+04
7.432206279105469002e+04
7.929473406090993376e+04
8.414344691865146160e+04
8.459984906515112380e+04
8.319024289150624827e+04
8.348558119267577422e+04
7.700793623418849893e+04
6.882930347146678832e+04
6.627857886580750346e+04
6.796355376506524044e+04
6.688563382604162325e+04
6.116005744212407444e+04
5.462505939631651563e+04
4.815967489964054403e+04
4.194494980993274658e+04
3.789578643280199321e+04
3.600184325399030058e+04
3.275378998065776977e+04
2.636032340905509773e+04
1.796806775289244615e+04
8.907519578747882406e+03
2.335075636579272214e+03
-3.167046784017600658e+03
-7.693713388468587254e+03
-1.552982825529882393e+04
-2.604335364210222178e+04
-3.318825677855876711e+04
-3.832958524038519681e+04
-4.398947228942624497e+04
-4.951211261538130930e+04
-5.127168935800305917e+04
-5.324745472012012033e+04
-5.240466901950803731e+04
-4.521169295863940351e+04
-3.627190309435014933e+04
-2.907654277617145272e+04
-2.472291806617622206e+04
-2.168147524380363029e+04
-2.139368733894887191e+04
-2.240199309552165869e+04
-1.935072409587725633e+04
-1.654309431360978851e+04
-1.444858363841032769e+04
-1.057148531794898736e+04
-8.679118686998614066e+03
-1.213990538018704319e+04
-1.633297998128150539e+04
-1.430426578516851441e+04
-1.134292787892006345e+04
-1.210725865470057579e+04
-1.319624549060083518e+04
-1.500789912062142685e+04
-1.944309237867201591e+04
-2.454065045457111046e+04
-2.694934592209868424e+04
-2.854371928983440012e+04
-3.020898086509122004e+04
-3.179985917085214169e+04
-3.364180816243075969e+04
-3.666633598747003998e+04
-3.864273399201233406e+04
-3.681803163088850852e+04
-3.599946469381158386e+04
-3.571833535130800738e+04
-3.604955608446971019e+04
-3.670995712211558566e+04
-3.732632113458702952e+04
-3.701120025734804949e+04
-3.674692388984818535e+04
-3.762683013981447584e+04
-3.901839794417923986e+04
-3.962696270739888132e+04
-3.912334330087433045e+04
-4.068514587825896160e+04
-4.480110983491683874e+04
-4.617679083637356234e+04
-4.516549801781406131e+04
-4.228259935939050047e+04
-4.110519754156884301e+04
-4.498641756794202956e+04
-4.918145438035269035e+04
-5.312001167483684549e+04
-5.656878108820807392e+04
-5.953501916715135303e+04
-6.432025499833745562e+04
-6.972552896876820887e+04
-7.512319128622839344e+04
-7.723220579184558301e+04
-7.737943994396172639e+04
-6.945160261901030026e+04
-4.981801228385107970e+04
-2.503620721690607388e+04
-7.680653852588015980e+03
-2.068745532622750488e+03
2.863484947490180161e+02
5.048581240197818261e+03
1.172504787290017157e+04
1.806517374523183389e+04
2.337667746594367054e+04
3.000793273048585979e+04
3.446359591238407302e+04
3.558125026048250584e+04
3.602709117747463461e+04
3.649214956192160025e+04
3.385054128261332517e+04
3.122431304780701248e+04
3.115684428389581808e+04
3.359792510075447353e+04
3.566021160719609179e+04
3.777315398736768111e+04
3.860521380399217014e+04
3.861715704524291505e+04
3.878084015350096161e+04
3.743336178442820528e+04
3.472386666685072851e+04
3.237455562901499070e+04
3.131230659302582717e+04
3.052865912476050653e+04
2.917797651403216878e+04
2.693983315654689432e+04
2.100882679798379831e+04
1.510753827695957989e+04
1.113439804298014496e+04
1.110617712305856003e+04
1.438960581337420808e+04
1.777673714556826599e+04
2.035865648040910310e+04
2.237148984033704619e+04
2.385495992510396900e+04
2.684620453128557347e+04
2.552022214900668405e+04
2.480342356842192021e+04
2.434505451038634055e+04
2.253995172858030492e+04
1.975234350268204071e+04
1.688048769961647849e+04
1.518753471334193455e+04
1.470368093763173238e+04
1.367899351163201209e+04
1.153808900824541888e+04
1.009495162950623853e+04
9.546389945453613109e+03
9.961540857926658646e+03
1.098485752153399517e+04
1.245596436381759486e+04
1.448278676688243650e+04
1.736874357355328902e+04
1.998145337591985663e+04
2.072857523717652657e+04
2.101516872898561269e+04
2.387937783697698978e+04
2.626804910680314424e+04
2.497632364688129019e+04
2.297330314312992778e+04
2.271641965980253735e+04
2.355156346955874324e+04
2.548355031472801056e+04
2.607009265633803807e+04
2.605170809687714427e+04
2.832122346442140042e+04
2.987823752389753645e+04
2.971012015593042452e+04
