-1.492856279689002577e+03
1.435482546850604137e+02
6.090101594707500681e+02
9.683015407249550890e+02
1.733266912744699312e+03
1.661948375115367753e+03
1.469429764679781556e+03
1.645745077982132898e+03
1.705966650720717098e+03
1.554100212306929052e+03
1.325961832927062460e+03
1.208472905341994419e+03
7.146928170070924580e+02
6.095070733271843437e+02
7.037856698133267628e+02
7.206349593246111453e+02
1.850409630230062419e+02
3.550885320574144544e+02
1.538022287487352742e+02
1.881027358647312440e+02
2.878847865300841704e+02
7.680711833708057839e+02
8.267616706691002548e+01
2.297084071413894719e+02
1.172459768259187314e+02
3.452676510713922653e+02
4.887502164086643006e+02
7.967632829108823671e+02
1.307425717921807518e+03
1.699654225512672610e+03
1.560466176829984761e+03
9.857781114433664698e+02
5.166053457514722140e+02
9.397825248398370945e+01
1.439924701897511454e+02
5.887279942273213464e+02
8.280624575170488697e+02
1.120124467048144879e+03
9.269067826034818154e+02
6.913068689205402961e+02
8.052628758205246413e+02
1.397959297456012564e+03
5.354841658065333831e+02
7.480450298615754718e+02
3.846287196333303200e+02
1.422488614925807497e+03
1.768676033996694741e+03
1.819103087912595129e+03
2.321918784119587144e+03
2.931067327897972973e+03
2.332313260067355259e+03
1.067764466012268485e+03
-5.832042503802802713e+01
5.338546412835337378e+02
1.006256187204972662e+03
1.080292527014096748e+02
-5.307339840012427885e+02
-4.811036721475803688e+02
-2.440242704268891600e+02
-8.493937006643424183e+02
-1.615305542795589190e+03
-1.931769567006838315e+03
-4.936934030269955542e+02
6.197483250102598049e+02
2.904678532296773028e+02
1.745479648941818027e+02
-6.690787494035829752e+01
-4.508269425547662763e+02
-1.080918114131961829e+02
8.142872180503056825e+02
7.785040296605537833e+02
7.062129064060948735e+01
-4.362633173534380830e+02
-2.501374302663864739e+02
4.000323772454441951e+01
-5.558872472839694865e+02
-1.030891264788355102e+03
3.979583672842439910e+02
4.586325874442778741e+02
-1.698609160258350528e+02
-2.147043769739547514e+01
3.695609280292590881e+01
-1.865786738519271353e+02
-1.524158117016233973e+03
-2.635809383791542587e+03
-1.525461767361277452e+03
2.448961786530020390e+02
2.772876520586455058e+02
1.256668171356631092e+02
6.211132623441077385e+02
1.329776262935245995e+03
3.023716576420969886e+03
4.201916496709957755e+03
5.140326669479471093e+03
4.712862583436652130e+03
3.214545526022408922e+03
1.216453213255487526e+03
-6.654631777589861485e+02
-8.602793647907529930e+02
-7.119046088515399333e+02
-7.023825194617656962e+02
-1.395711277769234812e+03
-1.684912729932099865e+03
-7.169410136998207008e+02
-1.737870803738138932e+02
-9.024028583350409463e+02
-1.653698565276300769e+03
-1.706722150987468467e+03
-2.793408207260369181e+03
-4.690820075608154184e+03
-5.113938432796379857e+03
-5.544739876861943230e+03
-6.331093519030098832e+03
-8.748938585076575691e+03
-1.037942621690846318e+04
-9.557616938954981379e+03
-7.568552124661583548e+03
-6.936416501174116092e+03
-7.130143455572976563e+03
-5.960506350957379254e+03
-2.125533740802260581e+03
4.194765538111061687e+03
7.446432564108271436e+03
5.330511904461061022e+03
3.924925612557432942e+03
5.574698566336634030e+03
8.102816473347766077e+03
9.390208599744188177e+03
1.034205303707968233e+04
1.032235104285385023e+04
9.248690803381545265e+03
7.566816340595301881e+03
6.437917036435245791e+03
5.598405191895316420e+03
4.429328885995597375e+03
2.383480314284362976e+03
-4.138291314114075021e+02
-2.731147216785397177e+03
-3.339280984603599791e+03
-4.438335435509426134e+03
-6.140307668080356962e+03
-8.706211293347671017e+03
-1.023099867913269554e+04
-8.970514560154077117e+03
-6.296122236170125689e+03
-3.303954083365280439e+03
-3.575915234839528239e+03
-6.972164381755465001e+03
-7.880748251036619877e+03
-6.246458732745161797e+03
-3.048361573945694090e+03
-2.250907765744042536e+03
3.591034037390116396e+02
4.330954738725707102e+03
6.207086152848312850e+03
6.437826945222756876e+03
5.486638143660653441e+03
4.656355697278324442e+03
3.361816278885571137e+03
2.085023830568445646e+03
2.036950509029559498e+03
3.762520503383811956e+03
5.525923770378973131e+03
6.231208154689828916e+03
5.045224874241244834e+03
4.061944291462586989e+03
4.569427096248948146e+03
2.921523483733075864e+03
-1.987553204842208174e+02
-1.587617859520265938e+03
-3.019141638110999793e+03
-5.012284373619267171e+03
-5.316731673709871757e+03
-1.601316280127868140e+03
2.712992544520748652e+03
4.201056270645533004e+03
7.094798678436945920e+02
-2.601751668820420946e+03
-3.664558545501431581e+03
-6.058167400392219861e+03
-6.462448063642442321e+03
-5.568755590722791567e+03
-6.184515077358547387e+03
-5.221740071751779396e+03
1.620701923099316673e+03
4.523728771518087342e+03
1.516189033815400990e+03
-6.649199152990685207e+02
1.671594208568650402e+03
4.167704044749159948e+03
3.437423036460874300e+03
7.307762701527487934e+02
-7.783695394536206322e+02
-2.079199462145678808e+03
-2.471038411422031459e+03
-6.684877215731929709e+02
-2.881445684859711037e+03
-4.706996683996710999e+03
-4.690357004735622468e+03
-4.354160107559190692e+03
-4.802024381026267292e+03
-5.372148424865170455e+03
-7.997951599756862379e+03
-8.962381267341041166e+03
-7.302372607451473414e+03
-1.277818567933587474e+03
1.808612897593316802e+03
2.529541825400833659e+03
3.847740128678296060e+03
3.809787977877235789e+03
2.959089409921558399e+03
3.380576417804425091e+03
5.293721462767155572e+03
5.995276759864384076e+03
5.780440418577386481e+03
6.138351659027061942e+03
7.089054537949304176e+03
6.654522365772059857e+03
6.546414911808430588e+03
5.651302528451146827e+03
4.178648988226877918e+03
3.309882844291025776e+03
2.628939646015823200e+03
2.990337147538144109e+03
3.139183862436363142e+03
1.803894319565457181e+03
7.624112972543493925e+02
-4.168821940024747619e+02
-1.497129907775315132e+03
-2.305747718408023502e+03
-4.060887493405930968e+02
2.459198554922831136e+03
2.724909045286434321e+03
1.845104902312548120e+03
1.436305005869050774e+03
1.217179999499040377e+03
7.677683557514163795e+02
-1.364452042382237380e+02
-1.323639855336351047e+03
-2.110740296927821873e+03
-2.306331332188669876e+03
-3.168470790462498826e+03
-4.274208675294941713e+03
-5.686213012917189189e+03
-7.073765481617655496e+03
-8.076957706874703035e+03
-6.084167048573218381e+03
-6.285018293794727470e+03
-2.866878900616142801e+03
5.567717021179612857e+03
1.044625328443150647e+04
1.084417450901619850e+04
9.380110763477137880e+03
7.802323246994369583e+03
6.628098690613013787e+03
5.418444666363024226e+03
3.513599847305385538e+03
3.391758304775488796e+03
4.909492073633043219e+03
4.474837611064422163e+03
2.351100887925593725e+03
4.965990570123201451e+02
-5.147855141324270107e+02
-7.041350466556505125e+02
3.666826728955971930e+02
2.197096016723772209e+03
2.395944086760941445e+03
1.442331538525722863e+03
4.815410374614841658e+02
-3.441053333022687184e+02
-9.122377132467024694e+02
-1.214780322061208381e+03
-1.664754117306415537e+03
-1.411062811276048024e+03
-3.374954960912055526e+02
2.535332045213419292e+02
-1.017969672651088615e+02
-4.123864633482771751e+02
-8.292126853212337210e+02
-1.737355727099805790e+03
-1.894692787148185971e+03
-2.092693123827301861e+03
-2.663087004018116659e+03
-2.615831588912116331e+03
-5.838596000632832101e+02
4.302791481027942666e+01
1.292956518310960519e+03
8.183679926272428702e+02
-8.113428854991922208e+02
-2.153883856791436756e+03
-2.260613463487520676e+03
-1.405923252193793815e+03
-1.418377440071748197e+03
-1.269440244018963995e+03
-1.283706386407292484e+03
-2.058650809123471845e+03
-4.623752452707792145e+03
-6.206781220242926793e+03
-8.621490476597111410e+03
-1.121061295084209814e+04
-1.550719665207661455e+04
-1.522691810568474466e+04
-1.445744896397191224e+04
-1.455649464596096004e+04
-1.426884277553226639e+04
-1.439723439074666567e+04
-1.558928723166251075e+04
-1.348667362943080661e+04
-1.104024697476471920e+04
-1.025348977135243513e+04
-1.083619528546117181e+04
-1.065401405903332670e+04
-9.495389871992600092e+03
-9.127084510523785866e+03
-8.551157873040785489e+03
-6.820444337935673502e+03
-5.918587722677890270e+03
-4.246950545175514890e+03
-1.480100566250901920e+03
-1.435155173948434822e+03
-2.904133020756936276e+03
-3.831711450199311912e+03
-4.595275797119575145e+03
-5.328378107125132374e+03
-5.473707202512808180e+03
-6.930049819918280264e+03
-6.450161638734844928e+03
-5.793413755152137128e+03
-4.567324385494031958e+03
-3.028844762847595575e+03
-8.100158289362905180e+02
6.202071581516873948e+02
1.201955755446664625e+03
1.431407430501996032e+03
1.035672181898797817e+03
5.217834783672235517e+02
-4.062637882381210943e+02
1.096582999855545040e+03
2.704472209221122284e+03
2.672512104795392588e+03
2.320015954416595832e+03
1.840532296819100111e+03
1.312913791944767809e+03
1.010844053412669155e+03
6.736147330499791224e+02
8.725823530691508267e+02
2.117524845536107932e+03
3.512144378735513328e+03
4.455273765948591063e+03
4.914679872348274330e+03
4.770330632001511731e+03
5.118353923371403653e+03
6.258543244766278804e+03
6.287634686716905890e+03
5.759094375398298325e+03
6.198345246514132668e+03
6.505106113872756396e+03
6.737920218832299724e+03
5.663396618120536004e+03
4.553147909560892913e+03
4.492560454401223069e+03
4.686962616214033915e+03
5.093167273889536773e+03
4.988925407349618581e+03
5.992703242998329188e+03
5.999011709745622284e+03
6.062644976551848231e+03
6.216210952782572349e+03
8.372064170629717410e+03
1.158076296735212054e+04
1.364495230389489734e+04
1.566619378379377122e+04
1.738067865819884173e+04
1.648406904812081848e+04
1.418092917318616310e+04
1.166444884404500772e+04
9.092971436308167540e+03
7.695825559013060229e+03
7.508219503819945203e+03
7.626680788739909076e+03
7.311089729409871325e+03
6.962892779064403840e+03
7.182388277655439197e+03
7.140926485208460690e+03
8.272871090610231477e+03
1.127854504172355882e+04
1.462733011449586775e+04
1.439567700305604012e+04
9.247094621787302458e+03
7.220096714174992485e+03
9.335013204398079324e+03
1.292441217595609669e+04
9.784917411289603479e+03
5.978003266061215982e+03
4.442058586653546627e+03
2.927528887736675188e+03
1.791991796802149793e+03
1.962928444952143991e+03
4.242781150716587035e+03
7.502902954736283391e+03
8.378572417676645273e+03
7.594037846880313737e+03
8.524844070512426697e+03
8.422940804656762339e+03
7.945220983133071968e+03
1.069414949696776785e+04
1.350317546202391713e+04
1.351574185091700201e+04
1.512166673156197976e+04
1.878650125863564972e+04
2.029870571232290604e+04
1.787016457460649326e+04
1.947977312694551438e+04
1.941337493593124236e+04
1.718075815203641105e+04
1.522378365604268220e+04
1.254833612367702517e+04
9.300228269844639726e+03
8.232228716202072974e+03
8.787232717680675705e+03
7.691250308764067995e+03
6.439388417997078250e+03
5.689581874508766305e+03
5.077648975160383998e+03
4.669690581664555793e+03
1.542774053847193272e+03
-3.824226485583796148e+03
-8.754267790201882235e+03
-1.055422709511992980e+04
-9.550121034884432447e+03
-5.932213503664645032e+03
-2.531427491430245027e+03
-1.839558274908232988e+03
-1.417084862751523815e+03
4.513057665279906132e+02
1.461653345323068834e+03
5.120213833853654251e+03
6.943453816486713549e+03
2.975601070001919197e+03
-1.162349146140702260e+03
-2.907355956857296405e+03
-5.237394819767735498e+03
-9.010820153461498194e+03
-1.359721892228074830e+04
-1.626406024667236306e+04
-1.868638956601736936e+04
-2.045759677104311413e+04
-2.166590695864385270e+04
-2.508464700886176797e+04
-3.056707602102938472e+04
-4.148897992272388365e+04
-4.927252723722298106e+04
-4.197255185612929199e+04
-3.217783436292834085e+04
-2.128793050655204934e+04
-1.570150542274562395e+04
-1.580270468565057854e+04
-1.685520968518817608e+04
-2.422112816548755291e+04
-3.200845018410052944e+04
-4.026855940646413364e+04
-4.672303801688094973e+04
-4.996757109288388165e+04
-5.853623073978628236e+04
-5.755819232055264729e+04
-4.676558076020635781e+04
-4.093362794252513413e+04
-3.298251937899395125e+04
-2.990456430966749758e+04
-2.802806538294611528e+04
-3.601918606292424374e+04
-4.311905926510241989e+04
-3.613095477230723918e+04
-2.577614242573578667e+04
-1.470172931872953086e+04
-3.057943571954434901e+03
4.787039054462095919e+03
7.754149740195102822e+03
-1.602750542368988818e+03
-2.033884384098635928e+04
-2.773846366907305128e+04
-2.913786591178414528e+04
-3.108209718372290081e+04
-2.776621705314506835e+04
-9.623405874303789460e+03
8.890055160706509923e+03
1.543789143689225239e+04
1.628661690487276610e+04
1.350685355401505876e+04
-3.219446794084894009e+03
-1.789054096913967078e+04
-1.355973792335045800e+04
-1.943231437409903810e+04
-3.196456893871763168e+04
-2.117578120655169914e+04
-5.839205836145110879e+03
8.541768396450015643e+03
2.581157535549122258e+04
3.441583712114653463e+04
2.352315216923260232e+04
6.674038430183451965e+03
-3.397959122955756811e+03
-7.558319116647084229e+03
-5.591849080122286978e+03
1.393402888600519145e+04
3.013533947410630208e+04
2.526388160384788716e+04
2.506322276376180525e+04
3.271795558260569305e+04
4.198657971808886941e+04
5.069644886125097401e+04
5.798674392054380587e+04
5.754170645050596067e+04
5.104250499910789949e+04
4.847009238571239257e+04
4.412546680688588822e+04
4.233686930493348336e+04
4.454444154083994363e+04
4.390419844796771940e+04
4.061915157708076731e+04
3.751423988329137501e+04
3.836521542177318770e+04
3.535191305046178604e+04
3.119846630678566362e+04
2.826082581205831593e+04
2.674470861558806064e+04
2.854491680634140357e+04
3.007425747565400161e+04
2.940343051033906158e+04
2.683013928941893028e+04
2.481096286661913109e+04
2.774636017938812074e+04
3.171693111772531483e+04
3.561634300145901216e+04
3.862916371443845128e+04
3.696584806156480772e+04
3.434190035133578931e+04
3.521474351904716605e+04
3.738279294604575989e+04
3.733443544235153968e+04
3.495097877269395394e+04
3.145156713473411946e+04
2.491961148215877984e+04
1.839836857750869240e+04
1.101724965179296851e+04
1.428569531313975631e+03
-6.052389705011273691e+03
-1.082648810343075820e+04
-1.468659711699367290e+04
-1.661947450879638200e+04
-1.776298066537582781e+04
-1.683491490332351896e+04
-1.285508250481516188e+04
-8.703414349611268335e+03
-3.794869235293196652e+03
4.890378936343309135e+01
7.081810977081598821e+02
8.942477589446555157e+02
2.941810290219649232e+03
4.625881240669957151e+03
4.941563482105295407e+03
5.065826391832748413e+03
6.474812478860427291e+03
7.101640455737430784e+03
4.401991433772623168e+03
3.740020358411458346e+03
3.280831886055186260e+03
3.375400077351812797e+03
5.649632744170033220e+03
7.851481354659928911e+03
6.270037108949539288e+03
2.719196939595695767e+03
-1.806988092789173834e+03
-2.737435969468133408e+03
-1.174195067020532861e+03
-2.550269023018873668e+03
-8.385396942904399111e+03
-1.647132377915323377e+04
-2.137691787595296773e+04
-2.488712871816823463e+04
-2.854989342158460931e+04
-3.264997468827721968e+04
-3.670805761712345702e+04
-3.670910015621496859e+04
-3.334387037817297823e+04
-3.086423783638965688e+04
-2.995901443141972413e+04
-3.019897167942373562e+04
-3.171581358009407631e+04
-3.298219568808613985e+04
-3.236079592009546468e+04
-3.389817835419328185e+04
-3.815687354736362613e+04
-4.321955877730366046e+04
-4.862496540246614313e+04
-5.516769241955244070e+04
-6.114220803163691744e+04
-6.127201696507432644e+04
-6.117367845139377459e+04
-6.440660992844506836e+04
-6.568125908263451129e+04
-6.169508418048785825e+04
-5.810951941330765840e+04
-5.625585736364552577e+04
-5.338241491024945572e+04
-5.154652287020623771e+04
-4.761348651377036003e+04
-3.982846038230630802e+04
-3.168470768620832314e+04
-2.317046650445169507e+04
-1.718781549384351092e+04
-1.274981593215568864e+04
-6.891669105231381764e+03
-2.021514964234633680e+03
2.034578006652862314e+03
6.582734134470220852e+03
9.918981775848284087e+03
9.241282921075578997e+03
9.485661054689246157e+03
1.147512332559048264e+04
1.267782084690481315e+04
1.167876636945459177e+04
1.217921981590103132e+04
1.481436050472066563e+04
1.519644260351888261e+04
1.538552357292097076e+04
1.500776850281827137e+04
1.548749215583876139e+04
1.417082829003691586e+04
1.669434359214480355e+04
1.997674906000727424e+04
1.911664488284077743e+04
1.784151558195313555e+04
1.800364013566488575e+04
1.889630569102395384e+04
1.902599779554592897e+04
1.950340418724442861e+04
2.037195207725456930e+04
2.290020958526303730e+04
2.650364817481542559e+04
2.924912161048875714e+04
3.109993499922247065e+04
3.173475020703465270e+04
3.139893412609551524e+04
3.090839738466006384e+04
3.159812660872947890e+04
3.089893094616154849e+04
3.115113042218602277e+04
3.260609930446981161e+04
3.326631896854368097e+04
3.294160686361008993e+04
3.384368497249485517e+04
3.586299404949450400e+04
3.751958959738112026e+04
3.749910797083045327e+04
3.606588627312179597e+04
3.412486479343050451e+04
2.994071126166350223e+04
2.599766770864231148e+04
2.355544004119034071e+04
2.120048160471636947e+04
1.878089021774789217e+04
1.664607997167996291e+04
1.403398596205901049e+04
1.138639499054554108e+04
9.224125302220849335e+03
6.017850723254258810e+03
3.326239187515177491e+03
1.107702221033589922e+03
-1.457456835000907631e+03
-4.255374574520428723e+03
-7.311102748228488053e+03
-1.017381620761167687e+04
-1.258169818397350537e+04
-1.429094457052917824e+04
-1.527496989151705020e+04
-1.536915379717987162e+04
-1.460367797697505739e+04
-1.342580886727024517e+04
-1.200986148146477717e+04
-1.072118036157018105e+04
-1.017710580863454015e+04
-1.005176619743880838e+04
-1.008131206298440702e+04
-1.015797763401514567e+04
-9.932285612280104033e+03
-9.769885834457991223e+03
-8.250447608514750755e+03
-7.729474980861022232e+03
-7.853232252695711395e+03
-7.016178713791029622e+03
-6.545166185633992427e+03
-7.665575689162301387e+03
-4.147922651731333644e+03
1.270132345223893935e+03
2.142496275210857220e+03
9.966433114499994872e+02
2.709819701725504274e+03
5.968497250160051408e+03
3.683215570454496628e+03
2.573467225173229508e+03
-8.044877613206067508e+02
-2.091468013183240600e+03
-2.921199849096476555e+03
-4.327379847881420574e+03
-2.229555913732649969e+03
-4.565335423439686565e+03
-2.837961139931720481e+03
-3.987304601412836746e+03
-9.884124419567749555e+02
2.245201268376586654e+02
-7.248096692786087942e+02
1.542965145414563040e+03
-1.499758754949892136e+03
-2.576883783888716607e+03
-2.114812841990593824e+03
-1.433379332926525194e+03
-1.820428163409440685e+03
-2.249993676382146987e+03
-2.056315254454803835e+03
-2.908969321085772208e+03
-1.390745130638917999e+03
-8.627040013408494588e+02
-7.546628447521712815e+02
-6.540947392329919694e+02
1.171150923426288983e+02
6.698519724432748035e+02
1.342812518646688659e+03
1.761761665649220504e+03
2.010322270103361916e+03
2.021955653966484988e+03
1.734059485655516710e+03
4.830504070086236652e+02
-3.861872289004928689e+02
-3.916827918648789364e+02
-2.066884335864974105e+02
-7.744583642813875031e+02
-2.422935240665287438e+03
-4.022856679346086821e+03
-3.777538250447980317e+03
-3.256685096456149495e+03
-3.456073198364756536e+03
-4.082482660165277139e+03
-4.970579126302609438e+03
-5.886257724142891675e+03
-6.138643084559379531e+03
-7.312876005137442917e+03
-8.486085782628020752e+03
-9.179120677965231152e+03
-9.815528397436793966e+03
-1.019899373694305541e+04
-9.523654097981676387e+03
-8.351556147055280235e+03
-8.477246406312231557e+03
-8.655780976786343672e+03
-8.577180905453931700e+03
-9.169261231923614105e+03
-9.546713414523130268e+03
-9.157259381810321429e+03
-8.749639351441159306e+03
-8.099727314660097363e+03
-8.043551094214459226e+03
-8.825677506549227473e+03
-8.632721114238041991e+03
-8.727351812387945756e+03
-8.127123859928728962e+03
-6.642527073277299678e+03
-5.480965132364744932e+03
-3.844791996099043445e+03
-3.087857569866487665e+03
-3.197996651195346658e+03
-2.969675181322178560e+03
-2.450285093055883408e+03
-2.824499851657573799e+03
-3.741953962491571474e+03
-4.126819813099994462e+03
-4.204254033183533465e+03
-5.375524044205246355e+03
-6.578276149846918088e+03
-5.847528430030229174e+03
-4.721456137259981006e+03
-4.932413323640519593e+03
-4.984710152314493826e+03
-4.098939247896373672e+03
-3.031508071813402239e+03
-1.677619532821028315e+03
-2.744015602768084818e+02
2.209320209017325567e+02
5.967136083950207421e+02
1.485475749897980450e+03
2.999891479680549764e+03
3.894674961893048476e+03
4.595008915021588109e+03
5.713739717108913283e+03
6.859224193256703984e+03
7.559094007407883510e+03
8.062361738768852774e+03
8.217013508901307432e+03
8.390027626506780507e+03
8.850527322045185429e+03
9.424209956285818407e+03
9.255092601137552265e+03
9.476399834114932673e+03
9.727951668744010021e+03
1.015041652647755654e+04
1.065274119228611562e+04
1.107070131673156902e+04
1.215207555494432381e+04
1.341550626996248138e+04
1.170454714701484227e+04
8.973961296847497579e+03
7.617372059988572801e+03
7.731603694064804586e+03
8.021887335263974819e+03
7.818140544527491329e+03
7.697980283887411133e+03
7.510168976530580949e+03
6.722843888935518407e+03
6.865998273595858336e+03
6.966301576965641289e+03
5.940653504861153124e+03
7.641293954707603007e+03
9.655061597222087585e+03
1.002292739876700398e+04
9.619759211048749421e+03
9.331258647826412925e+03
9.199293490227668372e+03
7.383288978363795650e+03
6.858469029179066638e+03
6.128927284262125795e+03
4.906425197661042148e+03
4.214817287866212610e+03
3.326414134770796409e+03
2.678599706501450783e+03
2.572545976359091128e+03
1.466069735599398200e+03
-1.085820653383466833e+03
-2.422967062638465904e+03
-3.553256507238187623e+03
-4.856721483069554779e+03
-5.535559153507311748e+03
-6.610028895888082843e+03
-7.797155974103615335e+03
-8.261841206853438052e+03
-8.807877508774980015e+03
-9.381956497891531399e+03
-1.026198253896603092e+04
-1.065120541773387231e+04
-9.766400389184485903e+03
-1.015114556431311939e+04
-9.757142019621400323e+03
-9.047298439169171616e+03
-8.607483536055849981e+03
-8.215417229083433995e+03
-8.920415880612648834e+03
-9.282444300604262025e+03
-9.699172598421624571e+03
-1.102059409564581983e+04
-1.284809839465837103e+04
-1.283468037922007534e+04
-1.205614570609744624e+04
-1.165047228816554343e+04
-1.196057410999995591e+04
-1.170555132706782024e+04
-1.150570344411480619e+04
-1.089508431016793475e+04
-1.006076525549207508e+04
-8.718563121369648798e+03
-7.387352136758219785e+03
-6.726209232639885158e+03
-6.271923865072708395e+03
-5.287375008291081031e+03
-4.186804601553493740e+03
-2.921766461604581764e+03
-1.658811098344186576e+03
-1.032948023023189762e+03
-3.970483673412759913e+02
-2.538924004078649830e+02
8.682928804748512164e+01
1.571505305631224587e+02
6.440979930292535300e+02
8.860934582566467270e+02
1.371271785753348240e+03
1.440781191729373859e+03
-1.026172194717254797e+03
-1.144193841277544379e+03
4.645964021142032720e+02
3.123291096325986473e+03
6.259408630327965511e+03
6.819276163547880969e+03
5.423013795712684441e+03
4.503762079637630450e+03
6.082740365813602693e+03
5.895135234021153337e+03
5.596101592749424526e+03
4.211723208688061277e+03
5.895013693899224563e+03
4.988208987813318345e+03
7.004541726487688720e+03
6.787226841021956716e+03
6.452542795531052434e+03
4.039763081488764328e+03
5.092972967884766149e+03
5.532512762088172167e+03
3.567583722347388175e+03
4.427318278288566034e+03
4.857868795801455235e+03
6.839408709268153871e+03
4.331040315875377019e+03
5.437909148117881159e+03
6.286189983586254129e+03
3.718195529659269596e+03
4.697272861090925289e+03
2.083723130071786727e+03
3.440821261875305481e+03
5.899880354890600756e+03
2.969044884323382121e+03
3.070454199752203749e+03
1.569246495988477363e+03
2.533570414461844848e+03
8.086265054533075727e+02
9.325444082441716773e+02
2.450422598290132100e+03
8.674741349634251719e+02
3.321822216425707211e+03
3.925712920503902751e+03
4.280417818307905691e+03
4.519033634629743574e+03
5.434746941870305818e+03
6.040718555381844453e+03
6.184051460456758832e+03
6.066816921814674970e+03
6.224971360756826471e+03
6.060501145410004028e+03
5.842328291969438396e+03
5.832460255190281714e+03
5.528836829259244041e+03
5.232337985034480880e+03
4.544149642882974149e+03
3.045318775560666836e+03
2.311612312847703834e+03
2.210080051913274019e+03
1.829985728234004455e+03
1.638304547761324102e+03
1.465933345007564867e+03
1.782945310685089453e+03
2.457379559254831292e+03
1.942064657217101455e+02
-1.247720949642895903e+03
9.536427455600580743e+02
9.750218519080779060e+02
1.115208882150537420e+03
8.734005967569727318e+02
3.632887567004300990e+02
-4.367213270188319285e+00
-1.685466596604204597e+02
-5.591649495873754461e+01
6.235454510688783785e+02
-3.953755845169263807e+02
-1.341866852028267886e+03
-1.358795565429223871e+03
-1.090140960258059522e+03
-1.480304357635709948e+03
-2.006035318087840778e+03
-2.112772490811943499e+03
-2.193329936813684981e+03
-1.189085743548378332e+03
-1.207043411781017539e+03
-4.350891697698801295e+02
-6.557599698818907541e+01
7.382605305399182782e+01
3.290541744842844309e+02
4.517893767669500562e+02
3.794624546630591908e+02
4.162015084995349525e+02
2.651020251512625237e+02
-1.538370625863470025e+02
-8.047524678949038162e+02
-2.286148754502514294e+03
-2.520267763831484444e+03
-2.945044945336100227e+03
-3.205421508159720815e+03
-3.149770507342755536e+03
-2.108229813467065014e+03
-2.281922951792964341e+03
-3.222974700127873348e+03
-2.272498009388238643e+03
-2.106560489069200685e+03
-2.563243333063100636e+03
-2.341574019901921929e+03
-2.416650740538244008e+03
-2.413621766017057780e+03
-2.019605941449895909e+03
-1.682563079306278041e+03
-1.662548582494273433e+03
-2.344665863186836305e+03
-2.165168028049873556e+03
-2.558154843416472886e+03
-3.295660577845151238e+03
-3.983754147327425471e+03
-3.448532832308570050e+03
-3.670036123188264810e+03
-4.742389175025336044e+03
-4.751565858269443197e+03
-5.934654517558358748e+03
-6.791715469632609711e+03
-7.633761603272055254e+03
-7.595888641675952385e+03
-7.636245226811131033e+03
-6.231970710961802979e+03
-5.852074149727348413e+03
-5.761628157222803566e+03
-4.984800429584794983e+03
-4.485558622498338991e+03
-4.681575864826208090e+03
-5.023057794765982180e+03
-5.415160196056302084e+03
-6.226912048635830615e+03
-7.979259733622925523e+03
-6.331175361137389700e+03
-3.551745765389533062e+03
-6.842960226709027665e+03
-8.134045786584269081e+03
-8.009155112444426777e+03
-6.711262534239077468e+03
-5.180378394941267288e+03
-3.327397344635902300e+03
7.696906295920955472e+02
2.649828960311039282e+03
2.554037593396199554e+03
3.064416316093578644e+03
3.427056384704864286e+03
3.160967335127504157e+03
3.259339159415915674e+03
3.142344714153122823e+03
2.980922474564738422e+03
2.745817122158439361e+03
2.436923093280543981e+03
3.260359548162360625e+03
4.209205169902422313e+03
4.303474752127440297e+03
3.613208071313382789e+03
2.634466893202013580e+03
2.548311208168062876e+03
2.724901964753256379e+03
2.490309780349930861e+03
2.539515078240285675e+03
2.347545509190862049e+03
3.446489094660786122e+03
4.577503055323967601e+03
3.933728209784608680e+03
3.126238892791414401e+03
3.437050179955955628e+03
3.877228726961151096e+03
5.163756371242208843e+03
6.795615862403068604e+03
5.564859424765370932e+03
4.148550177590983367e+03
3.494915948428654247e+03
2.764104771145484392e+03
1.065253147989943045e+03
6.484504701968248810e+02
8.977380691582835652e+02
1.085274633457534947e+03
9.973346883747744869e+02
1.038093955477388135e+03
1.394912875500602240e+03
7.718487425110101867e+02
-4.451158292141454353e+02
3.631838014299954125e+02
1.624251997591373765e+03
1.822314807512668494e+03
3.351705400745010479e+02
6.577133701522089950e+02
2.219018139626823540e+03
2.367109553582820809e+03
1.667862888207446758e+03
1.238598722093581728e+03
1.109431937566135730e+03
1.466512771763947057e+03
1.354821963184848300e+03
3.546051911981407443e+02
-1.739038630112981082e+03
-1.985015709077867086e+03
-1.678979689215496137e+03
-1.950967984057482454e+03
-2.294742187741996077e+03
-1.775999175268425915e+03
2.101185157139238981e+02
2.260509902121379127e+03
2.750193510613069066e+03
2.322019279066997115e+03
2.138065373429846204e+03
2.851649705398041533e+03
3.608787461155784058e+03
2.721551434527127185e+03
2.451044858017034585e+03
2.324337884470231984e+03
1.236589842514903694e+03
-5.301224198781525274e+02
-1.595960269745522510e+03
-8.420297412675673741e+02
6.836365053265575398e+02
2.591244456340030524e+02
-4.485530885475431546e+02
-5.146778594546734809e+01
1.610485750313734570e+03
2.194181945589593852e+03
8.136380901753590251e+02
9.440046292159611312e+02
1.251369799133009565e+03
1.411782187402763157e+03
1.126143442651998839e+03
1.321507377302763189e+03
1.132911925679195292e+03
4.322984390908317209e+02
-7.555431133882507311e+01
1.032282022723372137e+02
-3.201874776709036041e+02
-5.875996560663226091e+02
-7.661953157410231370e+02
-6.852095137883959524e+02
-5.207172589382959131e+02
-2.687145616436940259e+02
-3.411254591246359951e+02
-5.390414555378557679e+02
5.522389211058085721e+02
1.838578385973943114e+03
-6.271376839027533379e+02
4.003435791502227659e+01
7.470356547475665820e+02
-1.242144688626965490e+02
3.012136692613525497e+02
9.413014049249325126e+02
1.062217677567157125e+03
5.468711719337491104e+02
3.391428639796201878e+02
1.266813500625423558e+03
1.394813111716854564e+03
1.042976904219652994e+02
-5.228276853413567551e+02
-7.185033722548229207e+02
-1.185487345710214868e+03
-1.743100227415647169e+03
-2.308690606757330443e+03
-2.128527816280373827e+03
-1.749457242243360042e+03
-1.290356615639855818e+03
-1.286318031399746360e+03
-1.143459593356819141e+03
-1.122439808104564690e+03
-5.391657934004425670e+02
-5.245360961939754816e+02
-1.650012089705994356e+02
2.816774176263465961e+02
-1.077373282867850719e+02
-6.843708046981580537e+02
-7.897028284840100696e+02
-1.348747029319758440e+03
-1.688753237333893821e+03
-1.139857977982722787e+03
2.048829255944757222e+02
6.801052619333431721e+02
-1.192021695060149256e+02
-1.013221785063101720e+03
-1.126826157936476420e+03
-1.349283948098224755e+03
-1.458492469210420950e+03
-1.024379282998066856e+03
2.575461416215995882e+02
-7.750176464069994609e+01
6.941146008115963468e+02
2.229217329540735591e+03
3.399138606990039989e+03
4.001538935240734190e+03
4.551558960496977306e+03
4.991037770620346237e+03
4.765090545195270352e+03
3.973436908623433737e+03
2.385920763835961225e+03
2.356660931243503398e+02
-6.367058858729734538e+02
-2.921851941112018380e+02
-8.018629254897637111e+02
-1.090833847135665792e+03
-8.531661634678686141e+02
-2.708299065808753880e+02
8.622225512761752952e+02
1.370961782691076678e+03
2.047340436457001715e+03
2.314451272833515759e+03
3.077331116261229454e+03
3.463859205428572750e+03
2.142865253409165689e+03
2.351278050654333128e+03
2.770963780241816494e+03
-3.900501601585393701e+02
-3.878810185776560047e+03
-4.126382431857352458e+03
-4.734675117100183343e+03
