4.816598619690624218e+03
4.879877392577668616e+03
2.838780032819779535e+03
4.727936676975432420e+02
-9.277541362424753970e+02
-1.819667272639071598e+03
-4.276914794816697395e+03
-7.402425989989903428e+03
-9.412262276311510504e+03
-9.809159404552827255e+03
-1.006677123840028435e+04
-1.107712171485654289e+04
-1.103301460684596714e+04
-8.158096574447098646e+03
-5.867016594856723714e+03
-3.849359354034667831e+03
-1.314938689380307324e+03
1.587456236036314067e+03
4.268797807173091314e+03
5.030211423502139041e+03
4.937031621591191652e+03
4.927641444509539724e+03
2.979252055799041045e+03
2.990796044796993101e+03
2.441390434037474733e+03
-8.917915929897709475e+02
-4.341593143246523141e+03
-6.632981066662121520e+03
-8.866050800353043087e+03
-9.876632259426847668e+03
-8.592500771633209297e+03
-6.948570478911711689e+03
-5.649977817080309251e+03
-4.260573049584492765e+03
-3.316938509458316730e+03
-2.714628598020327900e+03
-1.644214160499720720e+03
4.775144395247811531e+02
9.858766257424590549e+02
9.546513520702646929e+02
2.360633913538372326e+03
5.922993866455683019e+03
6.254642421045393348e+03
2.405687620771123875e+03
3.265184609075154754e+02
-6.658007652646076622e+02
-1.509506533178229347e+03
-2.910659606203891599e+03
-4.489081952760338027e+03
-4.563827754472559718e+03
-1.612207201115820226e+03
-5.308018387792706108e+02
-2.147209534646027862e+02
7.098219798277169730e+02
2.317863774172726608e+03
3.193627410687573047e+03
2.884118361112274215e+03
3.391613360603162619e+03
5.813162598389957566e+03
9.073930804483004977e+03
1.162563126744746114e+04
1.361393265351881746e+04
1.316309689345142033e+04
1.030302537706178919e+04
8.036620326559782370e+03
6.020721445911418414e+03
4.242080530660204204e+03
4.423755566721485593e+03
3.941787104109030679e+03
1.829818530710901086e+03
6.264867767419247002e+02
-3.328247611169252309e+02
-1.520927332994755034e+03
-2.492731339511496572e+03
-2.161254143282791119e+03
-5.280618609103781864e+02
1.486544326954682674e+03
4.918295949047662361e+03
7.334018645234556061e+03
9.092748065104673515e+03
9.670369801748540340e+03
8.678726651991453764e+03
8.244829861554369927e+03
6.918555986853116337e+03
5.735611098399697767e+03
5.464724635157836929e+03
4.185561781619107023e+03
2.818761843192680317e+03
9.161835408208141871e+02
-7.381824080037164322e+02
-2.393582282127916187e+03
-2.999134845144884366e+03
-1.938987748170712393e+03
-8.756286236259666111e+01
-1.680292100104890665e+02
7.145602316440374580e+02
1.883199646357614711e+03
8.057809245730691146e+02
7.050660996768509676e+02
9.829798169483135553e+02
1.454280416619830874e+02
2.168152646257853121e+03
5.442117998843011264e+03
3.733162602106387567e+03
-1.758154450028921019e+03
-6.285141332743738531e+03
-8.970933251771839423e+03
-1.073296543885026767e+04
-1.154235161259555571e+04
-1.183824775334146398e+04
-1.255183226922534232e+04
-1.282029677572425499e+04
-1.291588566522066139e+04
-1.126785731189152102e+04
-6.237435968083853368e+03
-5.737811149452075369e+03
-5.596850522054255634e+03
-4.807490444536008908e+03
-3.043069601816694558e+03
-1.052802466170955313e+03
-3.287789465207567332e+02
3.232700496230457702e+03
8.242583001644810793e+03
7.452779819661314832e+03
4.681111693198827197e+03
3.297308467167948493e+03
1.882925888066242351e+03
-2.144723807966083768e+02
-3.048937178797272281e+03
-4.508539027326148243e+03
-4.564290638740674694e+03
-4.054250977796675670e+03
-3.308763741811286309e+03
-3.213080491290082136e+03
-3.144085098745172218e+03
-2.212491957451777580e+03
-1.073631718348290633e+03
-1.068192588950557109e+02
4.428487090758112004e+02
9.502703870116150711e+02
2.092396747477517238e+03
3.331281404660339831e+03
4.751870053979979275e+03
6.066096287312550885e+03
6.362862673329295831e+03
4.165055460469357968e+03
1.565321993953050196e+03
-3.853094560712248153e+02
-2.888993917615805003e+03
-4.994029720707239903e+03
-5.155484057548259443e+03
-5.110393174731207182e+03
-4.827839099186842759e+03
-3.378683412039499672e+03
-1.504989553025219948e+03
6.113249812745708596e+02
2.375316123201387200e+03
3.844043472730153553e+03
6.216448586088422417e+03
8.594636251592110057e+03
9.131380389193642259e+03
9.142982903823642118e+03
8.668221248199633919e+03
7.645737341265676150e+03
6.506262430696120646e+03
4.661932967708617070e+03
2.298109680192310861e+03
-3.172562126269683063e+02
-3.342341425414422247e+03
-6.948121863007360844e+03
-7.077431520505662775e+03
-7.872143831502916328e+03
-8.333132356050231465e+03
-5.682267463212102484e+03
-2.472248415399079931e+03
-1.358947028816777220e+03
-1.410081059416177709e+02
2.423970959870468505e+03
4.153159014146628579e+03
4.911452930814804859e+03
5.042437293009198584e+03
5.443174185943491466e+03
5.051745788280722081e+03
3.819120745205315416e+03
2.221409395707819840e+03
-2.371205172579713576e+02
-2.598536985851827012e+03
-3.858684125179601779e+03
-5.683386960816821556e+03
-8.227398596555647600e+03
-1.019459533826227380e+04
-1.152794967850384819e+04
-1.195213271752301262e+04
-1.107696788194183137e+04
-8.699622691969874722e+03
-5.550836823122198439e+03
-3.763181597124511427e+03
-2.830346567909291934e+03
-1.308118619946439821e+03
7.637607094789863140e+02
2.276637440725653960e+03
2.482666726089111762e+03
3.201151934884596358e+03
4.831424969170749137e+03
5.179938197463838151e+03
2.979775159837806314e+03
8.246868620597529116e+02
-8.681286874435394338e+02
-1.896639532283413246e+03
-2.544695129286530573e+03
-2.421005816573610446e+03
-1.358534761179441830e+03
-1.796119651465524612e+03
-1.267285041149448034e+03
1.492259933821027062e+03
4.063684908349120178e+03
5.267218908089284923e+03
6.157091587017001075e+03
6.859694873180423201e+03
7.953205850480983827e+03
9.469131785088993638e+03
9.445769721798178580e+03
8.343087281491472822e+03
4.659120437266127738e+03
2.229909197101382233e+03
1.574385279918435003e+02
2.858031194201603284e+03
2.439930256271324197e+03
-2.660742933611847548e+03
-3.376988042901809422e+03
-4.307765357464237240e+03
-3.646911237150467969e+03
-3.942434319167388821e+03
-3.786106185373261724e+03
-3.384260861799270060e+03
-2.400896370384587954e+03
-9.418365488292944292e+02
5.450522582594907135e+02
2.785041905332274382e+03
4.706495169460859870e+03
6.147556193091271780e+03
6.253709462547936710e+03
7.196885316428108126e+03
8.744716194656375592e+03
1.017631069165769622e+04
8.038736174302652216e+03
5.810257252809945385e+03
2.836632006221343090e+03
-9.818702239175065642e+02
-3.489597371586035024e+03
-3.093800719086776553e+03
-2.840329461663882284e+03
-3.439850562312925831e+03
-3.116313162148851006e+03
-1.647941789544969652e+03
-2.783998635300188766e+02
6.853380770978794772e+02
1.224478566111180498e+03
1.573815622563306988e+03
2.100484656675079805e+03
3.022520987488886476e+03
4.046035807692709113e+03
4.105374245373119265e+03
4.242713082023131392e+03
3.309014748921146747e+03
9.833965843886935545e+02
-9.216195883830469029e+02
-3.273329990955836365e+03
-5.976933491138547652e+03
-7.305821631222020187e+03
-7.028226000836115418e+03
-5.800072094145979463e+03
-3.717161039721158886e+03
-7.593882787843563165e+02
1.324812330869690641e+03
3.187299272457659754e+03
4.984561297781065150e+03
7.438043350585775443e+03
9.637516731013300159e+03
1.075825082743528401e+04
1.095896939496564846e+04
1.032282762348343385e+04
1.027424720695122232e+04
9.642585321155760539e+03
8.877466229996776747e+03
7.785199775394615244e+03
5.177839600359067845e+03
3.298976255219131872e+03
6.725573217661610670e+02
-1.521552440749546122e+03
-2.183418476561227635e+03
-3.728490219232437084e+03
-5.426126685855709184e+03
-5.078963249257352800e+03
-2.921827815410243602e+03
-8.705430198729608264e+02
7.208648405801454828e+02
2.155490942036678007e+03
2.359942456525619036e+03
1.354125381654078637e+03
1.900555195227118929e+03
1.803108966541125483e+03
5.969569192091231571e+02
-5.868226809598467071e+02
-1.177111380462631359e+03
-2.343532231002182925e+03
-3.643669070898503378e+03
-5.450245070928431232e+02
2.244479666992886905e+03
-1.014241008760690761e+03
-8.227321048559308110e+03
-1.111024929121765126e+04
-1.191110075830053211e+04
-1.017008177470708142e+04
-7.866415598544104796e+03
-2.054366835164606982e+03
8.560932285274158176e+02
-1.214414555691116448e+03
-8.629298441338547718e+02
-3.964388140811611265e+02
-5.447581651140399117e+02
-8.881137509077235563e+02
-2.145911076904285437e+03
-3.003916907315628123e+03
-4.458330928708581268e+03
-7.107952475632713686e+03
-9.003370275643725108e+03
-7.160957402582296709e+03
-6.919001746380164150e+03
-1.201726550033227250e+04
-1.144014506526046171e+04
-4.964981692754901815e+03
-1.856025663437702633e+03
-8.741937552554545618e+02
-1.966728241914779858e+02
1.248423567726158126e+03
2.169727477228389034e+03
3.171719290365727829e+03
4.927031455743288461e+03
6.627876722657459140e+03
8.348971736577352203e+03
8.758515578535778332e+03
7.681920399107487356e+03
6.945693765346339205e+03
5.995501072104094419e+03
4.460811490948668506e+03
2.623638095282653467e+03
9.251051402598321829e+02
-8.207616751827808912e+02
-2.213360490709191708e+03
-3.274833437967026384e+03
-3.610921273101605948e+03
-2.877839451909441777e+03
-1.099533562107907755e+03
-8.027773593726358285e+02
-5.349223920908056016e+02
5.808765513088590069e+02
1.907370677639141832e+03
3.905688546748556291e+03
6.417439071472505020e+03
7.821364416128260018e+03
7.035907847899277840e+03
6.754351494045319669e+03
5.666606312644109494e+03
3.870341191852257907e+03
2.971151539868275449e+03
2.438488958917296713e+03
1.218735169518141447e+03
-1.376802196313459717e+03
-4.082931813630650140e+03
-6.227489537246498003e+03
-8.864006794208575229e+03
-8.926586113382507392e+03
-5.150967399239812039e+03
-1.052524358729818232e+03
1.113345095919355344e+03
2.730853599695763933e+03
3.599522590461238451e+03
5.449460352282082567e+03
7.605139751180304302e+03
9.161799452171848316e+03
1.048545052876808768e+04
1.003547126020866745e+04
6.818692123290671589e+03
3.836672657820205586e+03
8.003660772110301878e+02
-1.150266217566332671e+03
-2.313306707549583734e+03
-4.684919104414671892e+03
-6.754163323235634380e+03
-5.890910499407370480e+03
-2.376113103165591383e+03
-6.019314974108741580e+02
3.818923874128443572e+02
1.485433266333227721e+03
2.237824919700422015e+03
3.924552640936405624e+03
6.034661463820838435e+03
7.435417156744512795e+03
8.129439416641518619e+03
7.803836830234394256e+03
7.238914086927031349e+03
6.709848633276819783e+03
7.525105968794635373e+03
8.646263860699500583e+03
7.372667068071412359e+03
4.789484671712119962e+03
2.318821935115982797e+03
-4.500678820585017661e+02
-2.061045723533601176e+03
-2.939886261903444392e+03
-3.209138331582254523e+03
-3.958375745047747387e+03
-5.134178174295632743e+03
-7.118113830362611225e+03
-1.053787334009767983e+04
-9.019902020227436878e+03
-5.676600846539231497e+03
-3.364231343888081938e+03
-1.738078181352265574e+03
-1.458778277421536586e+03
-2.295902906955197977e+03
-2.031899663656004577e+03
-2.667087262657613792e+03
-4.665760849859563677e+03
-6.507291205042706679e+03
-7.992978949021410699e+03
-7.772592435776395178e+03
-6.553424549333115465e+03
-3.748891983598317893e+03
-3.867866188269200848e+03
-5.397090843941806270e+03
-8.008719595263502924e+03
-8.378949722898185428e+03
-7.331548525205867008e+03
-4.634946967040350501e+03
-1.102340825930006531e+03
5.099725618841065398e+02
2.296439325350712807e+03
1.912626825626557320e+03
3.593321954258414053e+02
-2.498387680015782450e+02
-1.226493162228620349e+03
-2.364855462635865024e+03
-3.204281004521737032e+03
-3.021329554044828456e+03
-3.705731229641264690e+03
-5.214192276647366270e+03
-4.535216957665268637e+03
-4.605363174882666499e+03
-8.109316177578170027e+03
-9.490863435987139383e+03
-9.260770669044542956e+03
-8.424654945686828796e+03
-8.521838970084321772e+03
-9.114922026773032485e+03
-8.654635918071762717e+03
-8.755918434672525109e+03
-8.796492971562680395e+03
-8.966117987989993708e+03
-5.368691559854328261e+03
-3.529067530329469378e+02
8.756968968755865035e+02
1.660231201605903834e+03
-3.151861934707351338e+02
-3.027539661793276537e+03
-3.922737532527749408e+03
-7.005893753694967018e+03
-1.045204123588491711e+04
-1.109908075337091577e+04
-1.091510182520335729e+04
-1.078234293948390587e+04
-1.002274708064694642e+04
-1.015135980464404747e+04
-8.827345378662437724e+03
-8.965751038764663463e+03
-6.664563007695008309e+03
-2.322082910482443822e+03
-1.293130500908177112e+02
1.280540900967694824e+03
1.187625371200613245e+03
-5.630710123086150816e+02
-3.659338743771194231e+02
-2.742254211293369508e+02
7.391407209740232531e+01
-3.350938832052162866e+02
-1.845896761081149407e+03
-3.821052738687989404e+03
-6.805389811821301919e+03
-1.068835850280878003e+04
-1.241519804354770895e+04
-1.232548357609327104e+04
-1.516208108115874893e+04
-1.551150039085943899e+04
-1.398809909774956213e+04
-1.168857954168483957e+04
-9.924573672393147717e+03
-3.079557579310469464e+03
3.192926593471806427e+03
3.884053771777593283e+03
3.068954690392736211e+03
3.349069852378223686e+02
3.075553951997466356e+03
4.820088996990187297e+03
8.574781730567989143e+03
8.378951709292401574e+03
4.541779466715323906e+03
1.169213576422101823e+03
1.317406531690285192e+03
1.355656702050952617e+03
-5.698754420983188993e+02
9.859235091257429531e+02
2.081266020601025048e+03
5.348351138053568320e+03
6.786274343931356270e+03
7.818261301268255011e+03
8.630412140405636819e+03
1.198383402992502852e+04
2.195559140751927407e+04
2.085287046643661961e+04
1.774887844793411932e+04
1.654490257841494895e+04
1.006603208886686116e+04
1.285238141985150469e+04
1.332725199737304138e+04
1.015470675738600949e+04
7.295641850126311510e+03
5.833978931326007114e+03
8.322959202317491872e+03
1.560489858608102259e+04
2.123567585732568477e+04
1.365133617660438904e+04
1.071995714084038082e+04
1.405955075023595055e+04
1.665244598767645948e+04
2.314389597887739001e+04
3.126414372478181758e+04
3.051447077451663790e+04
3.397628783042341820e+04
4.472903442705297493e+04
5.592814236951820203e+04
6.213000687592157919e+04
5.966495582747383014e+04
5.566343188795780588e+04
5.312970346443680319e+04
5.047823813504923601e+04
4.917857846095225250e+04
4.328415172210565652e+04
3.271034714311989228e+04
2.766072983366699918e+04
2.784862104910858397e+04
3.180851164483692264e+04
3.863622692995493708e+04
3.866525252047939284e+04
3.880622846492963436e+04
3.714400984592909663e+04
3.994685756530008803e+04
4.566041169177216216e+04
4.440567449131467583e+04
4.664573746028609457e+04
5.319745041283794853e+04
5.476370782435229921e+04
5.256756881787614839e+04
4.908810618982624874e+04
4.702228316103028192e+04
4.521905716365316039e+04
4.454244020378831192e+04
4.032954034714018053e+04
3.593470866059137188e+04
2.847226577251439085e+04
1.892223822662587554e+04
7.607079618607213888e+03
-2.616608312119685706e+03
-4.526332221438708075e+03
-5.472957491006369310e+03
-7.037010562684412434e+03
-7.630031232957278917e+03
-9.849402900984559892e+03
-1.714843860175071313e+04
-2.160540040450631932e+04
-2.650267763193359860e+04
-2.892355553531827172e+04
-2.648723227294550452e+04
-2.651994340821518927e+04
-2.911426538638066995e+04
-2.782826951790560997e+04
-3.038078997572040680e+04
-3.567758972077978979e+04
-4.288210167708205699e+04
-4.852739155082851357e+04
-5.476443449962509476e+04
-6.353224121084628860e+04
-7.933598356745173805e+04
-1.076255360578592663e+05
-1.362347909771857376e+05
-1.545865833395989903e+05
-1.687808150440278987e+05
-1.842453628061311319e+05
-1.972568876621050877e+05
-2.079570300343466515e+05
-2.124476158027928323e+05
-2.123425357928117446e+05
-2.120864613956051762e+05
-2.101669394011422119e+05
-2.060857118762531609e+05
-2.042566055051217554e+05
-2.021383207521779404e+05
-1.969396411999122938e+05
-1.914764357318520197e+05
-1.821566259364265716e+05
-1.683450605598531256e+05
-1.535453167092677322e+05
-1.348401066925960768e+05
-1.140641738891542191e+05
-9.475398716841274290e+04
-7.127315528677654220e+04
-4.792871431761936401e+04
-2.892227828338167819e+04
-1.271018181970673140e+04
1.080678718755071714e+04
3.984796943501671194e+04
7.557461344392762112e+04
1.030478181183811830e+05
1.178438167436518706e+05
1.309098911426881095e+05
1.398173282096621115e+05
1.449943857638060581e+05
1.524340859010218119e+05
1.598196615783560555e+05
1.616860682948017784e+05
1.628858482091356127e+05
1.633587938609060075e+05
1.562781179631826526e+05
1.418258566827205941e+05
1.311590892063157808e+05
1.296286692267722974e+05
1.273194815401149535e+05
1.236564203027873882e+05
1.272993853923999850e+05
1.307944572101801605e+05
1.290816026666910038e+05
1.259585512043747876e+05
1.234609720883003029e+05
1.213884230706973758e+05
1.177894783227814187e+05
1.132487869312097901e+05
1.089517965956115804e+05
1.041387351232800429e+05
9.646978143297147471e+04
9.041033118891918275e+04
8.302669625493185595e+04
7.413618713509339432e+04
6.856628298808354884e+04
6.140206093506116304e+04
5.464161312047251704e+04
5.352214932198899623e+04
5.162493093169227359e+04
5.016209133009704237e+04
4.491160086447040521e+04
4.072649180417559546e+04
4.062553127108209446e+04
4.083551805248371966e+04
3.973653344508742157e+04
3.792642258514398418e+04
3.549696117868572765e+04
3.044887063273123931e+04
2.430868891290582906e+04
1.922798357633503110e+04
1.480632897524457076e+04
1.021822182313396297e+04
5.319014332487517095e+03
-5.537837354294515535e+02
-5.187495281273746514e+03
-1.017494477243449182e+04
-1.259807325651134124e+04
-1.229248662663444884e+04
-1.401291015020715167e+04
-1.714394998323334949e+04
-2.122230483458532763e+04
-2.472980462304104367e+04
-2.706419967686713790e+04
-2.936456390188683872e+04
-3.100478338410933429e+04
-3.366491338270719280e+04
-3.502914786984838429e+04
-3.549749717701652844e+04
-3.786321304420188244e+04
-4.326759569038917107e+04
-4.727389015292312251e+04
-4.792714909847072704e+04
-5.103027169200008211e+04
-5.481773790873756661e+04
-5.646692865982328658e+04
-5.667116343804648204e+04
-5.777853001695674902e+04
-5.952819222229135630e+04
-5.895717191522719804e+04
-5.773967292334220110e+04
-5.948408612024134345e+04
-5.831946244210403529e+04
-5.381589137685090827e+04
-4.965267593208724429e+04
-4.865035774899940589e+04
-4.977033701706767170e+04
-5.024589954153845611e+04
-4.994653677103132941e+04
-4.955153939879842073e+04
-4.969899633940587955e+04
-5.054633231704491482e+04
-5.247091494981641154e+04
-5.099611916653649678e+04
-4.732822009326731495e+04
-4.237640679725988593e+04
-3.981101625318172592e+04
-3.805722709261564887e+04
-3.562713773843272065e+04
-3.341883817616248416e+04
-3.075374460287671900e+04
-2.694710811039265900e+04
-2.386684720532569918e+04
-2.073815383910092351e+04
-1.829996353365263349e+04
-1.545132947190766208e+04
-1.413542167297765445e+04
-1.282008031774081246e+04
-1.210031809632513614e+04
-1.184526564426975528e+04
-1.211702166455427687e+04
-1.083968649588654625e+04
-1.031532851073397069e+04
-1.122376630677559660e+04
-1.184899763065353727e+04
-1.014674349784551850e+04
-9.554992607137279265e+03
-8.039731247592325417e+03
-7.822451228861677919e+03
-5.978691919841278832e+03
2.859984324725305100e+02
6.425167628028388208e+03
5.704171558161662688e+03
4.179577180431346278e+03
7.310857345358636849e+03
1.149453125635678407e+04
1.411917170593890114e+04
1.338636299944698476e+04
1.137886762371621808e+04
1.272776555678349905e+04
1.369630538219678965e+04
1.071094146426044426e+04
8.192613982680773915e+03
8.399938354819914821e+03
8.314596450818582525e+03
8.018460195380826917e+03
9.740569227306592438e+03
1.215449463106784424e+04
1.400795019911195050e+04
1.471430009037886339e+04
1.560992008521565549e+04
1.789213957500825927e+04
1.904173789508777190e+04
1.922900196867073100e+04
1.879687571794987525e+04
1.829377509709046717e+04
1.695619700749791809e+04
1.464447690620830508e+04
1.241261549257148727e+04
1.044890421336182771e+04
8.842886613891851084e+03
8.013720839923716085e+03
7.675819556626463054e+03
6.393471164133531602e+03
6.069128071611318774e+03
5.629176249340684080e+03
5.540218607494847674e+03
5.054769886913141818e+03
4.520828216139492724e+03
5.318804922982470089e+03
7.576608594146204268e+03
8.069666787589143496e+03
8.571149424664852631e+03
1.083017145883183002e+04
1.180958322224525000e+04
1.074436888987781640e+04
8.020295633861770511e+03
7.372966362532723906e+03
1.056777752326056361e+04
1.244097580165068393e+04
1.287335208773429804e+04
1.229973943808298463e+04
9.357579476108978270e+03
8.696144529451628841e+03
8.642220984702871647e+03
7.811157293854876116e+03
6.137492003626092810e+03
4.817766018321555748e+03
5.693516443486941171e+03
7.671942793064433317e+03
1.065672167206854829e+04
1.335897847044106129e+04
1.542923866828731298e+04
1.622957820020952386e+04
1.626871044031686688e+04
1.737055427518265424e+04
1.933980511967742132e+04
1.879747354091489251e+04
1.785187139917718741e+04
1.514658899508243849e+04
1.250101597574814878e+04
1.244552556809276757e+04
9.742580161249987214e+03
5.613269052429542171e+03
8.263511362367596575e+02
3.137489088707502560e+02
-1.102167123319103439e+03
-1.244049778552732960e+03
2.793531776385012790e+02
1.023475382424640088e+03
1.649639810707223205e+03
2.694859403613267204e+03
4.370171426728419647e+03
1.059735505395723339e+04
1.735392541025570245e+04
1.750446326983904510e+04
1.081546859214818687e+04
7.859812806427906253e+03
7.156076485045524350e+03
5.708042981361354578e+03
7.238443202361130716e+03
3.467914683687906290e+03
-1.918078405986499547e+03
-4.116726655759004643e+03
-4.372776088225322383e+03
-5.109745371622287166e+03
-5.617286807698571465e+03
-4.953944804691578611e+03
-3.518927622508503191e+03
-2.024077496189656358e+03
-5.739357488810923087e+02
6.697150200015192922e+02
2.807674803030952262e+03
4.729331666857039636e+03
7.567102974911389538e+03
9.307881115037418567e+03
8.183992882157485838e+03
9.787705775283442563e+03
9.639316265296993151e+03
8.690875653921750200e+03
7.478412965600029565e+03
4.427095664831747854e+03
1.524629585724866729e+03
-1.210658498215340614e+03
-2.352252504183099063e+03
-3.586555220838027253e+03
-4.825637518186018497e+03
-4.922277734047635022e+03
-4.132548173145595683e+03
-3.252526827097256955e+03
-4.066699763573430573e+03
-4.605619443907216919e+03
-2.939651764043506319e+03
-9.633019996608477413e+02
-1.690949711172453362e+02
1.345059884137779818e+03
2.547806372362876118e+03
2.611509593540642982e+03
9.996603241137509031e+02
-1.502572445746789299e+03
-4.189175160182843683e+03
-7.720920207753570139e+03
-1.170789041129463658e+04
-1.280207191008725567e+04
-1.149914472299546105e+04
-1.334513287770054376e+04
-1.493857250477259913e+04
-1.371408245901291593e+04
-1.253638181721653928e+04
-1.089557238181942557e+04
-9.932298474038827408e+03
-9.969219626464100656e+03
-9.501568829521029329e+03
-8.660665895027206716e+03
-8.080770755300981364e+03
-6.725918703346947950e+03
-6.671191611923301025e+03
-6.039969396829407742e+03
-4.547574112852178587e+03
-5.249823097094982586e+03
-8.170814381979193058e+03
-1.025465313395185512e+04
-1.226584195255257509e+04
-1.356670267729503757e+04
-1.482422868047364864e+04
-1.570483742832235475e+04
-1.658474983837928085e+04
-1.660602151471657271e+04
-1.440818314041027224e+04
-1.228615021934762990e+04
-1.012737766132953220e+04
-8.521719931362758871e+03
-7.216136468386309389e+03
-5.510554173277581867e+03
-3.922778318015303284e+03
-3.242602435055911883e+03
-2.854928985257149634e+03
-2.434591504453953803e+03
-3.081230517866780247e+03
-5.047824140146462014e+03
-7.201164179079413771e+03
-7.059962499787054185e+03
-7.681285211292775784e+03
-8.826861355875515073e+03
-9.635575007426437878e+03
-8.816659859680936279e+03
-7.739973658570593216e+03
-7.370397339657269185e+03
-6.052381242681629374e+03
-5.040775056333247448e+03
-4.247593164667715428e+03
-2.327672199145682043e+03
-1.079688739845748842e+03
3.966166529917001640e+02
1.539473405638242184e+03
2.005254836855292524e+03
2.474175512632393293e+03
3.748263242419998733e+03
4.315578472669147231e+03
2.359209985379654881e+03
-5.866622091463691504e+02
-2.821783780914672207e+03
-3.100031894995682705e+03
-4.552222838151569704e+03
-5.213387095685538043e+03
-5.956694879223603493e+03
-5.595979336994266305e+03
-4.755961559996626420e+03
-2.162308981239225886e+03
2.139190863658741364e+03
3.504641825048076498e+03
5.883274711632596336e+03
7.860216116034896004e+03
9.581576112629230920e+03
1.371434663858476597e+04
1.889691402648941221e+04
1.971938707765548679e+04
1.711103464076125238e+04
1.319893598403713622e+04
1.417290662445644011e+04
1.281816835888295282e+04
1.088281993086366128e+04
8.756687415299831628e+03
6.662566218933662640e+03
5.809498595858583940e+03
5.845531804372883926e+03
5.158546451257065200e+03
3.310577490989051057e+03
3.688943757295522573e+03
6.677440627430332825e+03
1.057780695238995577e+04
1.326803286560633933e+04
1.438926837566652648e+04
1.498972030696604088e+04
1.555536410482543943e+04
1.586810556773177632e+04
1.507387245405281465e+04
1.401467356608999762e+04
1.335854484005247650e+04
1.218840215351032566e+04
9.862907579358372459e+03
7.429667807261937014e+03
4.352348454175548795e+03
7.869884866143445379e+02
-1.813469733420625289e+03
-3.498238178426649938e+03
-4.032401905077659194e+03
-2.819020897341690670e+03
-1.055253037746630980e+03
2.888861054199830960e+02
1.429361871546635030e+03
2.057142132460902303e+03
3.078188147925128305e+03
4.496591818973356567e+03
5.255226807240715061e+03
7.069984648511816886e+03
8.645677018557413248e+03
8.587197799765030140e+03
7.312352629649988558e+03
5.916006694482768580e+03
4.026071609381709095e+03
1.750370539201635438e+03
-8.444824071139041735e+02
-4.116578514182750951e+03
-6.334134944926709977e+03
-7.288284137836888476e+03
-8.429377148672112526e+03
-9.571027949248531513e+03
-9.873202324096495431e+03
-8.556162370405887486e+03
-6.598918369488791541e+03
-4.882362712370307236e+03
-3.882785573202436808e+03
-3.668910803958827273e+03
-3.209724890388979475e+03
1.606829526179566756e+03
3.014259799237662719e+03
2.725376835832239976e+03
1.252360255085133531e+03
-9.440174236966815897e+02
-3.696231453080739357e+03
-5.785524261032182039e+03
-6.566031915846987431e+03
-5.978056087180190843e+03
-7.894845758599849432e+03
-1.073353030828558258e+04
-1.153619191566806876e+04
-1.188007781240292206e+04
-1.120948360263071118e+04
-8.969415349320426685e+03
-6.637825180423438724e+03
-4.841716653102248529e+03
-3.803151089647824392e+03
-2.325202196484377055e+03
-1.524915878418846660e+03
-1.396415507102236006e+03
-1.288849512070325318e+03
-8.263584388091653636e+02
-6.252152939878218376e+02
2.783375788082472013e+02
-4.337847475712100618e+02
-3.335801985186196816e+03
-6.152835615451866033e+03
-7.010026999373536455e+03
-7.250731715298863492e+03
-7.192184115572304108e+03
-6.041469785003518155e+03
-6.380835249712044060e+03
-6.700280080663434092e+03
-5.492888826685795721e+03
-3.917996585473709274e+03
-2.546697565511848097e+03
-7.809142257605432178e+02
4.134699330441021630e+02
1.396169358386936665e+03
2.003768557000007377e+03
3.041228083161673567e+03
4.332500942618379668e+03
4.541522291754008620e+03
4.277347472854454281e+03
3.657720354071421298e+03
1.804498828012109016e+03
-7.434249826822143632e+02
-2.665161377664081101e+03
-4.345877399533136668e+03
-5.479830289720959627e+03
-5.632176925812672380e+03
-4.899156126517990742e+03
-3.411857570467205278e+03
-8.813046016914606753e+02
1.189594073983774024e+03
4.195941789359731047e+03
7.117659780277189384e+03
7.388554438263374323e+03
7.320704991453182629e+03
8.204036682724550701e+03
8.852650586847985323e+03
8.792430068770188882e+03
9.229108305296464096e+03
7.996142852833015240e+03
6.795675032503965667e+03
5.781900348164792376e+03
4.657387435876774362e+03
2.555992594596559229e+03
7.626674623729840050e+02
-1.024153775163204273e+03
-2.106173167845611715e+03
-2.663333753433046240e+03
-1.863640618925835952e+03
-7.489951896541376755e+02
2.940246595917547552e+02
1.450103411671632102e+03
3.070995137981589778e+03
5.378089044511957582e+03
7.910145384801821820e+03
1.028010951913265853e+04
1.238907634530359792e+04
1.296079689797584433e+04
1.255672631539077884e+04
1.132018595902987363e+04
8.861725111109317368e+03
6.719952855874495981e+03
5.208365946168310074e+03
3.338787601865853958e+03
1.310352128989027051e+03
-1.182426142126007335e+03
-2.894279609005271595e+03
-3.149177216874629266e+03
-3.499370769056977679e+03
-3.034513084476991025e+03
-1.631672609205569415e+03
1.168142435076495758e+03
3.660939103881273240e+03
5.466944656818513977e+03
7.410310059005258154e+03
1.019783864781587181e+04
1.177482194697488558e+04
1.145320641809385597e+04
1.033035868051303078e+04
8.504286725449730511e+03
6.280872358044336579e+03
4.091976301616125056e+03
2.438621961892448780e+03
3.689112109755478741e+02
-1.777087391522240978e+03
-3.213495823476166606e+03
-3.679295550410415217e+03
-3.821262489352146531e+03
-4.965312602225865703e+03
-7.284521742095554146e+03
-1.012489512140005172e+04
-9.503277288513103485e+03
-8.220690138394758833e+03
-6.346960435310795219e+03
-4.472914195133684188e+03
-2.524352262112172411e+03
-7.460874737864488679e+02
7.620313983806890974e+02
1.368183632507374114e+03
9.205135313057419353e+02
-4.961146990933507368e+02
-1.539923267559440774e+03
5.834693026394658091e+02
-1.148629321157229271e+02
-5.498131927769268259e+03
-1.058137838656163694e+04
-8.881738577662876196e+03
-1.050414557667399822e+04
-1.315443135377360340e+04
-1.224554309031671801e+04
-1.045841895539645157e+04
-8.105879701367767666e+03
-6.600932475984505800e+03
-4.106429895428445889e+03
-1.974243027676464180e+03
-1.593531283599315600e+02
1.579401205734577161e+03
2.689134672966960352e+03
2.646897330014876388e+03
1.628828186146749431e+03
1.651902510933432040e+03
4.829068448886141596e+03
4.788382437483053764e+03
1.892931714447832746e+03
-1.022390572309626464e+03
-2.524726196056471508e+03
-2.175112524509842387e+03
-2.089586753706626041e+03
-1.786016089195444465e+03
-8.922903993130762501e+02
5.656535844961899073e+01
1.461587569091224623e+03
3.032944301634293879e+03
4.857680640827344178e+03
6.606742431280210440e+03
8.170310658938621600e+03
8.875640384692016596e+03
8.968769982372479717e+03
8.821436401306684274e+03
7.912789715991578305e+03
5.793030363681497874e+03
3.815099142487327299e+03
8.568213706030935555e+02
-2.467786871557340874e+03
-5.346698943516631516e+03
-8.442095920256902900e+03
-1.005298441678951895e+04
-1.083735925175549346e+04
-1.025023611790951327e+04
-8.478473253796721110e+03
-5.720025750953321221e+03
-2.335767358824268285e+03
7.344088020260894609e+02
3.140484751287609924e+03
4.997493821343910895e+03
5.708704074846137701e+03
6.061232290894190555e+03
6.114930958105836908e+03
6.453938508557147543e+03
6.401450283686086550e+03
6.396666111755320344e+03
5.396400724536224516e+03
2.717711137697193408e+03
-3.063264456413551784e+02
-2.799702818429444505e+03
-4.662720899177825231e+03
-6.321603923857991504e+03
-6.928220512324275660e+03
-6.838554696201570550e+03
-8.030448979233129648e+03
-9.889762037491986121e+03
-6.858480757345118946e+03
-4.864778637605880249e+03
