-3.176969607491568240e+03
-2.466441264022959331e+03
-1.434677638790337824e+03
-3.054868573802297647e+02
4.022025303055828545e+02
1.040321554550339442e+03
1.628640026152970449e+03
1.729998736034221793e+03
2.372590415439591197e+03
2.583667729475475426e+03
2.278500869691792559e+03
2.208349463428662148e+03
2.196366665289703178e+03
1.922623921103893963e+03
1.673319796891323222e+03
2.098679611314931208e+03
2.932898018840997793e+03
3.816242527710029208e+03
5.315814788947315719e+03
7.235911333649573862e+03
7.967906506532618550e+03
8.088504818552313736e+03
8.436858258407633912e+03
9.137984596464952119e+03
9.657852842042129851e+03
1.048916497323986550e+04
1.104780784697728086e+04
1.127674670901819445e+04
1.171638880999807952e+04
1.275297717741817723e+04
1.232767772936133952e+04
1.210695026853013769e+04
1.218123776605737112e+04
1.158378288954477284e+04
1.109704502196531939e+04
1.052236726572658335e+04
1.039109441207676537e+04
1.080252176583579967e+04
1.075498497570667132e+04
1.084587894796398905e+04
1.107657290806628043e+04
1.108934693088441782e+04
1.166645765499814661e+04
1.265522114609560958e+04
1.283588940615557112e+04
1.169167911571244804e+04
1.021298283222778809e+04
8.745054890673325644e+03
7.534216457043254195e+03
6.824897681486392685e+03
5.778535300041675328e+03
4.127496105100594832e+03
2.643056256167002175e+03
1.387488276408585307e+03
9.070515924357539461e+02
7.380975073543854705e+02
8.310137396518273363e+02
1.077162242178808128e+03
1.560788198094492373e+03
1.826078715869648931e+03
3.288272552933733550e+03
4.857420447795982909e+03
4.837852561842792966e+03
3.979905697341485393e+03
3.501786403841468200e+03
2.672614700185320544e+03
2.094649856357909357e+03
1.270215952387510015e+03
2.006248859180480508e+02
-7.399527003606967810e+02
-1.914338785184815606e+03
-3.152275036641252427e+03
-3.839508580673367305e+03
-3.855776340592356974e+03
-3.673928046113007440e+03
-3.649655227796341933e+03
-3.889739149941597134e+03
-4.304036132834417913e+03
-4.693308520776174191e+03
-5.300301974040335153e+03
-5.750794131310150078e+03
-5.643656797114087567e+03
-4.594740804515189666e+03
-3.686863922621282654e+03
-2.978883856956949785e+03
-2.773573286661810016e+03
-2.186794162165121634e+03
-1.905313895852291807e+03
-2.021050185077836659e+03
-2.739957600801738863e+03
-3.792846291406899581e+03
-4.765512316652059781e+03
-4.234705572294559715e+03
-4.215106140060047437e+03
-4.215792845522505559e+03
-3.942543862996672942e+03
-3.195105026964781246e+03
-2.137252115141966897e+03
-1.382468408255831264e+03
-3.108316140475042744e+02
1.154796769456429729e+03
2.614884614879720175e+03
4.060366279788747306e+03
4.770538788231008766e+03
4.904370633959594670e+03
4.891948153438567715e+03
4.958628570023342945e+03
4.596650225340289580e+03
3.977318978954750946e+03
3.459164525249153030e+03
3.125299523092034178e+03
2.832022886807858868e+03
2.501790838634557986e+03
2.468574129020143573e+03
2.691770652504588270e+03
2.347521024003207003e+03
1.888607399296270842e+03
1.549032226933105449e+03
1.325212738081537509e+03
8.269669686422041650e+02
8.314787274645198067e+02
2.396771076012531466e+03
3.447030598474250837e+03
3.782897205070392374e+03
3.808501670600872785e+03
5.013780369499037079e+03
5.268807733925337743e+03
5.063091592201213643e+03
5.097289089724557925e+03
4.951323177552094421e+03
4.124278864987065390e+03
3.120401302748440685e+03
2.878737158057721899e+03
2.281351552243069364e+03
1.847460674878253940e+03
1.948150952103547979e+03
2.580415038776621259e+03
2.989309609693515995e+03
3.379845217216076890e+03
3.565067177123519741e+03
4.377989981578479274e+03
5.309655075036574090e+03
4.866095798984466455e+03
8.430302578848793928e+03
1.020821435435442072e+04
1.147982404519773809e+04
9.459128685243618747e+03
8.832167828751933484e+03
9.006981847088733048e+03
8.610361387963193920e+03
8.235234330544239128e+03
7.403602051863367706e+03
3.159344310546346605e+03
1.516445947944135469e+03
6.539742825077432826e+02
-8.470700108580817869e+02
-6.896265608846175610e+02
-3.245833778037711909e+03
-1.502894876521666674e+03
1.361603553317740420e+02
-1.289698696167180060e+03
-4.049182660077684659e+01
-1.948420584765566218e+03
1.304409646012956046e+03
8.729561369330124307e+02
1.526120484669403140e+03
2.936909532539882548e+02
2.011528766450637249e+03
3.050524302483087013e+03
3.683484535611707088e+03
4.361267482890156316e+03
2.751753409713589463e+03
4.289953161408061533e+03
4.050708438378170740e+03
1.803786525633182919e+03
3.361973328429442972e+03
4.219179673435629411e+03
2.714292817980977816e+03
4.426243543484792099e+03
1.242851448812420131e+03
1.036817760121948140e+03
2.977861797251398912e+03
4.918603794614031358e+03
5.075748904214369759e+03
5.317027801549422293e+03
4.368400521135662530e+03
2.190689493911163026e+03
6.776220191464570917e+02
2.739768951963675363e+02
-3.940658031000291572e+01
1.518854033048410770e+02
4.764878098628526715e+01
-1.242996655537471185e+02
-1.703013047126711399e+02
-6.526449641092946194e+02
-1.052482870164224551e+03
-1.845985575711953743e+03
-3.052475332882457224e+03
-2.898459385696290610e+03
-2.302414215515798332e+03
-1.184473528365899710e+03
3.371420319652302737e+02
1.133061869972308614e+03
1.822956257668726039e+03
2.455576116337761960e+03
3.426624827721110250e+03
4.116740830459869358e+03
4.523623156531514724e+03
4.847050931052126543e+03
4.972745198023803823e+03
4.422321228052383958e+03
2.711488104256289716e+03
1.533424926012288552e+03
1.655943388555372167e+03
1.996342515453439319e+03
1.944939403127739070e+03
2.327348076145960476e+03
3.002471207194311773e+03
3.739852680574646001e+03
3.343187702858658668e+03
1.971230829357660014e+03
9.314271133747031399e+02
-4.761475116358290052e+02
6.076132003366565186e+02
3.948022939990924897e+03
5.585749822355840479e+03
6.034094591988554384e+03
6.334388386868324233e+03
6.271666441057159318e+03
6.114737190005324010e+03
6.412120852795611427e+03
7.527988874618791669e+03
9.231011837088310131e+03
1.043549468450219138e+04
1.235379474554782064e+04
1.403363654091674107e+04
1.440698129439103832e+04
1.346868184381572246e+04
1.175550939864483917e+04
1.029783681464436631e+04
8.941778464335247918e+03
7.875156273409605092e+03
8.434022201556901564e+03
1.036147391496220007e+04
1.256797896890251468e+04
1.378855987235551765e+04
1.261256998887788177e+04
9.037149343007369680e+03
5.039353511020398400e+03
2.457819951194162513e+03
1.651224407154691107e+02
-2.232337139464708798e+03
-3.528788926058698962e+03
-4.151895671217604104e+03
-3.799414846090673109e+03
-2.935226760478848519e+03
-3.055360900796964415e+03
-3.239199208453461779e+03
-1.770672108025474927e+03
-1.124047631109138905e+02
1.544412874849245327e+03
2.427426152333408936e+03
2.731567926382013866e+03
3.488327936771488567e+03
4.220415318033474250e+03
3.831797241124800166e+03
3.338278440609928566e+03
2.679990733339759572e+03
2.105295112690414044e+03
1.542312909045689366e+03
9.870474007793646933e+02
1.301572925276444153e+02
-7.521445154539785563e+02
-1.221068895857173175e+03
-3.097429390414356021e+03
-5.207878689041257530e+03
-8.591268375027191723e+03
-8.836818187669290637e+03
-7.519297425504225430e+03
-6.407405141592673317e+03
-3.058050728057307424e+03
3.408598604315380726e+03
5.012104411771005289e+03
3.259810282849191935e+03
1.753573590429947217e+03
8.233675321940137337e+02
-1.063496907352527614e+03
-1.514849173648348142e+03
-1.475599515110527364e+03
-2.741179661632264924e+03
-2.365883189966800273e+03
-1.613816051185961214e+03
-1.131528853393563622e+03
-1.079989525207772431e+03
-9.784130663408080864e+02
1.648431846177640807e+02
2.248698658589195929e+03
4.049364226526665334e+03
5.509228720165379855e+03
6.589382504363100452e+03
7.168431477609326066e+03
6.863625071363150710e+03
6.200662696404478083e+03
4.657529077398941808e+03
3.240182122384066133e+03
3.425287232140973629e+03
3.895262746243926813e+03
3.716602812266768979e+03
3.403932050799643093e+03
2.344801524540242553e+03
4.041077283201240107e+02
-5.558682214317944954e+02
-2.779634292725635873e+02
1.961624699541244127e+03
4.789885758674072349e+03
7.244146838805628249e+03
9.312934932409765679e+03
9.613365704674206427e+03
9.796731498065897540e+03
1.037605527700064340e+04
1.053014311211561289e+04
1.020366889084261857e+04
1.000135375567570736e+04
9.905437870933776139e+03
1.014124890263823545e+04
9.768856491351301884e+03
9.127779715349621256e+03
8.613362484936937108e+03
8.096881499181985419e+03
7.954845190181376893e+03
7.085589448990207529e+03
6.488390340655750151e+03
6.486829860879344778e+03
6.389842783736037745e+03
6.472819126388284531e+03
7.324245227182430426e+03
8.544240108473997680e+03
9.249171683935468536e+03
1.030679213595217516e+04
1.104177116088718503e+04
1.132248867143033021e+04
1.174072320691009372e+04
1.218748533624872107e+04
1.334137563601909824e+04
1.341181852375255585e+04
1.230479825502329186e+04
1.059079403930604894e+04
8.826349685824909102e+03
7.257442313632520381e+03
3.890727962165311965e+03
-1.809059865277381050e+03
-7.420689706105460573e+03
-9.582593494895092590e+03
-1.133159510750786103e+04
-1.232376393207561341e+04
-1.236222431683586183e+04
-1.192214183027028776e+04
-1.214270768772129304e+04
-1.209031665501488533e+04
-1.205662351552115433e+04
-1.272592634670138796e+04
-1.341595802425119109e+04
-1.405359561308985940e+04
-1.461819633200239696e+04
-1.280211603733553966e+04
-1.637596698273825496e+04
-2.191133085232985832e+04
-2.477895613552969371e+04
-2.731421269628779555e+04
-2.969708532000218474e+04
-3.197283100736886263e+04
-3.381367874321610725e+04
-3.406065708066468505e+04
-3.411390847170553752e+04
-3.379147492957438953e+04
-3.292144262460883328e+04
-3.177564575782453176e+04
-3.093482942696773171e+04
-2.716284564341033911e+04
-2.543946560712906285e+04
-2.826840556265648411e+04
-2.911247173881012350e+04
-2.951352059148801345e+04
-2.815334196307515595e+04
-2.804472270813126306e+04
-2.963163218628506365e+04
-3.257811155390426211e+04
-3.435708723105362151e+04
-3.650537396005995106e+04
-3.837597219420185866e+04
-3.959491487314394908e+04
-4.018323522919568495e+04
-4.068800610006463830e+04
-4.067855135954937577e+04
-4.050515775892193051e+04
-3.964690073958958237e+04
-3.932796734167797695e+04
-3.904677576428603788e+04
-3.828990584757915349e+04
-3.662889744192879880e+04
-3.637273120405071677e+04
-3.649078063469634071e+04
-3.662381741784727637e+04
-3.582820656083121867e+04
-3.429170325344057346e+04
-3.445619780055386946e+04
-3.494765437807956187e+04
-3.541535021784580749e+04
-3.658555730054110609e+04
-3.773714901047798776e+04
-3.797449959873992339e+04
-3.763620780263714551e+04
-3.690377845420209633e+04
-3.651393372537877440e+04
-3.553298445129267202e+04
-3.364332811025398405e+04
-3.163287155652325237e+04
-2.959146128251089249e+04
-2.770069553447130966e+04
-2.538645878140950299e+04
-2.325447387727685418e+04
-2.074316500654797346e+04
-1.896439370064032119e+04
-1.774467333479478111e+04
-1.675091436735005118e+04
-1.663910501876609123e+04
-1.746813608152601228e+04
-1.773815300245123944e+04
-1.627771831561545878e+04
-1.487674916539698643e+04
-1.351311890148262682e+04
-1.296691540400162012e+04
-1.202651067453438009e+04
-9.768899783518381810e+03
-6.142755556522736697e+03
-1.953353204989031838e+03
2.551786275973580359e+03
7.534014443837415456e+03
1.156970489059395550e+04
1.439147780613765826e+04
1.597794137312317071e+04
1.898846943066712993e+04
2.232845025864495619e+04
2.444719162277423675e+04
2.617781392205935117e+04
2.969920152864332704e+04
3.056930208304769621e+04
3.137194942617422203e+04
3.287888310020377685e+04
3.429683871341827034e+04
3.569452542763941165e+04
3.773051163933642965e+04
4.166505089587862312e+04
4.620648898136951175e+04
4.966804324742154131e+04
5.108859757927285682e+04
5.367415739554294123e+04
5.772868269264548871e+04
6.131622944550418470e+04
6.391707969006404164e+04
6.681950286153827619e+04
6.995870861749032338e+04
7.232081535637173511e+04
7.448792653653844900e+04
7.616712124502724328e+04
7.668343484639599046e+04
7.319783866427972680e+04
7.114630925964971539e+04
7.516992439438744623e+04
8.110967440144898137e+04
8.414538908771060233e+04
8.331217552302814147e+04
8.103230430110296584e+04
8.069282268582917459e+04
7.962665787903957244e+04
7.914382416723588540e+04
8.153468206509547599e+04
8.245845815404846508e+04
8.381023636422060372e+04
8.719525411959378107e+04
8.975863402674693498e+04
9.575149861280927144e+04
9.874527142917158199e+04
9.390355107563339698e+04
8.724206470215061563e+04
8.602858799928791996e+04
8.570203074907239352e+04
8.846434251958450477e+04
9.081150998811841419e+04
8.932669994081894401e+04
8.348133159109020198e+04
7.471886904953331396e+04
6.626489392555388622e+04
5.679627032307932677e+04
4.600495126084960793e+04
4.143103986560116027e+04
4.247080415011856530e+04
4.653969267507644690e+04
5.512616627156045433e+04
5.585176176973273687e+04
5.197422512390727934e+04
5.197452301755329245e+04
6.328180420196951309e+04
6.961536953158148390e+04
6.799073801057334640e+04
6.442656412575660943e+04
5.756954035676054627e+04
4.382371799166050187e+04
2.619729659154124965e+04
1.222231053351265655e+04
2.108984026103920769e+03
-4.754292381285751617e+03
-1.072584108886234026e+04
-2.098576436660189574e+04
-2.938919729328186077e+04
-3.078513670762776746e+04
-3.161923024787311442e+04
-3.481619105902977026e+04
-3.651941793060197233e+04
-4.285303114859343623e+04
-5.260605737366108224e+04
-6.186936375323378888e+04
-7.407854158071326674e+04
-8.560913483584939968e+04
-9.210550365085070371e+04
-9.578079895907928585e+04
-9.793502481830555189e+04
-1.029191279023457901e+05
-1.173768084922984272e+05
-1.358915642297603481e+05
-1.542879892860628024e+05
-1.695214949235401291e+05
-1.837553264403928479e+05
-2.042214064579841215e+05
-2.258867224097703875e+05
-2.324622093464294448e+05
-2.370835734556855168e+05
-2.435646036751517968e+05
-2.410760483384903637e+05
-2.307160816037196491e+05
-2.173238967099745933e+05
-2.123376648551801336e+05
-2.126634818828393181e+05
-2.096451873339979793e+05
-2.016717973339909222e+05
-1.946942425088268355e+05
-1.880571304011897300e+05
-1.781863037521392107e+05
-1.708235159329814778e+05
-1.573494115111418359e+05
-1.391916170722873067e+05
-1.180406865453345090e+05
-1.029271921494174894e+05
-9.123772065434081014e+04
-8.175572962474641099e+04
-7.861470347622875124e+04
-7.617805875771115825e+04
-6.664712706509610871e+04
-5.695716413581647066e+04
-5.679445576008208445e+04
-6.922044458409334766e+04
-7.262671197206932993e+04
-6.768094971895510389e+04
-6.658667956213194702e+04
-6.916840397782523360e+04
-7.698672817807721731e+04
-8.660325168929788924e+04
-9.232157833672656852e+04
-9.530254388966081024e+04
-1.002431452841412101e+05
-1.052695622842022130e+05
-1.054929359621758776e+05
-1.120664023376447440e+05
-1.315341281348306220e+05
-1.518292499420982786e+05
-1.649571655971211148e+05
-1.718004907949663175e+05
-1.713568909938267607e+05
-1.617730540766766353e+05
-1.468808153777345724e+05
-1.244620962648381537e+05
-9.619696734965057112e+04
-6.809563215425368981e+04
-4.329643375929754257e+04
-2.374979559825342221e+04
-6.991382967773854034e+03
1.853902243004105185e+04
5.407754742317021737e+04
9.189797231450122490e+04
1.228288959606695571e+05
1.514129380825912231e+05
1.932285402410679671e+05
2.464608207563262840e+05
2.890077030631228117e+05
3.237500998392972979e+05
3.475266595665311906e+05
3.660589369537128368e+05
3.831352584366185474e+05
4.008648233492047875e+05
4.139227026042012731e+05
4.169917072182258707e+05
4.145295531685972237e+05
4.111627584058193606e+05
4.070906176368658198e+05
3.934661393548136693e+05
3.785905144688460859e+05
3.602950434083162691e+05
3.446231604186572949e+05
3.369875724591044709e+05
3.336751832013493986e+05
3.316350275680179475e+05
3.290870475716178189e+05
3.253368352573074517e+05
3.191817663603724795e+05
3.057950337678737706e+05
2.932182522392427200e+05
2.853444765052620787e+05
2.764936168563746614e+05
2.639771538299405365e+05
2.539920831586201093e+05
2.460796563826466445e+05
2.365849324998336961e+05
2.253027102868307265e+05
2.087879350481802539e+05
1.903456904786230589e+05
1.744356020449569041e+05
1.576842212351694179e+05
1.397754158913799911e+05
1.218376058557677752e+05
1.021276212784903473e+05
8.142287303411564790e+04
5.837633519511652412e+04
3.513486054902400065e+04
1.352557130846765176e+04
-6.324885200068528320e+03
-2.519211645164681977e+04
-4.260357006528143393e+04
-5.930795893994622747e+04
-7.410301853805585415e+04
-8.790711012914725870e+04
-1.000366942401694687e+05
-1.118666026483195310e+05
-1.247532125679756573e+05
-1.378961279103697452e+05
-1.490887787759552884e+05
-1.590809131584428251e+05
-1.689264528597480967e+05
-1.776781773918436375e+05
-1.846648666384847311e+05
-1.924683081296249002e+05
-2.011302617072301218e+05
-2.070574940747375367e+05
-2.107337995188843342e+05
-2.132258575694976025e+05
-2.163433549112910987e+05
-2.208598996296490659e+05
-2.263591137872666877e+05
-2.296874297213779937e+05
-2.341113565622964234e+05
-2.368272916170910466e+05
-2.370176459315187822e+05
-2.352378258598537941e+05
-2.324548918381340918e+05
-2.312839286288479343e+05
-2.316078947853514401e+05
-2.307887056266624131e+05
-2.278542044980624050e+05
-2.257943816873063333e+05
-2.237988483011951030e+05
-2.209770122066787153e+05
-2.148164170562901127e+05
-2.106685621370414156e+05
-2.048948570260134293e+05
-1.985565864346578892e+05
-1.945878344285631320e+05
-1.884395338137040962e+05
-1.804605015467158519e+05
-1.741033775164411636e+05
-1.696986815070935991e+05
-1.646767753972628852e+05
-1.574308638411373540e+05
-1.506940220922285225e+05
-1.414401148180829769e+05
-1.306008049160736118e+05
-1.252837958900372614e+05
-1.244407535539613309e+05
-1.178750951364601497e+05
-1.062700706778091262e+05
-9.852272711508654174e+04
-9.335904526936596085e+04
-8.761697965335864865e+04
-8.193837398782301170e+04
-7.323389111136076099e+04
-6.696299726401183580e+04
-6.221105867567567475e+04
-5.647619143036437890e+04
-5.052730456596021395e+04
-4.445610366221973527e+04
-3.824832828439008881e+04
-3.209061319166922476e+04
-2.532339937211546567e+04
-1.915593484130019351e+04
-1.255045910426029332e+04
-5.255758714452772438e+03
1.846360545204339360e+03
1.000111247654275758e+04
2.048882358786829718e+04
3.232692718215119385e+04
4.285295519801387127e+04
5.342943406599007722e+04
6.295986797571765783e+04
6.924297413552804210e+04
7.309086666558129946e+04
7.402459636154639884e+04
7.319530187616440526e+04
7.260228451287386997e+04
7.319790284765872639e+04
7.491750968876197294e+04
7.762367254335479811e+04
8.100598062860182836e+04
8.507701975616290292e+04
8.976954222736664815e+04
9.428239982606814010e+04
9.801879690383339766e+04
1.013985324208879319e+05
1.047990364125229244e+05
1.068622523555423395e+05
1.100394424797422689e+05
1.160639491034778912e+05
1.230969635800507531e+05
1.291914431240812701e+05
1.346365912891535554e+05
1.422444292429683555e+05
1.499147930881041393e+05
1.562599285880690732e+05
1.615540308374994784e+05
1.665241539467629918e+05
1.705600171591808612e+05
1.723000040570965793e+05
1.726505963245955645e+05
1.728786339187938429e+05
1.720574595117208955e+05
1.707387495684468886e+05
1.686200216176383547e+05
1.651171991957793362e+05
1.608418674584020337e+05
1.564069299451092666e+05
1.521425176699711883e+05
1.470376383653844823e+05
1.417170463761832507e+05
1.351384517542350222e+05
1.275034998184575816e+05
1.200492026135159686e+05
1.133434771440853801e+05
1.059892360076761397e+05
9.861307036372943548e+04
9.228453902264365752e+04
8.736402563030111196e+04
8.315724600283383916e+04
7.771499501146591501e+04
7.086114195383329934e+04
6.370278242562381638e+04
5.663551508532225853e+04
5.159407276421120332e+04
4.858742761943418009e+04
4.494134823193390184e+04
4.063892478683466470e+04
3.610707179649432510e+04
3.276655545076423732e+04
2.998811051351812421e+04
2.590296178011272423e+04
2.191674394067049434e+04
1.935742645491165968e+04
1.503115121975590955e+04
9.583191926008006703e+03
4.357494364640166168e+03
-4.626172484442739687e+02
-5.297871324868708143e+03
-9.904361371470880840e+03
-1.489894667688754816e+04
-2.013087153002158811e+04
-2.461492270734933845e+04
-2.829392090510397247e+04
-3.231278698264390550e+04
-3.572420548263067030e+04
-3.722121506078817038e+04
-3.918318812494179292e+04
-4.334593965274846414e+04
-4.883272673390067939e+04
-5.465876175299666647e+04
-5.842965938455196738e+04
-6.169938330176490854e+04
-6.456356513782352704e+04
-6.674601098426550743e+04
-6.729930354802902730e+04
-6.831304187495019869e+04
-7.126779266246093903e+04
-7.420802349103181041e+04
-7.688734423460590187e+04
-7.855647779738834652e+04
-7.991565226094274840e+04
-8.154555910993558064e+04
-8.200167465923356940e+04
-8.194246408633775718e+04
-8.193272446019627387e+04
-8.191982054644309392e+04
-8.266077785774499353e+04
-8.345976662227578345e+04
-8.385774996544176247e+04
-8.423900915437734511e+04
-8.438704750926459383e+04
-8.509332491619080247e+04
-8.588880859582174162e+04
-8.593492724811418157e+04
-8.454989921316262917e+04
-8.123433781644974079e+04
-7.831293740025491570e+04
-7.661998396816040622e+04
-7.582734980280860327e+04
-7.447002366404968780e+04
-7.268004435070358159e+04
-7.073639386736079177e+04
-6.861595056576791103e+04
-6.590468527252615604e+04
-6.277592910630827828e+04
-5.984997961470986047e+04
-5.749680527617123880e+04
-5.536542650890197547e+04
-5.330620751061538613e+04
-5.062168584884237498e+04
-4.720260323054295441e+04
-4.359653711804454360e+04
-4.077872385439091158e+04
-3.904734124398561107e+04
-3.756978337931564602e+04
-3.619770386818777479e+04
-3.438546493851211562e+04
-3.197768167060826090e+04
-2.991385412485204506e+04
-2.807001773546868935e+04
-2.516789739156244468e+04
-2.243391241839540453e+04
-1.893357129503627584e+04
-1.483820584223302285e+04
-1.169130144133240537e+04
-9.596791073936659814e+03
-6.881769783155658843e+03
-3.220495260558108384e+03
1.925427783327805571e+02
2.618943583387901072e+03
5.098117323887812745e+03
7.273479434915610909e+03
9.479989285626150377e+03
1.068542187827724774e+04
1.196145826286421470e+04
1.396768185003763028e+04
1.662724527337849213e+04
1.927988786108043860e+04
2.121623002799455571e+04
2.197979877499385111e+04
2.019011565901215363e+04
2.074268249874725370e+04
2.610752728770794420e+04
2.636582573184550711e+04
2.913342339014659956e+04
3.034866221080392279e+04
3.119409735444838589e+04
3.334163413667465647e+04
3.504831292548988131e+04
3.516326501867976913e+04
3.161774102412720094e+04
3.298464119892998860e+04
3.456342188561251533e+04
3.574409818755635933e+04
3.302812016720840620e+04
3.520824751626361103e+04
3.501069254667342466e+04
3.404690234150309698e+04
3.572665383855337132e+04
3.310665902485774859e+04
3.438206656518369709e+04
3.366381846808565751e+04
3.098356328306771684e+04
3.221316798067390482e+04
3.410761941168793419e+04
3.144283226770752299e+04
3.166087977511252757e+04
3.095679085120800301e+04
2.900173212946217973e+04
3.054471175659694927e+04
3.019659389596853725e+04
2.889917612595643004e+04
2.418426691714011395e+04
2.297964314379342250e+04
1.926504213541133504e+04
1.724311009018472396e+04
1.855954873920499085e+04
1.600096604180905706e+04
1.473398740975370129e+04
1.221138456399943789e+04
1.392981848935389462e+04
1.517071246393147339e+04
1.420654539321254015e+04
1.320685141496261531e+04
1.239109354550763419e+04
1.115355295686285535e+04
1.024664000411918460e+04
9.163824958472021535e+03
7.877191211355408996e+03
6.251824998119447628e+03
4.098836052422760076e+03
2.526467108909292620e+03
1.571907765146372867e+03
7.822830280473116318e+02
-8.025256892991407085e+02
-2.278117858897675433e+03
-3.531455304247605454e+03
-5.410873414993240658e+03
-7.042520282174804379e+03
-8.600602969274510542e+03
-9.059206710910440961e+03
-9.667357953962220563e+03
-1.002237135590153048e+04
-1.246075430713382229e+04
-1.364580525342857800e+04
-1.178492340041473290e+04
-1.038457967785855726e+04
-9.448462717624484867e+03
-8.886777757492418459e+03
-9.468496146979259720e+03
-1.045929831668711449e+04
-1.182741362139583180e+04
-1.317069705376020647e+04
-1.446115109081298942e+04
-1.520253173572301239e+04
-1.622939609469099196e+04
-1.732961173816771407e+04
-1.840019269669006462e+04
-1.931191264430874799e+04
-1.945989320243792463e+04
-1.963813431420540655e+04
-1.971010658190132381e+04
-1.990080405561062071e+04
-1.990496487900379361e+04
-1.983472936899915294e+04
-1.950174164587671839e+04
-1.926020369882555315e+04
-1.918444729092135822e+04
-1.944037623130748761e+04
-1.953020041770435637e+04
-1.976915082096770129e+04
-2.035157256345106362e+04
-2.107492533681103305e+04
-2.145950161331217532e+04
-2.087461002997023388e+04
-2.050358628152951860e+04
-2.147679471973446925e+04
-2.261372035040034825e+04
-2.306481598634650800e+04
-2.307454477253079313e+04
-2.209142125665469212e+04
-2.034599357034366039e+04
-1.852089680411207519e+04
-1.666594211929180528e+04
-1.412889209034176201e+04
-1.056831470253463158e+04
-8.690880707666541639e+03
-9.415179128203764776e+03
-1.073668095874691426e+04
-1.165579963243284874e+04
-1.138082772882007885e+04
-1.054211947164270350e+04
-1.020029380884872080e+04
-1.040800681507998343e+04
-9.277956314654713424e+03
-8.395844296355957340e+03
-8.360314428820294779e+03
-8.334046559791298932e+03
-8.734763872809196982e+03
-9.306108056018236312e+03
-1.092668894569320764e+04
-1.353012789707653428e+04
-1.399103328420171783e+04
-1.317997844585447274e+04
-1.210967912823526058e+04
-1.129896665698874131e+04
-1.057870020939563619e+04
-9.409670234695744512e+03
-8.993672078572706596e+03
-9.200277110496106616e+03
-8.947289222274272106e+03
-6.754401292004286915e+03
-1.748209476740723176e+03
-9.243386547582352932e+02
-4.984430678062482002e+03
-6.208993734859912365e+03
-5.272539354918249046e+03
-2.915682154232539233e+03
9.511109085235987095e+02
7.823260863964293321e+02
5.179491175531564295e+03
7.616221922572749463e+03
8.410209174320747479e+03
9.428166374356456799e+03
1.040762634152743885e+04
1.192113599861009970e+04
1.292219890110500637e+04
1.271841261786098221e+04
1.216753576381317907e+04
1.204117541866157626e+04
1.192075299111409004e+04
1.109589990721150571e+04
1.012127887213417489e+04
9.489430067922323360e+03
1.041974918798334147e+04
1.197569335376932941e+04
1.381096067344660878e+04
1.533930869940232151e+04
1.599030263551242388e+04
1.663562062189967037e+04
1.668380635782238824e+04
1.638628576138505741e+04
1.589762109938407957e+04
1.560935718229960548e+04
1.541310500423978192e+04
1.441941535203884632e+04
1.479781557660838007e+04
1.660193833501806148e+04
1.936440324742480880e+04
2.129157942815824572e+04
2.205111295338455966e+04
2.234768771255101819e+04
2.171002929557493553e+04
2.085079363060454853e+04
1.996965140358536883e+04
1.981232010055010323e+04
2.034358613397487352e+04
2.122323645076516914e+04
2.225096710690442706e+04
2.265150045060083721e+04
2.198363845737545125e+04
2.141695363149208424e+04
2.170398992325409927e+04
2.225957251690367411e+04
2.209668682586642535e+04
2.121918054998855951e+04
2.051484764767800880e+04
2.091043731618908714e+04
2.024900427763520929e+04
1.911430287120920912e+04
1.742306204422731389e+04
1.457909100758111708e+04
1.297344545339935030e+04
1.139217653671702101e+04
9.341161810485711612e+03
7.257312301649153596e+03
8.087380655476479660e+03
9.688359273392008618e+03
9.866358236597505311e+03
9.475247320459893672e+03
8.490009894476168483e+03
7.063727933854655021e+03
6.124411678684094113e+03
3.955243884940191037e+03
2.649480787408891047e+03
1.812294333391169403e+03
-5.022857579980140486e+01
-2.008907444991780949e+03
-2.831413236762532506e+03
-3.571470443698012332e+03
-5.978933677881393123e+03
-8.614722439609005960e+03
-1.070383313923432979e+04
-1.308793807046565598e+04
-1.514841837737394962e+04
-1.686079820051411662e+04
-1.774068515572710385e+04
-1.798857107914330118e+04
-1.939198214634316901e+04
-2.115543646867073767e+04
-2.224854383797319679e+04
-2.275972271846866352e+04
-2.344740169655275895e+04
-2.383892363042230863e+04
-2.317760368038384695e+04
-2.261997220473422567e+04
-2.150458928737661699e+04
-2.081086206873269475e+04
-2.085011148014070932e+04
-2.062354326278700319e+04
-2.079853196891015614e+04
-2.156846403681374431e+04
-2.197851684817389469e+04
-2.220893098363656100e+04
-2.154098290911114600e+04
-2.008684057406751162e+04
-1.838963945569230782e+04
-1.663852548936806852e+04
-1.575268190526610124e+04
-1.521135639065738906e+04
-1.443864563580133108e+04
-1.362968439787554598e+04
-1.308543626540346304e+04
-1.291210310877591837e+04
-1.332799513481856957e+04
-1.308832045763754468e+04
-1.214811570986014704e+04
-1.130351766381338348e+04
-1.054554038238408975e+04
-9.952110644379432415e+03
-9.013241736659389062e+03
-8.132013221874984993e+03
-6.993491540911439188e+03
-6.489766788458174233e+03
-7.028801804786076900e+03
-7.126497682754725247e+03
-7.873843383978078236e+03
-7.786392334048555313e+03
-6.714890248589703333e+03
-6.324694277992506613e+03
-5.771459524379670256e+03
-5.498191014951219586e+03
-5.743165692385608963e+03
-5.065974170557752586e+03
-4.026791133281884413e+03
-3.100545384619282231e+03
-3.321398985236140106e+03
-3.220834345509133527e+03
-1.694425513431982608e+03
-1.789585121266450187e+02
1.143292169987149691e+03
2.387806639197427103e+03
1.826372761540675583e+03
2.018086129810783405e+03
3.427819044092115291e+03
4.248668886285841836e+03
5.324602653359379474e+03
6.051253823703088528e+03
6.920936926511522870e+03
7.329698722697904486e+03
8.028270314956852417e+03
8.986065858144464073e+03
1.022658229289557312e+04
1.158132242968328501e+04
1.304488516159863866e+04
1.442251703543325129e+04
1.595046227171919054e+04
1.744937417859031484e+04
1.871693411032639415e+04
2.027532160263294645e+04
2.125946187573563657e+04
2.211632404107248294e+04
2.321860632014148723e+04
2.467032994598534788e+04
2.579940321275938550e+04
2.726739397302977886e+04
2.856276434152511501e+04
2.923959517046772089e+04
2.988922539664712167e+04
3.066607234138965214e+04
3.220942739406737019e+04
3.365858222367336566e+04
3.447085950682566909e+04
3.545832244615013769e+04
3.580906006187680032e+04
3.601317113050190528e+04
3.610477394593937788e+04
3.646294454093089735e+04
3.564167157162648073e+04
3.291683062213162339e+04
2.839235422834001656e+04
2.608827570771287355e+04
2.513444626022861121e+04
2.250060487889498472e+04
2.098860725161271694e+04
1.989429443540565262e+04
1.853843715148339106e+04
1.788472540143808510e+04
1.739195445103451129e+04
1.639857957853663902e+04
1.511115568449595958e+04
1.325854788500060567e+04
1.126803971301331148e+04
9.914069278000213671e+03
1.109504257536714795e+04
8.881408939459628527e+03
6.156594973711731654e+03
6.282762349743778941e+03
6.581277507102137861e+03
5.629612265714800742e+03
3.231061980069421224e+03
1.441782383248563747e+03
-9.120106455627421838e+02
-3.414198677502126884e+03
-4.978597445950023939e+03
-6.230049113086373836e+03
-5.280489412450676355e+03
-1.961753790894396616e+03
-3.145717694524902072e+03
-8.823221771761755008e+03
