1.354389050275438194e+03
1.378819894057907504e+03
1.550437899300498430e+03
1.527466859127177486e+03
1.250857017100350276e+03
1.033236807051037886e+03
6.821508454384842253e+02
1.006304135644862413e+03
1.272995468215513483e+03
9.603805260909389290e+02
3.035099637173854603e+02
-5.236079111240577504e+02
-9.539970243277031159e+02
-5.894707589493975775e+02
-6.772621058642314438e+02
-1.515669675089166503e+03
-2.136821569817061572e+03
-1.996588555384163101e+03
-1.819713932964022433e+03
-1.672163482003892796e+03
-1.634873139058161087e+03
-1.708709421031016973e+03
-1.376593685965879558e+03
-7.186209696192655656e+02
-9.072514765286142620e+02
-1.025955713358070625e+03
-7.874995937476263634e+02
-4.194587175542774276e+02
-7.872143477750179841e+01
1.165065444999225086e+01
-5.418994125720007382e+00
-1.534418963922164814e+01
5.362278024224665529e+01
2.516793226106978807e+02
2.040494130563011481e+02
5.028291908136868642e+02
1.020112788561963725e+03
1.558942251716287274e+03
1.403337705315203493e+03
-6.968591633593658230e+01
-2.665300428334045591e+03
-3.626701845698562920e+03
-3.303077405749133504e+03
-3.595423133852209958e+03
-3.692586976428346134e+03
-3.182485302587539536e+03
-3.542024545828059672e+03
-3.757139869671661927e+03
-4.304074450128176977e+03
-4.814743866754652117e+03
-5.456934758036140920e+03
-4.222787792111344061e+03
-1.059554498814418366e+03
-5.412506903339844939e+02
-9.619713340631853953e+02
-9.327264985744778869e+02
-5.652804086971447077e+02
-2.744213255416274819e+02
4.690085572465163182e+02
1.193825371444449956e+03
1.878986748814801558e+03
2.296439329077601997e+03
2.423184578539623544e+03
2.432016541680417959e+03
2.629883490211195749e+03
2.698023424532945683e+03
2.637350817915495099e+03
2.343702363941692511e+03
1.804291720335479795e+03
1.732236678038826767e+03
1.399295922226579933e+03
9.704204685527472520e+02
6.006121020130354964e+02
8.118420578230065985e+02
7.860124040143135744e+02
8.042462035697963074e+02
1.501516773946652393e+03
1.381730525227726503e+03
1.869879630821701994e+03
2.603065665665417328e+03
2.490365689016277429e+03
2.437761004663345375e+03
2.650188788754335746e+03
2.523755595481294222e+03
2.192493550888071240e+03
1.476443041698071966e+03
2.228560656172430299e+03
2.758862072571584122e+03
2.171379297490155295e+03
8.530207659894060725e+02
2.617159374623673216e+02
2.596082392043313689e+02
3.370049228236099736e+01
-2.291158689336933776e+02
-7.698826178360989161e+02
-7.276767802919459882e+02
3.585414976528168154e+02
1.187859479128665043e+03
8.362554573546987058e+02
5.898093401659596111e+02
8.296039513005520121e+02
1.162002995729788609e+03
1.367774971249086320e+03
5.238476716733914600e+02
8.124821248134161067e+01
2.720454006784077592e+02
4.411224617459396313e+02
1.253550350166007661e+02
2.173016203983583239e+01
-3.877061326738336220e+02
-1.403931347039368120e+03
-1.874995440181825415e+03
-2.045068065361911295e+03
-5.788868014816122241e+02
-6.864973076297097805e+02
-3.576805785722307974e+03
-4.298886265043386629e+03
-3.040668854107162588e+03
-4.390983869090965754e+02
1.566755806297742993e+03
1.948789923482842141e+03
2.182077839951769420e+03
6.206377546112137225e+02
1.191476804925412807e+03
1.297562313175361851e+03
-4.751117328035242622e+02
-2.747607338354095319e+01
-8.105404055769678280e+02
-6.572918556503847185e+02
1.162782357026340492e+02
-2.798622144247433425e+02
-1.980720493125083522e+03
-4.232497295726493576e+02
-2.538412814813434579e+03
-2.445218021598780979e+03
-3.337800482057154113e+03
-3.978214521732229969e+03
-2.468449702605863877e+03
-1.781485287842262551e+03
-1.630183998254203971e+03
-3.814562376543134178e+03
-4.509565160500323145e+03
-8.632438667628109670e+02
2.830959592542057379e+01
-3.548855312697622821e+02
1.052268275117851772e+03
-1.972871403877621788e+02
1.698432251973651319e+03
-2.873844670508524928e+02
1.172216325308493879e+03
3.611115941030054728e+02
-1.066775504952360279e+03
-2.158511966080151069e+03
-6.841924601982108243e+02
-1.131963151547619191e+03
-3.012833616286523011e+03
-6.396529479544765309e+02
-6.112975904144352626e+02
-1.242871591709279301e+03
-9.734255223312093221e+02
1.140122375485298960e+02
9.664807797697070555e+02
3.430123527909728978e+02
7.256179387171657709e+02
2.103220751650647344e+03
3.611801777921929443e+03
3.986385193840748343e+03
3.575008321590506512e+03
3.331619303629751357e+03
2.845212257956394751e+03
1.769766254639269391e+03
7.732342171259022052e+02
-1.604244393556081150e+02
-5.902217428654474816e+02
-3.312486647648655094e+02
-3.122228932390303271e+02
-1.321035466030172756e+03
-4.910431819318251883e+02
2.168900102994393819e+03
3.134656020375596199e+03
3.496436993340998470e+03
3.356324557239081514e+03
3.231010963518652716e+03
2.770620063007949284e+03
1.712146741661694250e+03
1.525739824963731735e+03
1.935190696272142304e+03
2.210402633135537144e+03
1.974490461783759201e+03
1.167292285625242812e+03
3.907352973502117948e+02
-1.988630229604152930e+02
-4.898441987992167128e+02
-7.653095741285707163e+02
-6.757767724030194358e+02
8.331937647025243905e+02
1.440667291782496250e+03
1.569745781073614125e+03
1.745465741525532394e+03
2.200885386435806140e+03
2.207611835892767886e+03
2.016119201840336473e+03
2.156302661236983113e+03
2.247913334234872764e+03
2.344291737683118299e+03
2.545035375110447603e+03
2.417508288998816170e+03
2.487409320495064549e+03
1.997787135539992505e+03
1.738684191282009579e+03
1.437042916050657823e+03
1.013864671687663304e+03
2.391710112088726419e+02
-2.090632028598613203e+02
-6.419469929544657134e+02
-4.955735029199270798e+02
-2.057940240111860248e+02
-1.495998484487379869e+02
5.899698267539992003e+02
1.195883044827533013e+03
1.678127042814825018e+03
1.569703896579118918e+03
1.344545655233995149e+03
1.437643326772200680e+03
1.441026499004678044e+03
1.536663034082394915e+03
1.436601775658664565e+03
1.191851415181459288e+03
-1.246287947643153302e+02
-2.519804119813667967e+03
-5.534550671362595494e+03
-6.191785678971170455e+03
-6.468571797579585109e+03
-7.394003629763939898e+03
-7.704188519557454129e+03
-7.743244680143086953e+03
-7.808189287969663383e+03
-6.140901202379491224e+03
-5.672302107870848886e+03
-4.722275680982430458e+03
-4.070736473202166508e+03
-2.502551430619978419e+03
4.971672021522978753e+02
-1.379626795784526394e+03
-3.306980533578303039e+03
-2.852973586934608647e+03
3.222882133029791021e+02
-1.486046551720267644e+03
-2.582700707493714617e+03
-2.213644374307561975e+03
-3.003037556721674264e+03
-3.986838010853958622e+03
-4.474047409575347956e+03
-4.911793592139700195e+03
-5.208186465796292396e+03
-4.757160574724596700e+03
-4.224726368235529662e+03
-2.035919399528401300e+03
8.552331074668297788e+02
3.213827101677988594e+03
4.589101162355485030e+03
4.621269339182903423e+03
4.502318487085109155e+03
4.479150928573392775e+03
3.768655726194725048e+03
3.328835373100534525e+03
3.115746305221210605e+03
2.900488097077853581e+03
2.501063550441106599e+03
2.844370670670449726e+03
3.355368372023754091e+03
2.991124185353813118e+03
2.781690094129692170e+03
2.246056526985434175e+03
1.434392187938112556e+03
1.127957527227665423e+03
1.400730696014050409e+03
1.597528854978360187e+03
1.798144778944445079e+03
1.899641675186852126e+03
2.116242764972843815e+03
1.902128653888375993e+03
2.214358245531550438e+03
2.269780093947549176e+03
1.773203664671671959e+03
1.582501814710751205e+03
1.839894728007625872e+03
1.616816393632911286e+03
1.095293114387527339e+03
1.077087746319308962e+03
5.862184152563899033e+02
-1.565930699998117746e+02
-8.326013460798255892e+02
-1.053600591130564908e+03
-9.100403325679552609e+02
-4.879172701801966809e+02
6.865070881493166155e+01
5.368237965699220240e+02
8.168540234826954247e+02
8.515770344204902358e+02
1.112904834845313417e+03
7.689849367226045160e+02
1.718857074573605814e+02
5.846033880789295836e+02
1.792158340010676739e+03
1.861509690712532347e+03
1.474959359338153945e+03
1.229571428839525424e+03
6.170384529064770049e+02
-5.373883091790924027e+01
-3.436095444122755680e+02
-1.012532108064027284e+03
-1.801802387821835509e+03
-2.673589673741124443e+03
-2.805846787210282400e+03
-2.146492079840038059e+03
-1.456707487173261825e+03
-1.035186519340103587e+03
4.173486298750456314e+01
7.081049620580425881e+02
1.083424620723518274e+03
1.181279711983263724e+03
1.083891939287479090e+03
7.593175387251462780e+02
1.426060859065414661e+03
1.321968191523886389e+03
4.327454606190974005e+02
6.808716576765758646e+02
8.781600204956594098e+02
5.622443705131012166e+02
-7.881924246238752403e+02
-1.605968395310056849e+03
-2.363667691267022747e+03
-2.972507356056841672e+03
-2.768499272567267781e+03
-2.153459683568906257e+03
-1.791241163371609900e+03
-1.207043767215023081e+03
-8.743962254224301205e+02
2.044127354491274957e+02
1.588233068328714126e+03
2.044275781779140743e+03
2.048048869743255182e+03
2.096706427221581635e+03
2.070236419355866929e+03
1.738153918264314370e+03
1.282228192407294728e+03
1.130494740998556381e+03
7.665367102901566341e+02
3.472085735393467871e+02
1.621083133416474880e+02
-2.637874835267559206e+02
-6.378822110356081794e+02
-8.322244568664305007e+02
-2.719593542545920172e+03
-5.168005524848680579e+03
-8.335618590803012921e+03
-8.269530223044817831e+03
-6.719007261141467097e+03
-2.319239400118094181e+03
-1.665495315259937570e+02
1.737122579794721787e+03
2.657901401400309624e+03
2.867483802382900194e+03
2.496004919589351175e+03
1.845444194578258248e+03
1.971552869096780114e+03
1.288223880892325496e+03
-1.572591952889579488e+03
-1.813224478638959681e+03
-1.578972743320465497e+03
-2.438904949719306217e+02
-7.423560054137609541e+02
-5.856892742303122077e+02
2.121165283055129578e+02
8.045617285841931334e+02
8.954733617337826672e+02
9.871310997152269238e+02
1.151119767091598305e+03
1.605761934832946281e+03
1.652501107992499328e+03
1.462442214138378631e+03
1.436113885703860433e+03
1.233256042158734090e+03
8.861095025198749227e+02
9.069922449466646412e+02
1.014592097440341377e+03
7.226292194678418355e+02
4.748161619868818661e+02
6.840139413254074725e+02
1.461681528362319796e+03
1.334252930501066203e+03
8.107095436068774461e+02
2.047432877978270085e+02
1.952774242748059521e+02
3.236950195067374239e+02
2.969213880394436842e+02
2.727618630156305244e+02
8.714668572358984875e+02
1.671781656063704986e+03
1.802625592969322952e+03
1.938583851392874294e+03
1.590458418238493550e+03
1.075076612051245547e+03
9.280856834527497767e+02
5.728693187732768592e+02
3.934922939097539256e+02
4.180888140758787586e+02
5.320462003893788960e+02
4.472310589268155923e+02
-5.460589560729619762e+00
-4.191988602441699641e+02
-4.357794024838902942e+02
-4.130889414244830391e+02
-1.841501667632579995e+02
2.915529066783894763e+01
-1.410743260376813737e+02
-1.431977450011506505e+02
2.715994520425525138e+02
1.373480930363615926e+03
1.930330728326869576e+03
1.778057045983380931e+03
1.664704029290204971e+03
1.521318233119038268e+03
1.361245859933912925e+03
1.293686851080205997e+03
1.466845465312973829e+03
1.101756473208674379e+03
5.350609948639132654e+02
-7.278375837694605366e+01
-2.749573705794506623e+03
-4.222572031755963508e+03
-2.883699972757355226e+03
-3.120724474386836391e+03
-3.651010859488140341e+03
-3.242544650010875557e+03
-3.666216297046633372e+03
-1.064148279928547709e+03
-1.881909477338842180e+03
-1.740089885880575139e+03
-1.170254454107480797e+03
-2.217438466480419379e+01
7.094190003887608498e+01
-2.696821887716308993e+03
-1.395901812503110705e+03
-5.861096175219392990e+02
-7.419500905494514882e+02
-9.977738850602582943e+02
-3.026686193478657515e+03
-3.673974503179754265e+03
1.712619343442080151e+02
-3.099130504337607590e+02
-2.076884492562501237e+03
-1.420473274294437715e+03
-3.394868000111641322e+03
-2.397234781993211072e+03
-4.584496934220375806e+03
-2.602510864539769955e+03
-1.554005123606144707e+03
-8.617970610163926040e+02
5.088801509291177467e+02
1.970000971368427258e+02
2.092874997940683897e+03
9.462094623955168515e+01
2.460488763590181520e+02
-5.089981656118561659e+01
-9.423343438942797547e+02
-1.618112744879036654e+03
-1.750886922906159498e+03
-1.871509327424396815e+03
-2.103219702167731157e+03
-3.041091171540529558e+03
-2.306248232699859273e+03
-1.173595726878178766e+03
-3.238336139021253643e+02
8.208696398359715829e+01
2.379865620505212860e+02
1.302596377123014008e+03
2.258024506053847290e+03
2.549464447178625505e+03
3.113650116039202203e+03
3.161267144888675375e+03
2.794650433964063268e+03
2.372252045131785508e+03
1.550337222121998593e+03
3.180153359442539340e+02
2.311588715655593660e+02
1.684779340760639570e+03
2.892864129721805057e+03
3.362208868759258621e+03
2.967598656554459012e+03
6.685982735704704965e+02
-2.040920235356988087e+03
-3.130817234519492558e+03
-4.492683068838649888e+03
-5.666641539584839848e+03
-4.152973411027593102e+03
-1.252503768121723851e+03
9.555915172555392019e+02
2.579494112484464040e+03
3.790931992745479874e+03
3.520335733473933942e+03
1.119257304641892006e+03
-6.667329525808290782e+02
2.416915593412328462e+02
2.184487684555420856e+03
2.780570270414860715e+03
4.353945719761503824e+03
6.521133142565103299e+03
7.397242617544836321e+03
6.556686020673503663e+03
6.504425406375335115e+03
6.131510399462682471e+03
4.254805251033892091e+03
1.362784047207724143e+03
-1.083393042222968006e+03
-1.260990357286900689e+03
1.014934713057498811e+03
3.467853900162583614e+03
4.681688187673036737e+03
5.104666367729234480e+03
5.423746941054128911e+03
5.704015769255678606e+03
6.703529747985799077e+03
7.336115449104222535e+03
6.629542542151854832e+03
5.712349448031372958e+03
4.732853572963518673e+03
2.903404515272980007e+03
7.372488708369775168e+01
-6.590932033080515566e+02
1.984894390067082213e+03
4.791615717662515635e+03
5.327887207440215207e+03
2.506702558149956531e+03
-6.617192237777926778e+01
5.493856305063965095e+01
1.626450768841938952e+03
4.239827957098750630e+03
5.510643688968555580e+03
4.269758060329647378e+03
5.129988317539982745e+02
-1.704525702755626071e+03
1.354258285218704486e+03
5.395417462751373932e+03
6.941853741451961469e+03
9.125317145490007533e+03
7.310702606073311472e+03
1.311999553749794359e+03
-3.424831538253177769e+03
-1.628742619129823197e+03
-3.386677830296929415e+02
-2.514564696410139277e+03
-5.233374425935801810e+03
-4.034048036192313248e+03
-3.829668680677149041e+03
-5.870182179017772796e+03
-6.478671133926830407e+03
-5.788032513838437808e+03
-6.201163978403861620e+03
-6.626998353070078338e+03
-8.544826462622169856e+03
-6.940685230300445255e+03
-4.445590245861160838e+03
-3.680334469385557895e+03
-1.430525888494960782e+03
1.093731049414428526e+03
3.802287235849459648e+03
3.307182795735567197e+03
5.074817714664122832e+02
-2.540619124601105796e+03
-4.750167060992504958e+03
-1.026610572609515657e+04
-1.291916033361869268e+04
-6.850311271552333892e+03
1.415156503380158483e+03
4.642177177014102199e+03
2.959761268135968294e+03
3.945054997143483888e+03
5.938296916972698455e+03
9.096877114737580996e+02
-8.324666861272253300e+03
-9.492645099818439121e+03
-4.300998331815712845e+03
-4.918430944092390860e+02
-9.263594133348337891e+02
-5.458427380363171324e+03
-8.845822473428053854e+03
-6.985430927641997187e+03
-6.795069570998871313e+03
-7.472570606386244435e+03
-4.756947258724550920e+03
1.594597719231292331e+03
6.247175409926138855e+03
4.780992740315528863e+03
-8.238426548054645764e+02
-1.051733571616970585e+04
-2.018424753889475687e+04
-2.576848218305528644e+04
-2.899775817580808871e+04
-3.338983022144439019e+04
-3.273255224863324111e+04
-2.151400164125550145e+04
-5.593377023564339652e+03
9.951678978693420504e+03
1.345561744865494074e+04
1.249636482053406689e+04
1.100795038530591592e+04
4.227477822003317669e+03
-3.464075456432115061e+03
-9.792618243115011865e+03
-4.347056295817538739e+03
8.919642226408752776e+02
7.347611062750568635e+03
1.257069656971325821e+04
2.274226242190980429e+03
-1.898646549012597006e+03
9.158427590665027310e+03
1.188747073672588340e+04
1.160321044853565945e+04
1.327562008095593046e+04
1.596783199176549351e+04
1.601324116775096445e+04
1.421980911398237549e+04
1.219144406675333630e+04
5.519424127859774671e+03
-4.983300958337566044e+03
-2.064178945356363693e+04
-2.035193980948423632e+04
-7.582263941804829301e+03
-2.828067673597847715e+03
-1.411516070556124760e+03
-1.638362269323166402e+03
1.158619994323343235e+03
1.387346891209476416e+04
1.869801890335278222e+04
1.963614237324198621e+04
2.256680087559116873e+04
1.756200855427424904e+04
1.006581634709532773e+04
2.840284315414260163e+03
-5.053079917603624835e+02
6.531503102066420070e+03
1.064567172115155699e+04
1.031776774949213359e+04
1.194463704450323712e+04
1.692633272708973891e+04
1.766581721299772471e+04
1.748003136229937445e+04
1.308601603957100815e+04
9.130717554916840527e+03
9.278115890667771964e+03
8.080232656782976846e+03
7.959471785157352315e+02
-3.613832959115457925e+03
-7.646102809055698344e+03
-1.662588598443203227e+04
-2.119327050834348483e+04
-1.322530312441273418e+04
-8.582920017018606814e+03
-4.161034160684055678e+03
2.693196973538136263e+03
1.576664113803965620e+03
-5.237033770568413047e+02
1.281096789050882990e+03
1.515101571059706885e+03
3.138118962868149993e+03
4.970035583194664355e+02
-2.140174968692602306e+03
8.343598106664649094e+02
1.785419554404928249e+03
3.660025948600357424e+03
8.278067707034897467e+03
9.876340478975134829e+03
8.960755843376749908e+03
8.219169953754295420e+03
6.320355558203121291e+03
3.522216445121449851e+03
6.886535967646979088e+02
-3.822478405158734404e+03
-6.026253740510686839e+03
-6.414643015455882050e+03
-4.869762838190429648e+03
-3.838784576825726162e+03
-8.623882669005519347e+03
-8.926046229198935180e+03
-6.542510148799669878e+03
-7.176942406504476821e+03
-7.691521369603850871e+03
-6.871934168839689846e+03
-9.753237196957723427e+03
-1.131217523913687000e+04
-1.381277198331625186e+04
-2.011158004104297288e+04
-2.325689297615743635e+04
-2.209858893110836289e+04
-1.538592933660375274e+04
-4.861980250809320751e+03
5.988018358654792792e+03
6.760961576984433123e+03
7.451156683905347791e+02
-5.447077190867048557e+03
-7.590463186454618153e+03
-1.551249740607065633e+03
4.250187953613098216e+03
7.303902269862649518e+03
9.326010450070831212e+03
1.291170542830991872e+04
1.340438068457582995e+04
1.563885164068190170e+04
1.498878820087328859e+04
1.145046874572418346e+04
8.043618957379586391e+03
4.916251945975335730e+03
4.227767180297775667e+03
6.047408877582433888e+03
4.603906411354668307e+03
2.028028176220924706e+03
3.128008393440766667e+03
5.607264194549126842e+03
5.985302661598919258e+03
4.650845601706592788e+03
1.202857941374062420e+03
-1.567714391753993368e+03
-5.089420262088015079e+02
2.270013156863833046e+03
2.377023721057462353e+03
1.192047964735690812e+03
-1.682872141732762657e+03
-3.895900020056980793e+03
-2.647136795751444879e+03
5.543348328811790680e+02
2.105479861342981167e+03
1.823427369826303845e+02
-1.323179660542442434e+03
-5.631726752133802165e+02
-3.100658853651546451e+03
-1.108974188256925481e+04
-1.638640519732023313e+04
-1.679259373712286106e+04
-1.355232048392527577e+04
-9.058582498445490273e+03
-6.700280910752989257e+03
-4.724487999661372669e+03
1.636702050252528124e+02
4.223310118430188595e+03
5.883576302608433252e+03
2.642416273619714502e+03
-2.695076706739790552e+03
-7.119864808666876343e+03
-4.067946689266513658e+03
-2.433234336077504850e+03
-3.115767750242261627e+03
-9.196739456257909069e+02
1.357913072036776612e+03
-4.814957764018664420e+03
-6.919216850862797401e+03
-3.297856498154445035e+03
-2.017667058522467869e+03
-2.323383169992331659e+03
-2.711917271747464838e+03
-2.756333167109303304e+03
-1.748668247714943391e+03
-9.658034316928224143e+02
-6.777776017332345873e+03
-1.161059139196920114e+04
-1.114012846161200468e+04
-1.026712810741447538e+04
-6.711639110513151536e+03
-3.009588244032648163e+03
-2.790663675678149048e+03
2.316373734323874032e+03
6.127577388831313328e+03
1.058087356943433588e+04
8.136141861647818587e+03
4.476363894149644693e+03
4.040721050285460478e+03
2.799337353513207290e+03
3.426412348604635554e+03
6.089079434348608629e+03
7.775328499925920369e+03
7.109299526072202752e+03
1.079271972021906549e+03
-9.805690322327577633e+02
1.273899862320450666e+03
9.378825185137081917e+02
2.107571388081322766e+03
3.009014587302280688e+03
4.252023266539231372e+03
4.527555798060614507e+03
5.471831054961843620e+03
3.978196515063343213e+03
-2.228161912440523338e+03
-3.402215868598578254e+03
1.968033729104582790e+03
3.812523267473696706e+03
4.431424244852489210e+03
2.481998862088913029e+03
2.252602466411606201e+03
4.003372944372765232e+03
7.136030122419520012e+03
9.711466232353295709e+03
1.025083627544174306e+04
9.130091141110608078e+03
7.345791184395524397e+03
4.557800461548599742e+03
2.229169484149726486e+03
7.271353307438009779e+02
-1.003487169219671102e+02
4.637361697649117787e+01
1.022543695378142729e+03
9.259823218442295456e+02
1.290759969362583888e+03
7.291975016284828826e+02
6.473335172388713090e+02
1.415103505538174659e+03
4.309623124365194599e+03
4.671019008824999219e+03
3.162498170791547182e+03
1.403541626024070688e+01
-1.398526241749791097e+03
1.526718229022459354e+03
3.022757468758640243e+03
2.520769117751937756e+03
1.298574338938543633e+03
-3.335377551727836476e+02
-5.673911870367140864e+02
-1.583930923382189803e+03
-1.840164838714576035e+03
1.340291050545850794e+03
4.819362574397862772e+03
5.275359715171463904e+03
3.800929354352766040e+03
9.133822062234420400e+02
-1.940918247740241668e+03
-3.421205254483742465e+03
-3.818572751291699205e+03
-2.723421829817735215e+03
-1.469262217493090702e+03
1.601411356303240382e+03
3.893092096347171264e+03
3.008840741739796158e+03
1.773938904426564704e+03
7.617549369442843954e+02
1.022548828845655180e+02
4.550497353420950049e+02
2.022226284206837136e+03
3.396790765273632132e+03
1.419399959482454506e+03
-1.057336949841576143e+03
-2.261426467637202677e+03
-3.857468457941110046e+03
-6.439062174394430258e+03
-7.076794536643703395e+03
-8.841521043532386102e+03
-9.012422033555798407e+03
-7.135658161391519570e+03
-4.189153045162585840e+03
-3.464274450323599012e+03
-7.287986796061100904e+03
-8.301964134799207386e+03
-4.840489262140977189e+03
-3.142875012173764844e+03
-1.831810514896890027e+03
-4.462688216095705798e+02
-5.007742956233874452e+02
-5.461859806984681427e+02
-2.907576861206964168e+03
-3.465935958644141010e+03
-4.773406501826998465e+03
-7.354248892086597152e+03
-1.002154443713130240e+04
-8.376055270167647905e+03
-3.968137857077038461e+03
1.155902836654005114e+03
1.868528095692987563e+03
5.558373140921659115e+02
-1.068382255602521354e+03
1.039738037160045906e+03
2.938402081877837190e+03
1.992762448801317760e+03
8.287441841806428329e+02
1.597652773896846270e+02
-1.941718275615506627e+03
-2.553153215513855685e+03
1.050351620645358253e+03
1.139615477325988877e+03
-1.037988060470499931e+03
-9.443570028699912200e+02
1.405623042677716285e+03
4.481583814972644177e+03
5.649492834574190965e+03
5.259859495776169751e+03
3.383930056443718058e+03
4.843888331654934518e+02
-2.721144310653377033e+03
-6.554336710905203290e+03
-7.933118915859181470e+03
-2.699756117015386280e+03
3.448872922265027228e+03
4.591892083698133320e+03
3.826600038228543326e+03
4.253860382724033116e+03
5.236324415608436539e+03
4.935209733256249820e+03
4.888534586789393870e+03
4.122659303658070712e+03
3.836587910017398372e+03
4.434040551340713137e+03
3.795155036000643122e+03
2.174452897900001517e+03
1.571740964626858840e+03
1.562090524835929045e+03
3.460105302481545664e+02
-1.111778117274554461e+03
-1.840314222754114326e+03
-9.534925103814181284e+02
-8.714395796052078822e+02
-1.708477359900661668e+03
-2.682023682917739279e+03
-2.613996711434068402e+03
-7.066696464210452859e+02
-7.894416066147329047e+01
-6.549700033034644093e+02
8.575952971219899155e+02
1.286781600704024868e+03
5.281470880572600208e+02
1.604778170262771255e+03
2.926569387247976010e+03
2.752238176855234997e+03
2.988942569123753856e+03
3.355862212502182501e+03
3.170021388475878666e+03
2.832521237914558242e+03
1.899416932129663337e+03
2.837913455918153431e+02
-1.227094556338134453e+03
-1.040386352853689232e+03
-6.391897836903439156e+02
-5.216274069770754522e+02
-1.741658489690167016e+03
-1.667822934272329803e+03
-3.382342881244548607e+03
-1.668458371747121191e+03
6.380426817723601971e+02
-1.321816064659604990e+03
-4.374130020349250117e+03
-3.047643829646603081e+03
1.396550648739796998e+03
7.359033120158389352e+01
-1.551147585371726905e+02
-3.037373742213865171e+02
-1.362625011323892068e+03
-1.126302042537075522e+03
-1.464279688265464983e+03
-2.523768122894729004e+03
-1.713058321992690253e+03
-2.502562451183388930e+03
4.409004000716828955e+02
2.126186180109600627e+03
5.085989289157731719e+02
-1.321005004120454259e+03
1.091545925627552833e+03
-1.946840993249041958e+02
1.301145660604088562e+03
4.842646830849975004e+02
-1.085472768301163796e+03
-5.138964961531113431e+02
1.147296602269774667e+03
1.338223487672986039e+03
-8.890987921043522419e+02
8.031629437423561058e+02
4.018131393463664267e+02
-9.628710604946809326e+02
3.872690711131184003e+02
-2.316064714123116119e+03
-1.508977682897537306e+03
-1.100308053515484744e+03
-3.849211375237342168e+02
7.943732344310181759e+01
8.058663111148023290e+02
9.710591978417946848e+02
3.358397665017442932e+02
-2.875848662180878250e+02
-5.230265325729386632e+02
-4.613054443070347475e+02
-3.034270882387053234e+02
-5.806954759895864981e+02
-1.083325616449071276e+03
-6.502373097985139339e+02
1.928724054263944652e+02
7.210274109548236083e+02
9.470579838486331710e+02
5.322382485427634720e+02
4.906320250372028369e+01
-4.357232395390825985e+01
-3.560098810110611680e+02
-1.246392410154545360e+03
-1.665814036121837489e+03
-2.159149532215758427e+03
-2.745407431042107419e+03
-1.792823249598884331e+03
8.055407075376467674e+02
2.196827175501402508e+03
2.510418623875115827e+03
1.926584809285329129e+03
2.114347937900446141e+03
2.574112779026797853e+03
1.965887522405633490e+03
1.942872525669430615e+03
1.635029283756686027e+03
1.299212291555860929e+03
1.089879132886782827e+03
1.026386655224003874e+02
-4.958730709232129357e+02
-1.111280305008954883e+03
-1.487507016474500006e+03
-9.315860271790641036e+02
-1.595807379756429896e+02
3.703876669083184083e+02
8.413915745875265202e+02
1.456005424732347365e+03
1.801252527038772314e+03
2.847777359023362351e+03
2.961526290447009160e+03
2.425199762150474271e+03
2.902735418303463121e+03
3.790518254951064137e+03
4.053941440230208627e+03
4.124877459826702761e+03
4.160131410275425878e+03
3.397225834947137173e+03
2.711255860456345090e+03
1.441012384348571914e+03
1.148580085201902193e+03
1.178770540622487715e+03
4.574036103304499079e+02
-2.454918153994668160e+02
-2.597920917834396164e+02
2.839771981828216099e+02
7.706636817262756267e+02
1.334992481048667059e+03
1.391166719009308054e+03
2.400052149080762319e+03
3.459707241028802400e+03
3.593189737691992377e+03
3.236465354366155680e+03
2.031289683839670488e+03
1.020776546129332473e+03
1.215377099596721564e+03
1.756759081819213861e+03
1.730378946736836497e+03
1.648449853907075067e+03
9.060292669875435649e+02
-6.869815765597293478e+01
-8.855659035111976607e+00
5.824223142982129957e+02
4.319298848031406806e+02
-1.039377400834772743e+03
-3.941304365766476622e+03
-5.538671540408535293e+03
-2.360442326837852306e+03
9.135235502208734033e+02
-3.977464462713027160e+02
-4.251285153784995600e+03
-5.017117671666377646e+03
-5.107297112703736275e+03
-4.841921684219354574e+03
-5.592925822440970478e+03
-5.858348402707264540e+03
-5.510144169789195985e+03
-5.578098030389261112e+03
-6.219432503207225636e+03
-6.318404452442735419e+03
-6.403770539686539450e+03
-3.768403857418950793e+03
-1.843156760408037826e+03
-3.034128347799273797e+03
-3.357656212424325531e+03
-8.476091598325626819e+02
7.920921602298031416e+01
1.546877543335687733e+03
2.295483083893800085e+03
2.362981862721640937e+03
2.020408883007259874e+03
1.864692460293962085e+03
2.285524755251425177e+03
2.910812956476789623e+03
2.947820007428688314e+03
3.269739932501504882e+03
3.392705586008916725e+03
2.844755510556256013e+03
2.162897157043666994e+03
1.433114520641761374e+03
6.362439735198539665e+02
-2.180028880537807723e+01
-3.972005481039470283e+02
-1.499379545984787114e+02
4.124068336291966119e+01
3.853840544925211020e+02
6.285463072735072956e+02
1.243793981553938465e+03
2.006108416567193217e+03
2.342406010493137728e+03
2.275717132652885084e+03
2.339378634051610788e+03
2.401507039866332889e+03
2.198967641398310661e+03
2.414880308181322107e+03
2.239477425687052801e+03
1.799594542481638882e+03
1.604295090802060486e+03
1.088510639154466389e+03
-1.459097519212652969e+02
-1.100185671192581594e+03
-1.793277496670165419e+03
-2.333793439852053780e+03
-2.179863912757564322e+03
-2.179858027860397669e+03
-1.768622228680479566e+03
-1.240107790930016790e+03
-2.492826595847429303e+02
5.569615736385123910e+02
7.206112173777271437e+02
5.208717207816984001e+02
3.196363496647002194e+02
1.329485002362612818e+02
-2.528050574850472003e+02
-3.865022153198680712e+02
-2.554385284023133806e+02
-6.282111035529675291e+01
2.362289319881082292e+02
-3.242016476941723795e+02
-1.076898588444801362e+03
-1.521811055867963205e+03
-1.095379149347408202e+03
-4.861642268527591426e+01
-1.825696834574792149e+01
1.877540604043137193e+02
8.844481046043541710e+02
8.590092581955714195e+02
1.324403724709435664e+03
1.704348413850160114e+03
1.994099436073134029e+03
1.748823367140468008e+03
2.158337815994648736e+03
1.843483625959170013e+03
6.071189256209844416e+02
7.052535481863608311e+02
1.400055042603066340e+03
9.996928928874449412e+02
6.592796201045321141e+02
8.389105084323724668e+02
6.837355236829465639e+02
-3.738983844522789468e+01
-9.260342840001313789e+02
-1.430382276868069312e+03
-1.769108197069084554e+03
-1.373009450827147248e+03
-7.731459632384247698e+02
-4.495667151670010639e+02
-4.341162858503387838e+02
-3.287858291341734684e+02
-5.945332968004863687e+02
-6.284653998443308183e+02
-3.763959914784179261e+01
4.640742572352181128e+02
1.297596839386782506e+02
2.683534204668037546e+02
7.078988473708609490e+02
6.184414247017629123e+02
5.389621095355792022e+02
4.984282122559480399e+02
5.072838172346565955e+01
-4.890873589304603115e+02
-6.449505022764938076e+02
-1.048825334192080618e+03
-9.678290572171769099e+02
-7.261539702331768922e+02
-5.896906739180270733e+02
-2.683004919765965610e+02
-6.813690607027595547e+01
3.018582864637925240e+02
4.437111603178607879e+02
6.452583957852419871e+02
9.224788063143867021e+02
1.099478019333000475e+03
1.175157980313055759e+03
1.544498428915122304e+03
1.746549114853404035e+03
1.033331910232974451e+03
3.929108368714037169e+02
3.424144454715359984e+02
-2.571503960153231674e+02
-9.170060498992550038e+02
-1.209237517179691167e+03
-1.226922420199834505e+03
-1.756983940446895531e+03
-1.387474224793554185e+03
-1.088257154896751899e+03
