9.211950480637151486e+03
1.045097404410698618e+04
8.540936490743419199e+03
3.178006882718838369e+03
-2.243747570849251588e+03
-5.005306436600261804e+03
-5.332573247585196441e+03
-5.844427451412178016e+03
-7.632783521342144923e+03
-7.358577399159171364e+03
-7.388751209465045577e+03
-1.044914468197694623e+04
-1.494155405453395724e+04
-2.116985856031941512e+04
-2.455196102421196701e+04
-2.376473853987516850e+04
-2.081306274809568276e+04
-1.430574774071481625e+04
-8.015675196613642584e+03
-4.188622026079319767e+03
-2.883444970028288026e+03
-1.166943236106979839e+03
2.200903371994897668e+02
-2.753137268437958028e+03
-3.373350272221628529e+03
-7.383978876226550483e+02
3.284154839289617939e+03
6.910771970364927256e+03
7.717541728579842129e+03
1.945653020781518762e+03
-4.327714269933417199e+03
-7.425309060065133053e+03
-9.134773015189097350e+03
-1.046129208571312302e+04
-1.040950217627511483e+04
-8.794148439768148819e+03
-6.129147391646161850e+03
-7.865643444040784743e+03
-7.854196396040825675e+03
-6.027367550688990377e+03
-9.288391581926982326e+03
-8.549083745386218652e+03
2.878164712657757605e+02
1.082353031396326878e+04
1.290128771441486242e+04
4.719227209555550871e+03
1.355623362214074632e+03
5.949742009468362085e+03
7.432723590503708692e+03
6.043725456918143209e+03
4.616908340463143759e+03
3.169549394895150272e+03
3.555880131064384841e+03
5.042047099915138460e+03
4.253287540436399468e+03
9.138821944644554605e+03
1.513381624020811068e+04
1.640739045055677343e+04
1.424975429721336695e+04
1.275907586053196428e+04
1.040746149437958047e+04
8.329095427072252278e+03
7.166221752757781360e+03
4.926060655377310468e+03
3.861799067149158873e+03
2.095587674237821375e+03
-5.954050756703699108e+02
-4.782063340180500745e+03
-8.483295851713450247e+03
-1.081496979357433338e+04
-1.420603302853486457e+04
-1.587735809042013352e+04
-1.201677945968759923e+04
-2.982172191975968872e+03
4.390528315595161075e+03
1.017437686189212945e+04
1.400450453501749507e+04
1.414100487439857352e+04
1.159498192217305223e+04
7.203533977906841756e+03
1.109657093772693543e+03
-3.051543618867812256e+03
-3.148922344962272291e+03
-1.674418890264113600e+02
-3.520651571301278295e+02
-3.004806524007505232e+03
-8.304663506866831085e+03
-1.889768125659638463e+04
-1.609888868015542539e+04
-9.052074309312190962e+03
2.916885180135507767e+02
7.533310468668023532e+03
8.243856912981715141e+03
9.310297672909746325e+03
7.481498159623919491e+03
5.109401456681230229e+03
5.527995087682214944e+03
7.595318489097251586e+03
1.023527831924560633e+04
1.309390815099144857e+04
1.344702511783896261e+04
1.177455726165811211e+04
1.100950519879593048e+04
1.172881852297549995e+04
1.340036794347923205e+04
1.365103828763925412e+04
1.075776522328123247e+04
1.015341467750077391e+04
9.016786148664214124e+03
6.342711856207601159e+03
4.725126143253603004e+03
2.951915447862252222e+03
2.136971808743488964e+03
1.305148123219963736e+03
-4.017494994245015505e+02
-2.735878196865582140e+03
-3.733408199406775111e+03
-4.641410633640999549e+03
-4.751118305415444411e+03
-2.134690098638904146e+03
-1.749301526256925854e+03
-7.671025636491742716e+02
6.278170517551532726e+01
2.611708698061020186e+02
1.249073599441083218e+02
-2.079212845139878937e+03
-1.106381429835281097e+03
1.106221847141651779e+03
3.260463630420762456e+03
2.620123523582149119e+03
1.828973988658742655e+03
1.001820547148609080e+03
5.855643031066143749e+02
5.520170550035987844e+02
2.529981284084485935e+02
1.783052083973259130e+02
6.986906294918135245e+02
1.854923143819182997e+03
8.278347412144565851e+02
-6.087207115716574890e+02
-1.445900693273839352e+03
-1.891876209409103467e+03
-1.306855859694160927e+03
-4.420169410413672608e+02
9.194315040619579804e+02
1.950272367293327306e+03
7.439441567669366862e+01
-1.130381354445916259e+03
-2.771992798581944157e+02
-1.028240761392425156e+03
-3.134712752132606511e+03
-5.694718268041151532e+03
-9.567383924008550821e+03
-1.473995874854268368e+04
-1.718559558712720536e+04
-1.471341300679859341e+04
-1.448359198260664562e+04
-1.421131536257280277e+04
-1.462068397092613486e+04
-1.413286061027549476e+04
-1.136304313803390505e+04
-8.435213006737276373e+03
-6.125486380238288803e+03
-5.821987064897108212e+03
-6.774877410018410046e+03
-7.719356654053897728e+03
-8.314475811033951686e+03
-4.586271497961179193e+03
-3.287890394383818148e+03
-8.444398418646613209e+03
-9.740979555883886860e+03
-8.501662508618850552e+03
-6.120474083347497071e+03
-6.477474219530484334e+03
-8.180748015823089190e+03
-9.571333410570681735e+03
-8.873339794748555505e+03
-7.442778311350102740e+03
-5.679689169243789365e+03
-5.235115875789408165e+03
-5.230140807444393431e+03
-5.365765182210914645e+03
-1.454955870437462863e+03
-3.031738478176286208e+03
-6.023140433174535247e+03
-4.888236421230655651e+03
-4.851004144678872763e+03
-5.062416989872594968e+03
-4.240400083994675697e+03
-3.385970126018631618e+03
-1.815600207053540061e+01
2.396094899480368440e+03
6.766806595506646772e+03
7.954973236447533964e+03
8.073676471167887030e+03
8.274005374355978347e+03
7.889940700281916179e+03
7.213500149172095007e+03
6.751698649537461279e+03
6.870629559268360936e+03
6.681356415961343373e+03
6.718941146853476312e+03
6.201517111635502260e+03
5.145121112556619664e+03
4.305834440804086626e+03
4.405788937547144997e+03
4.135983096437487802e+03
3.753489258588947450e+03
3.747485040828833917e+03
5.218037806890713910e+03
6.451217940694426943e+03
7.020953655488377080e+03
7.663225216907389040e+03
7.519168351656502637e+03
7.131370643677236330e+03
6.932099565917504151e+03
6.160669541231125550e+03
5.652339099514795635e+03
5.273879125497191126e+03
5.101361507784191417e+03
4.923990942645142241e+03
4.921790534290456890e+03
4.960990676115136012e+03
5.174801875618423765e+03
4.516134377520374983e+03
4.742131534414212183e+03
5.055080583203582137e+03
4.376960615346124541e+03
4.087461747171384104e+03
3.928446669596036372e+03
3.763807584106337345e+03
4.003988521595103521e+03
4.116651241936081533e+03
4.026700372579147825e+03
3.702234597225360631e+03
3.352405483854634440e+03
3.188288101844689209e+03
3.044900687981695683e+03
2.767390762809754960e+03
2.445915399570881164e+03
2.591596972056015147e+03
2.646501313683463195e+03
2.278697062409501996e+03
2.294170001812561168e+03
2.294924633586409527e+03
2.106032153676668258e+03
1.950614895765925439e+03
1.652736769879862322e+03
1.487386920415055556e+03
7.573931207166178865e+02
7.407278200272478443e+02
5.035667971393952485e+02
-4.219719337750282193e+02
-9.519748743834204561e+02
-1.322605531642252117e+03
-1.686785993470516132e+03
-2.229378194554310539e+03
-2.579359773074248551e+03
-2.871650607828422835e+03
-2.040063184724963094e+03
-6.382073619229147425e+02
9.508303600480323325e+01
5.287346028992303673e+02
1.115615792928232850e+03
2.135791469811621482e+03
2.229404245180933685e+03
1.292335316501290436e+03
7.165934107814571234e+02
1.167440973406588000e+03
1.902099379090298726e+03
2.090786216312598754e+03
1.691399562875875517e+03
1.255603958400592319e+03
8.642088445175119205e+02
5.408847038506216904e+02
5.144897167512084479e+02
2.090693627095533316e+02
2.368175182949202338e+02
3.326614078400270955e+02
2.660714783992058940e+01
-1.709037234166054986e+03
-5.430463403906130225e+03
-1.092994744231914410e+04
-1.094769629602109853e+04
-1.039274634915252682e+04
-1.044190282621420010e+04
-1.039958061483990241e+04
-9.873645927809235218e+03
-8.135301849947401024e+03
-9.662533795503590227e+03
-1.022439538067315152e+04
-1.018308898591826255e+04
-1.072677303106918225e+04
-1.106760862828340942e+04
-5.713305794734960728e+03
3.549960636619811680e+02
1.143130061123409178e+03
1.011454768358626666e+03
8.447505538973042576e+02
1.041289054075676631e+03
1.610695191555815427e+03
1.567397888381646908e+03
1.765226393852800356e+03
2.431927547092153873e+03
2.883886088086125255e+03
2.660249844154514449e+03
1.833219942827790419e+03
1.565831930597888004e+03
1.510100419231338492e+03
1.040859289872327054e+03
1.065982930398397230e+03
1.275618232827204110e+03
1.571248772414290670e+03
1.317645541463538621e+03
1.667119422775992689e+03
1.764013364979972039e+03
1.087274864524523991e+03
1.789871189201948880e+02
2.914940366916913916e+01
-9.523678899215161664e+01
1.079265865304941201e+02
6.345447075032308248e+02
1.520738896320678805e+03
1.939613451676458226e+03
1.771349548214867127e+03
1.731998930776064981e+03
1.398565786793243660e+03
9.021295752783601074e+02
6.325994096308753569e+02
9.024900409446437379e+02
8.562274022343000297e+02
3.117925363770265221e+02
-2.018012056571693620e+02
-6.545116380556406739e+02
-7.580845816182236376e+02
-1.010258198336849773e+03
-1.289795164290126422e+03
-1.704431025785817837e+03
-1.311212330979531089e+03
-6.733331762734710537e+02
3.709376807244794350e+02
8.977398445821087307e+02
7.672163504076016807e+02
2.706261809658657285e+02
-5.564125522234244272e+02
-1.124408089997754701e+02
2.495163576212931105e+02
2.839870194580295788e+02
7.874995851749852136e+02
1.072469139203745954e+03
5.648493633401816396e+02
-2.500979402871636808e+02
-1.095334357085174133e+03
-9.081001089728283659e+02
-1.469382364756695551e+03
-1.930229617771535459e+03
-1.607739085298693681e+03
-1.846707187308611992e+03
-1.926903773376688150e+03
-1.027371691150776542e+03
-5.572202994007374173e+02
-2.245209552331536145e+02
7.728234544432984876e+02
1.652116869926414665e+03
1.378280680894486977e+03
5.893754666924029380e+02
5.986429506464944552e+02
5.520796961301444981e+02
9.657460071872876597e+02
1.234600168913841799e+03
7.726320513838325041e+02
4.909007923194550926e+02
2.744962460051885955e+02
6.204143923029425878e+02
3.417194976341370420e+02
9.832969054170989409e+01
2.439921740685085751e+02
1.983336886358994633e+01
2.587455333338453656e+01
1.431133106244149076e+02
2.605493473049278350e+02
1.272150521699525285e+02
4.432116729282111578e+01
-4.053765147916946603e+02
-7.032127459539994518e+00
3.273528208962059125e+02
9.999657209264093183e+01
-6.280714010589767895e+02
-8.038490401799514302e+02
-8.024081299930422801e+02
-6.297578806964751266e+02
-1.288747049665927022e+02
-1.768222687677736360e+02
-9.956805111199456633e+02
-1.869519778417838324e+03
-1.863148701280629666e+03
-1.107535629917659207e+03
-4.317503886522372341e+02
-4.077844347661164193e+02
-3.075090811084831799e+01
2.913539094241501175e+02
-2.785999543246419989e+02
-6.056397658041672685e+02
-9.415648318666485466e+02
-9.974254112062174045e+02
-7.324656067740178287e+02
-7.295064160600103378e+02
-3.134791248972921949e+02
2.616671079200756935e+02
-6.694470198342678202e+01
2.087777219363689341e+01
6.709298867427000914e+02
8.427286063007061330e+02
7.663935605305845229e+02
1.336918772402880677e+03
1.302294956273226035e+03
3.502730322210146596e+02
7.433575756925205269e+02
1.707990165514495857e+03
2.075081451341969569e+03
2.072446394862826310e+03
1.735621960568677196e+03
1.691231261996806097e+03
1.863203934589001165e+03
1.979407550152151998e+03
2.133583994474784504e+03
1.585130690457512628e+03
9.652215010513048128e+02
8.749757392225651529e+02
1.102617207152856281e+03
8.570686401492827144e+02
1.082170966216585612e+03
1.027559566274134795e+03
1.213001345802196511e+03
1.472804121544999816e+03
1.448232387852850025e+03
1.432113145614653831e+03
1.472694291145633088e+03
2.015504595127846642e+03
2.100673966235806347e+03
2.082017940334620562e+03
1.713701646067093634e+03
1.702757047058392118e+03
1.605656741981127198e+03
2.100900444916437664e+03
2.218798061858983601e+03
2.155376316636608863e+03
2.289125290726362891e+03
2.024417104897352601e+03
1.303289872450198345e+03
1.444675875699440212e+03
2.504505270147467400e+03
3.003706537724491682e+03
2.731279573820580481e+03
2.579248180718622734e+03
2.711586032065557447e+03
2.382254405302075611e+03
1.842237268379623629e+03
2.158481411453987221e+03
2.184073083097106519e+03
2.086024529838034596e+03
2.742258051893815718e+03
2.364710111408547618e+03
1.590379054595853177e+03
2.168257041363640838e+03
2.557328208778213138e+03
2.964489102303895379e+03
1.105740585148786295e+03
-3.140959793584468116e+03
-8.019601961257070798e+03
-7.861214754703514700e+03
-8.194782278128719554e+03
-8.204284849211699111e+03
-7.833687961036344859e+03
-8.302980014810851571e+03
-9.147155452992381470e+03
-8.912229525898481370e+03
-8.927177791383448493e+03
-8.093967845834768923e+03
-6.343607476696552112e+03
-6.100156032993581903e+03
-5.587408645373938270e+03
-1.885450544316274090e+03
2.895702144122701156e+03
3.211180049827098628e+03
-6.700441118396637421e+02
-5.294948830344516864e+03
-5.599490202022998346e+03
-6.682710154028848592e+03
-7.438591721453562968e+03
-7.852057469158557979e+03
-7.381069996359080505e+03
-6.859593412651104700e+03
-6.985575893474060649e+03
-6.927968656157914666e+03
-6.434744127268514603e+03
-6.219879310672877182e+03
-6.616386865681872223e+03
-6.040159120022366551e+03
6.738550389615335234e+02
4.263668391289925239e+03
5.295278270665332457e+03
5.274794376726061273e+03
5.125279634561657986e+03
5.173775963864380174e+03
5.259336355137166720e+03
5.003066175112577184e+03
4.889929465340763272e+03
4.653982903465742311e+03
4.092389068945682084e+03
3.317178697996416304e+03
3.005341713161590633e+03
3.097922559283668761e+03
3.307992403891809772e+03
4.240576692258488947e+03
3.855727595401084727e+03
3.449409452357825103e+03
3.145599132734487284e+03
3.032417230439675677e+03
2.883891797577003672e+03
2.970076149456840085e+03
3.078978816856264075e+03
3.360696699081253882e+03
3.339360824138856060e+03
3.075052101218157077e+03
3.105748354198648030e+03
2.707436279481214115e+03
2.545194822826198106e+03
1.886150348739624860e+03
1.410345179040830089e+03
1.593847573165355925e+03
1.563682739486207538e+03
1.012807543473362784e+03
1.146336246027572543e+03
1.289284064896187374e+03
1.784611629937384350e+03
1.874306975783173357e+03
1.496461070414164396e+03
1.174846768908237209e+03
5.028585674154740559e+02
-2.289838583756684187e+01
-2.314917295396547559e+02
6.140715130351116713e+00
1.160256337760689718e+02
-2.258156440461313537e+02
7.475243508246095416e+02
1.574212939974283472e+03
1.448288011918191387e+03
1.403803351982075128e+03
1.227708860696300007e+03
7.653079657833376359e+02
2.553711388296277960e+02
-1.028202234628292473e+02
-9.330952231214635049e+02
-6.283945056945401575e+02
1.743183699312172337e+02
9.220522098304377323e+02
7.058117134264150536e+02
2.136469084470573705e+02
-9.744233283731561812e+01
4.149843203845708217e+01
3.145717122916010666e+01
-4.050939379046592137e+01
1.736757420258119851e+02
4.659795423140889739e+02
5.963758232771318717e+02
7.058944496794786119e+02
7.405426074691387157e+02
5.072719852526026898e+02
-9.293456549167351000e+01
-5.020151765501737486e+02
2.594713851015088579e+01
2.148952671058158046e+02
1.829101527504853095e+02
-1.619933301822491387e+02
3.813344768359309711e+01
5.730252707440024551e+01
-4.065624135262963819e+02
-3.944310985459716221e+02
-5.183385599352534427e+02
-6.983487576055327963e+02
-7.224291272765080976e+02
7.240107409446503084e+01
3.161319941795771911e+02
6.357670229720285988e+02
7.072500912353905278e+02
3.135096889192228105e+02
1.145954000178931693e+02
1.564921094185858976e+02
-8.781141034374324761e+01
-4.803457268894815115e+02
-7.841792178016627304e+02
-1.061322579019595196e+03
-1.258817217010316199e+03
-1.707697026555031698e+03
-1.284038563839316794e+03
-8.818950761692284459e+02
-1.691365915417243059e+03
-4.103408616540814364e+03
-7.881013641469960930e+03
-1.236617559649337454e+04
-1.215787412251655405e+04
-6.036298471672525920e+03
-9.047503126600672374e+01
5.546275151275767712e+02
9.539325386341930653e+02
1.166423971687166159e+03
1.557134557633486565e+03
1.061076373645319109e+03
-5.338164144442285988e+02
-4.685762539179978603e+02
-7.022676256096657710e+01
-2.717843292473882570e+02
-3.113574080916972093e+02
1.090310486784579211e+02
3.023635446711512031e+02
2.485392648834673537e+02
1.875136529613860716e+02
-2.037216381309593771e+02
-6.432691335421923213e+02
-6.691340764898644693e+02
-1.063232519908656514e+03
-7.115575624550219800e+02
-7.625661302357114835e+01
6.436759085978551411e+02
1.397199810665463701e+03
1.707320709549064759e+03
1.363066277800081025e+03
7.013979815302744782e+02
6.323563455324494953e+02
1.153810637553153583e+03
1.257772668273160207e+03
1.058255998056610451e+03
4.461879326925263740e+02
7.534910792336869463e+02
1.125159139993522558e+03
9.542114855659561954e+02
7.696382209588322212e+02
8.684354342449323667e+02
8.375960954789125026e+02
4.271588628765946396e+02
4.680133513037694115e+02
7.721861023438731308e+02
1.243696878838116390e+03
1.661577619251713941e+03
1.516796492648979438e+03
1.678336442950833543e+03
2.020159918709742442e+03
1.887254647345202557e+03
1.466619722254341013e+03
1.061367694233384327e+03
1.083531568968281590e+03
9.719908941017752113e+02
4.046673720171673381e+02
3.415401783170792669e+02
1.106812345585802433e+02
7.450955110333960647e+02
9.128230769469583947e+02
1.078928740066957516e+03
1.176414531156889552e+03
1.279275208828120640e+03
5.585120810903346182e+02
8.980572943211805068e+02
8.490119877102537203e+02
8.283444274784135359e+02
6.980222835487078328e+02
1.122180192798989310e+03
1.305796659796440053e+03
7.787714015186451206e+02
4.201554162077472938e+02
7.290258125388198778e+02
9.462934383795474105e+02
-6.399505376113721695e+02
-6.156625649397863526e+03
-5.025773117168995668e+03
-4.064420244552674376e+03
-6.743550120904576033e+03
-3.104079279707881597e+03
-3.463970978476616892e+03
-4.031246696022043125e+03
-4.868812050280424728e+02
-9.298715545950846035e+02
-2.851173064538981180e+03
1.506271509130749109e+03
-2.090488118413380562e+03
-7.574499300171715959e+02
-2.180603789971164133e+03
-7.441921245503332102e+03
-4.194421609478496066e+03
-2.770398439758815243e+02
-3.404756603059557165e+03
-1.866588532537194624e+03
-2.790503185119172485e+03
4.851785485220685956e+01
-2.600522423949849326e+03
1.904383311136108659e+03
-1.317280344893533197e+02
-1.888826174136663894e+03
1.543177276257417361e+03
-2.104723783494749568e+03
9.824789581715202758e+02
-3.187249530578553731e+03
-7.235867432587348958e+03
-1.055322039591615294e+03
-1.866590793072250563e+03
1.544373624230067435e+03
2.757636144415977924e+03
2.836156874970087756e+03
2.561890624543530521e+03
2.015874008302704624e+03
1.648127177974853566e+03
1.320692593592194953e+03
1.382548553256541027e+03
1.281717368761047510e+03
9.972294206886907659e+02
1.564035776453852122e+03
1.979194896434020393e+03
1.670699443703781526e+03
1.615504907263328278e+03
1.360707444594343769e+03
9.503786378356141995e+02
7.954513367351319175e+02
1.196881658886480182e+03
2.050651545651673132e+03
2.192994794991171602e+03
2.913069706646523173e+03
2.682946488110820155e+03
2.314259157624772797e+03
2.282437862215258974e+03
1.947481321278578207e+03
1.767388714461552809e+03
1.581187220409230804e+03
1.190901503847922640e+03
8.814525610867940486e+02
1.000869034296071959e+03
9.360183135320443171e+02
2.381802639647314379e+01
5.783499012384590969e+02
7.524730709519144511e+02
6.579336569741408312e+02
9.817175761476684102e+02
9.902849830701819656e+02
1.071372530882726778e+03
1.420178239316083591e+03
1.358669512337253991e+03
1.037876690543610266e+03
1.112817454239655035e+03
9.854350627493196271e+02
7.526087198662659148e+02
8.663016125029816976e+02
1.210511315976392552e+03
1.329204034620177708e+03
1.146375843116926262e+03
6.769500385906442261e+02
1.010917175043210818e+03
1.078388068206703338e+03
1.138872970411488723e+03
5.431550317251816296e+02
5.062629215418514832e+02
7.251664759920441838e+02
7.367984862872556278e+02
9.481775011057060283e+02
1.320239258128707206e+03
1.298931744420545328e+03
1.128253986227957967e+03
1.648224367112370146e+03
2.321806240811294174e+03
2.406057142548682805e+03
2.376923620742084495e+03
2.354317135903364488e+03
2.091169388608495865e+03
1.790397962769020296e+03
1.543096086457478350e+03
1.160236123987844849e+03
1.273770075245603948e+03
9.326442499416625651e+02
8.658681753251037208e+02
8.994066934998606939e+02
7.252391796810338747e+02
3.673347162245910340e+02
5.357008200562639786e+02
8.492987716529336240e+02
8.311164126536158392e+02
7.511508562137514673e+02
1.076372689022796294e+03
1.236819208902664514e+03
1.674527484011973911e+03
1.895455911411612988e+03
1.152531809242335612e+03
8.308225198235942344e+02
3.132465207773465181e+02
-1.507218670975146324e+03
-5.217619361832346840e+03
-1.134595519637623875e+04
-1.169118829033610564e+04
-1.039035746769901925e+04
-9.644409300919238376e+03
-9.470317942213134302e+03
-9.457110684020104600e+03
-9.433841024748564450e+03
-8.913512002618706902e+03
-8.311065094779387437e+03
-9.204583715621482042e+03
-9.416060202123697309e+03
-8.650407699557199521e+03
-9.485639602876466597e+03
-6.288722233066429908e+03
1.547427698522857327e+03
3.461789880216595975e+03
3.230358783611391573e+03
2.633204519353757860e+03
2.109257541581034729e+03
1.798470590506273084e+03
1.845870160277855803e+03
1.877525859819543712e+03
2.092437080395621251e+03
2.264631846600575045e+03
2.147106112118307919e+03
2.020888975087092831e+03
2.093991543746741627e+03
2.156441863237494999e+03
2.047277551086161338e+03
1.815554559058283076e+03
2.169285681548552930e+03
2.233505232776253251e+03
2.330282320335635632e+03
2.858641587721034739e+03
3.162644893760028936e+03
2.644286869104477773e+03
2.358602587573256642e+03
1.889653708393898796e+03
1.442504983733785366e+03
1.256123168498835412e+03
5.185687065556688822e+02
7.488831534470928091e+02
1.434110481931360482e+03
1.329356769043466329e+03
1.338690414761577813e+03
1.500173471353481091e+03
1.503758108852128544e+03
1.596503463113335783e+03
1.401597140908247411e+03
1.094180096773329979e+03
1.494269902950504502e+03
1.539751075051034377e+03
1.735547849530448502e+03
1.906736089184534421e+03
1.895397491691968298e+03
1.969624476262661574e+03
1.824555641877868538e+03
1.365208242831344478e+03
1.059602308529180391e+03
8.136012686359485997e+02
2.461403047707713370e+02
2.742259250199982148e+02
2.510638176640603092e+02
2.841053880382077068e+02
5.547849638304356858e+02
2.599029742168636758e+01
-5.135714547761118638e+02
-5.617623504657565263e+02
-6.307833218562495858e+02
-5.877553713155217565e+02
-4.926335034437340141e+02
-2.413897037681986433e+02
-6.679127965257001733e+02
-1.039284375865363188e+02
-1.255590473582745403e+02
7.631740071722073537e+01
1.267376386567318747e+02
-2.753084811167871067e+02
-4.258375207671517728e+02
-3.719134944437815307e+02
-7.704697790045953525e+02
-9.876542856668506829e+02
-1.374368887289710301e+03
-1.378278745286114599e+03
-9.632907912619330091e+02
-6.696842508294189429e+02
-1.270771639658964432e+03
-1.656395190440204942e+03
-1.798840604824083584e+03
-1.610404276908933753e+03
-1.485114817684556783e+03
-1.466923687880778971e+03
-5.206455992576504741e+02
-2.400991643974336398e+02
-1.052746049559331425e+02
5.248919367097278155e+02
9.865691890713248995e+02
2.740209934247303067e+02
-2.658218888730347089e+02
-3.054821634587437416e+02
-2.551847940761183793e+02
-3.424979654029844482e+02
-3.551478321080353453e+02
-1.370667744643459116e+02
-3.672294336659675196e+02
-1.038910865199685531e+02
1.580194492870064416e+01
2.285066775484160928e+01
1.474538576784351278e+02
3.097216729649586000e+02
2.476906298267820432e+02
5.062869790649315291e+02
2.880601767327152061e+02
6.554049839868467870e+02
1.298772502608592504e+03
1.225389685806170064e+03
9.234432776544781518e+02
2.979837374709970845e+02
-1.709271641341462953e+02
-3.360017050234751537e+02
-2.805800816187263891e+01
1.399413661588600348e+02
3.939898073577523405e+02
3.879536412042227198e+02
5.022981038284924580e+02
-1.267010969805208163e+02
9.872833313488764873e+01
2.575615953155378861e+02
1.009876170118090926e+02
6.538747693428721277e+02
1.257697447708832215e+03
1.069357660585240410e+03
8.890738338465431525e+02
1.247904127978384395e+03
9.285734918896765748e+02
9.470470670874699408e+02
6.471743856846571816e+02
7.978696891020192652e+02
1.133769128446166405e+03
1.003573403147268778e+03
1.357264855360198453e+03
1.578347526988366781e+03
1.477825299597184994e+03
1.635750830115569670e+03
1.507721872597832771e+03
1.725817531385842813e+03
1.623939713152254626e+03
1.602217649501409824e+03
1.745706155687701539e+03
2.111330459388555937e+03
2.103512908774247990e+03
1.989311040192044175e+03
2.149169165199270992e+03
2.584393286940000053e+03
2.707964969132088754e+03
2.708733791260129692e+03
2.640233223309090590e+03
2.319551380316640461e+03
2.335255680598573690e+03
2.128411426295381261e+03
1.858305040168583446e+03
2.019526613370302812e+03
2.167535655243858400e+03
2.052206134117903275e+03
1.814124329444073965e+03
1.475102837322074038e+03
1.311821660473707198e+03
1.375061143346180870e+03
1.394609789721419929e+03
1.433141055999216860e+03
1.540088794960967562e+03
2.004582303493010158e+03
2.505021659283883764e+03
2.372408013294670127e+03
2.686060911244286217e+03
2.895687460439842198e+03
2.747988014094986283e+03
2.454123746098639458e+03
2.135156805174503461e+03
2.148755453128607314e+03
1.762181984152303812e+03
1.420968435749428181e+03
1.127989105191928729e+03
1.063703244096457638e+03
1.419844231828928059e+03
1.082856810889459894e+03
4.448840322874105482e+02
1.820130649602089647e+02
-1.534512265917121795e+03
-4.855389406099823645e+03
-9.507268993390025571e+03
-9.780136801497616034e+03
-9.806318775455472860e+03
-9.311984259604749241e+03
-9.178051760508395091e+03
-9.176128269005916081e+03
-9.074927139211868052e+03
-8.633509634575604650e+03
-8.761692100178575856e+03
-8.528499102028968991e+03
-8.266879753303443067e+03
-9.396544528233449455e+03
-1.012323533617319845e+04
-8.566906486315579969e+03
-3.912577960521495697e+03
-6.916196040346793779e+03
-9.820690006578963221e+03
-9.606962275207282801e+03
-9.705959873893289114e+03
-9.171526067646756928e+03
-8.769533507795580590e+03
-8.657880318685880411e+03
-8.486436579739616718e+03
-8.611947868495759394e+03
-8.691182249290133768e+03
-7.870951205677181861e+03
-7.742255624328815429e+03
-8.028140273049792995e+03
-5.178427441345428633e+03
-8.391377304014929450e+01
1.767591740450963925e+03
2.803351260118753089e+03
3.086573034643159644e+03
2.723189673779331770e+03
3.173104896966203341e+03
3.307389597074859466e+03
2.726119510220647498e+03
2.491456089249907563e+03
2.688487833964514721e+03
2.329295410343149797e+03
2.685891805118440061e+03
3.152275010378930347e+03
3.306575863588737320e+03
3.097044473574989297e+03
3.017824412165216927e+03
3.256948020768061724e+03
3.403267674810256267e+03
3.276740478268306106e+03
2.847422497963313617e+03
2.711431825636519534e+03
2.625847198903740264e+03
2.603636806050281848e+03
2.700804893260420158e+03
2.941400467846605807e+03
2.657498813175565829e+03
2.697131717656862747e+03
2.427390762711705065e+03
2.083211172719504702e+03
1.730579688460378975e+03
2.086685259463346483e+03
2.868524846816859736e+03
2.795063224274840650e+03
3.200285378262161885e+03
3.425105956916854666e+03
3.601464764679555628e+03
3.793459365216338483e+03
3.795143352415352183e+03
3.880618591974609899e+03
3.460514934129774701e+03
3.214963214932145092e+03
3.312991250434464291e+03
3.323659955372957029e+03
3.077870065476122818e+03
2.608601066194180021e+03
2.273777650241316678e+03
2.155337347436060099e+03
2.134329671654604681e+03
2.290535711651990823e+03
2.229768891495632488e+03
2.310154990291868216e+03
3.049211967405955875e+03
3.323487507858751087e+03
3.443252002667853958e+03
3.699278744845809797e+03
4.002177973763357386e+03
4.191765290451699002e+03
4.732961938149581329e+03
5.147559136468428733e+03
4.943374532360085141e+03
4.851278642668281464e+03
4.818192976469362293e+03
4.688900885303412906e+03
4.215270943205146068e+03
3.957270594702058588e+03
3.916904752201848169e+03
4.122832017056576660e+03
4.127813141899297989e+03
4.095683868704748420e+03
4.240277903495421015e+03
3.732456179138481730e+03
3.528032803746458740e+03
3.741801141981892670e+03
3.706648649518262118e+03
3.777387894515347398e+03
3.833865872072342881e+03
3.433902331239305568e+03
3.032283773245329940e+03
1.885850793009984272e+03
8.933700888576671559e+02
3.546369422397674498e+02
-9.750804783756153427e+01
-2.782522739710690303e+02
-8.277354591003738733e+02
-1.823080402199377431e+03
-8.555215615271451952e+02
1.586760872303106680e+03
3.783654496760360416e+03
4.426987722304239469e+03
3.759703506345071673e+03
3.013636677040777158e+03
2.342528821031740790e+03
2.194147801874230026e+03
3.366350385372239543e+03
4.557024538516975554e+03
5.424102485518805224e+03
4.953444493603526098e+03
2.901933408433469594e+03
-1.725541645134037253e+03
-7.660079962045690991e+03
-1.184881169746690466e+04
-1.355587032457055466e+04
-1.325839711977761908e+04
-9.976519500861433698e+03
-2.549371370465769814e+03
-1.452080503913035500e+03
-2.427722203914891452e+03
-3.635410329074008132e+03
-4.970240122365137722e+03
-6.565196270572232606e+03
-6.611327370535264890e+03
-7.221814341832641730e+03
-6.145631865071522043e+03
-5.217875354946670086e+03
-4.331546181108914425e+03
-3.120653897396867706e+03
-2.912198357871054668e+03
-2.140241884903879964e+03
-3.543857189893877603e+03
-4.541091581965873957e+03
-1.201904676785196216e+03
4.859723753756702536e+03
8.135761986168724434e+03
8.683160545338314478e+03
1.230401000697958261e+04
1.323336108200071249e+04
1.047826027128619899e+04
6.272726116147797256e+03
8.967997121860361176e+02
-3.751412782517820688e+03
-6.420922368115389872e+03
-8.867608952288341243e+03
-1.134935472238182956e+04
-1.228813839323456887e+04
-1.000889722327303934e+04
-6.802434196835519288e+03
-9.894661133168530796e+03
-1.755847742292646944e+04
-2.094570555679891186e+04
-2.070425454345643448e+04
-1.920303973462292925e+04
-1.700197440253393506e+04
-1.702688020059043993e+04
-1.841362957882471892e+04
-1.941609858864409762e+04
-1.719707837154923982e+04
-1.272039817303346535e+04
-5.355895582523429766e+03
4.161613829722555238e+03
1.020124268537372518e+04
9.580284148977332734e+03
1.428846582361779383e+03
-4.537912301598501472e+03
-8.880672261302648621e+03
-1.360122149995297696e+04
-1.754530203449605688e+04
-1.785470596417578781e+04
-1.367123648227570084e+04
-7.189788212359218960e+03
2.174810343261165599e+03
1.342276661899797364e+04
2.135729625893254706e+04
2.114658768531996247e+04
1.989114889215444418e+04
1.870407205201302713e+04
2.119458590759969957e+04
2.357496377940009552e+04
2.081336938451577953e+04
1.678497875243997260e+04
1.506913965330002975e+04
1.490411666210440671e+04
1.251109042726158987e+04
9.953356443936994765e+03
3.165020198182441618e+03
3.274387490370781052e+03
6.057805173906759592e+03
6.420385257460084176e+03
3.199304976658613668e+03
6.573490609400617757e+01
-7.150037496530229873e+03
-1.531968141181911597e+04
-1.115301270037997165e+04
-7.913875407716212976e+03
-6.449106039290263652e+03
-9.091428325283186496e+03
-5.258640822051163013e+03
4.683385363369336119e+03
6.650828643997441759e+03
