1.946826793063471996e+03
5.231962361242082125e+02
-7.605809219927800768e+02
-1.606746933209329882e+03
-2.646322152591413669e+03
-3.846457529075712500e+03
-4.706367607357507950e+03
-5.705178580459440127e+03
-6.620129786031892763e+03
-6.114290702449871787e+03
-5.016680900728682900e+03
-3.616388671758171768e+03
-2.321510706239904266e+03
-1.103092769003344301e+03
-3.181892098991600051e+02
2.110845096487186012e+01
3.617465316069777259e+02
4.006338940294382382e+02
8.166023755562003998e+02
5.824933970784926487e+02
4.862861284604077241e+02
2.284602876682413353e+01
-1.363039884808836177e+03
-4.763457515554741803e+03
-9.397537823643848242e+03
-1.200045928870053831e+04
-6.154390759056341267e+03
-1.186842756546223063e+04
-1.645073780375278875e+04
-1.523930158884508819e+04
-7.426339871124973797e+03
-3.269877120611149167e+03
-1.665795215900260473e+03
-7.110851038991911537e+02
-8.852329870302177142e+02
1.208757082490276844e+03
2.599124291806273050e+03
3.293702662675472311e+03
3.538520683084685515e+03
3.555372721800151794e+03
3.163083048406642774e+03
2.588590276053626894e+03
1.877792837283034260e+03
8.836875117532039212e+02
3.329587674902188610e+01
-1.041503253776412066e+03
-2.258930935706995569e+03
-3.175095857431230797e+03
-3.568068251476392561e+03
-2.879920538853095422e+03
-2.519690566628376018e+03
-1.275444521401617294e+03
1.848857456814521072e+02
1.388344381835401691e+03
2.421895060449106495e+03
3.502512727734032524e+03
4.819262695066208835e+03
5.950177014712196979e+03
6.122208159653036091e+03
6.053337142757474794e+03
5.913524204239614846e+03
5.544829594449112847e+03
4.398194464975225856e+03
3.043604682957271962e+03
1.872052835307306395e+03
6.685412770701285581e+02
-7.419848850897287775e+02
-1.747672498248673492e+03
-1.701674109864380625e+03
-1.670037805977497783e+03
-1.147633858443931786e+03
3.037139265931979253e+02
1.678069389062710115e+03
3.634500852826637129e+03
4.889065411287897405e+03
5.772832409833283236e+03
6.361851108252997619e+03
6.798143028744266303e+03
7.029841041076914735e+03
7.353936273494919988e+03
6.685453362997434851e+03
6.065539451444951737e+03
5.562311811502265300e+03
4.838678929626245917e+03
3.169595370900386115e+03
1.219086761816145327e+03
7.130777959782764128e+02
-5.036277846525444346e+01
-6.151537461876349653e+02
-1.432320035104713156e+02
-1.456265490234254116e+02
2.367430397694011219e+02
1.787018339402480933e+03
3.983409575539420530e+03
5.434932933800027058e+03
6.291673456483934388e+03
6.063018728691343313e+03
3.695195926876430804e+03
-1.203830639365713978e+03
-5.478274931715724961e+03
-5.702924729728154489e+03
-5.561592084357544081e+03
-6.703247457540184769e+03
-7.618923773957673802e+03
-8.337660712885970497e+03
-9.537607811613514059e+03
-1.064066574434603899e+04
-1.153968793638481111e+04
-1.185557893683123439e+04
-1.087023755481141779e+04
-2.630586917727515811e+03
1.286430021004548507e+03
-1.467028689986012296e+03
-6.992752684070505893e+03
-3.820598448840553374e+03
1.472501010125949733e+03
-1.685261019593697711e+03
-4.338767028769920216e+03
-4.542989076030755314e+03
-4.093948753817551278e+03
-3.700607937510289048e+03
-4.098893542247525147e+03
-5.301753780321177146e+03
-6.016046002484888959e+03
-6.555677851828313578e+03
-8.025694069696187398e+03
-9.806129243543802659e+03
-9.299922283090316341e+03
-2.587014153060880744e+03
-8.673781836561298633e+02
-8.425881164683140014e+03
-6.289429461669570628e+03
-6.388304734722781859e+02
2.244067900812808148e+03
5.049324183649428960e+03
5.590873356219295601e+03
6.759864056814926698e+03
7.635476103631723163e+03
8.459845200216481317e+03
8.645942886496457504e+03
8.277834842255311742e+03
7.378616600460090922e+03
6.222271989201793986e+03
5.167776294745377527e+03
3.998096103942849368e+03
2.528284572190788822e+03
1.216310411830617568e+03
6.216423983485781690e+01
-4.810534319824792533e+02
-9.891587353266273794e+02
-1.202895130294414002e+03
-4.171121464409679902e+00
1.288769993773438728e+03
2.572970993159830414e+03
3.530600861703672308e+03
4.618705287634989872e+03
5.676309284177102199e+03
6.484443882573058545e+03
6.793084921801688324e+03
4.462111269537922453e+03
4.622827936887053966e+02
2.491067179759297687e+03
4.065117711754699485e+03
3.261433641229738896e+03
2.090410290262645049e+03
1.652835450690110292e+03
3.577843884075475671e+02
-1.151002000520902129e+03
-1.582566514160768065e+03
-1.047838275509413279e+03
-8.114772258592229264e+02
-3.769966746978497554e+02
6.770821583788633689e+02
1.998305258280440057e+03
3.212575477572944692e+03
4.033476998371625996e+03
4.885798013758372690e+03
5.542321185347844221e+03
5.875380294071662320e+03
5.800349534003081317e+03
5.693940923473187468e+03
4.389966820039569029e+03
3.823616577204508303e+03
2.548002824607309776e+03
9.637942582097997501e+02
2.004845982450352153e+02
-1.233216083014754304e+03
-2.237374633534124314e+03
-3.032077982570560835e+03
-3.268312807911267100e+03
-2.470182083156488716e+03
-1.422655388678203281e+03
-6.447201306349941206e+02
5.936557212003323230e+02
2.062518999871151664e+03
2.935868616609096534e+03
3.637715767083472201e+03
4.447070797542155560e+03
4.595915622128204632e+03
4.690219395257517135e+03
4.471890582177277793e+03
3.677886149307962569e+03
2.790143809240975315e+03
1.805621026959159508e+03
3.122096486096417038e+02
-6.760777580563897118e+02
-1.686261780100175656e+03
-3.068442715358280566e+03
-3.693646700548911667e+03
-3.411966074803628089e+03
-3.196461118629132216e+03
-2.572229328085674751e+03
-1.002226180954173287e+03
5.305813020495451156e+02
1.287181553435519390e+03
-4.534539341520936091e+02
-3.172294131770639979e+03
-7.851269029574531487e+03
-8.199287883563983996e+03
-7.356449117821417531e+03
-7.179791378873361282e+03
-7.234351780355887968e+03
-8.136138858213108506e+03
-9.006207620995195612e+03
-9.483723597635993428e+03
-1.118457093649336639e+04
-1.278579682999398210e+04
-1.278816810507092669e+04
-1.382472857440295957e+04
-1.397203431226649263e+04
-9.783133680934848599e+03
-2.247828618713955166e+03
-9.141662021980608870e+02
-4.539206468923259308e+03
-8.084933288260531299e+03
-1.927337154946614191e+03
3.678782888756646571e+03
6.205548796811458487e+03
6.788977932548852550e+03
6.472011220940612475e+03
5.892626429477422789e+03
5.383807067174715485e+03
4.995463936079942869e+03
3.872585400593888608e+03
2.664105848194315513e+03
1.628009657155308787e+03
1.762554315841080665e+02
-1.083157440146447016e+03
-1.568135346901843832e+03
-1.626759189448323923e+03
-1.806021453803089798e+03
-1.029017176056486505e+03
3.607813668842497634e+01
1.071392796385318661e+03
2.523059578048722415e+03
4.040112572079055099e+03
4.698419035400121174e+03
5.167088350650903521e+03
5.762240348310923764e+03
5.383869121313176038e+03
5.591013552575374888e+03
5.651789354834609185e+03
4.855168306795509125e+03
3.697154448102637161e+03
2.097943808218898084e+03
7.106296512247017745e+02
-3.758957293265925159e+02
-1.451899379023071333e+03
-2.427484862057736336e+03
-2.880568840551891299e+03
-2.712235833910502606e+03
-2.182586736083807864e+03
-8.304908319380487001e+02
6.560931281058686864e+02
1.900374840760407551e+03
3.040599133095627622e+03
4.104797968471171771e+03
5.090011019371362636e+03
5.359468546063604663e+03
5.560245522422397698e+03
5.742295523021514782e+03
5.333433175284750178e+03
4.210281028102523123e+03
3.137716096664344150e+03
1.975855286336836343e+03
7.717242581687629581e+02
-1.309575887784078077e+03
-2.498206084651100355e+03
-2.639508889305242519e+03
-2.761103250299172942e+03
-3.676846770418258075e+03
-4.535110119042034057e+03
-1.789116820626615890e+03
-5.230317122717916618e+02
1.261949663435558477e+03
2.764918664713250564e+03
3.773097114845179931e+03
4.400816594035340131e+03
4.295123394644224391e+03
3.859678358204333563e+03
4.158468610020371671e+03
4.340805249695166822e+03
3.424845270946680557e+03
2.178420006058257968e+03
1.270493805461647980e+03
1.202533857988675408e+02
-1.241468366534866846e+03
-2.736689436169137934e+03
-3.480792003889311673e+03
-3.699848691341343056e+03
-3.705765672286980589e+03
-3.019310842979689369e+03
-1.719470121639406216e+03
-5.327676365718034504e+02
7.781567751096405345e+02
1.870499922100713775e+03
2.350639797605709191e+03
2.887781771139867487e+03
3.214796289322053781e+03
3.428754636418571408e+03
3.801945633294014442e+03
3.741704096748841494e+03
2.681796816451887480e+03
1.748705561157482634e+03
8.612954404053772350e+02
-5.742298256288988796e+02
-2.250867862581530517e+03
-3.020783247712164211e+03
-3.319947501878127696e+03
-3.517512825489742681e+03
-3.599585711170283048e+03
-3.391214885219299049e+03
-2.271828869740817026e+03
-1.494419173027445822e+03
1.244126475359470305e+02
1.103838340876083976e+03
1.883781426212377482e+03
2.824152000002722616e+03
3.869188892831063185e+03
4.234463378520944389e+03
4.162414142633556366e+03
3.883191553333312186e+03
2.945347862865634852e+03
1.647643474577956340e+03
8.187300178973857783e+02
2.766183752238368356e+02
-1.274770297669707134e+03
-2.760388660696984971e+03
-3.552810776645339956e+03
-3.733085553585365687e+03
-4.101553454027682164e+03
-4.985567834197675438e+03
-3.157873254277713841e+03
-1.669114855382759970e+03
-5.329912611178328063e+01
1.091793247610581830e+03
2.019402819803716056e+03
2.694397692357717006e+03
3.492950632540531842e+03
3.913776772054022786e+03
4.101063550898311405e+03
3.559982035758523125e+03
2.995743484164780966e+03
2.415122151847940131e+03
1.079671413862176450e+03
-5.061953951616343375e+02
-1.707685899892241878e+03
-3.081479841330851286e+03
-4.446579972343395639e+03
-4.986076228394094869e+03
-4.963106037013400055e+03
-4.589675385713724609e+03
-2.995589494280216513e+03
-1.246362224569334103e+03
3.061867943466071438e+02
1.633871538529409918e+03
2.761477649939705316e+03
3.789227476364909307e+03
3.881537257152819166e+03
3.963297304873543908e+03
3.908673451759878390e+03
3.705752327488693481e+03
3.015789276751627312e+03
1.904394643259998702e+03
5.685998801837673682e+02
-9.882634490651820443e+02
-2.696373099726560667e+03
-4.324862805003937865e+03
-4.820086564303518571e+03
-4.751937317104892827e+03
-4.080090210846084119e+03
-4.125479099892193517e+03
-3.497876727639836190e+03
-2.384944422345637122e+03
-5.486304484150348344e+02
3.218698804301181440e+02
1.269292135209509524e+03
2.873010703280928738e+03
3.671748350929885873e+03
3.641613161136016515e+03
3.315915384333271504e+03
2.724679893118167001e+03
1.864236361156507883e+03
1.329742363529503336e+03
7.855870499519742225e+02
-2.608904724487675821e+02
-1.842751827252790008e+03
-3.296172442273000797e+03
-4.162540675104191905e+03
-4.533032790704392937e+03
-4.545555725779462591e+03
-4.191959336522658305e+03
-3.289124866177128752e+03
-2.011803097241984005e+03
-6.539790554557276892e+02
-1.715676420865274849e+03
-6.869171916876329306e+03
-1.729213960768953029e+03
2.836682028796491068e+03
3.078652338867345861e+03
8.369753330514406287e+01
-4.758116355583844779e+03
-3.439812472849859205e+03
4.817042445284304222e+02
-3.434588559535542572e+03
-7.162614494114519403e+03
-3.147267376988030719e+03
-6.522565711374097191e+03
-3.193634687714108168e+03
-6.250614932231285820e+03
-1.021154388220074543e+04
-5.807282987591951496e+03
-4.020745344106120683e+03
-4.989994576614018115e+03
-1.106010351557308468e+03
-3.615731260014430063e+03
-2.236204482877669761e+03
2.901683740420480262e+03
4.274113629585747731e+03
4.675123940574964763e+03
2.163736547852065996e+03
2.650858235887032151e+03
4.333375128147754367e+03
4.151260087971504618e+03
3.259395695625680219e+03
2.251707241500443160e+03
6.541700940428363538e+02
-7.873009916535793309e+02
-2.126855397885259208e+03
-2.799613517696935105e+03
-2.889580745712728003e+03
-2.582720380823188862e+03
-1.493088224805258506e+03
1.652294854198659095e+02
1.435105513144666475e+03
2.811543213953169470e+03
3.776571627778396760e+03
4.775243205806769765e+03
5.300519310834089083e+03
5.107265731665260319e+03
4.221395646537655011e+03
4.219916932195487789e+03
3.686546841104723171e+03
2.497219929913489068e+03
2.381884432382649720e+03
2.642341954243002874e+03
2.522408324769333376e+03
1.571963738650050118e+03
6.678627355206727998e+02
4.498133233540191895e+02
2.039678806049823550e+02
-1.598036707223571966e+02
-4.086145509135864700e+02
6.672160543291042814e+02
2.895226835723343356e+03
3.998460724865767133e+03
5.504624719177963016e+03
6.208744049911817456e+03
6.447712391968498196e+03
6.253646825214867931e+03
3.446100878967259632e+03
3.031915992347155225e+03
2.708185773768364015e+03
4.199765117897934033e+03
3.829354721390751365e+03
3.563958385280588573e+03
3.202398205900739413e+03
3.319202929401717938e+03
2.530083700658231464e+03
9.609372795653786170e+02
-2.114667223325417353e+02
-1.691316506494513533e+03
-1.508953592614361924e+03
3.237998655628000506e+02
2.803985024284132578e+03
4.572341252196411915e+03
5.764679217799468461e+03
6.997907229039095000e+03
7.234915233681016616e+03
6.446595419809680607e+03
5.741885716600218984e+03
4.834648734399994282e+03
4.013735168445047748e+03
3.343024035873995672e+03
3.614378130205706839e+03
4.270705153249221439e+03
5.110903314442737610e+03
5.706879220805831210e+03
4.486394664721319714e+03
3.727230282327098394e+03
4.228269271092524832e+03
4.759421406615359956e+03
3.773538738582334190e+03
3.275614705764197424e+03
2.905671217464952861e+03
1.933609457691102534e+03
1.264436765205706479e+03
1.433136589468147122e+03
5.447152118453378762e+02
-6.449186207293228108e+02
9.117978928592322063e+01
2.073006656956966253e+03
4.487476280731823863e+03
4.463524377084905609e+03
3.471090157649936373e+03
3.522057167714895513e+03
2.432399196549055432e+03
-9.039797294195889208e+02
-3.923112896060536059e+03
-7.441109639827453066e+03
-9.540061094369948478e+03
-8.489967106631074785e+03
-7.708793364899102926e+03
-6.324531868591866441e+03
-1.927197830669544146e+03
3.304296851469651301e+03
6.173038416227644120e+03
4.354055147695279629e+03
-2.523455067917572251e+03
-3.261463938777220392e+03
-1.169929799636156076e+03
-1.331683217525130203e+04
-2.171019667161074176e+04
-2.633995328647199494e+04
-2.537584084907607394e+04
-2.090192253975692074e+04
-1.364721203212788714e+04
-1.113658147992769955e+04
-8.510887065823662851e+03
-8.036436529229808912e+03
-1.102803167307350304e+04
-1.419760194230707748e+04
-1.552811616987331945e+04
-1.313342634763204114e+04
-9.902349675946556090e+03
-1.125068570336479024e+04
-1.395823868198192213e+04
-1.315993448090807397e+04
-1.047963786959263962e+04
-1.009006971445088675e+04
-1.015007509954578200e+04
-7.090628774622482524e+03
-4.277570627899997817e+03
-1.047649910352636653e+03
-1.158673600513286601e+03
-1.635540287586658906e+03
-6.741570768832608564e+02
4.262587518723127687e+03
1.142782531463904343e+04
1.383459401480027373e+04
7.850046875045427441e+03
2.211370827142402504e+03
3.157430398193495193e+02
8.843816849019132178e+02
-5.154664457124180217e+02
-2.290549068968940901e+03
-8.166579193813627171e+02
6.060394512412521181e+03
1.140989563937325147e+04
1.035813498104021346e+04
7.384271115481748893e+03
7.883482293823647524e+03
8.865022951851002290e+03
8.664123723278684338e+03
1.050288065112332151e+04
1.129650970820066686e+04
1.223521075198503422e+04
1.271105235576357700e+04
7.152147183031432178e+03
1.296386738152810665e+02
-2.988283446339430157e+03
-4.522510977670963257e+03
-7.366750964668479355e+03
-1.353777288270324971e+04
-1.816439330341380628e+04
-1.577138262396191385e+04
-6.563482595138598299e+03
6.329559056925406367e+03
1.585194006162662117e+04
2.632103098311973008e+04
3.471207099123344233e+04
3.145812103581107294e+04
2.762925430165599391e+04
2.321169932575289567e+04
9.721695945584759102e+03
-6.811580406606823999e+03
-1.729511380733038823e+04
-2.181187997594106491e+04
-2.443941955240320021e+04
-2.398690030420270341e+04
-1.174421821532471222e+04
3.345749775415181375e+03
1.112810673272808344e+04
8.592054484432974277e+03
8.344853549300645682e+03
2.230659208396581107e+03
-3.012396020367784786e+03
-7.383160555435527385e+03
-1.088935652464145460e+04
-4.335843845708307526e+03
-2.553589533514180857e+03
6.330420600933798596e+03
1.644325085662284982e+04
1.453299939339316370e+04
8.814824645154438258e+03
7.183810889072354257e+03
1.321894282345724787e+04
1.572320217731569755e+04
1.063756870535577218e+04
1.545982373307025910e+03
-8.280529183566659412e+03
-7.051911519190513900e+03
-8.262170066678321746e+03
-6.933198758837266723e+03
-4.009786140743527767e+02
4.896594126701603273e+03
1.414863305413530725e+04
1.234422248945344836e+04
1.203230381391544870e+04
4.605868119738883252e+03
-2.631078453393096424e+03
-1.428059180806842232e+04
-2.246072754090125818e+04
-1.783155806512423806e+04
-7.415126821525935156e+03
-2.494524777391614862e+03
6.181136923961298635e+03
3.772719136917316973e+03
1.192229098121575362e+03
3.079526410118081003e+03
5.518479151766527139e+03
5.233941583972149601e+03
-4.382338082067785763e+02
-3.809231525265054188e+03
8.189365591220687293e+02
6.997255953304626928e+03
3.799673520679528792e+03
-1.306941754623474253e+03
-4.696638731194916545e+03
-7.912536495450191069e+03
-7.431822882661138465e+03
-2.212663075658084836e+03
2.730812811549749767e+03
6.024521484610785592e+03
5.587331553324452216e+03
2.129982802918730158e+03
-1.411758590607936185e+03
-4.667059670664051737e+03
-7.543131905923415616e+03
-8.179263807124738378e+03
-9.663734403723694413e+03
-1.323490919330461475e+04
-1.140186240992182502e+04
-8.997171196949586374e+03
-7.616311695423179117e+03
-4.500446679210259390e+03
-3.744878345628044372e+03
-3.160538209469247249e+03
-2.755640079075428275e+03
-2.646396572551740064e+03
-4.044567376960997535e+03
-4.289296399067998209e+03
-2.366359265537554620e+03
-7.735014968192762126e+02
-5.876912819698974317e+02
-1.823430876863437334e+03
-3.633252093032154335e+03
-3.973143352009274622e+03
-3.541384516050875391e+03
-3.862528369223400659e+03
-4.174105372864508354e+03
-4.054847171308645102e+03
-5.148754748829717755e+03
-5.032766469399312882e+03
-3.834389788704382227e+03
-1.092304564883122339e+03
1.828828791550069127e+03
3.668634098169605750e+03
5.248545592540487633e+03
6.150883518413142156e+03
6.131009741586767632e+03
5.444800678224505646e+03
5.203885238722246868e+03
5.487793121971452820e+03
4.843765849727183195e+03
2.854873877972985611e+03
1.715567448195170982e+03
2.181479545175257954e+03
2.404343936554112588e+03
2.274900595565283311e+03
1.431902799719503719e+03
6.622304716949132626e+02
1.000703143699542693e+03
2.831192794763192978e+03
4.884569668565475695e+03
6.335764862435082250e+03
7.738772664878122669e+03
9.983503803960496953e+03
1.025775823588714047e+04
1.070645732391331876e+04
1.117761652177276665e+04
1.091897570640533922e+04
1.038931177699055479e+04
9.500554733787821533e+03
8.390627574620226369e+03
5.664466783369884979e+03
6.428923498100146389e+03
6.607888964573212434e+03
3.816279319722273613e+03
-4.667987131244259217e+03
-9.447058904400166284e+03
-9.104066506428687717e+03
-9.799967610105413769e+03
-9.170901075993710037e+03
-8.367850767929878202e+03
-4.861821164327117003e+03
-5.241772337250789860e+03
-5.912177199896113052e+03
-5.189275507710261081e+03
-4.798120062000673897e+03
-5.107912004463826634e+03
-4.769550738314418595e+03
-4.062103427835778348e+03
-2.438520611358517726e+03
3.105155045260318730e+03
5.065000893894446563e+03
1.921232107901487041e+02
-7.925446318067403809e+03
-1.001063075843620209e+04
-7.011482228471039889e+03
-2.904107808188410672e+03
-1.286491372333975733e+03
-1.099570368480628986e+03
-7.872575460023141432e+02
-2.424389980225539887e+02
7.120888626246829745e+02
1.787556129472907514e+03
2.517113914711834695e+03
2.915906305359245380e+03
2.569054515518580956e+03
1.650726206736712356e+03
1.438888559667811933e+03
1.755594202761230918e+03
2.266960066154358174e+03
2.216075215082362774e+03
1.080225570575024676e+03
-3.414796307938478321e+02
-1.238008959816314700e+03
-2.707269085904594249e+03
-4.088933579234802437e+03
-4.393892011627693137e+03
-4.793033250701781981e+03
-5.202127323414828425e+03
-4.299958486007359170e+03
-2.178345514015449226e+03
-9.300182001534576557e+02
5.129657272973793170e+01
1.186696741964322200e+03
1.981216309148655682e+03
2.779979479907481618e+03
3.296362921228454979e+03
2.681656287194876313e+03
2.442923503122137390e+03
1.877414388702063434e+03
1.586601704989187056e+03
1.155623161189386565e+03
7.371967074904434014e+01
-1.053016353968649355e+03
-1.723810587263332081e+03
-2.279526766604588374e+03
-3.149787239457466512e+03
-3.848372844384422933e+03
-3.813299191251444881e+03
-3.718248578780286607e+03
-1.860607524439901908e+03
-6.215856040471913957e+02
7.276891053738740993e+02
1.677538827752589214e+03
1.394750537955905656e+03
-2.537994993579245886e+02
1.119404931244537238e+03
2.038476495990956209e+03
2.006798875750047728e+03
1.700158612662683254e+03
2.068820693302249310e+03
1.196809570558209771e+03
5.724357046969321345e+02
4.421633428982772784e+02
-6.068054799209460271e+02
-1.581433574919222565e+03
-2.035894434030229377e+03
-2.208157688537030481e+03
-1.849728803641549348e+03
-1.378287390697656974e+03
-8.058713319515643434e+02
6.534855705844116756e+02
2.049155997561334061e+03
2.168386902690304851e+03
1.915061730550377661e+03
2.435247958070847289e+03
3.103991340144649712e+03
3.684715215769260794e+03
3.916524862098182439e+03
3.674276607047298967e+03
3.753611460443892611e+03
2.911359756124000342e+03
1.757923432924354529e+03
9.120695684751655108e+02
-1.460485144384857961e+02
-1.510593148089158376e+03
-2.215641242511052951e+03
-2.352934780467910514e+03
-2.374325341488010508e+03
-2.261945953649575131e+03
-1.245186629395154796e+03
9.903218431101475971e+01
1.094320801779898147e+03
1.858940725292969091e+03
2.691702597743891147e+03
3.501674478061704576e+03
3.721944900143872474e+03
4.663291644783345873e+03
5.976808720124282445e+03
5.889477180030421550e+03
4.894306321244865103e+03
4.065829703819539191e+03
2.776183706909808734e+03
1.107324420100502721e+03
-4.989038206598892522e+00
-9.396509428796215389e+02
-1.927312376621374369e+03
-2.317008777016517797e+03
-2.481272216789720460e+03
-2.308819982824161343e+03
-2.307150101928573804e+03
-5.782007886195090123e+02
1.703777069233944530e+03
3.104723357139230757e+03
3.506443242245564761e+03
3.359102795046143001e+03
3.817741165296456984e+03
5.019188982040021074e+03
4.998897052189809983e+03
2.705400551444091434e+03
3.458118616564553577e+03
3.007204352831408869e+03
1.907482387880715123e+03
7.874824271468137340e+02
-1.355287169223877981e+03
-3.138207559804668108e+03
-3.643204198009706033e+03
-3.565021398944182238e+03
-3.610617514378327996e+03
-3.389100012443472679e+03
-1.582338229862981507e+03
1.046172247860256903e+03
3.267020870986105820e+03
3.815504375744441859e+03
3.451238056993435748e+03
3.247261855527314765e+03
3.637112243379302527e+03
3.990387361583056190e+03
3.990395382305381645e+03
3.488039624760730476e+03
2.285377199967233537e+03
9.033536074518799524e+02
-3.613226450408732262e+02
-1.417125280706259673e+03
-3.115300964233874765e+03
-3.962463312325513925e+03
-4.843573778387779385e+03
-5.551822003400840913e+03
-4.876225199071686802e+03
-2.894624348319034652e+03
-1.270444380177298399e+03
2.504816546138926867e+02
1.913479112514108465e+03
3.089700375081496077e+03
3.688945758875187494e+03
3.422753322053733427e+03
2.816194749093832797e+03
2.562060607001577409e+03
2.168256171499652282e+03
1.489955975728516933e+03
1.157247990814119248e+03
7.690358735903987508e+02
4.756573328735841528e+02
6.367718674026698409e+02
-5.456066096544130914e+02
-2.895161920895402545e+03
-3.370119291363963384e+03
-3.080184116429065398e+03
-2.565719732787880275e+03
-2.385192169581391227e+03
-1.389430730365497311e+03
-3.685365092502999573e+02
4.494893246697961331e+02
1.083309812327326199e+03
1.430364058354943381e+03
1.981503756096581355e+03
2.872683916287875945e+03
3.018076323849009896e+03
2.712737825592779245e+03
2.841603754768735143e+03
3.055637786576625786e+03
2.640797740364188940e+03
1.524790967500065108e+03
-2.031576391825961537e+03
-7.684016873513132850e+03
-1.161082658906141660e+04
-9.048355636273985510e+03
-4.386673820545749550e+03
-4.087031428193428383e+03
-3.846313424230497276e+03
-6.988503245033717576e+03
-4.597575618374657097e+03
-5.831501598877236574e+03
-6.671363743604097181e+02
-3.191576471908500480e+03
-5.359017883258797156e+03
1.893502080959600335e+03
7.003574469753274911e+01
5.726368570776363640e+02
2.574329872645092109e+03
-7.619980345658545957e+02
2.720578644273322880e+03
-3.789824010267394101e+02
-5.992682969095448243e+03
-2.489491385765677933e+03
-4.336311551665440675e+03
-5.798258186963665139e+03
-3.223436403575636177e+03
-7.450914308163965870e+03
-4.390681142186435864e+03
-2.630665094470164604e+03
-5.718814795186642186e+03
-3.377962622836929313e+03
-2.339302385642197635e+02
8.373920573286159197e+02
-2.948924595927217979e+03
-1.779837405601374485e+03
3.270793980453903259e+03
4.955092968731151814e+03
5.019096135770483670e+03
4.344801454758517139e+03
3.357252885491152483e+03
2.039485246104832640e+03
1.006604324506702369e+03
-1.082647530285306630e+02
-1.284144001758123977e+03
-2.198122764205324074e+03
-2.606121884468665485e+03
-1.961000403635736802e+03
-1.434684206345037865e+03
-9.251471091176255186e+02
-2.871147831692722434e+02
1.521560319410586771e+03
2.770043728105840728e+03
3.182516007773950150e+03
3.821141882494297533e+03
3.867986828013330978e+03
4.155170714726993538e+03
4.261008191873465876e+03
3.916694253186416518e+03
3.137805193865094225e+03
1.997532101593155403e+03
9.089139000578542209e+02
2.224320234232136499e+02
-1.116981339662297188e+02
-1.130020206455157904e+03
-2.306544570265327366e+03
-3.910982172967446331e+03
-5.625823530433220185e+03
-3.337632451787989339e+03
-1.519139663446701661e+03
1.117104159140220361e+02
1.498050627225760081e+03
2.704185938518296098e+03
3.103352713458623384e+03
3.861385759181836420e+03
4.356940831866842018e+03
4.541078657450454557e+03
4.552534416752278048e+03
4.451595878714313585e+03
3.995847159036175071e+03
3.558550796222167719e+03
2.727763163158295356e+03
2.296377112026696068e+03
1.387248042719574869e+03
7.233598244054026338e+01
-8.533276692035933593e+02
-1.382718986457661913e+03
-1.431780280555399713e+03
-9.654764219410710666e+02
-3.467435079925015202e+02
3.835148341797568037e+02
1.997501407104950431e+03
2.815338559132763748e+03
3.356027267478729300e+03
4.273619161328590963e+03
4.699169612280301408e+03
5.209723098339419266e+03
5.577361389839834374e+03
5.734169458926243351e+03
5.250138057445898994e+03
5.312301564898191828e+03
4.987578497255155526e+03
3.794870244144419758e+03
2.261187866246582871e+03
1.015506613720982841e+03
3.737239479433127940e+02
-4.262670111735732235e+02
-7.644426776001776034e+02
-3.147920864823618672e+02
-1.223396368967242438e+02
3.449290960183432162e+02
1.256016469186731456e+03
2.608979074861036679e+03
3.512913080283122326e+03
4.041758529909921890e+03
5.591575984577907548e+03
6.185280272379255621e+03
6.110822907747188765e+03
5.329157933258454250e+03
1.597246482432673247e+03
-4.159042510175478128e+03
-7.975808025967381582e+03
-8.326065464307655930e+03
-9.596911485152377281e+03
-1.108949626100399109e+04
-1.226590872970602504e+04
-1.230139726922901355e+04
-1.133481941698857190e+04
-4.788400378110406564e+03
-5.415203691192935366e+03
-9.662275221743468137e+03
-7.910322268372645340e+03
-6.916544057058969202e+02
1.918577440395650228e+03
4.633521118033027051e+03
5.610062861486499060e+03
5.663059157547671930e+03
5.847511029693363525e+03
6.148274349425349101e+03
6.010159793853365954e+03
5.499093941822005036e+03
4.448969603243655911e+03
3.104694014600880109e+03
1.461113661555933049e+03
-3.059969527409989496e+02
-1.556757782521687659e+03
-3.085278717055998641e+03
-3.794735759309040532e+03
-3.549245802417901814e+03
-2.869804467220603328e+03
-2.293435113539469967e+03
-1.342262756090258563e+03
9.666461815525483416e+02
3.272215659922575014e+03
4.207409753213520162e+03
3.971172053744377536e+03
3.968395625706281862e+03
4.317037244949284286e+03
4.394997781603892690e+03
3.968140643604270281e+03
2.848362333271865282e+03
1.641581505695745818e+03
3.146722057147416649e+02
-1.244519499150351976e+03
-2.593117317834540245e+03
-3.627264719691067057e+03
-4.671120842333299152e+03
-4.657821931465065973e+03
-4.466443139652024001e+03
-4.177083868246638303e+03
-2.707796683890524946e+03
-1.339596088691891964e+03
-7.814697279235838323e+02
7.447253243250567323e+01
9.531215815430730345e+02
1.606547080524344437e+03
2.410776720564803327e+03
1.770751940712581927e+03
3.261381742069173015e+03
2.889605341302942179e+03
2.026339564706468991e+03
1.194481182951853043e+03
1.659746402093114170e+02
-7.623275132350930789e+02
-2.382577159608630609e+03
-3.671672395099436471e+03
-4.351704772911515647e+03
-4.289934213202202045e+03
-4.110473193569896466e+03
-4.062296423732750554e+03
-2.687301690039721962e+03
-1.551406274242319341e+03
-1.226773040492240199e+02
1.341816203192818875e+03
4.221502321218367229e+02
-3.442558864940286185e+03
-3.682435116429092886e+03
-1.845245496179235488e+03
-4.130189864826357734e+03
-5.403268225712577987e+03
-1.339399159365121250e+03
-4.528661346554561533e+03
-1.146172031778699875e+03
-2.230018504488640247e+03
-4.262183816169617785e+03
-3.654727094611927441e+03
-8.551773837079206714e+03
-7.070366367436536166e+03
-3.050550638337790133e+03
-6.575208102890976988e+03
-4.367201121574531498e+03
-4.263433259645436010e+03
1.108100375865318028e+03
3.472425893059286409e+03
1.880630076136645130e+03
-6.619426134073059131e+01
4.316066703137639706e+03
1.057415601717139907e+03
3.077896469028437878e+03
9.555427831641084140e+02
3.415381959863428619e+03
-2.352662745034161162e+03
-3.200550659834524595e+03
-1.936224273989831090e+03
-3.776805310381398158e+03
-7.131445943704087767e+03
-5.531076100346623207e+03
-5.877669557310350683e+03
-3.915226846260824914e+03
-1.003969101227367901e+04
-6.783948803691978355e+03
2.941662879438801497e+02
2.947823476138024944e+03
3.333085306822614257e+03
2.510162244121571007e+02
2.700697073220835591e+03
5.667182603134347119e+03
6.931526620621570146e+03
6.967733309339994776e+03
6.501773127460091928e+03
5.521805787396237974e+03
4.229994628167318297e+03
3.524136318623046918e+03
2.600319926077714626e+03
8.205630509974301958e+02
-6.161761839286834856e+02
-1.501902545749414912e+03
-1.697587176453358097e+03
-1.344162264348734652e+03
-1.156567987377121426e+03
-2.507421148036582395e+02
1.162395968058392782e+03
3.164939176005741501e+03
3.984014288407165168e+03
4.343708452159839908e+03
4.958085534633562929e+03
6.001192922558336249e+03
6.405126713118928819e+03
4.042842616712323434e+03
3.271449339409339245e+03
5.018430326634689663e+03
4.530091837382208723e+03
3.288024240469230335e+03
1.583602827730636818e+03
-2.235346954455549735e+02
-1.578724661875634411e+03
-2.360647738636598660e+03
-2.623832637723969128e+03
-2.230832130511917967e+03
-1.603837725838358665e+03
-5.307613441979373192e+02
8.080072996961115450e+02
2.244457523255302931e+03
3.325736471260553571e+03
4.130113337649584537e+03
