4.941841528422530246e+03
7.015430261512875404e+03
1.041352303548850250e+04
4.090357132373314016e+03
-3.096157950190169231e+03
2.317203706385631961e+02
1.831932053719411215e+03
2.646404926903830074e+03
-1.684762214797430246e+01
-8.635679486711627760e+03
-6.034076248465323260e+03
6.847709042108456288e+02
-8.411741881292975904e+02
-2.287823061014822542e+03
6.465702105708115596e+03
1.402885409004134453e+04
8.608448493426976711e+03
1.822727341172828574e+03
2.969690178693819234e+03
7.218495047919805984e+03
9.312057143849207932e+03
5.716371128791658521e+03
3.513938251107033466e+03
3.364864311535143770e+03
2.665079207942052562e+03
4.260991247887160966e+02
-1.476732828993509429e+03
-8.924919363423025516e+02
1.772183283780365855e+03
1.549483368256100903e+03
-2.870879303080592763e+03
-6.475239559484055462e+03
-5.849734734988805030e+03
-4.798453534252336794e+03
-5.247821407702481338e+03
-5.615980858767567952e+03
-4.795832007157437147e+03
-3.906088503165217389e+03
-7.047485745703321300e+03
-1.256024890280351974e+04
-1.335628506823958924e+04
-1.025382469011950707e+04
-7.804806655969518943e+03
-9.948215113409474725e+03
-1.052712562099425122e+04
-7.647658830996164397e+03
-7.622131356379152749e+03
-5.899959826873589918e+03
-4.577161670065968792e+03
-3.021541617138978381e+03
-5.312404543419125730e+03
-7.034983296025961863e+03
-5.222342698063774151e+03
-3.857556703423641466e+03
-6.101713230562841090e+03
-8.784857979347352739e+03
-8.753111612265820440e+03
-8.740540326083744731e+03
-1.078121325739832901e+04
-1.158643551542168643e+04
-1.061534673071219549e+04
-9.977982742816542668e+03
-7.261328998645668435e+03
-1.482555171136879380e+03
-2.048844657343016934e+03
-6.007330083448379810e+03
-8.194999906727443886e+03
-5.465729911865528265e+03
2.696387312633226884e+03
7.680306281639169356e+03
5.554041639311107247e+03
4.315515135469117013e+03
2.840441799898127556e+03
3.173580685334857776e+02
-1.543803734945795895e+03
-3.542961217283579572e+03
-3.377103977902361748e+03
4.427858978485938906e+02
1.182651466622041880e+03
-4.055641143626998200e+03
-1.029309541946123682e+04
-1.099478858862100060e+04
-6.967743236210177201e+03
3.260348151081158221e+02
7.407423988086761710e+03
5.985359177227815053e+03
-1.634167348406882866e+03
-4.561113958812636156e+03
-3.133853850115093564e+02
6.570046839359576552e+03
4.923913783666099334e+03
6.592099801526032024e+03
4.560616945535413834e+03
2.932450397205876016e+03
4.941826469483790788e+03
3.190951095378190985e+03
1.317608278404862858e+03
-1.992195983043914339e+03
-5.222315391524370170e+03
-5.539844790009136887e+03
-3.812888798407923332e+03
-2.565093547967276777e+02
2.035292939356007082e+03
3.816595638282382879e+03
3.556504998297178190e+03
-1.235939387127379860e+03
-9.477248772673789290e+02
3.970260323621291718e+03
5.304139887692773300e+03
3.366874082724946220e+03
3.231416386557683381e+03
3.414806586767953377e+03
4.080117198127383745e+03
5.598414925353973558e+03
6.580706008949717216e+03
6.327065121267578434e+03
3.927566227259293555e+03
1.759262966618538712e+03
2.081252984818239383e+03
1.856584000201126400e+03
2.781364126610804760e+03
5.241673960414026624e+03
8.254628237193046516e+03
7.656278328583313851e+03
3.099657858192115327e+03
-1.806129319237010350e+03
-1.512952376116623554e+03
3.418247023729404646e+03
7.189537304490216229e+03
6.428070030060606769e+03
5.473937320743109012e+03
5.039149355024089346e+03
2.378859936967838621e+03
4.862583756003671738e+02
1.043338371358782069e+03
1.968158463948297367e+03
-1.125204011721972847e+03
-3.379622844223327775e+03
-3.517905410621815008e+03
-1.833999306858155251e+03
1.976202203431563476e+03
3.026906070922982053e+03
5.871903431833258765e+03
9.288184755898502772e+03
9.040999487726225198e+03
7.058622992676397189e+03
6.656115420474134226e+03
6.201375971040332843e+03
5.412393661408535991e+03
2.620434989521630996e+03
-2.287274091053138363e+03
-1.503859939703593227e+03
2.933630322427675310e+03
4.585311145624929850e+03
4.606313170828952934e+03
3.481830090781666058e+03
1.754908244389781657e+03
2.106680094379973525e+03
1.213419648110421349e+03
-3.182850504194568657e+03
-9.101164243906816409e+03
-1.156638321040378469e+04
-1.107679781374254344e+04
-1.133741939213950536e+04
-7.629928022215142846e+03
-1.915321806421874044e+03
2.615607640349510916e+02
-3.369560099314402919e+02
-8.697496378000465711e+02
-3.036742675043987219e+03
-3.233929262312025912e+03
-2.008436710559790754e+03
-1.128266216099341364e+03
-2.475244970120514154e+03
-7.724516442999378341e+03
-1.306041906763263614e+04
-1.104174604440680378e+04
-4.646529209241943136e+03
-4.810790277549428538e+03
-5.916119642064540130e+03
-4.318284269848123586e+03
-4.278469044614930681e+03
-3.706708276913024747e+03
-3.752764931371245439e+03
-4.627614039546243475e+03
-4.724572726804614717e+02
-3.924265111749177777e+02
-8.072499525701959101e+03
-1.267661393461011357e+04
-1.168857444869376741e+04
-1.048919192508800916e+04
-6.666749282679494172e+03
-4.465248008760974017e+02
2.189816833764954481e+03
3.468132487222036616e+03
2.728509184245139750e+03
-1.066747146317536817e+03
-2.959028482076692853e+03
5.932878516722271343e+02
4.905442833448604688e+03
3.806579747136882816e+03
-7.508778117725094603e+01
-1.282728566166831570e+03
1.452341732053680516e+03
4.789970379336859878e+03
4.649659861651036408e+03
4.557686587984654579e+03
4.122954471785531496e+03
4.985856971405713921e+03
5.737034192677591818e+03
5.648318197830860299e+03
6.190531234778844009e+03
6.831711587463049000e+03
6.735417059194366630e+03
5.564879389346773678e+03
3.161779889554015881e+03
2.186036279675789046e+03
1.926987810447247284e+03
2.760182912508732329e+02
-3.538564448031640097e+01
1.257880010404351651e+03
1.981817322852007237e+03
2.475034932457669129e+03
1.038089093310740054e+03
1.928548034165671368e+02
9.255993221392823216e+02
-1.317700839461101907e+02
-2.351080287480875086e+03
-3.545316932015677594e+03
-3.482448385442051858e+03
-1.700283953059432179e+03
1.699845239593733140e+03
3.322602865626862695e+03
3.688463994572717183e+03
3.297985971742410129e+03
2.070378010074541635e+03
8.747702953563267556e+02
2.936492691242778506e+02
1.015213963105805419e+03
2.160410908323216063e+03
3.608816618160914459e+03
5.253267655668502812e+03
4.721878235277407839e+03
3.604163518760664374e+03
2.646469564231690129e+03
2.262871664534923639e+03
2.140621549253899047e+03
9.944215274266149436e+02
9.738336749468712696e+02
1.129221554808019619e+03
-2.041932694463525024e+02
-1.194415036657414475e+03
-2.678969557200272448e+03
-3.323478380477606606e+03
-2.304620031924232080e+03
-1.470161245610872129e+03
4.117324822021628847e+02
7.274571122715043430e+02
8.811177521980363281e+01
1.129475064711204595e+03
3.760288628273573977e+03
5.861788477453358610e+03
6.888116852670527805e+03
6.188317634253261531e+03
4.918398638803631911e+03
4.227653195142034747e+03
3.836608433898095427e+03
3.668410608980492270e+03
3.037654166977148179e+03
1.915879807631925814e+03
1.832122288579058250e+03
1.641454674101006503e+03
5.597487275217910110e+02
-9.319011385283253048e+02
-3.047312871495741547e+03
-5.715057838122726935e+03
-9.424395840824163315e+03
-1.245824245571183928e+04
-1.254615594611717097e+04
-1.062425082201942314e+04
-8.111672139164906184e+03
-7.016404205416902187e+03
-8.752251608901631698e+03
-1.175215464373648501e+04
-1.142433722328798649e+04
-8.844929802895465400e+03
-7.232619782565275273e+03
-2.637094783234587339e+03
4.855534226840039992e+03
5.374008383095290810e+03
-6.627249868676909728e+02
-4.924576119788473989e+03
-6.684494599331636891e+03
-2.626559702411407670e+03
-1.765886932977238303e+03
-2.966112069613521726e+03
-1.197897311716610375e+03
-1.904507171806875022e+03
-2.529283679270540688e+03
-1.808193663407904523e+03
1.018126436136926600e+03
4.516602667481315621e+03
5.968021477530187440e+03
5.099633572854874728e+03
4.392320862814943212e+03
5.795024492511958670e+03
5.177684288659750564e+03
3.138548111594563579e+03
1.995653403470531885e+03
1.514804007156333682e+03
1.108035715937475288e+03
1.130678911266190198e+03
1.111829320609120941e+03
1.384411864967670226e+03
2.991446086621425366e+03
2.884099162546419848e+03
1.998311485613770628e+03
8.900066230470496293e+02
-2.785246383479604848e+00
-1.075251030658095715e+03
-1.877676778839163489e+03
-2.782527566106972245e+03
-3.906470752223910495e+03
-3.490535600407240509e+03
-2.646063409194197448e+03
-2.397527132816262110e+03
-1.967804574465988026e+03
6.917102300119001939e+02
3.960033320885204375e+03
4.016239438476232863e+03
2.430518243609855745e+03
1.014888131304501940e+03
2.614480192736762660e+02
4.070828776592122722e+02
4.465538757657085966e+02
1.512846000659194878e+01
3.562968302948063410e+02
6.323075903407653868e+02
9.778219288508283853e+02
1.579432916948400589e+03
1.478936205929630887e+03
1.260231742164822208e+03
9.608351728034648431e+02
8.073292454184321514e+02
1.122820451207616088e+03
1.698901845328520722e+03
1.819378186569358604e+03
1.349073299424093193e+03
6.637249971498030732e+01
-2.904475320089948582e+03
-4.582417727802598165e+03
-3.906707528929367527e+03
-3.821013068914082851e+03
-3.801147010433669038e+03
-1.571953780038366858e+03
1.412641466815350668e+03
2.628501694661031706e+03
2.115491772537594443e+03
1.119431391456657138e+03
2.083555649368610432e+02
7.328763437874009412e+01
-1.305694743232082828e+02
-3.607671065243981161e+02
4.293708932534731275e+02
2.051468572941156253e+03
2.674783264166537720e+03
2.475617402527235754e+03
2.293843485845634405e+03
2.386444666116898134e+03
2.563438037530268048e+03
2.337793510497770058e+03
2.042537787705727396e+03
1.704782650159404284e+03
1.198726240906451721e+03
6.173758477698352181e+02
1.605476855903155240e+02
-5.236798254973100484e+02
-5.393280958642661744e+02
4.643265188157317880e+01
4.415121052801746941e+02
6.281735662436133225e+02
4.677911578414994551e+02
4.445786510941360348e+01
-3.731534746962400959e+02
-1.201443371386987565e+03
-1.172459884484948589e+03
-8.448775566508506927e+02
-1.413648229962219830e+03
-2.054799849668876504e+03
-1.043101604760411874e+03
2.564143662222340936e+02
4.265482130254380309e+02
-1.577966206608465995e+02
-2.743153263504439110e+02
4.889592879645160224e+02
7.078938028815007328e+02
2.282652391811068355e+02
4.298078052662661435e+02
9.272028614733125096e+01
1.797974456210439484e+02
4.988827937049266552e+02
4.812263475820426493e+02
1.449682596540638997e+02
2.650491653780111960e+02
-2.453493458108823333e+01
-7.687969956187701825e+01
5.462185767124228732e+02
7.149388936968562120e+02
6.758218442147358473e+02
2.875301386832814501e+02
4.811518254965817505e+02
7.227597033658859118e+02
3.984219072897200249e+02
-1.828487443974584039e+02
-2.022751919864029730e+02
-3.388917445178130379e+02
-3.344314912448437553e+02
-2.097269286983190852e+02
3.912337501969022355e+02
8.572859698440465763e+02
9.464446213710896245e+02
6.572592091632144502e+02
8.241862740275746546e+01
-2.469171603630270795e+02
1.794198131109306189e+02
1.320382150575902415e+03
2.303042691376495441e+03
2.205264279049717061e+03
1.833828981210468783e+03
1.715670171870491913e+03
1.449222720030152686e+03
1.571735299495405570e+03
1.797871340553175060e+03
1.302928772615784510e+03
9.373621238943416074e+02
5.585927882124707367e+02
5.849042942642701064e+02
2.631025449958634681e+02
5.452107349238266352e+02
1.100153768927993497e+03
9.029127012022510144e+02
7.924642009451764579e+02
4.304583622740344140e+02
5.042661966714036907e+02
5.819937366162716899e+02
5.373091933525962531e+02
1.059198174322319801e+03
1.704572525542628455e+03
1.475078730827880463e+03
9.514232081596819626e+02
8.500630854984290181e+02
3.827474121407804546e+02
5.203960977792296489e+02
8.311766465100050709e+02
1.100977026151758537e+03
8.403563740112367668e+02
4.080924595334072933e+02
7.785503003084916145e+02
1.185972569415655926e+03
1.812133576811636658e+03
1.448692520439818054e+03
9.675344935485572933e+02
1.232862830044376778e+03
1.770655579545380078e+03
1.459968057600813836e+03
4.236294097086056922e+02
-1.774357029978294577e+03
-4.840958556130501165e+03
-6.009257684207445891e+03
-6.216267642372748924e+03
-6.002959112316137180e+03
-4.782212867498721607e+03
-4.933937636125480822e+03
-5.062229469436671934e+03
-4.905129993247051061e+03
-4.818522168685444740e+03
-4.606501580910628036e+03
-4.159180487704465122e+03
-4.308509498763548436e+03
-4.613459705090581338e+03
-4.537897104020650659e+03
-5.328071279343004107e+02
2.249723130250600207e+03
2.697631655333861431e+02
-4.047516538515899356e+03
-4.718122294654379402e+03
-4.184126719820258586e+03
-3.936667195495345368e+03
-3.737899520842259335e+03
-3.405704129085874229e+03
-3.854973878529958256e+03
-4.034618874347627752e+03
-2.284567121041312475e+03
2.741809139439021692e+02
2.987640730215096937e+03
-1.243230615674867295e+03
-4.847473302947973934e+03
-5.280104912301962941e+03
-5.059100992699270137e+03
-1.882279459427451002e+03
2.416477994705546280e+03
3.330223218229741633e+03
3.535954352913237926e+03
3.750729074032370590e+03
4.040688610084008815e+03
4.009776018190894320e+03
3.867031304245144383e+03
3.794632078269361500e+03
3.898634478336052325e+03
4.121142950801410734e+03
3.533130288902712437e+03
3.337518652984269465e+03
2.981348070160117913e+03
2.359565003977470042e+03
2.649310682857759275e+03
2.573704846127151086e+03
2.255662818268939645e+03
2.744118762000310198e+03
2.687136957673043071e+03
2.487826671873886426e+03
2.237356215609529045e+03
2.377798835819369287e+03
2.209193654607785447e+03
1.796618077307664635e+03
1.830113755614479032e+03
1.537740696532152242e+03
1.649626444813308808e+03
1.242762159654206698e+03
1.622004078747847018e+02
4.980718859079676122e+02
3.674919786603211946e+02
1.995843973756961134e+02
6.914991272874557353e+02
1.185423637821779266e+03
1.678298395010468539e+03
1.432042368294513608e+03
1.048711813334219869e+03
7.614148130406593395e+01
-4.795967781888080594e+02
-5.334800429606581247e+02
-1.236160267664861067e+03
-1.201428649169376968e+03
4.793153340811484782e+02
1.709180624093265806e+03
1.356938957867160980e+03
1.457673476305395297e+03
1.512562816055857411e+03
1.209777389747114285e+03
1.444404246791638116e+03
1.910654275410759737e+03
1.020040917862413494e+03
1.138420151598262891e+02
-2.686787519553207630e+02
-3.545527792755003702e+02
-8.428831430432276193e+02
-1.086700652866821429e+03
-1.489117529143563161e+03
-1.961260331199461007e+03
-1.663194180214176868e+03
-6.908810444042093195e+02
7.468019139352056754e+02
1.432884368463976898e+03
1.797235505735465722e+03
1.031992199986676724e+03
2.522776786248780070e+02
2.308902812613012756e+01
-1.984807886260941530e+02
-3.304080153356513847e+02
-7.907626739105877505e+02
-2.285918653996129706e+02
3.230610160764306329e+02
3.821012975247726331e+02
1.026393608792109688e+02
2.067336424768999450e+02
1.624163714755724470e+02
-2.683016244172011397e+02
-7.964340914873731663e+02
-6.760119284460616882e+02
-8.010318086356015783e+02
-8.934793995833992994e+02
-9.204526677372032282e+02
-6.750220057843245058e+02
-8.991206831488234457e+02
-7.138512102296261901e+02
-4.734112871584537743e+02
-4.828651945110252086e+02
-2.390428254743955847e+02
-2.778745034662565558e+02
-3.222995394686120108e+02
-5.733145773503663349e+02
-3.340253925951895440e+02
3.524968849692286881e+02
2.031508302779766950e+02
9.280538041619797696e+01
-4.074601593011769864e+02
-1.786571116189081522e+03
-1.813612078046519173e+03
-2.131683270233722396e+03
-4.638824177548456646e+03
-8.600009308650738603e+03
-9.169234416368366510e+03
-8.231677831808576229e+03
-5.938488622166908499e+03
-5.485643719961755096e+02
4.541858362237751976e+02
4.077117678829177407e+02
3.271444170713442077e+02
3.847354074923828904e+01
-4.015992396529281336e+02
4.418559379823353197e+02
7.728058895782188529e+02
8.219735480925897946e+02
1.124228311296066295e+03
1.563672398584757275e+03
1.861375697730879210e+03
1.679320316496666464e+03
1.291519646536975870e+03
1.144798107107135820e+03
1.103973513194122916e+03
9.579906321728440162e+02
8.798938347812782013e+02
9.595097910495605902e+02
1.237926250650210477e+03
1.056274853111749508e+03
5.515604831607683991e+02
4.547551784177501304e+02
8.367393131306801024e+02
1.146328503582144549e+03
1.563407183434260787e+03
1.865953273474475736e+03
1.679966506291954829e+03
1.080389795085008018e+03
6.461305380242155252e+02
1.016284762945681905e+03
1.102795134563367128e+03
1.195601830032475164e+03
1.278783286608252411e+03
1.469255042462460779e+03
1.194927351922169009e+03
1.278773704990050646e+03
1.621765358841068291e+03
1.369995612626817092e+03
1.120405769554895187e+03
1.067847805579852093e+03
1.046248336319151122e+03
1.510602427183383725e+03
1.985796020580793311e+03
2.461714911912436492e+03
2.527422093658995891e+03
2.421155946560371376e+03
2.242972544066502451e+03
2.443565501289254371e+03
2.099876485879249685e+03
1.370921524383361429e+03
1.291616740684588422e+03
1.177981438469652858e+03
6.910859545732976130e+02
3.850208583712584982e+02
1.019312358271657075e+02
7.187655297486577410e+02
1.712322259045333340e+03
1.484649282925314310e+03
1.849657525071854934e+03
1.908301979515565108e+03
1.696697482700881892e+03
2.033821044803270752e+03
2.092674582738241497e+03
2.221138276855004733e+03
2.522177810387849149e+03
2.612833337221883539e+03
2.274213622534367005e+03
4.784889311483711936e+02
-2.070251972594443487e+03
-5.532128041902147743e+03
-6.432255972786834718e+03
-6.173653743070957717e+03
-5.659488673062271118e+03
-5.769631095229423408e+03
-5.993874481011846910e+03
-6.040318655610064525e+03
-5.831922364234592351e+03
-5.612514053159172363e+03
-5.780248686300234112e+03
-5.342084230204183768e+03
-5.413779161041060433e+03
-5.785338174466935925e+03
-1.673936006237315041e+03
2.707351094442883095e+03
2.626543385303764808e+03
1.027698655097573010e+03
-1.901067809462433843e+03
-5.233731054660116570e+03
-5.839294347614508297e+03
-5.504682435353048277e+03
-5.468756948036229005e+03
-5.034594688940900596e+03
-4.593241189055842369e+03
-4.674573221206684138e+03
-2.892518426333474963e+03
1.643949201682920602e+03
-1.851875994918310653e+02
-5.008874681353342567e+03
-4.819077607044701836e+03
-4.513810011393734385e+03
-4.803083411695868563e+03
-4.519740397132229191e+03
5.123250962932779657e+02
3.046174925452229672e+03
3.569945116343026257e+03
3.163505130572525104e+03
2.940804012382260680e+03
3.273916943799318233e+03
3.074951401384136716e+03
3.013024751722738984e+03
3.076127047548290648e+03
2.632219945497033677e+03
2.272241306407096090e+03
2.167296150706665685e+03
1.920459279921027701e+03
1.656654721968974627e+03
1.992935147731019924e+03
1.771533901385985018e+03
1.927587291520884946e+03
1.993301664048751036e+03
1.866758138143177121e+03
1.980726222387584812e+03
1.945157492322214921e+03
2.355107085655092760e+03
2.381529752208019545e+03
2.214485966476465364e+03
2.089123525840629554e+03
1.813535895503701568e+03
1.310587118093626714e+03
9.891113642368989076e+02
9.150463529681561567e+02
1.094733668398538384e+03
8.462640776657840433e+02
9.516078175169953965e+02
1.458364844380849945e+03
8.706274753115820886e+02
6.045841559324384207e+02
6.257895919927777868e+02
6.400525556189578538e+02
6.472090193998047880e+02
7.238103933695280148e+02
9.874193767778917845e+02
1.410238430469300283e+03
2.030116851188023247e+03
2.290124583097300274e+03
1.871895003849502018e+03
1.558090281820135715e+03
1.578914159774948530e+03
1.301794443459718650e+03
9.115171782801905920e+02
9.140182274413069763e+02
6.974155913862298348e+02
6.405740413845873036e+02
5.899944410205137046e+02
3.309343454775450937e+02
4.346542638638912308e+02
6.389317520285899263e+02
5.227212336791468488e+02
5.170789167011737391e+02
5.639922583589452643e+02
8.124653946620707075e+02
1.052454933359253573e+03
9.219550483409529988e+02
8.820325413549757059e+02
7.875611448762831515e+02
7.685513951247590967e+02
6.240001569103633301e+02
3.048712256114378647e+02
-1.308381319563402485e+02
-6.416784856355991451e+01
2.817546400881703335e+02
7.671092735640064575e+02
1.123931327118824584e+03
8.890723751333429163e+02
7.074408259667295624e+02
9.779762319179801580e+02
1.305704331043923958e+03
1.159670485767074979e+03
1.224924607123319674e+03
1.400462551663855720e+03
1.461301547266893294e+03
1.483593011733106778e+03
1.598221135320272879e+03
1.572955134164028323e+03
1.684662040876833771e+03
1.758324047623607839e+03
8.288537238642733485e+01
-1.000707582393015855e+03
4.094713097669173294e+02
5.584307694936431972e+02
1.343480960245119320e+02
-4.040867493210620069e+03
-7.110208412845116982e+03
-5.177444015727844089e+03
-6.100775091003174566e+03
-6.730784191691839624e+03
-7.122425437964837329e+03
-1.805279106414952366e+03
3.794805073070255617e+02
-3.198398488189028285e+03
-6.625127422910019959e+03
-6.497584189090561267e+03
-6.952425117344489081e+03
-6.827596526072773486e+03
-5.633130141777062818e+03
-1.443712890783540161e+03
-5.640848399137342994e+02
-3.145691328520227898e+02
-3.918949743913727843e+02
3.089367763915173555e+02
1.714279112851351101e+03
2.229904751483647033e+03
1.874774312588530165e+03
1.556121215567586887e+03
1.520903882917054943e+03
1.092094252312531353e+03
1.344619437896205909e+02
-7.622086389951045931e+02
-1.618476236572292635e+02
8.336491714208390249e+02
1.475211335117327508e+03
1.540976962946948788e+03
1.357045387538877776e+03
1.556577063093367087e+03
1.740129435522076392e+03
1.855916293156891015e+03
2.014063552446879612e+03
2.447021533408697451e+03
2.457788324465240294e+03
2.227940909061263937e+03
1.816655325106299188e+03
1.176465989973128671e+03
8.272121070700244445e+02
3.036613740811309299e+02
3.937097198725737144e+02
-3.731952314526664054e+02
-9.311914468974026704e+02
-6.777160378652225745e+02
-6.929529378152903973e+02
-1.461704409017743956e+03
-1.456064521749673531e+03
-5.641539112119555739e+02
4.087476079251098326e+02
9.892005575367052188e+02
1.208241754285553640e+02
-1.586453732579708230e+03
-2.124910378495821533e+03
-1.041005388537285398e+03
8.454307070058544582e+01
-1.193282478375271012e+02
-5.964363381970919136e+02
-4.431896502531531041e+02
5.067357415028544665e+02
2.761224461582108916e+02
-1.183287662392783204e+03
-1.376482003449885724e+03
-3.974392426680797143e+02
-4.298987868042850664e+02
-4.634422082674422541e+02
8.147078659676095640e+02
1.341597328424650868e+03
1.158239786699286469e+03
1.105341499231400803e+03
5.575897322112242591e+02
2.947638539919441314e+02
7.698257767188094931e+02
1.235067539919304636e+03
1.492616773723901133e+03
2.548482403640255143e+03
2.785938796449511301e+03
9.934175618053800463e+02
-1.546282891260615997e+03
-2.245168313901316651e+03
-3.721313238395353437e+03
-4.503237867430806546e+03
-3.819653608873753456e+03
-2.257023098755028059e+03
3.152110045790371942e+02
2.694380895964834963e+03
3.261518891754937158e+03
2.795695656028521171e+03
2.373329767613117383e+03
2.143338261066402083e+03
1.381789629847949982e+03
-3.764853619280881389e+02
-1.080458173939006883e+03
-1.597574534614841696e+03
-1.808881972879419436e+03
-4.392415835178510406e+02
4.894996557968984234e+02
5.118589815686405586e+02
2.803391114531390826e+02
-5.903487744364550593e+01
7.150458947163224366e+02
2.214273563007022403e+03
2.862832903712107964e+03
2.024835781948233489e+03
1.042227682264978739e+03
4.587673296816290645e+02
-9.152947229395454087e+02
-2.494600330779099295e+03
-1.628356463543727386e+03
1.081127151193470354e+03
1.500902950471517897e+03
9.999762072615710622e+02
6.569258205360338998e+00
-1.550168264505597335e+03
-3.731360303572028442e+03
-4.913414653977019952e+03
-4.642843545362232362e+03
-2.359846923793335918e+03
-4.494644658616236370e+02
-3.386185888104276955e+02
1.114661041791381990e+02
-3.245434778821786495e+02
-6.435585511187332486e+02
2.650246729893142401e+02
8.980647691179003687e+02
1.277508614802504326e+03
6.125308104780301619e+02
-6.946071921323573406e+02
-2.554732839430713739e+03
-3.923152670109064729e+03
-2.772508005188199149e+03
-2.682906947387510286e+02
1.223491042949226312e+03
1.436506210633925093e+03
1.928127280668692038e+03
-1.068144463667412651e+02
-1.429868731611205703e+03
-8.299201711668088137e+02
-2.271705442546463019e+03
-3.703204683026197927e+03
-2.472207294536355676e+03
-2.444436587078788307e+03
-2.009978839384393268e+03
6.438266249160343477e+02
3.270796079280750746e+03
3.952961858038520859e+03
3.102438480048394467e+03
2.319886052683068101e+03
1.907154390114572607e+03
1.766646124813695678e+03
1.521343931163841035e+03
5.622815593500217801e+02
3.625597366657422640e+02
1.219237202381507132e+03
1.397386039616785183e+03
8.960218587694805592e+02
7.399996037958476336e+02
1.137547711369691115e+03
1.151669618903087212e+03
8.391587184521054041e+02
7.199354766110458286e+02
3.898778333729258065e+02
-7.376809610753890922e+01
-1.098034947453598306e+03
-1.629222419658636454e+03
-1.792297435843890071e+03
-1.284427130657797534e+03
3.054083371005222602e+02
5.239732241161086677e+02
-2.437769735705242340e+02
-6.608256935381333506e+02
-7.954404701457593774e+02
-1.034350671627312863e+02
1.010533885087688532e+03
1.509014254628268645e+03
1.104728657601713394e+03
4.896284450393553698e+02
-9.241712678966422345e+00
-1.495871380712461360e+03
-2.760397591180496420e+03
-2.439790808589286371e+03
-1.573971571984790216e+03
2.788370461699119005e+02
1.634454884827688147e+03
1.111961878944752016e+03
2.152539727024685590e+02
-3.788862473642680584e+01
-3.667762032030429964e+01
-9.291223699461951355e+02
-2.801735075046931911e+02
1.945087814281844430e+03
2.477752616615276111e+03
6.105754107630998533e+02
-2.672681300653337985e+03
-2.839009264767110380e+03
-2.249305204924954069e+03
-1.784277769543642307e+03
-2.209040553403725426e+03
-2.032475788763858191e+03
-4.643530881132514878e+03
-3.733944390528503391e+03
-2.141504196978574782e+03
-1.289190237616967352e+03
-7.182890047158591187e+03
-6.679608966709672131e+03
-2.927339644192577452e+03
-1.280119232563746664e+03
2.065998821517228407e+03
3.447794651680477727e+03
1.834132227934257344e+03
3.725032517189026294e+03
4.307451078628674622e+03
1.476294059801378125e+03
-4.859716766269907851e+01
5.267013705753532804e+02
3.311322588283778259e+03
2.101061302523850372e+03
1.337852393263111253e+03
3.664804135968884566e+03
3.609770003579774311e+03
3.172475561468572323e+03
3.261717858492536379e+03
3.208438273921725340e+03
3.435647251155377035e+03
3.500539523106791876e+03
3.902980808989733305e+03
4.662853079291134236e+03
4.371238659816992367e+03
4.148069935660763804e+03
3.638935495382219415e+03
3.734891022915527174e+03
3.740318595018358792e+03
3.137222379116703451e+03
1.745203487083772188e+03
2.363051548268118950e+03
3.833901365962449290e+03
3.791957831638279458e+03
3.192031596346538208e+03
1.534877927241243242e+03
-2.355635054387613252e+02
-1.038329105450338147e+03
-1.379505176098191214e+03
-1.057928779315089059e+03
-6.247735503572383777e+02
1.601163051906614555e+03
4.759134326878150205e+03
5.431608001774059630e+03
4.741487147627214654e+03
4.880876746225322677e+03
4.883106482102888549e+03
4.734588230192422088e+03
3.121212701192768236e+03
1.371650992027988195e+03
1.304802347399159089e+03
5.977290120731403249e+02
7.541442549865341789e+02
4.002357831260931107e+03
6.525706706159624446e+03
3.867279839656834156e+03
1.499077492474437349e+03
3.411224186110362552e+03
4.281372301252836223e+03
2.128860736937023376e+03
-3.812179745303806158e+03
-8.742898698053308181e+03
-9.349486442835343041e+03
-1.063068275375455414e+04
-1.273024127132200374e+04
-1.009420249706267350e+04
-2.179627137870103979e+03
3.212009578942143889e+03
4.753865859657832260e+01
-3.958205490315490351e+03
-3.780412275250075254e+03
-5.682191488083874901e+03
-7.425318112326821392e+03
-5.009497760335236308e+03
-2.693634093114636471e+03
2.813963079540231504e+01
-8.670874951124083054e+02
-5.166082445669967456e+03
-8.978645228301382303e+03
-1.222877871325844717e+04
-1.726261461400071130e+04
-2.209821647834473333e+04
-2.563127572865366892e+04
-2.763335537290187494e+04
-2.240329087997815805e+04
-1.274507267494330335e+04
2.305259144332706455e+03
1.390495613743074864e+04
1.401609545508151859e+04
7.970599339382133621e+03
3.660358575937812475e+03
5.911478768760279308e+03
6.699426277510635373e+03
4.559264201130879883e+03
7.548719470166078054e+02
2.030306168751493487e+03
2.243826350370110958e+03
-3.723408047669304324e+03
-1.445138823671770842e+04
-2.525402258613051890e+04
-2.637024002525751712e+04
-1.498097217374830143e+04
-4.652047458067140724e+03
2.846498088826092044e+03
7.661730726540328760e+03
1.203402715508346228e+04
1.369057146654407734e+04
8.540264892427099767e+03
4.693099605764066837e+03
1.487126655942686739e+04
1.565882057533971965e+04
-7.169186533220538877e+03
-2.016457924109616215e+04
-7.726286046144177817e+03
6.291772604225808209e+03
1.190575534490460814e+04
9.375713817069883589e+03
5.698663083695014393e+03
5.823868697689576948e+03
2.381422147733165275e+03
-2.018759424817596027e+03
-8.191590338338854963e+03
-4.635990432822388357e+03
9.390065780211500169e+03
2.384973818287462564e+04
2.745404605252351030e+04
2.171822260286973324e+04
1.579342777581998962e+04
7.297509648140013269e+03
-4.966501483078563410e+02
-4.603040393233898612e+03
-1.344838591728212486e+04
-1.106150916568319917e+04
5.167351704383005199e+03
1.826736347352133089e+04
2.463974213310410414e+04
2.515424485910671137e+04
1.834074672051854941e+04
-5.997615452301558889e+02
-2.493828100350005116e+04
-4.170467452071351727e+04
-4.335984057696520176e+04
-3.300979324594283389e+04
-2.002159147851735906e+04
-7.058222401525232272e+03
9.550412518728211580e+03
2.490031885942173903e+04
2.861666950037815695e+04
2.022444083154675900e+04
1.097544426660517456e+04
6.073547873766749944e+03
5.864670357667997450e+03
5.617833933373934087e+03
-5.337830016323472591e+03
-1.087446574546693410e+04
-1.473151727232273515e+03
1.183823688570942249e+04
1.289572225725247517e+04
1.063913081070420230e+04
1.085938952309369961e+04
1.589558810340926175e+04
1.832985018860856871e+04
1.604503887997864513e+04
1.303288085716754176e+04
8.912333435093847584e+03
5.441447753392183586e+03
1.756282162520079964e+03
-5.057117130786380585e+03
-6.068763450774456942e+03
-1.509875057424125089e+03
7.733995181169627813e+02
2.345789863842801878e+03
5.908270217466068971e+03
7.209913428262363595e+03
1.991603474362577572e+03
-3.511751323797733676e+03
-2.772198483906349793e+03
-4.971862515668768538e+03
-8.711869640662640450e+03
-1.201130017685473649e+04
-1.308605641916130844e+04
2.433911903145584347e+03
2.518443517280462402e+03
6.842463231959107361e+03
2.660652880140527941e+03
-4.971268243467041430e+03
-7.513298111882156263e+03
-3.522262963226657575e+03
-1.723438614373178268e+01
-3.573213572423070673e+03
-7.550243371424428005e+03
-9.410487958380688724e+03
-1.175894109943875992e+04
-1.174672366051359495e+04
-7.882159619296281562e+03
-4.829255891838921343e+03
-5.354200075253125760e+03
-9.487367875948380970e+03
-1.500570802848290441e+04
-1.496908235928858448e+04
