8.699242708899277204e+03
7.386210628889538384e+03
1.159130553087545923e+04
1.348837604073181319e+04
1.398611710011531068e+04
1.401220449447553801e+04
1.406441117723247226e+04
1.371032987700861304e+04
1.251059460744050557e+04
1.123288324081764404e+04
1.124585099963872563e+04
1.211312825422045171e+04
1.304143864433331510e+04
1.341343596812703618e+04
1.309382347966366979e+04
1.162937562779732070e+04
1.074394732941547045e+04
1.069330114682233580e+04
1.093607046113424985e+04
1.146992011549974814e+04
1.176755617053158494e+04
1.252958448248585955e+04
1.262378363827197791e+04
1.005585452809118033e+04
8.554439645968370314e+03
1.074215817635457097e+04
1.431585649862936225e+04
1.657426962556579747e+04
1.833719019457149261e+04
1.852445401087988284e+04
1.713938644404803563e+04
1.423336609804725595e+04
1.330657546393531629e+04
9.932470731723527933e+03
7.796853683016137438e+03
6.317421960685217527e+03
2.603148354508782177e+03
-1.623350544124183443e+03
-5.144115226753124261e+03
-9.196242927576029615e+03
-1.203585263370918619e+04
-1.104006542327581701e+04
-1.079797169759771714e+04
-1.147307228430585383e+04
-7.317180166448041746e+03
1.795751966656357581e+03
1.088785503216756115e+04
1.606508607549408589e+04
1.668119483896176098e+04
1.534103564527526942e+04
1.195835362954917582e+04
7.440076755727624914e+03
1.004523147712105356e+03
-5.413353144273146427e+03
-1.190343808970414284e+04
-2.192465945116609510e+04
-3.191293141066912722e+04
-4.138719370739231090e+04
-4.838333398418721481e+04
-5.081525420718917303e+04
-4.941885410753286851e+04
-4.473903338791203714e+04
-4.844062726467516040e+04
-4.879439285367730190e+04
-3.928612282824863360e+04
-2.768976441219755361e+04
-1.980715755140432520e+04
-2.269605865307526983e+04
-3.610025908095914929e+04
-3.813144304557274154e+04
-4.090135504032337485e+04
-5.057075032781383197e+04
-4.663532574673360796e+04
-3.203782895231083603e+04
-1.958097778198572269e+04
-2.479451605929597918e+03
1.855297865616183117e+04
3.085367743528377105e+04
2.999405372934482511e+04
2.319738563067794894e+04
2.727398270130512174e+04
2.998420271227472404e+04
2.120314595242574069e+04
7.889191529390623145e+03
-1.246921735536343658e+04
-3.095467556817064906e+04
-4.034291393749164854e+04
-5.059856240861118567e+04
-6.093627679068777070e+04
-6.751171149525386863e+04
-8.003247751721773238e+04
-7.550305179412326834e+04
-4.812817409110914741e+04
-2.201564265455635541e+04
5.008896505630253159e+03
1.498891336504352330e+04
9.478867688264692333e+03
-4.823822309050699914e+03
-2.108679932966841079e+04
-2.627671634575455028e+04
-1.367926268004677695e+04
1.054385478896614222e+04
3.403198389761433646e+04
5.313045928933113464e+04
7.369766679001149896e+04
8.119225225204270100e+04
7.818362238672471722e+04
6.846612407910295587e+04
5.250105729137030721e+04
3.843161052767163346e+04
2.721789953052201236e+04
1.561626535403634807e+04
1.079812147845677100e+04
1.275683650715266049e+04
1.203574044700634477e+04
9.765114152522415679e+03
1.107125956925741957e+04
1.453854125297036626e+04
1.847029152000952672e+04
2.164076296316833759e+04
2.575416445708439278e+04
2.615083482288529922e+04
2.013694267869003670e+04
1.188467597913397367e+04
2.072315929443848745e+03
-5.898939341051645897e+03
-8.741874666709569283e+03
-8.906334650162334583e+03
-8.757258309197613926e+03
-1.135961222853091022e+04
-7.881275350297053592e+03
2.563989657727179292e+03
1.784842785085193464e+04
3.911724694139424537e+04
5.114362456674672285e+04
4.639672574479666218e+04
3.581870223784029804e+04
2.824071783027801575e+04
2.308186492555202494e+04
1.931116218111142734e+04
1.631059203389440518e+04
1.283315228908748031e+04
8.955678793123161086e+03
5.311039887674721285e+03
1.106240290212790569e+03
-5.046668232256587544e+03
-1.051439122331506951e+04
-1.312287138127649632e+04
-1.240209455799417083e+04
-8.103091951028154654e+03
-3.521797794452912967e+03
-1.541831032582794023e+02
3.707469444986014423e+03
1.137220130169276308e+04
1.666410073626575831e+04
1.342390989649024414e+04
5.585291591910739044e+03
-1.566865465663876421e+03
-5.426698488682996867e+03
-8.527365720592615617e+03
-1.127300937054857604e+04
-1.209078900317393527e+04
-1.108787849215233291e+04
-8.961451377429497370e+03
-4.860699095204911828e+03
-1.832841962910155871e+03
-2.136039648239627695e+03
-5.254555348241460706e+03
-7.335599619787009942e+03
-5.467307549696335627e+03
-3.283815026513446810e+03
9.026605391851549030e+02
4.913806585684007587e+03
6.072390939455568514e+03
4.153267518653267871e+03
2.987186752657895795e+03
2.615874041055512407e+03
2.319984277097127233e+03
1.196216046516789220e+03
-3.276924517072202292e+01
-1.161224929379182186e+03
-2.759427786147046845e+03
-4.203670061540156894e+03
-5.453137862660208157e+03
-8.676025435550563998e+03
-1.050765641125791808e+04
-9.905290193117665694e+03
-1.267220102550808224e+04
-1.027859228012733729e+04
-1.022876332395121790e+04
-1.108104818802030786e+04
-1.174665205565023462e+04
-1.192770941849435076e+04
-1.122835340493469266e+04
-1.362893733696033087e+04
-1.837582509912976093e+04
-1.773336440729578680e+04
-1.770394336607652804e+04
-1.909987392717002149e+04
-1.801429492812019816e+04
-1.369938141316825022e+04
-1.324424211938627923e+04
-1.503004549838569801e+04
-1.323910838103518654e+04
-1.314158709923011702e+04
-1.188567865300934682e+04
-9.620590318627640954e+03
-8.192739446887071608e+03
-7.903489593861661888e+03
-7.998927382284493433e+03
-7.534160760643386311e+03
-5.660331026834747718e+03
-3.853651361299561813e+03
-3.119311040104058520e+03
-3.234371922887939945e+03
-3.940885562907177700e+03
-4.994915491805458259e+03
-6.383531328450245383e+03
-6.240961811322468748e+03
-4.051450683422430302e+03
-4.280176706640898374e+03
-5.935520282915989810e+03
-5.851733278203440022e+03
-7.973673817100032466e+03
-7.414194205212313136e+03
-3.666490076786071313e+03
-5.925340424083803555e+03
-5.429834597520848547e+03
-5.755165887056291467e+03
-6.728245733325290530e+03
-7.412932957012727456e+03
-7.760407487956596924e+03
-6.534706653832667143e+03
-1.187342797264509727e+03
2.976948496625409462e+03
3.499334343027906016e+03
9.528261786452261504e+02
-3.647446511641023790e+03
-7.108014759861655875e+03
-8.250520699746060927e+03
-5.401835026633329107e+03
1.505297707810211932e+03
6.146788071268308158e+03
5.875561571521561746e+03
5.678003547389093001e+03
6.703923577679691334e+03
7.587444173824956124e+03
8.229309782830998302e+03
7.959688862347082249e+03
7.753673962389266308e+03
7.799429590724948866e+03
8.031093951746181119e+03
8.147703381041520515e+03
8.174543563420958890e+03
8.862797340491404611e+03
9.493535542795638321e+03
9.502802054357394809e+03
9.318828650312274476e+03
7.991128149568109620e+03
7.075234116042431197e+03
6.986309091621143125e+03
7.418634997194504649e+03
7.750406789394200132e+03
7.207769147601334225e+03
7.114928736143776405e+03
7.559130395553574090e+03
7.922624740945880149e+03
7.781551692443570573e+03
7.492005777031727121e+03
7.052129059194608089e+03
7.172105724610282778e+03
7.435171592065794357e+03
8.770590505066731566e+03
1.009651509099380019e+04
9.759098695724313075e+03
1.052243260220922821e+04
1.175162535372563798e+04
1.118281909025433379e+04
1.021920027355290949e+04
9.987980932701786514e+03
9.601517670486276984e+03
9.793877863227427952e+03
1.020194138378299795e+04
9.629726049260303625e+03
9.119428687722109316e+03
1.023719779830001244e+04
1.060428506911529257e+04
9.119989456749732199e+03
5.001616604980549710e+03
1.677175202097746478e+03
2.451409071032351676e+03
2.988155175043420513e+03
3.330440651576255277e+03
2.288705675749522470e+03
1.298117299779719588e+03
5.567533066190482032e+02
-4.490880215484781388e+02
-1.926402772697110777e+03
-2.953338951441248355e+03
-4.658756730109389537e+03
-5.249587098852442978e+03
-5.426325173376836574e+03
-3.807506845714023711e+03
1.014763395344429910e+03
3.281720157982237652e+03
3.823779104472465406e+03
2.692157791736862237e+03
1.940119460311676903e+03
2.406922334949560081e+03
1.974933067426743264e+03
1.819380070888394357e+03
1.423367164795258986e+03
1.286159880828885662e+03
8.489272278079857870e+02
1.881619329732233581e+01
-5.201758415296305884e+02
-1.214280196315467037e+03
-2.554774838666945470e+03
-3.621019881361442458e+03
-3.490508279683740056e+03
-2.899520182558084343e+03
-3.170939273599928129e+03
-4.237218436229094550e+03
-5.044389315211090434e+03
-5.674860249861524608e+03
-5.262806837022820218e+03
-4.930010666383137504e+03
-4.894372869048384018e+03
-5.005201338766105437e+03
-4.854597652998450940e+03
-5.135630608264101284e+03
-5.694377318939658835e+03
-6.813592573732041274e+03
-7.271191348944083984e+03
-6.280980248043903885e+03
-5.619071317347548757e+03
-5.565966582243703670e+03
-5.124616956898389617e+03
-6.390229825768782575e+03
-7.437054685825009074e+03
-8.132657932540626462e+03
-7.962224306621336837e+03
-8.034614950058388786e+03
-8.202297097215168833e+03
-8.401884030888613779e+03
-8.167051152206240658e+03
-8.013936969765753020e+03
-5.771305379586595336e+03
-3.976660839164898789e+03
-3.477197144006656345e+03
-4.121161886863664222e+03
-4.852396183010013374e+03
-3.950138536873406792e+03
-2.874414370766129196e+03
-2.293489813229743049e+03
-1.782932526900419589e+03
-1.741419747117912721e+03
-2.488595661742852371e+03
-3.374648419252808708e+03
-5.190221840872517532e+03
-7.433663039867068619e+03
-6.659627962983483485e+03
-4.424516133625909788e+03
-1.839586972977662754e+03
1.351824745305557599e+03
3.776490055494672561e+03
3.621530135099727431e+03
2.509897489149541798e+03
1.931841818287158731e+03
2.214914473835111949e+03
2.911549647821232611e+03
3.544922238720546829e+03
3.713139127223925698e+03
4.070935360983334249e+03
4.644059526554265176e+03
4.417360306544395826e+03
3.733751496999769643e+03
3.459030618444676747e+03
2.971489388968154799e+03
1.801650737603651351e+03
1.866668171098417361e+03
3.338732989101811654e+03
3.981900937211384644e+03
3.433934386253961293e+03
3.189658485289014607e+03
3.234103270920917112e+03
3.019551549243147292e+03
3.390466381882341921e+03
3.608141634753244944e+03
3.865959933380520852e+03
4.118024074964526335e+03
4.204660112888628646e+03
4.064141162616677320e+03
4.369102877777971116e+03
4.511575733121278063e+03
4.442558089822268812e+03
4.461043844075884408e+03
4.566014208526625225e+03
3.660672793989020647e+03
1.005207003546038095e+03
-2.944410587498405675e+03
-6.460125421576575718e+03
-5.896671648816597553e+03
-5.953977664910690692e+03
-6.296270332758536824e+03
-5.861719461032456820e+03
-5.218536250541809750e+03
-4.741654541958308073e+03
-4.395910474717997204e+03
-2.948451907856622711e+03
9.663866246080673363e+02
4.099676036950769230e+03
4.951126597592212420e+03
5.121318346010226378e+03
5.108112711955518535e+03
4.983314025776503513e+03
4.991112719033118083e+03
4.772563038954634976e+03
4.087596297562030031e+03
3.181055327374392618e+03
2.251821398943157419e+03
1.657783824732164248e+03
1.285930537201441211e+03
6.394393600553071337e+02
1.736294434487994067e+02
1.735997482773371985e+02
4.710547599188751633e+02
7.939581397156974845e+02
7.160607220054769186e+02
8.073882412412787062e+02
1.550294026042525275e+03
2.247022745311140625e+03
2.865472570603100394e+03
2.905684974589251851e+03
3.113767483523061401e+03
2.707792489639762152e+03
2.574636842186202102e+03
2.316236942731955878e+03
1.484647672270054500e+03
5.128979877516018178e+02
-5.379847977170462627e+02
-1.883770811700410377e+03
-2.694513928240205132e+03
-2.925293499080788479e+03
-2.275627046128189249e+03
-2.146768062888620989e+03
-1.786581404149109858e+03
-1.388966623153903811e+03
-9.688913349409040165e+02
4.586792663582620548e+02
2.091638537582979097e+03
2.028009431094252250e+03
1.317899838159813271e+03
-3.520041213773298523e+02
-2.378590976624403083e+03
-3.743711944093917737e+03
-4.599598920587958673e+03
-4.715538480585601064e+03
-4.062315112440348457e+03
-4.088807027001187180e+03
-3.064258246528133441e+03
-1.401507424144312836e+03
4.652891823730989813e+02
5.369872822443842324e+02
-8.264366263157872936e+02
-2.326932161668547906e+03
-3.875461886760014295e+03
-4.623954258002785537e+03
-4.581490354035855489e+03
-4.836157958224468530e+03
-4.951957924610726877e+03
-4.170809064265651614e+03
-2.428606703306930285e+03
3.125860872864186035e+02
3.230783073238047109e+03
4.237025948702013920e+03
4.010038653150936625e+03
8.599129280430739755e+02
-3.087210999848966821e+03
-3.625448908476705128e+03
-1.397698638288073880e+03
-2.023135503997995556e+03
-3.111066600462268070e+03
-2.969049468944922864e+03
-2.913339469920868396e+03
-4.342919214919158549e+03
-3.433715588255090097e+03
-6.346442456998889838e+02
-6.378678654600193454e+01
4.557660391902314814e+02
1.151710740102466616e+03
2.143967300649064327e+03
2.306672458120404826e+03
1.950022782399101288e+03
-2.457683042688724129e+02
-1.740702788977957425e+03
-1.939882613530681510e+03
4.773390766951562796e+02
4.604989671304265926e+02
9.629004094340679387e+00
-1.029202390198125698e+02
-1.602144151328610064e+02
-6.523726943763795134e+02
-3.277330275777785118e+03
-1.826122570212715345e+03
-4.476865805291470224e+02
-2.059028192199813816e+02
1.303609557400446306e+02
3.709629303191256895e+02
6.487323450670555758e+02
7.697184450923865597e+02
1.201812481486065280e+03
2.859773945588006541e+02
-1.823647946091113226e+03
7.140043158689801430e+02
1.634978237990867910e+03
1.178307762879101347e+03
1.115036881471717152e+03
1.015053890634803679e+03
5.913048804133773046e+02
7.474661668397524750e+01
-7.207430796246595719e+02
-1.068145899743585005e+03
-7.193035376199235316e+02
-3.201391914715971438e+02
6.323575203601185990e+01
2.547884290440480584e+02
6.134643539331344755e+02
8.122570577517608399e+02
1.073044736497294252e+03
1.956845620999298717e+03
2.303815034619826292e+03
2.311927129728012915e+03
1.794316405372051122e+03
2.109211291083868673e+03
2.578716080643252553e+03
2.623576157798711392e+03
1.932532329639807358e+03
1.292493932460249198e+03
9.045040537271378298e+02
4.106433602938901117e+02
-2.471148258187040767e+02
-1.119674806349681376e+03
-2.003964789732075587e+03
-3.156906688562835370e+03
-4.890399723512543460e+03
-1.588331044472723761e+03
-9.884786047178354238e+02
-1.383876525877641825e+03
-4.418094828144157873e+02
-1.291776221953531945e+02
-4.159636843522327467e+02
4.936930099278863509e+02
8.318513242091046322e+02
2.071825638533620349e+03
4.026629866257263075e+03
5.517601717217718942e+03
5.352661066086013307e+03
4.104389915194728928e+03
2.852633168058481715e+03
1.530086596390707655e+03
7.856247383859608817e+02
-7.160305910204678526e+01
-1.025129267366950216e+03
-1.518960439901020436e+03
-1.056009157257070456e+03
6.849758839956705287e+02
2.284648881133563009e+03
1.715957675848431109e+03
6.238704058687154657e+02
-6.775185655712366497e+02
-1.594145901325040995e+03
-1.782979952343046307e+03
-1.174062248913145822e+03
-2.063411646341954224e+02
-7.080046882557834920e+01
1.574926608789852764e+02
1.155510303180490155e+03
2.417357844495439622e+03
3.320181862391023969e+03
2.662891437961427982e+03
5.483268360554762921e+02
-1.791626441035321477e+03
-3.636931166439312165e+03
-4.231465917813417946e+03
-5.026242114187607513e+03
-5.269381369122302203e+03
-3.605827484580117471e+03
-1.359474944755355409e+03
-3.362894344027325246e+02
6.967643024049952771e+01
1.451294418786224924e+03
3.763573017623734813e+03
6.005545071340966388e+03
6.532142629592155572e+03
5.396558412383593350e+03
3.035819953051678112e+03
1.829135469891489549e+02
-3.700298501871556709e+03
-7.780777370616458938e+03
-9.606429208116436712e+03
-8.557260130227543414e+03
-5.518455236480996973e+03
-5.741948021118782890e+03
-7.735782782535523438e+03
-9.543071757371548301e+03
-6.951831374283080550e+03
-5.180055883718472614e+03
-4.077591798315352662e+03
-3.956494397516110894e+03
-4.650821424173684136e+03
-4.556643228404765068e+03
-3.368956046332835285e+03
-2.926669752248903933e+03
5.733030446066082959e+02
3.352021720972159073e+03
4.382551855430459000e+03
4.651960678369886409e+03
3.818079938803953610e+03
2.857742739446262931e+03
2.319861874268679458e+03
2.481299067114050104e+03
2.718080759215739363e+03
2.457372202884365379e+03
2.647238801394195889e+03
2.361672080964305223e+03
1.778606981620399438e+03
1.466977118500248935e+03
1.121868270555672325e+03
1.409348233412844365e+03
1.919461090259401772e+03
2.585217498689020431e+03
2.892618699830384685e+03
2.930681188306106833e+03
4.079420101021637038e+03
5.420928153230980570e+03
5.038380703633887606e+03
3.193688864583390568e+03
1.420769801155564892e+03
2.565934542832771967e+02
-8.328767422545885211e+02
-1.093622542371101190e+03
-4.615688589463957783e+02
-1.486947150858750035e+02
1.889321191247118747e+02
1.104335749417031593e+03
1.430568698243600693e+03
8.747526357734591329e+02
4.199877513070448458e+02
-2.126753518948189878e+02
-2.712379159801835158e+02
1.262278670221658388e+02
4.577548909871852061e+02
1.343240347289665806e+02
8.568956871883716531e+02
2.666550254874401162e+03
3.432538570496905777e+03
3.102062940747690391e+03
2.504157776041276975e+03
1.542599653446136927e+03
-1.256496269639955472e+03
-4.138165372318575464e+03
-6.445470785582140707e+03
-7.165390621137637027e+03
-6.287934631872896716e+03
-6.128045113841478269e+03
-5.250783799003907916e+03
-4.391394139164065564e+03
-2.880873166520353607e+03
1.039130366326790664e+02
-7.800232511657615930e+01
-1.578576649215760881e+03
-1.355524695602506881e+03
-1.174928946024550669e+03
-6.897751984670430829e+02
-6.609951015361300506e+02
-1.019568861727939179e+03
-3.313658616396721186e+02
-2.165047326571386179e+02
-1.331309271136991129e+03
-2.302164403331683388e+03
-2.163139471618373591e+03
-2.290403914944793996e+03
-2.467941054960305337e+03
-3.585766153242469045e+03
-4.121819460534685277e+03
-2.617228359525366614e+03
-1.217714180797523795e+03
-1.003374962831619087e+03
9.476285858605855594e+01
2.651575692533532674e+03
5.467999713351687205e+03
6.454133419305211646e+03
6.200025325883932055e+03
5.389727903730923572e+03
4.157332503539897516e+03
2.463888813189885695e+03
4.143965386324859423e+02
-2.497036283305095822e+03
-5.118494180913883611e+03
-5.863088005939993309e+03
-4.940800716591701530e+03
-4.286527351491944501e+03
-3.306237176060855745e+03
-1.730037684041701596e+03
1.143942352757109347e+03
4.321673096848869136e+03
4.932199181178410072e+03
3.533608773243810901e+03
2.679904448511233113e+03
2.668141246375956598e+03
3.080430800890417686e+03
3.093868205472596401e+03
3.517686276074416583e+03
3.645973584875501729e+03
2.944502859923015421e+03
2.664069215230586451e+03
3.160400250946797769e+03
3.179219533607447829e+03
2.914421163773435183e+03
1.962141512055764224e+03
5.524412521494531347e+02
-1.012601161365218104e+03
-1.158916222416900382e+03
-4.335442191051605505e+02
-1.656370061259968907e+02
-5.402216579917263743e+02
-5.722744194901389392e+02
2.781021537329693274e+02
-5.016932340146667002e+01
-8.511391336366950782e+02
4.921948847213240015e+02
1.076860989612354388e+03
9.207450314532900393e+02
1.081090227330256312e+03
1.573082811550442784e+03
1.123582022272980339e+03
1.051351630246137802e+03
9.953623734565260293e+02
1.029695673350685183e+03
4.482449912069547509e+02
-7.199535363522298894e+02
-1.855816244663954649e+03
-1.757430852147761698e+03
-2.349973823830235233e+03
-2.263385982425460952e+03
-6.486880259364348831e+02
5.800653549240383882e+02
9.247926123095038520e+02
6.354457508869772937e+02
1.728716790091367841e+02
-1.376548779222028713e+02
1.780287538093404578e+02
4.845787851053922850e+02
4.259107923944793015e+02
1.629360274664722397e+02
1.687087935799708021e+02
-6.488045357292724020e+02
-1.823631445141206086e+03
-2.168700942418800423e+03
-3.108141149334164311e+03
-4.330818759623612095e+03
-4.104601380353504283e+03
-1.535816350825088875e+03
2.848070793232023590e+01
-4.797994589693521448e+02
-4.427397137939034906e+02
-1.093408869309957254e+03
-2.332846498448079728e+03
-2.505913070383279319e+03
-1.980529345110233862e+03
-2.197736574420840498e+03
-1.849547821685776398e+03
5.812442037619364754e+01
1.554230798922086706e+03
2.720675179161981760e+03
2.574477097660127129e+03
1.000626099235126048e+03
-1.199018706619945789e+02
7.668178253888165727e+02
2.483777110060425912e+03
2.810965264246724473e+03
2.440334443142844520e+03
1.712864371215276606e+03
8.455458142664704155e+02
-6.755333408083869244e+02
-2.086355163549475492e+03
-3.509016006970798571e+03
-4.550536812690791521e+03
-3.226846298637693053e+03
-2.379287896156186832e+02
4.390162113434051207e+03
7.223387976398531464e+03
6.730695116350173521e+03
5.302178086264464582e+03
4.320912406464483865e+03
2.968906026339517666e+03
5.889574505265483140e+02
7.273258235492512540e+02
1.178350715108773329e+03
4.619520249608851827e+02
-3.024928608818469911e+03
-6.274418002218331821e+03
-3.036502164859502955e+03
4.809566632429722404e+02
6.539185053211932654e+02
5.551762347428259545e+02
3.347474384098511564e+02
-2.087323079009636785e+03
-5.049144412151941651e+03
-5.287710761453791747e+03
-5.358037853888602513e+03
-1.726149080718704454e+03
2.718933819055735967e+03
2.683401979885763012e+03
2.636376336880399776e+03
2.734915258883509068e+03
-9.009339436819573166e+02
-5.078174884731011844e+03
-5.737785453067389426e+03
-6.667705791483568646e+03
-5.342934885183895858e+03
-1.024466367018787878e+03
-3.593300439924510670e+02
-6.855525105676388193e+02
-1.424058228067257232e+03
-1.480742629288992021e+03
-1.315537447015726684e+03
-5.475428979719978315e+02
-5.587549489644019332e+02
-8.841357407375929824e+02
-1.128611522384302134e+03
-1.207910187903098404e+03
-1.082869304579929576e+03
-2.986827733684650070e+02
1.794441012423845905e+03
3.233279272985188527e+03
2.788893974859422087e+03
1.744581290833988533e+03
1.013499736564549039e+03
1.624727043392851101e+03
2.127273920537252707e+03
1.347301575974765456e+03
7.018384505957970987e+02
1.030720515935449157e+03
1.129722161654626916e+03
1.074786588901055893e+03
9.290289893582915965e+02
8.074209199188250068e+02
6.050105567787016980e+02
-8.506685176158167394e+01
-1.687929567895474463e+02
8.781236634231157723e+01
4.257956981417612496e+02
-1.848759206744898052e+02
-6.051644518883847468e+02
1.542341503997460848e+02
1.028450230964717321e+03
3.318821258015036690e-01
-3.313498381424062700e+02
1.402746557476582439e+03
2.143799268915929588e+03
1.756874733971900696e+03
1.674742063147789395e+01
-2.805807658728072624e+02
4.240489024426753986e+02
9.845417768728123065e+02
3.388365492066702700e+02
-3.963744192740517747e+02
-5.246634447242216766e+02
-4.680350800109177953e+02
2.313889358924974005e+01
1.055724209240343754e+02
6.166118319913965706e+01
7.383667368312350163e+02
1.258737595301330657e+03
1.731606088324736220e+03
1.799841767169187960e+03
2.141556713239684086e+03
2.272824643733049925e+03
1.970669909728185530e+03
1.655945683427943777e+03
1.068700027267607538e+03
-2.309825071976553374e+02
-7.240717110292712277e+02
-9.935212859687261471e+02
-6.224404624336394818e+02
1.720176430696621424e+02
1.138471751701772661e+02
-6.339390006303499376e+02
-1.319323961138620007e+03
-1.469400100489539682e+03
-3.763076461508204034e+02
7.242017160303084893e+02
2.528336547946556493e+03
3.541094035345255634e+03
2.694411419729321096e+03
1.812248897081653695e+03
1.788712570594948147e+03
1.448801733891356662e+03
3.954988428353011045e+02
-1.027448637799456947e+03
-2.323207980577152739e+03
-2.489709470413688450e+03
-1.718033208268583849e+03
-5.873969635732133838e+02
1.058286065328138193e+03
1.674034865475377728e+03
2.392723209275174213e+03
2.803387715923663563e+03
2.534129063103789576e+03
1.747818231197710475e+03
1.541291725178663228e+03
1.452586923681398048e+03
9.197915446873533938e+02
8.978844981686894471e+02
1.676907045041275296e+03
1.526208351616972095e+03
1.053872846664456802e+03
9.148912112255387683e+02
3.121538547126836534e+02
9.439226575598016211e+01
1.745651618624352750e+02
5.769307103093518663e+01
-1.773089667246820511e+02
-8.466167589236330286e+02
-2.195931618710683779e+03
-3.860589864117822799e+03
-2.307601255077252063e+03
-1.710341296548167293e+03
-1.344281740289618256e+03
-8.489906408332163892e+02
-7.126408347697972658e+02
8.082732494812370305e+02
9.249169818910163485e+02
-3.868602090947292254e+03
-1.745312675371591695e+03
-2.103040748026129449e+02
-4.757318376620826257e+02
-3.984906682086235605e+02
-6.043987990711941620e+02
-6.083518285955345846e+02
-2.493662428885339978e+03
-1.339576184538481414e+02
1.486168925438194265e+03
3.165952159033357020e+03
2.822976891628451995e+03
1.530461901957824466e+03
4.358855871801937951e+02
-1.671903715295254926e+02
-4.999678348333021063e+02
-5.163607579488302690e+02
-3.300654285650206248e+02
-5.624340353506287329e+02
-1.948814894063263026e+01
-3.006541187849173298e+02
-1.808102793591007639e+03
-2.445830272977098502e+03
-2.200147945891033032e+03
-1.064854037826448803e+03
-9.807531985213291819e+02
-2.579682924349145651e+03
-3.618019864669124217e+03
-3.567284554223066152e+03
-3.871214621655381052e+03
-5.046029737519977061e+03
-7.174125424129908424e+03
-9.201185296941879642e+03
-1.010697804299170457e+04
-7.480911104509375946e+03
-1.882072622534077482e+03
3.237772390718140741e+03
6.461069830669950534e+03
8.298563372533291840e+03
8.067320499062281669e+03
7.289404233326700705e+03
6.832545375575447906e+03
5.597214000335267883e+03
4.876263408052164777e+03
4.785435242270465096e+03
5.003726912295676811e+03
4.219862578749911336e+03
2.802614359808182598e+03
1.790478473581833896e+03
4.639494041585539321e+02
-5.543580256498988774e+02
-4.416098484505021133e+02
1.142988727893386567e+03
2.358247268649470243e+03
1.287888536300562009e+03
-4.571946884738718353e+01
-6.656033188819743600e+02
7.339818968471152516e+01
1.389399788199173599e+03
3.883100928086040682e+01
-9.031766583213266131e+02
-2.031013079253345722e+03
-2.633672095754726797e+03
-3.700192019578939835e+03
-3.370540076153801692e+03
-2.407499991535433765e+03
-1.929698533462326850e+03
-1.108427382375082061e+03
-5.853836960345792306e+01
1.102488430208343061e+03
1.525556739918613175e+03
-4.226979292572178224e+02
-1.011102335406094767e+03
1.278483019127950683e+03
8.276939590261725925e+02
2.765509305407012107e+03
1.956975988820213388e+03
1.544440017594627307e+03
1.215539088522052452e+03
8.144738639946838248e+02
1.149940079786010756e+03
-2.856303778716455781e+03
-1.212024335203887176e+03
3.619834466430492739e+03
4.400303465306622456e+03
5.182368476104956244e+03
5.243169447080012105e+03
4.591113963882508870e+03
2.957136509649059008e+03
1.013289735906884630e+03
-7.772967349275007791e+02
-3.490641728488676563e+03
-1.951595302726968384e+03
-1.218972280132976039e+03
-2.396389872125422187e+02
9.224195359436928356e+02
1.186292024465825762e+03
1.600052584639619681e+03
1.961798448197833750e+03
1.777587754745305119e+03
9.754421314175763200e+02
8.093918964890985990e+02
7.864359804812464745e+02
3.118080130650156434e+02
-5.980458068110382328e+02
-1.524572674226615391e+03
-1.431233167381399426e+03
-8.185360247343573974e+02
-4.844586218454104483e+02
-7.381060086550929782e+02
-3.155849523616402053e+02
-1.949185859262089195e+02
1.055771725570730979e+02
2.191966224387162185e+02
-8.642238526571645707e+02
-1.869253875750706811e+03
-2.268366409553933863e+03
-2.613273838784048621e+03
-6.399722875504427975e+03
-7.989319165982215054e+03
-5.654188030240263288e+03
-4.210104133004969299e+03
-3.936776828279277652e+03
-6.696088065034294232e+03
-4.190020284274470214e+03
-1.555163062967071028e+03
1.840778430606900784e+01
4.721544591779309030e+02
6.240605871770356998e+02
6.191745899338141044e+02
2.767901034034755412e+02
-7.659034329080983525e+02
-1.318156903599417774e+03
-1.339661923357650039e+03
-1.993373929031999751e+03
-2.040380196940425321e+03
-2.105246213734691992e+03
-2.043922433396100587e+03
-2.069412774179558710e+03
-2.136244747459652899e+03
-2.603328883836079967e+03
-3.050806782262429351e+03
-3.652575630624633959e+03
-3.594543500639937974e+03
-2.511027798407139471e+03
-1.515032888565977146e+03
-1.817441771524433989e+03
-1.902219501730536876e+03
-1.988416313819704783e+03
-3.860013619850105897e+03
-5.961048536492279709e+03
-7.564461073036254675e+03
-8.335281420807470568e+03
-6.535528564205725161e+03
-2.041191659514034654e+03
1.628703939889147250e+03
3.603062140834137608e+03
2.421744920776246090e+03
-3.493003560155168543e+02
-2.079897715456592778e+03
-3.328980611414066516e+03
-4.266644279552921944e+03
-4.644085431906835765e+03
-3.562338656007297232e+03
-1.605327074274506458e+03
5.978186024763627984e+02
1.070980290655685621e+03
-3.988618109077939948e+02
-1.451746549285335050e+03
-2.209768826460630407e+03
-1.220041152309280733e+03
2.314450069764196996e+03
5.281662162037097005e+03
6.510505992280775899e+03
6.542914525295134808e+03
4.439808712389953143e+03
-2.378168596946370883e+02
-3.554094145401174046e+03
-4.515232305292504861e+03
-5.075328677840812816e+03
-6.534306175275654823e+03
-6.973396730090788878e+03
-7.542885053791562314e+03
-7.901779160698702981e+03
-6.738182509378813847e+03
-5.677268534698217081e+03
-2.469424127779988794e+03
-8.009539768803642801e+02
-7.040043182115655327e+02
-4.450406088888660634e+03
-1.679280412750190635e+03
1.143192290971339389e+03
3.351028878455119411e+03
2.030014343431361340e+03
4.636836094546406457e+03
6.704143302242951904e+03
8.703540620235326060e+03
8.376687040724556937e+03
6.258146543941256823e+03
5.887698461304352350e+03
6.634137802655827727e+03
7.395258533174823242e+03
6.739081056846912361e+03
6.057437521108521651e+03
5.978066638133495871e+03
6.544741921301885668e+03
7.896117957502317950e+03
8.846966687194673796e+03
8.297024580773973867e+03
7.955030069200414800e+03
7.539749096477120474e+03
7.098968784994326597e+03
6.726472062993234431e+03
4.870058946538694727e+03
4.382426412512236311e+03
4.915304767962749793e+03
5.228400909940834936e+03
5.115528925506288942e+03
4.295621875655816439e+03
5.738507957437582263e+03
8.910899109484198561e+03
1.281259696420153159e+04
1.456848170263637439e+04
1.553739762492747286e+04
1.765612455268714621e+04
1.850943126487076734e+04
1.669702605767960267e+04
1.558465164911901593e+04
1.530605983927008674e+04
1.398312718728814980e+04
1.316061098490078075e+04
1.314632006094836106e+04
1.280316381013943283e+04
1.188504399564340019e+04
1.072685152301571725e+04
9.599474777729044945e+03
7.638802717093967658e+03
5.298691818253901147e+03
4.989222231737760922e+03
5.154450947804882162e+03
5.409074513935403047e+03
5.814659438487278749e+03
4.568945317865195648e+03
1.991883631394906160e+03
2.289011779129259878e+02
-2.797350401740984125e+03
-7.982776858995054681e+03
-7.723534625554843842e+03
-5.667841680156202528e+02
7.107886750970319554e+03
1.367605328625316542e+04
1.564467006852008672e+04
1.063179056111051250e+04
1.421364435422287670e+03
-3.328534912091421575e+03
-5.590977027286023258e+03
-7.284809005547177549e+03
-1.130451148522091717e+04
-1.786652279592619016e+04
-2.746975964240309258e+04
-3.870505043226838461e+04
-5.082040272577900032e+04
-5.165466878522872139e+04
-4.223669414884101570e+04
-3.676319143790689850e+04
