1.774868526815032737e+03
3.928767702617318719e+03
4.570840990759873421e+03
4.361031040023575770e+03
4.106332399147356227e+03
4.131524564930576162e+03
3.246469733690795238e+03
2.270068309728674649e+03
2.627634863673319160e+03
4.242054782978275398e+03
4.918596467583706726e+03
3.264067376483104454e+03
7.662913427298567512e+02
-2.339490071193280073e+03
-4.218829620796967902e+03
-5.975955533987862509e+03
-8.946370215375203770e+03
-1.069773927926797114e+04
-1.092502681794392083e+04
-1.013709807985306725e+04
-8.663755214050652285e+03
-6.914034889494003437e+03
-2.280189022457963802e+03
3.345054479791128415e+03
4.357954857475026984e+03
2.814257305242197617e+03
2.185563539898075760e+03
1.939831793737049338e+03
2.182358629348887462e+03
1.599016179997247718e+03
8.337021103441480818e+02
5.953324237424329795e+02
-2.691300460703802742e+02
-9.449343174863074637e+02
-2.212640084028442743e+03
-2.174317922320554317e+03
-1.722926981038078111e+03
-1.947262708466378854e+03
-2.311564493274211600e+03
-2.751767855492358649e+03
-1.522104894059047638e+03
2.240376039785390276e+03
5.262852222311876176e+03
6.462345132307097629e+03
6.247951204611338653e+03
5.709645171047621261e+03
4.652063322422543933e+03
5.210113814518850631e+03
6.556148755392971907e+03
6.479379564390809719e+03
5.844804739526201047e+03
4.575433289509947826e+03
3.122296951146843185e+03
2.139337062314495597e+03
9.984117139539683876e+02
7.225264163219632110e+02
5.983610223321171162e+01
-2.688524596398463586e+02
2.796194845436212972e+02
1.174388595283937548e+03
2.585424715175058282e+03
3.165738265158036938e+03
2.724416651933406683e+03
2.398542812218914605e+03
3.099214186772558605e+03
1.984386392477489608e+03
-2.109271799527330515e-02
-1.169840181396712978e+03
-5.650766139581671723e+02
-8.485183030961526640e+01
-2.490558903818571537e+02
-1.065690113247163026e+03
-3.370926915644713972e+03
-4.067259034772463565e+03
-3.615489816519898341e+03
-1.847872789683203109e+03
-9.255448402978455533e+02
-1.459500641140667085e+03
-1.070637327540631532e+03
-1.435802973261252646e+03
-3.598231214283718145e+03
-4.410100946349591140e+03
-4.645414623983495403e+03
-6.241690182859731976e+03
-7.492955306909306273e+03
-4.052235265055035597e+03
-3.087536744514868587e+03
-4.411663056372251958e+03
-4.323543350006067158e+03
-3.254159465603323042e+03
-3.199364632473620986e+03
-3.870160329692761934e+03
-4.686476808475447797e+03
-4.094365118059298311e+03
-3.238933506893956746e+03
-2.193247783363113285e+03
-1.413435592776615067e+03
2.333675719905195365e+02
2.080071651971236861e+03
2.264860018803433832e+03
3.086913017458191462e+03
3.807373805271652145e+03
3.376471979377675780e+03
3.940271109550090387e+03
3.795763285698969867e+03
4.838034494761717724e+03
4.703111510453680239e+03
3.921845472046440591e+03
2.346209176639457837e+03
-3.987987659859340965e+02
-2.213195226615477623e+03
-3.533982958272114047e+03
-3.877141044799474003e+03
-1.043674362811206720e+03
4.674614551098469519e+02
2.459317119730495961e+03
5.596860881729450739e+03
4.878157014601976698e+03
1.853354614034640008e+03
3.634469043063342610e+02
7.314279870433946371e+02
2.613609251078093507e+02
-3.307019038479703568e+02
4.713156041317763538e+02
-3.735308530289462965e+02
-2.684277997645720461e+03
-3.789984635515931586e+03
-1.624648427884427292e+03
1.599788802196601864e+03
1.462357190002087918e+03
-1.005829908752093729e+03
-2.133695088855313315e+03
-1.583228445974336637e+03
1.821516361403236260e+03
3.007571692202209306e+03
3.086874526053701175e+03
3.628344503374725718e+03
3.188094591570753437e+03
1.301125972334491507e+03
3.845347965744367116e+02
1.799257489202564329e+03
2.306019523630728600e+03
1.195334881354303889e+03
1.296993651726806775e+03
3.856956861197681519e+03
3.165167728663841444e+03
-2.882997125643112213e+02
-1.916329372432297077e+03
2.229945206927757511e+02
2.155535836161983298e+03
3.851091359164707683e+03
3.657777581031839873e+03
1.635676241129160871e+03
2.050889184256508088e+03
1.569465883754815422e+03
1.484598021564694079e+02
-3.101494777257551618e+02
-1.341487775415926308e+03
-1.188649648389099866e+03
7.527410651777181272e+01
5.423169008602973236e+02
-3.514916798276504437e+02
-2.871020428618581718e+03
-4.981250757088325372e+03
-6.040197251508853697e+03
-5.646848544417321136e+03
-4.316414652858170484e+03
-3.670134393810857546e+03
-5.687119322091327376e+03
-6.408302130566419692e+03
-5.794550593602788467e+03
-4.081741367210972385e+03
-1.091829046461776215e+03
1.766174979477496436e+03
3.746091303022349621e+03
2.220634630748738346e+03
3.038093852023018258e+02
-3.323161815701862309e+01
-3.911455327843079431e+03
-8.404898082429712304e+03
-6.926786762985025234e+03
-1.512300005970935899e+03
1.569622719358740142e+03
1.936010900672342132e+03
1.645936920879840045e+03
1.697342219101632736e+03
1.010173167446199045e+03
7.005661884568921778e+02
1.971533015697322753e+03
2.592024340760209725e+03
2.423983715074457905e+03
1.088429429994320571e+03
-1.396607102308757703e+03
-3.463186596488274063e+03
-2.702501923030978560e+03
4.023461597194333450e+01
1.054054925740589624e+03
-1.491114677316343432e+03
-1.717207296986298616e+03
-5.032982981819266683e+02
5.744928921046504229e+02
2.096078563007634330e+03
2.477389164039640036e+03
6.854576944643106344e+02
-4.667162902718659439e+02
9.929318893837565838e+02
2.693402920060323140e+03
2.653696525402380303e+03
2.266697686230558247e+03
1.479517891760175644e+03
7.921866128196706995e+02
2.592979092746287279e+03
1.981404394421623465e+03
1.729638393416414829e+03
1.023987317894108287e+03
1.369368716170071565e+01
-1.346703714323178076e+02
3.287369853846577143e+02
7.230061056389398573e+02
7.744801995623222410e+02
-2.715267815706161514e+02
-1.908102261654679523e+03
-1.710770139656722222e+03
-4.051897537191120477e+02
9.077833679924888202e+02
2.517971121304057760e+03
2.568522811061271568e+03
3.591345308593162144e+02
-3.891668764363488435e+02
1.540160389017641762e+02
1.535377717489593351e+03
2.934923847052429210e+03
3.521432297454029140e+03
2.459656604785713171e+03
8.621592596756489684e+02
4.806291293553193213e+02
-2.537755268090769221e+02
-1.978887808824469403e+03
-2.202071898241087638e+03
-1.417490600439964282e+03
-1.547782256846584005e+03
-1.091339092570359071e+03
5.867324555946482860e+02
2.201397015130252385e+03
2.812846116845344568e+03
3.743422341298284209e+03
3.992554958091872322e+03
1.898300675482763609e+03
1.008596563982162138e+03
1.115548835797717629e+03
7.261223145831352213e+02
1.498210174923532122e+03
4.297864689375543094e+03
5.798227448911236024e+03
3.773445341783538879e+03
4.037800729438600200e+01
-1.761518833329993754e+02
1.203780358467683754e+03
1.892091414548080138e+03
1.871769129644999566e+03
1.130830875847076641e+03
4.826917893440596430e+01
-1.581203791317169305e+01
8.658979301425470112e+02
1.884321418562531392e+02
-1.357342505317357563e+03
-1.125792035224946943e+02
-1.950332796916624375e+03
-3.215458191138133316e+03
-1.877016044531445459e+03
-2.178894908332360956e+03
-3.754060483648417630e+03
-5.073468505411591650e+03
-3.927862176255807753e+03
-5.064197258883671566e+03
-6.532516369784803828e+03
-6.098819123500531532e+03
-6.028268116595402716e+03
-7.561926662709597622e+03
-7.285845901416413653e+03
-4.381108240206087430e+03
-2.014302925509237411e+03
-3.017380700754855752e+03
-3.935582868348473767e+03
-3.827856262532890014e+03
-4.291946723870377355e+03
-3.088898156853797900e+03
-2.445914808594119677e+03
-2.339064882508872870e+03
-1.861007871203829836e+03
-1.579367244332627024e+03
-2.430973713307529579e+03
-2.774980936819089038e+03
-2.800588795770800516e+03
-1.745939238023838243e+03
2.397216783075022249e+03
2.998406969080222098e+03
2.201503148946290821e+03
1.854053300542118905e+03
1.935863451680931348e+03
2.281943729917420569e+03
2.319047477698936746e+03
1.737818833279401133e+03
2.939207818768366906e+03
3.772331550703894663e+03
4.269265366854636341e+03
3.864254189638715161e+03
3.729048757606163690e+03
3.740429955582027105e+03
3.874256040460424174e+03
2.739448539964515930e+03
2.112331778519167983e+03
3.504221149841572242e+03
4.623981645451059194e+03
3.689546621996574231e+03
2.518918726048922508e+03
1.876195208431901165e+03
2.228604825890693974e+03
2.521468117728791640e+03
3.155939224356896830e+03
3.157184145639163489e+03
2.773590530927684540e+03
2.214949317954509752e+03
1.820376046823934530e+03
2.006339421649633778e+03
2.152711910976317540e+03
2.539219955293328439e+03
2.450913154497528467e+03
1.612831139578896455e+03
2.254391926269504438e+03
3.649715474976181213e+03
3.781921329621196946e+03
2.382555688004978492e+03
9.155308707686947400e+02
-8.229830306487314147e+02
-1.123573536492326184e+03
-1.643308654737607867e+03
-3.997095439126198926e+03
-7.239065778358160060e+03
-4.756920818692090506e+03
-1.744567411638413205e+03
5.365243344481949634e+02
7.163352397632794464e+02
2.004453369406316597e+03
3.508636244019276546e+03
3.293316783870389372e+03
2.401715660310224848e+03
1.880144654398896819e+03
1.856297347265993039e+03
2.445802197310431438e+03
2.494263327311826743e+03
2.144392376736036113e+03
2.402406870090367192e+03
2.675770138578247952e+03
2.170947050553696954e+03
1.946320697904366170e+03
1.376195646735727905e+03
2.162116403060608434e+02
-4.867554946773903453e+02
-1.355024245951981129e+03
-2.369903999955655308e+03
-2.496289473895468291e+03
-2.446200786051926571e+03
-2.227929621709305138e+03
-1.590205117058655333e+03
-6.548233721315372122e+02
9.195403717350902753e+02
3.040260525540834351e+03
4.519039957768923159e+03
4.290527173761537597e+03
3.282591733056454814e+03
2.558317098842241194e+03
1.764677368744926525e+03
9.003149486404560093e+02
6.227634296383876062e+02
4.635218726195284376e+02
-3.681660899294010392e+02
-1.009072125683499507e+03
-2.129153093154632643e+03
-2.201694685459512584e+03
-1.070112962760074879e+03
4.636368154834079860e+02
8.904001422240415877e+02
2.280671383461037180e+02
-4.728446259414766359e+02
-8.011614305966198799e+02
-1.490672480283862171e+02
6.434521008481571016e+02
8.800760031782789383e+02
5.888767902957550859e+02
2.055047858686359916e+02
-9.661826176577734486e+02
-3.088125315566933295e+03
-4.292707253000019591e+03
-6.711112239495104404e+03
-8.137329323285473947e+03
-8.874758102387750114e+03
-8.443565214702721278e+03
-3.471703010182295202e+03
-1.979431825324535339e+03
-1.586057119638029462e+03
-2.229871428036217822e+03
-2.009753465632609050e+03
-1.461350842296265000e+03
-1.161355840783621261e+03
-1.590542316616094240e+03
-2.987622472476230087e+03
-4.245625493196552270e+03
-5.058678313645678827e+03
-5.138644181057654350e+03
-5.304776823043313016e+03
-4.633588965979552086e+03
-2.709185616842992658e+03
-2.746211235723662867e+02
1.009320503431421685e+03
7.556050716900992938e+02
3.366261478415977422e+02
-2.572207624032923832e+02
-9.468133891291568034e+02
-1.448559249056768522e+03
-2.113622937079566782e+03
-1.866955514839533862e+03
-2.148801444029321829e+03
-2.452935516462404848e+03
-2.337340932571531994e+03
-1.913241694952796934e+03
-1.105562954814194200e+03
-1.879419386059881276e+02
-8.681615303692848329e+01
-2.811826817879962164e+02
-5.139444432835682619e+02
-7.110008110302892419e+02
-1.676749742619696917e+03
-2.510097828789872892e+03
-2.730336032127187536e+03
-2.618451898793036435e+03
-2.720710936385461537e+03
-3.984706603022174932e+03
-4.613036304171211668e+03
-4.251411777588182304e+03
-4.275133246557823441e+03
-4.451799502736226714e+03
-4.321299675453792588e+03
-3.335548132008234006e+03
-1.869645902697483962e+03
-7.546498920754814890e+02
-6.594586648576315611e+02
-1.064391921651552366e+03
-1.821983062774673726e+03
-1.360874544538889950e+03
-2.902503642394704002e+02
2.382860029399624864e+02
4.974967124486592525e+02
1.954938735672820656e+02
1.421766425447810661e+03
1.747649393474083354e+03
8.202563592283398748e+02
2.724862174518395932e+02
-2.766428294438163107e+02
-1.361805718516267916e+03
-2.473020863041546818e+03
-2.627392782809251003e+03
-2.376624403432634153e+03
-1.912998470392006993e+03
-2.901076887779955541e+03
-2.693837100494633432e+03
-3.197487422933845210e+03
-1.979121262862685853e+03
-1.261985863428724315e+03
2.096647793566810833e+03
7.806363119406227270e+03
4.750231012912974620e+03
-8.003013458814883734e+02
1.927496468203117274e+03
2.536606267615402885e+03
-3.130709956325979988e+02
-4.916159771619218191e+02
1.883829216151806804e+03
5.794846490996425246e+02
-2.057229834844973766e+02
2.296041142599162583e+02
1.284226411958520089e+02
-8.274647245993614320e+01
-7.020797905985544958e+02
-3.040876425332976396e+02
2.953612569017274382e+03
6.040434413639090963e+03
3.404521737886000210e+03
2.145307620307399247e+03
2.343502929269648575e+03
3.400272497454230233e+03
4.753843457648710682e+03
5.323307480367440803e+03
5.213025178287638482e+03
4.594406816935720599e+03
4.230030425234576796e+03
4.743836021968047135e+03
5.262747927745541347e+03
5.512104423941763343e+03
5.600423248205093842e+03
8.226348527365054906e+03
1.207062754717692405e+04
1.183915383663653120e+04
1.037482128732561068e+04
1.066468344872474518e+04
1.096926849562513235e+04
1.058913879537382854e+04
9.434332679406266834e+03
7.978490216005217007e+03
7.139151819026729754e+03
7.777264167922454362e+03
8.898669786367352572e+03
9.926185660502711471e+03
1.102296405309344118e+04
1.172086106727676452e+04
1.111252673569888611e+04
9.609870121846446636e+03
7.336465364644594956e+03
6.088016191745829929e+03
7.753617696869552674e+03
9.900174859902279422e+03
1.205252634343744285e+04
1.422127082848897408e+04
1.537899203384142857e+04
1.606915613715752806e+04
1.432945083842695567e+04
1.201353842195061225e+04
1.000350564355151255e+04
7.461267409496744222e+03
5.655639075945821787e+03
4.461365741600650836e+03
3.543388628438055548e+03
3.412701650692022213e+03
1.755111769298611307e+03
-7.794556037408165139e+02
-8.321338823739524742e+02
2.544241111120514063e+02
3.090064224567301608e+03
4.125272029115652913e+03
2.263228988971081435e+03
5.575413524749429826e+02
2.274876500499130088e+03
2.477293685740950878e+03
-1.087164621965038350e+03
-6.706306631625395312e+03
-1.033235330139739017e+04
-9.972582547656493261e+03
-8.436824925484794221e+03
-7.835755878009860680e+03
-9.899208380782136373e+03
-1.589302064328472625e+04
-2.076303933390957172e+04
-2.001934909733000677e+04
-1.940769974045594790e+04
-2.213426351711535608e+04
-2.893076044473275761e+04
-3.972143595127544540e+04
-4.480400651913367619e+04
-4.308842325845364394e+04
-4.311534173022393952e+04
-4.027665167964381544e+04
-3.486215130760514876e+04
-2.615567425288758022e+04
-1.969592235743511628e+04
-1.591065682604041831e+04
-1.400968176730720188e+04
-1.278296732191878982e+04
-7.094234021483509423e+03
-9.192310891322153111e+03
-1.466205747971469282e+04
-7.871216993378698135e+03
2.000581151181979976e+03
2.127682629191168871e+03
-8.174800974561124349e+03
-1.756783428389290566e+04
-1.396808983239401095e+04
-6.849267286055715886e+03
-5.383135015950480010e+03
-8.680490825080232753e+03
-1.269709049930973197e+04
-1.047567598112859196e+04
-7.411963804226815228e+03
-7.313606579305997002e+03
-6.991340951023133130e+03
-6.710723201107502973e+03
-2.132312854819059339e+03
-7.549931698637332374e+03
-1.131341979319351412e+04
-6.035380346118508896e+03
-7.393676124605418636e+02
7.400082499018727503e+03
2.559233939298910991e+04
3.317839117097139388e+04
2.778447223579310958e+04
2.048417288873509096e+04
1.643293694636640794e+04
1.117965390981082055e+04
1.261752726833901397e+04
2.043791795288417416e+04
3.771034506534114917e+04
5.460697523008626740e+04
4.077606102453195490e+04
2.794606592140652356e+04
3.017341004321310174e+04
2.809941633991434355e+04
1.994530524308513486e+04
5.392373321054132248e+03
-2.287845818767630590e+03
-8.438962211717711398e+03
-9.562682306966367833e+03
-2.738793906165790759e+03
-2.181106659579554162e+03
-1.337144175265246849e+04
-1.770363380921136195e+04
-1.041533528329784531e+04
-7.055194805099907171e+03
-6.229893111127074917e+03
-4.501199392507040102e+03
-1.208889081315739304e+03
-2.639579330517341532e+03
-1.591872064626723841e+03
1.291303737469451789e+03
7.638991446713100231e+03
6.831344639998667844e+03
1.248397359659563108e+03
4.182352186650792646e+03
9.834630465121055749e+03
1.729657806624754085e+04
2.745950094908706160e+04
3.726649481046127767e+04
3.882463012149943097e+04
2.991913089669234978e+04
2.261823755142932350e+04
1.797812540583554437e+04
1.102168673420800224e+04
-3.260038199140311463e+03
-1.241084308525472261e+04
-1.169053171813941117e+04
-1.332067402927965304e+03
1.053672491958619503e+04
2.198412179530342473e+04
2.592616552802166916e+04
2.411984114302587113e+04
1.801104125721543824e+04
5.321700567198018689e+03
-9.413187937831546151e+03
-1.635758634282104686e+04
-1.593058458649434033e+04
-1.697898706458507149e+04
-2.487275151606804502e+04
-2.572888034082453669e+04
-1.544124375938966114e+04
-8.750878689588957059e+03
-1.182876889737276542e+03
7.224751314970398198e+03
1.099587290402030158e+04
1.126231113595568240e+04
9.119704082439919148e+03
3.210143171284437358e+03
-4.603480374437564024e+03
-1.047441147460539469e+04
-1.197586551127528401e+04
-1.093492894272096783e+04
-1.139661358944338463e+04
-1.752202252159662385e+04
-2.767632869509514421e+04
-2.909770076746377890e+04
-1.173629486033538524e+04
6.337675326140981269e+03
1.361897534986068058e+04
9.187288708877926183e+03
2.693381987824327553e+03
7.714146838897610792e+01
3.804112491249710502e+02
-5.260212975163146893e+02
3.225626745476465203e+03
4.054170151363302921e+03
5.248418308795981829e+03
3.454046396518004258e+03
4.510949928455662302e+03
4.393985055333833770e+03
-3.596274378483736200e+03
-1.308824720671081377e+04
-1.985417100605182713e+04
-2.001521504166554223e+04
-1.926049305862475012e+04
-1.733026267612604352e+04
-1.478281393050772931e+04
-7.625362107318882408e+03
1.122901274008439714e+03
8.841752210662814832e+03
1.364282622735084806e+04
1.337779732489528942e+04
1.013645661528490928e+04
2.138685817481066351e+03
-5.953850896801345698e+03
-9.303497493931386998e+03
-8.998607872850743661e+03
-7.054490394857201863e+03
-4.561285673834918271e+03
-2.789320497963919024e+03
4.750328486815463975e+02
5.701512322589196629e+03
6.974882260080792548e+03
-7.300282427164959245e+02
-7.237386267586295617e+03
-3.632538167152945789e+03
1.035024627688151486e+04
1.357578144279807020e+04
3.801826233072541072e+03
-5.428853045655409915e+03
-9.620786114500935582e+03
-1.090682017298553546e+04
-1.313508629515860594e+04
-1.404378956382200704e+04
-1.053621198985499177e+04
-7.940502925055848209e+03
-4.675753711533829119e+03
-6.522246940218006785e+03
-1.103817897847217318e+04
-1.081271414153486876e+04
-9.186016263465391603e+03
-9.224421422704152064e+03
-9.103047894264513161e+03
-7.812219652928753021e+03
3.944986590601951320e+03
1.543283537985434305e+04
1.819088883254362008e+04
1.530527383757233656e+04
1.074935597632029385e+04
7.718402199509550883e+03
4.821315723147334211e+03
2.041240364739086772e+03
-2.539369719599355449e+03
-3.724842465257438562e+03
-1.771966711562361752e+03
-3.876005617506767521e+03
-4.038725707598815916e+03
-7.702208295059961529e+03
-1.375992115198611646e+04
-1.443274756894229358e+04
-5.424727791701142451e+03
2.201133415904062531e+03
3.935714837069672740e+03
1.511224031043918558e+03
-3.285263835261742770e+03
-5.780831748617291851e+03
-3.371661997620682087e+03
5.624142457516383729e+03
1.080253374541043195e+04
1.087375818894223812e+04
9.760112085494551138e+03
1.229935645230634509e+04
1.720269466766356709e+04
1.822815417550619168e+04
1.787438199799344875e+04
1.627651504561065485e+04
1.330955892692554880e+04
1.210824688781364966e+04
1.198075161948968889e+04
1.323052661390711182e+04
1.240549497879556111e+04
9.454745896299318701e+03
9.098578601110846648e+03
8.201225633304697112e+03
6.555853617031310023e+03
6.165524528266467314e+03
2.507199011387818246e+03
-4.559241031867240963e+03
-4.873851769445393074e+03
-2.253414549957071358e+03
-1.401764001174105942e+03
6.972512327871587559e+02
-8.221215684009217739e+02
-4.937614735658462450e+03
-5.055136951486046200e+03
-2.631915413234873085e+03
-9.188354639028401607e+02
-3.326725956318652607e+03
-6.913487775008250537e+03
-5.879042909779255751e+03
-6.600385362525106757e+03
-7.249182385045992305e+03
-6.356162319889697756e+03
-6.108133594746486779e+03
-6.654842462792193146e+03
-6.414089926261253822e+03
-7.788793910154089644e+03
-8.748850281159580845e+03
-9.231136243537375776e+03
-9.824353587321253144e+03
-1.328313162128677322e+04
-9.511538035190325900e+03
-2.207591404316054195e+03
9.466538341146890616e+02
5.037395075496419850e+03
5.210977197142750811e+03
2.314623431432779398e+03
-6.997168261583831281e+02
-1.520823281436884599e+03
1.916813715188457934e+02
-1.177847861152747328e+03
-6.541357012530094835e+03
-1.128911500307272945e+04
-1.438907636186054879e+04
-1.603109469865586289e+04
-1.608089214139954311e+04
-1.321590277891477854e+04
-7.243067442950627992e+03
-7.265988601292399096e+01
4.029347553467556736e+03
1.273128597851757331e+04
1.969066988854423107e+04
1.722013686986818720e+04
1.297049914433138292e+04
1.011229572903262306e+04
8.384608528884733460e+03
7.069228314413408953e+03
5.544944529486410829e+03
4.715357031211935464e+03
5.034532921304812589e+03
6.016695948189506453e+03
5.298017979986374485e+03
4.157518764225559607e+03
2.667781106386513329e+03
2.275380864420385024e+03
2.540686047711926221e+03
2.824872026762660425e+03
4.412769282569944153e+03
5.074080744080194563e+03
4.077593283360497026e+03
4.070429925381812154e+03
5.357709830772745590e+03
6.060104161905214823e+03
5.611715690790387271e+03
4.356881810324468461e+03
2.557982958288281679e+03
9.308603700189356687e+02
-2.426204874590611666e+02
-1.796440981668456743e+03
-2.108849736364983528e+03
-1.413094836150954279e+03
-6.545267937533078566e+02
-6.271041785758631022e+02
-4.975976044342787645e+02
-2.867164168010719436e+02
1.723442726770045283e+03
4.387679544435964090e+03
4.403122487823689880e+03
2.875167987423357772e+03
2.416743521948987564e+03
1.858922566844045150e+03
1.318341150257951313e+03
4.013351835731317010e+02
-1.874017799646327376e+02
-3.051547460046613480e+01
-5.759360395858155925e+02
-1.588886779100037074e+03
-2.538386080322082307e+03
-3.193302999488707428e+03
-3.717419372487840519e+03
-5.277296313367765833e+03
-6.728413136814726386e+03
-5.810305954024600396e+03
-3.855330227250597090e+03
-7.133715094195605388e+02
2.263195627840433190e+03
3.750644446514376796e+03
4.349487336949433484e+03
2.934605926431740045e+03
1.234607659034583776e+03
4.756606296606082651e+02
-1.232740584460282349e+02
-1.764177502908348515e+03
-3.467013004691424612e+03
-3.479058756727593391e+03
-9.171153018677688351e+02
6.495212613213178656e+02
5.866310745623418370e+02
6.658486811915036014e+02
-6.723692596689925267e+02
-2.660630306649652539e+03
-3.753540168264855311e+03
-3.998490277286602122e+03
-2.452789101711508010e+03
-1.922737764309911199e+03
-2.978478513858463430e+03
-2.860636818528209460e+03
-1.264416877940292807e+03
4.461859794168881308e+02
-8.189622254041469205e+02
-4.457554668362405209e+03
-6.765795644802747120e+03
-6.843891115806399284e+03
-6.929638592623030490e+03
-6.692932477926955471e+03
-4.703066189104569276e+03
-2.697297791083994071e+03
-8.282542698067708216e+02
5.604539838518812758e+02
1.299223149527444093e+03
1.331665227302390804e+03
1.116165078911262071e+03
-7.726098142378868943e+02
-1.417175893840419121e+03
-3.020438849946768187e+03
-4.243727748868249364e+03
-5.371529715601573116e+03
-6.190801941965754850e+03
-7.368651858740920943e+03
-6.833412341253668274e+03
-9.862744291746035969e+02
2.206036387792466030e+03
1.375652593432198501e+03
1.887660210600574146e+03
3.481776602879696384e+03
4.167084551218601518e+03
3.573802264906714299e+03
2.631387231871505719e+03
1.917472429249109837e+03
1.416169458218499130e+03
7.149973313129891039e+02
4.383921921789095109e+02
1.588137164602542271e+02
2.976820682827645328e+02
1.567569338545003802e+03
2.599998208159917340e+03
2.624871676042640502e+03
2.331371367960087355e+03
2.400268629804355442e+03
2.120360490488411415e+03
1.447842658968003889e+03
1.148421494202934582e+03
9.262162596118369038e+02
2.349150879046139551e+02
6.548048430139119773e+02
2.503774652172782226e+03
2.669821570203851024e+03
7.816553620093069412e+02
-8.793032543679826176e+02
-1.450070848878150173e+03
-9.261650564884419055e+02
-6.417741600757797187e+02
-8.729617732775066088e+02
-5.579888834352663025e+02
-1.923511959713351587e+02
7.267686246780671127e+02
9.794235170225150569e+02
7.667758344931830834e+02
1.076171137403345483e+03
2.114811762953298057e+03
2.885213309870432113e+03
3.845618443347479115e+03
3.405735599749335961e+03
1.979196976350043315e+03
2.277847005980586346e+03
2.851647813904119630e+03
2.849687503308991381e+03
2.749827472679271523e+03
1.886895688330102303e+03
1.309159881562183500e+03
1.157369107926436072e+03
8.024330657328524694e+02
8.376339413381177792e+02
1.251134381384756580e+03
1.470714031017657135e+03
1.026571824004520522e+03
-2.186169553619105955e+03
-1.688704019250885040e+03
-1.364064844786593312e+03
-6.743022431946729967e+02
-1.093603118792450914e+03
-1.764202163880539956e+03
-1.473043706738809760e+03
-1.557299090316303136e+03
-1.358601200616940787e+03
-5.246589775076744218e+02
-1.044734171121798227e+03
-2.959875227950457884e+03
-5.692079695689299115e+03
-9.693425469926436563e+03
-1.419092376179485109e+04
-1.045747825296114934e+04
-6.067264067661807530e+03
-6.332705025373201352e+03
-3.692359420612303893e+03
-2.919894000810367629e+02
2.410411841030324922e+03
5.297012281390750104e+03
5.082118859553432230e+03
4.615889175324995449e+03
4.340883593012319579e+03
1.539921513535222630e+03
3.771414278057347929e+03
5.893267295110268606e+03
2.447723400759611650e+03
-1.389190423240804080e+02
-2.314978799984477973e+03
-8.340124291294491741e+02
4.968928207470252687e+02
-8.979922143645776487e+02
-3.814940081169335144e+02
7.286541061311759222e+02
7.165186525125469643e+02
-1.571953774429975113e+02
-2.770122964933481398e+03
-3.506118234128080530e+03
-1.126776480386787171e+03
-1.846969259469554117e+03
7.570036229892114079e+02
4.150843599059720873e+03
2.514809496541278349e+03
1.547986613683127871e+03
2.891599036983234328e+03
2.172827261733286832e+03
-1.368435572445055868e+03
-2.061274954480771157e+03
-3.450739980247951280e+03
-5.100550150229722021e+03
-4.961386145783865686e+03
-3.861436507486960181e+03
-2.143703319837870367e+03
-9.609835236480284948e+01
2.160241823013554949e+03
2.635654762826748083e+03
1.044590783135322681e+03
9.486252974853535989e+02
1.367489848017311260e+03
8.991341153269281676e+02
7.964064910803292605e+02
1.337715332179456937e+03
2.201547204547755882e+03
1.523662471249820783e+03
1.572887244549345723e+03
2.892329332106240599e+03
4.785318740864888241e+03
5.753104072355608878e+03
4.821217797493529361e+03
3.523403969413582217e+03
2.507463512248519237e+03
1.645648580365458429e+03
9.092188266658637303e+02
1.028174605820416673e+03
6.039958671783142563e+02
-4.441339942874881217e+02
-1.274776965114011091e+03
-1.996998845660331199e+03
-1.101836422571073626e+03
-4.439743548745883004e+02
-3.423565619432647509e+02
-3.473368117659411496e+02
-8.574012485275550262e+02
-1.812762229839358724e+03
-2.023308349251536129e+03
-9.767853647112341378e+02
3.519132344426449777e+02
1.014643052559359603e+03
1.627218957948776961e+03
2.447785606626306617e+03
2.029719176649403607e+03
2.240111551753526783e+03
2.397881539701399561e+03
1.929032656793115166e+03
2.504344070811177062e+03
2.414206366094539135e+03
2.801398295687857626e+03
2.540994045425899458e+03
1.751889750557434127e+03
1.082354350095678228e+03
1.353680807716850950e+03
2.193450781836889746e+03
2.988617567845931262e+03
2.756046494482081471e+03
2.393680709737083816e+03
2.362557896690917914e+03
1.673747937763130267e+03
8.041185581044231867e+02
7.615858139775198197e+02
1.254082455951380325e+03
1.221647599366135410e+03
5.474060600280811286e+02
-8.636761168762336638e+02
-2.889658666575916413e+03
-3.975540018096577569e+03
-2.375393210930669284e+03
-1.514003229982026824e+02
3.195168319176884779e+02
3.955142120843904081e+02
1.225500842439485723e+03
2.850324098452103044e+03
1.013000482422975892e+03
-2.417406533049433165e+03
-3.427843507191277695e+03
-3.582250710883745910e+02
3.302436709066572348e+03
5.334997600966201389e+03
4.582484266897827183e+03
-5.312642472847221597e+01
-5.636875182706919077e+03
-9.196754892685061350e+03
-9.964872601173470684e+03
-1.081634927743363914e+04
-1.171911609693153696e+04
-1.055528988320703866e+04
-6.410850330143064639e+03
-3.546613835292273052e+03
-8.275952452556678054e+02
-3.958940158595118533e+02
-3.210486615544432425e+03
-4.659358543450796788e+03
-3.869428069363664690e+03
-3.536769900999215224e+03
-2.111515663679476347e+03
1.170434863984388585e+03
-2.318134994930570087e+02
-3.068310520331860971e+03
-2.573037213031671399e+03
-2.789746150500945419e+02
1.995911408241163372e+03
1.236605367839265000e+03
-1.390399570143675589e+02
-1.451331339253958106e+02
-5.138336157270312015e+02
-1.207223861421888387e+03
-1.001983251812841615e+02
-2.056421744577454547e+02
7.561057732815926080e+00
2.484477564642370453e+03
2.917173268186863879e+03
2.149642426932894978e+03
3.793998884584518692e+03
5.061316453281557187e+03
5.190305470227382102e+03
4.456854060330882930e+03
3.639230291490514446e+03
3.211433524268778910e+03
2.637311155534727277e+03
1.845964886226322051e+03
1.890496290132661443e+03
1.214916734705057706e+03
4.202133459732714300e+02
1.221170710516583995e+03
3.211849242074552876e+03
3.939404829543519099e+03
3.843773223312280152e+03
3.552953047435352801e+03
2.868966771308703755e+03
2.557931434573768001e+03
2.797014395570344732e+03
3.029231860231062001e+03
2.304600130986499607e+03
1.589143463326739038e+03
2.041773763236196828e+03
2.378332603411067339e+03
2.449897193388265805e+03
2.377398455215359718e+03
2.347745663559602690e+03
1.329997739481570761e+03
-3.486467447262022574e+02
-1.219322961671570965e+03
-1.885971933814260410e+03
-2.530637899424006264e+03
-2.046954764332300329e+03
-1.180786183037630053e+03
7.258945453591045407e+02
6.871401130849704941e+02
-5.619963964556413885e+02
-1.155664757477790772e+03
-9.673101631919860210e+02
-1.851681796044194016e+03
-4.492365183723589325e+03
-2.583527101350528483e+03
-2.823603467082574298e+03
6.324864168050772832e+02
1.448892147354194094e+03
3.806606565052267115e+02
-5.782217977907278055e+02
-1.254737713420457339e+03
-2.353867242817354054e+03
-3.004566640346670738e+03
-2.719850490324336988e+03
-2.126891483951800637e+03
-1.988694961304064691e+03
-1.377142568612727018e+03
-1.813167321776087874e+03
-2.551791185821952240e+03
-3.374011032004051231e+03
-2.913729544385724239e+03
-7.599160146162975025e+02
1.227377556278098382e+03
-1.184055553020791329e+01
-8.823730768361625678e+02
-4.772199678875391555e+02
-1.213636629964260692e+03
-1.987568612899436175e+03
-1.142865715112665157e+03
4.574569028577039376e+02
1.560346706675271207e+03
1.491689591162620900e+03
2.343460535044032895e+03
