6.507237356147415085e+03
4.968433995816439165e+03
-1.297870540656355843e+03
-6.436046883089537914e+03
-5.262475703930689633e+03
-4.143424033443170629e+03
-7.200187999730922456e+03
-7.327033336727507958e+03
-6.083127822504401593e+03
-3.554647180753891462e+03
1.655225412558947028e+03
6.579240523829425911e+03
8.459344606620876220e+03
9.015335076926694455e+03
6.134093673923045571e+03
1.007529444903206354e+03
2.996039636318902240e+02
6.992358327306545789e+02
5.142222164680194965e+02
2.054441108514719872e+03
3.788920863911096717e+02
3.477656782607082278e+03
7.722977286569432181e+03
6.031954342991090925e+03
3.925730703645742324e+03
3.788539772891907887e+03
2.817106616033618138e+03
-6.688345164446166891e+00
-1.586243339941210252e+03
-1.843163065548347049e+03
-7.603805653368489175e+02
2.072967006464648989e+02
4.760590438834574343e+02
-4.985201376812987206e+01
-1.637158479059752835e+03
-2.331612935995549833e+03
-2.665085030046358042e+03
-3.620522048911156617e+03
-3.820721048277996033e+03
-4.574378884236126396e+03
-5.762122739909887969e+03
-5.678618204721025904e+03
-4.470463477436162975e+03
-4.876246259878355886e+03
-5.448558760773252288e+03
-4.807101881024306749e+03
-4.331425932336018377e+03
-4.701817218324862552e+03
-2.767715934985877539e+03
-1.039830669439179701e+03
-1.186998295185046572e+03
-1.158023822081399203e+03
-1.329468056762234710e+03
-1.783973914625496491e+03
-2.327340225448041565e+03
-1.624413689619174420e+03
1.120003736227763966e+03
1.650515428611632387e+03
9.547630371786842716e+02
-7.309165733634442859e+02
-1.496284765266807881e+03
-1.082980226191313704e+03
5.914127469167057143e+02
1.331327630234778781e+03
-9.184968821100814012e+02
-1.701397840646446866e+03
-2.484246005119398887e+03
-2.245793863202790362e+03
2.279374010479127719e+03
5.283814569346819553e+03
6.342924507406387420e+03
6.120158703189486914e+03
7.293821517373559800e+03
9.405454847784900267e+03
7.742451896382435734e+03
1.738648238000606625e+03
1.623011270410530187e+03
6.542323027771748457e+03
1.377188724822891891e+04
1.802533062998177411e+04
1.569941300714091267e+04
1.214204790244003561e+04
8.676281899694491585e+03
5.668047223681781361e+03
1.711517254606360439e+03
1.340454211443484155e+03
7.879666163554094283e+02
1.408179456970649426e+03
8.036348926352662602e+03
1.009969311250338069e+04
1.185575722251986372e+04
1.317467074737233634e+04
1.340355568535715247e+04
1.314230105290326355e+04
1.161183945312053220e+04
9.834907698390414225e+03
9.558348646457603536e+03
9.967713683908366875e+03
9.300587251518862104e+03
8.818377792539740767e+03
7.776624877591946642e+03
6.731603207842898883e+03
6.539330912813402392e+03
5.900643614964214066e+03
4.545967027743130529e+03
4.936018830056427760e+03
4.500437887632019738e+03
3.508630313192659287e+03
3.997115888555285437e+03
5.029814934825290038e+03
4.918002411603362816e+03
5.328131990309197136e+03
5.219645095055408092e+03
4.164900056800943275e+03
3.757947603269769843e+03
3.579562016749598570e+03
3.033539783199552403e+03
2.573686989935042220e+03
1.342210039423247963e+03
7.641615254927686465e+02
1.339479829119404997e+02
-1.198570975235054448e+03
-1.656027502539961461e+03
-2.276216430174135894e+03
-3.604417890568931853e+03
-4.979357236642616954e+03
-5.507262842961371462e+03
-6.128700307656396035e+03
-6.581595792328732387e+03
-6.056902178835754967e+03
-5.150359093952491094e+03
-4.360876140983844380e+03
-3.696995136165474378e+03
-3.896572089797197805e+03
-4.110589381203927587e+03
-4.279810525533693180e+03
-4.588096749609147992e+03
-5.215787522522874497e+03
-5.383984292977767836e+03
-4.367779664012148714e+03
-4.897412962910685565e+03
-5.944351517509599944e+03
-5.260523620040262358e+03
-5.333459609954998996e+03
-5.780696016013903318e+03
-6.149286636952018853e+03
-5.991543531427343623e+03
-6.043160813415184748e+03
-6.230996034843159578e+03
-6.217284473233607969e+03
-5.782343444907631238e+03
-5.610887214369701724e+03
-5.529662882644243837e+03
-5.203411200629937412e+03
-4.861750292799523777e+03
-4.933095952807295362e+03
-5.104172711232650727e+03
-5.283890997631234313e+03
-4.852366010838850343e+03
-8.463030049107319428e+03
-1.208775629398663841e+04
-8.417630265002198939e+03
-4.968918840157892191e+03
-7.336024455669909912e+03
-8.005431589316206555e+03
-6.244090449809456913e+03
-7.615408508795114358e+03
-5.761570751221189312e+03
-7.464404812029222740e+03
-7.466378297355801806e+03
-5.291921240573778050e+03
-3.881770732930994200e+03
-6.157219584003041746e+03
-3.570369389124984536e+03
-3.805080903185671104e+03
-2.909723340310929871e+03
-5.250301666040664713e+03
-6.351208950541315971e+03
-3.584319487690610458e+03
-2.540070623328570491e+03
-4.550143569907214442e+03
-6.028214075030015920e+03
-5.928159843100197577e+03
-3.804603050691381668e+03
-5.405622790380956758e+03
-3.264703547294346663e+03
-6.979127976301939270e+03
-6.495126145815782365e+03
-4.037946135201060315e+03
-2.608687828200879721e+03
-3.533908074518044486e+03
-1.906694577851764734e+03
2.289427205084114547e+01
6.443354659996222153e+02
1.013134322795797857e+03
8.848814763523040483e+02
6.810643737402683655e+02
2.784964667533855049e+02
4.591786574710599211e+02
6.840344905020201622e+02
3.491933275804909727e+02
-1.428236640978425100e+02
-5.252770832456375416e+01
-5.122601586733132990e+02
-6.732554218080076680e+02
-6.475710753870712324e+02
-4.778706463896202763e+02
2.802072092773359486e+02
1.003836232370080324e+03
1.631549735688945702e+03
1.913880869909218291e+03
2.649736074015097529e+03
3.216310100671708369e+03
3.309521780566066809e+03
3.707925785029011877e+03
3.876122078324028280e+03
3.695800378012383135e+03
3.110820926161780790e+03
2.766905373991717624e+03
2.915568635507875570e+03
2.505085514130875254e+03
1.950158039932687871e+03
1.577375712821610705e+03
1.080249428171826139e+03
1.477953763221839608e+03
2.020035286032251634e+03
2.127272530126102538e+03
2.110219271343511082e+03
2.441133329530191531e+03
2.468354307216713096e+03
3.008037823624727025e+03
3.373846103868003411e+03
3.875162896517451372e+03
4.100518387464021544e+03
3.956968385621959442e+03
3.468988052730283471e+03
3.655364143272298861e+03
3.754278448320243115e+03
3.240667085031473107e+03
3.013789108916108034e+03
2.478230248864405894e+03
2.277060553309747320e+03
2.238402525383516149e+03
1.739317961005880079e+03
1.404698363780137242e+03
1.372103476531541446e+03
1.866204085127386861e+03
2.265030232383943712e+03
2.561464381220966061e+03
2.879405906299882190e+03
3.211315276794091460e+03
3.480651782928331158e+03
4.143759605403093701e+03
3.645332405904268853e+03
3.576186927966308758e+03
3.756402455581290269e+03
3.714566564179943271e+03
3.158442345835361721e+03
2.300449590250756046e+03
2.025164743375599983e+03
1.855712140195456868e+03
1.968772908331000053e+03
1.576450040483696966e+03
9.391749746380080524e+02
1.049856846401039093e+03
1.213528953420220432e+03
1.826133052222062588e+03
1.855478554744087432e+03
2.394573170216600374e+03
2.432739133581961596e+03
2.402153589056691089e+03
2.410149895836944779e+03
3.128032596301545254e+03
3.926563271703455939e+03
2.698714636821682689e+03
3.465936371240420044e+02
-2.586914561106764722e+03
-4.720539114910853641e+03
-5.431637553337000099e+03
-5.887322031001871437e+03
-4.184145324513943706e+03
6.059829421176344795e+02
5.719777072337005848e+02
-4.773054178233221137e+03
-7.363896563916519881e+03
-7.402587688345375682e+03
-6.441174616956516729e+03
-5.676752465030639542e+03
-5.554348763793417675e+03
-5.162936696172148913e+03
-4.378442166818547776e+03
-3.807744619741757106e+03
-1.025942548301227816e+03
2.666904225354089704e+03
3.250841602976291142e+03
3.128768815205880856e+03
2.764695848175519131e+03
2.288646885790345095e+03
1.325452463968165375e+03
3.899435728714513516e+02
4.431402876871615035e+02
-1.629953400492844082e+02
-3.415957851213765366e+02
-5.427044094586218534e+02
-9.783281504112839002e+02
-1.354678277560885590e+03
-1.261871303648187450e+03
-8.428256527527991011e+02
-3.276036089035680448e+02
-3.482683652865511590e+02
-5.049114058953093718e+02
4.473979508162274215e+02
6.405245504399993024e+02
5.272144712017015991e+02
5.494940041038755680e+02
3.883498648615555453e+02
6.382908829691254482e+01
1.476619261434425212e+01
-5.906984528961478986e+01
-1.227860921963201690e+03
-1.064669513527459912e+03
-6.944079418439849860e+02
-1.787215769465397216e+03
-1.902187435181794399e+03
-1.685487425050588399e+03
-1.893520090950360100e+03
-2.529349076828475063e+03
-2.236987652072137735e+03
-1.379437641633044223e+03
-7.919155310534041519e+02
4.141995208173463539e+01
2.387927055631094220e+02
8.655093188772176518e+02
1.125112421389314477e+03
1.114074649877217325e+03
8.879674661071612718e+02
7.397905724911674952e+02
4.169552391139689007e+02
1.145113243144272843e+02
2.903652462058635138e+02
2.146846795066221958e+01
-4.681777977316313581e+02
-3.639842808344349692e+02
-9.630625718827590163e+02
-1.289341503042761360e+03
-8.522248760954192903e+02
-6.112896015126374323e+02
-3.240070005779021471e+02
1.594772418470824960e+02
3.871480090043687028e+02
-9.150133355465897012e+02
-2.076013277148807902e+03
7.911242760818901161e+02
1.570281705836494211e+03
1.537330370880893952e+03
1.400284777354404241e+03
1.218973390247049110e+03
1.414345834303031097e+03
1.375338533102716838e+03
9.558452197843324711e+02
4.508434774320780889e+02
5.128702958495192377e+01
-5.230062462022236787e+02
-6.800234616233182123e+02
-4.537705857352335670e+02
-2.663750334905429327e+02
-3.749904881575058084e+02
-1.785940703733250814e+02
3.787025218970125024e+02
1.183903350910175959e+03
1.432023459865482664e+03
1.648008251977166765e+03
2.336791115012320461e+03
2.735279325706530926e+03
2.936444006027141313e+03
2.794311030209823457e+03
1.880761275739589337e+03
1.654700561557310493e+03
8.451096724729428615e+02
-2.670904906305412965e+02
-9.799393357761742891e+02
-6.064749456640820426e+02
-7.427408741704215345e+02
-1.111833605587007469e+03
-3.347494379116410528e+02
-7.546652684072292949e+00
8.596462370569140532e+00
6.460809648198467414e+01
1.024026641608980839e+02
1.319520273838863602e+02
5.662678726274236851e+02
1.188270935016270187e+03
1.907936392114292858e+03
1.719219922208300886e+03
1.847105902542402191e+03
1.367494218414683473e+03
1.333187126425845008e+03
1.263234414347852862e+03
1.468601150048356658e+03
1.365137551011507185e+03
9.868497185656502779e+02
3.536485625284629464e+02
-2.195121236418779347e+02
-5.717298456457974680e+02
-4.510309735561403386e+02
-7.374210151641486846e+02
-2.179896902211439169e+02
3.619031362990418899e+01
3.810315009238098583e+01
7.868737264632453332e+01
-9.117471529623185234e+01
9.135092320482343666e+02
1.965734830391165133e+03
1.977416497481313399e+03
2.546466338435018315e+03
2.358657538165509322e+03
1.540445618983381110e+03
1.776203261817339808e+03
1.659075957573070127e+03
1.485675090322165715e+03
3.367079289823045087e+02
7.256788160680730471e+02
6.567077744930612653e+02
4.706487735466860158e+02
3.112383265568606703e+02
2.129125057472313074e+02
2.705463806716837212e+02
8.679345502376310151e+02
1.328688742076837343e+03
1.410350349382957347e+03
1.471408791564910871e+03
2.001320460845705156e+03
2.778575161265374390e+03
2.811293236153237558e+03
2.758832510596551401e+03
2.715546443900359918e+03
2.674553078693793395e+03
2.165105337104941555e+03
1.362948844892640636e+03
7.097758917951335889e+02
3.915207857653426800e+02
7.657581290469462374e+02
1.151016836158567230e+03
9.313823681075821241e+02
3.719000887189029072e+02
1.542282681005122242e+02
1.052473975667834623e+02
2.034117394531000969e+02
8.791398781274116345e+02
2.208575275944975601e+03
2.910754461287447612e+03
3.022840551167786543e+03
3.085699157774721698e+03
3.176276690192727983e+03
3.253544628263538925e+03
3.271447685199525040e+03
3.038013617662764773e+03
3.459249995124698671e+03
3.280086213905530713e+03
2.497504473310809317e+03
2.467496363673079031e+03
1.927967469244171298e+03
1.069944620367617972e+03
1.036431010724682665e+03
1.195341654939948739e+03
1.295669559386133415e+03
9.074649569060740077e+02
-9.412539388491255750e+02
-3.262536379325541930e+03
-5.585364917552496991e+03
-5.436650107597128226e+03
-4.323455592466722919e+03
-3.911730510438610054e+03
-4.618436247245197592e+03
-5.141526740497245555e+03
-4.435000938622750255e+03
-4.316888518285207283e+03
-4.395127085033451294e+03
-2.877709086394197129e+03
-3.359595274121213151e+03
-5.056736714985016988e+03
-5.457226174048964822e+03
-4.650095527184617822e+03
-1.818250013112346778e+03
-3.908630478775663505e+03
-6.341242952229284128e+03
-5.713037058166505631e+03
-3.219922546059929118e+02
1.470939312963297198e+03
-2.095229640175435634e+03
-4.107448984800960716e+03
-3.524605786596740018e+03
-3.821630139017040165e+03
-3.685537875451238961e+03
-3.077260571594410976e+03
-2.702716552463966764e+03
-3.279836447037972903e+03
-4.138595721473092453e+03
-1.246984200839195864e+03
1.640035640375011099e+03
1.980557276592499420e+03
1.666611476711368823e+03
1.490221904590243867e+03
9.693890374113325379e+02
1.186204783973674921e+03
9.267177474182075230e+02
1.233005580294106267e+03
1.502131720409003265e+03
1.712178703767707702e+03
1.964175638922825783e+03
2.722290585473560895e+03
2.874573531076122890e+03
3.396048775696786379e+03
3.564800473350302127e+03
3.548964234976797798e+03
3.525620638094606875e+03
3.097763169337632917e+03
2.779438604141420001e+03
2.537713785398762866e+03
1.931676540461913874e+03
1.187360883071361059e+03
1.029782229151607908e+03
6.440523619294112905e+02
2.571873406619441198e+02
-2.196935368135377757e+02
1.904356553103884266e+02
9.766639888851656224e+02
1.481143139029880786e+03
1.794913448047275779e+03
1.930018441981689193e+03
2.071464609552325328e+03
2.412460215638492173e+03
2.634121702991414622e+03
2.561914504086295892e+03
2.309936979221731235e+03
2.228166708331500104e+03
1.807715387348747527e+03
1.120410385070154234e+03
5.451791428720143813e+02
-2.854764499651391318e+01
-4.907527069538869000e+02
-1.020757249215831962e+03
-1.212218692757599229e+03
-1.182082397252871488e+03
-1.293366788557984137e+03
-1.524952406193686556e+03
-1.491722369149329779e+03
-9.476791766971708739e+02
-6.826125947823592242e+02
-5.619447634237028524e+02
-1.707983351315319851e+02
7.353737772963424391e+01
3.519092569292178609e+02
9.351966652099928297e+02
1.203481192835965203e+03
1.316841603742607958e+03
8.433005786796102257e+02
1.858292204196773127e+02
-3.184761645413811380e+02
-6.956618472167658638e+02
-1.269619413188990848e+03
-1.240312399696987995e+03
-1.567737222880194849e+03
-1.641891306522624518e+03
-1.379774483092063520e+03
-1.094338573949351485e+03
-1.331545915415685158e+03
-1.722319508402387328e+03
-1.544722858826406082e+03
-9.466669221080610441e+02
-5.650627990998935957e+02
-4.188990454388666649e+02
2.778627741687931803e+02
7.702255188783514086e+02
6.702634745055062240e+02
1.005989291732505308e+03
1.205417610850086703e+03
4.954606785501377431e+02
1.541362698827971087e+02
-4.884016363949767197e+02
-1.220251091751996228e+03
-1.055446721844409467e+03
-9.659547662414370279e+02
-1.266657634963822147e+03
-1.644688973933477200e+03
-2.206149879325019810e+03
-2.335946479048211586e+03
-2.107072819493103907e+03
-2.060484677853120502e+03
-1.518268471893610467e+03
-6.823452663632546091e+02
-5.568878265887213530e+01
3.946958980216041368e+02
1.068796050340863076e+03
1.656652123090559371e+03
1.379254704503188805e+03
1.163546515815135081e+03
8.650614532434862269e+01
-2.582908493098993404e+03
-6.741757514921910115e+03
-8.460978582823900069e+03
-7.406645319819936958e+03
-2.481845090705335679e+03
-1.604579344772894274e+03
-1.459851984712046942e+03
-1.341659244062277594e+03
-8.750640242756164753e+02
-9.488782094732736141e+02
-1.042109859116022335e+03
-3.480826560802773315e+02
5.983197074484061204e+02
1.897098511921988575e+03
2.213227777217285166e+03
2.120672582961723037e+03
1.846385926775182497e+03
1.810373750737828686e+03
1.881636397675986927e+03
1.243126753878340423e+03
6.477802588316988022e+02
1.585779545177976217e+02
-3.865357385330747206e+02
-3.285876886750523340e+02
-6.596158337364386171e+02
-9.376713106168126615e+02
-1.329809894196720734e+03
-1.370126243932607395e+03
-1.515666467887059071e+03
-1.043353267096836134e+03
-2.961890769533018215e+02
-2.872434974805793786e+02
1.824872057464683621e+02
9.689991752674658301e+02
1.646215418505536718e+03
1.831193770199749224e+03
1.620909806287268111e+03
1.853361820532679985e+03
2.164565115472865727e+03
1.836442758568141699e+03
1.241875716424197208e+03
6.668621528984449469e+02
6.273669727635443678e+02
6.792478895564308914e+02
1.764972058512256012e+02
3.810218760285926010e+01
-3.779573662894816835e+02
-3.666829118231087250e+02
-2.190921955768613429e+02
-4.002241440841873441e+02
-1.331364346352100370e+02
2.020832549414676009e+02
7.745204523785700985e+02
1.327162944768391526e+03
1.494019059960141476e+03
1.619021339992161757e+03
1.304189849714556658e+03
1.487482509757708613e+03
1.906877296942637258e+03
1.488366470962238509e+03
1.084916819472567113e+03
5.445159577357002263e+02
7.212360138443888502e+01
2.169241888534416773e+01
-3.327903326423943895e+02
-4.904263890121529244e+02
-3.211997962211476079e+02
-2.601327639941907819e+02
-7.702543915601893332e+02
-6.285044128478456287e+02
-1.480001009277280559e+02
-1.498127451920316844e+02
-7.338815512628336819e+02
-3.343164710786038540e+03
-4.383610867207334195e+03
-5.622269618449623749e+02
9.849228588188093454e+02
-1.127134777754788274e+03
8.275712100049703395e+02
-1.703935518785604245e+03
5.002308117209070133e+02
-1.585912933313486974e+03
-3.686377470924016961e+03
-3.330234212132836092e+03
-2.308419700620871026e+03
-4.719852490664706011e+02
-3.473028889416161292e+03
-3.080502373206203174e+03
-3.826331047134882283e+03
-2.875347542503614022e+02
-1.186153568328607889e+03
-3.896244593551037724e+03
-6.047339104756952111e+02
-5.535931736682254041e+02
4.651411412177776583e+02
2.472513714988672291e+03
2.010540617187514954e+03
-9.447077999651872915e+02
-2.539280756426238895e+03
2.158146242015940288e+02
1.758516299156480954e+03
-1.426191769977852346e+03
-5.328701865058512510e+01
-1.067758548931686704e+02
-2.074692074593839607e+03
-1.160430299161701697e+02
-2.711780860914280311e+03
-2.704979831880131314e+03
-2.933722910111324836e+03
-6.379680355986522500e+02
1.383670438067123030e+02
5.162819693406917168e+02
5.458228186312593380e+02
6.659513354392122437e+02
1.589692074306819677e+03
2.472082685394039345e+03
2.482085530488144741e+03
3.036733126541163074e+03
3.123082783359316181e+03
2.242074962601283005e+03
1.813722645988769500e+03
1.599069476593698482e+03
9.510364858889582820e+02
2.256357935548475382e+02
1.207555589787054231e+02
-3.544065055271501308e+01
-3.507966283165641244e+02
-5.922791411329809534e+02
-1.488837462320110205e+02
-2.335895612081473303e+02
5.641697633033751913e+01
4.039684194535565780e+02
7.371063993330825497e+02
1.086568632135247299e+03
1.382930731152579710e+03
1.729963229988500416e+03
1.681632917755652898e+03
1.948946499295335570e+03
2.408204554471123629e+03
2.290546735904775232e+03
1.588898469112925113e+03
1.258140655224950478e+03
1.127071013688214634e+03
8.430900185421867263e+02
4.231975377121588622e+02
3.281457641607531741e+02
2.935163287853003453e+02
1.404973003623389900e+02
-1.343620954719957865e+02
1.320413933731816485e+02
3.662702768050029931e+02
4.941272886251675800e+02
9.234497040794768736e+02
1.213737740271026041e+03
2.113012733862463392e+03
2.442005433065519355e+03
2.546491128657596164e+03
2.625744154959975276e+03
2.721614550891515137e+03
2.570968813007289555e+03
2.206771346850068312e+03
1.585371705988489339e+03
1.308566796933220758e+03
7.790903198539629102e+02
4.602246115839886329e+02
1.820243998336656830e+02
1.253406060223039020e+02
1.251327314109158948e+02
3.324323163969019674e+02
7.741429559052377272e+02
1.031295125942996492e+03
1.387843001915849072e+03
2.181895082603612536e+03
2.852503177420645443e+03
3.135640079470760156e+03
3.256307490596024309e+03
3.721504931207926347e+03
4.002228171145396118e+03
3.428499002157282575e+03
2.680356905233733869e+03
2.444730373785637767e+03
1.983647918617246660e+03
1.539077471516743799e+03
9.730159912015608370e+02
1.141200876359067706e+01
-1.347758740691417358e+02
-7.505453053124474536e+02
-1.047876025653498800e+03
-2.089727901560015198e+03
-3.846123316672715646e+03
-7.339032658822001395e+03
-7.555469382629925349e+03
-7.286370956079404095e+03
-7.087722154992498872e+03
-6.059512091539380890e+03
-5.581659956676048751e+03
-2.464157465315530317e+03
2.182994486359849361e+03
6.328122473306444817e+02
-5.080720389673943828e+03
-5.810649866111662050e+03
-5.546047450751842916e+03
-6.313570966435400805e+03
-7.018374861570253415e+03
-6.675531102035678487e+03
-6.475055412593871552e+03
-3.960973258796940627e+03
-4.678242008604339389e+03
-6.200813875460784402e+03
-1.399711029705982810e+03
1.075042511109979159e+03
1.425498482941024577e+03
2.124653059771696007e+03
2.741559003093584579e+03
2.974214790230718791e+03
3.231687180104939671e+03
3.552034830134059575e+03
3.083293761914163042e+03
3.441475611527826914e+03
3.552581026616066993e+03
3.190597333759642424e+03
2.770544001252070302e+03
2.212360338650795711e+03
1.999059123931032218e+03
1.299644324151612409e+03
9.241524612622345103e+02
4.896281347157920436e+02
1.530620814450063847e+02
3.194365461360573590e+02
5.007564430255396246e+02
7.510602695513927074e+02
5.593499997254533582e+02
1.397649800090373219e+03
2.388035662184134253e+03
2.233478029812842124e+03
1.929045116797414494e+03
1.951815145340348636e+03
2.325784253495774465e+03
2.190992551557203114e+03
1.810491691221404835e+03
1.255253864539536835e+03
1.601280786176703714e+03
1.063584902733855643e+03
-3.208272325999464556e+02
-8.319503078773620928e+02
-9.057547522446569701e+02
-9.042234129273244889e+02
-1.529296396305329608e+03
-1.416951175454806162e+03
-1.091256329627736932e+03
-9.402203669772707144e+02
-7.918249809277173199e+02
-1.430567098985456482e+02
6.461151998846947890e+02
1.538797829372536171e+03
2.062978917991717026e+03
1.978897529445033570e+03
1.848669252771972197e+03
1.977434300039509935e+03
1.506040255199876356e+03
7.842957527019641475e+02
-5.131364822939316284e+00
-6.569782467861031137e+02
-8.001679155673720061e+02
-1.791762101154638458e+03
-1.903686719140517653e+03
-2.042870660942090581e+03
-1.765395625117992495e+03
-1.177314789380162438e+03
-8.546337452858383585e+02
-5.944089356551504579e+02
-4.895533892909548968e+02
-2.199827661938070378e+02
3.763413732566076533e+02
1.066400509446425758e+03
1.459218242449300078e+03
1.441850968986202133e+03
1.241304826510536941e+03
9.855807012702490510e+02
1.170713093468677926e+03
1.336647965794195215e+03
9.374107164768905704e+02
4.259980659313756064e+02
-6.465919146070467605e+02
-1.780402529053405942e+03
-2.152465031065908533e+03
-2.202809513655417049e+03
-2.182438902644705195e+03
-1.838277142146803044e+03
-1.152363506705271220e+03
-1.353736655471594304e+03
-1.377418833085724373e+03
-7.153898241550780313e+02
-2.645700010209931179e+02
3.600093932643693506e+02
6.783038691877047768e+02
9.963669118746008735e+02
1.298209710661091776e+03
1.290838525681000419e+03
1.016218047556300007e+03
6.432700155649763474e+02
1.000360861515563755e+02
-4.235093434584838974e+02
-7.173919761609789703e+02
-9.546601743585950999e+02
-9.043615746665706183e+02
-9.264848832120618454e+02
-1.561061351192635584e+03
-1.726114774641750500e+03
-1.414671126567061719e+03
-1.291776365681705784e+03
-1.353430830526248201e+03
-8.566263296760014327e+02
-1.612917256047828403e+02
4.084737326032440023e+02
9.736116237100393391e+02
1.096191912214451804e+03
1.281229920496771228e+03
1.359729452891573828e+03
1.585649803031577676e+03
1.504874729767360805e+03
1.154406189872728419e+03
1.030197673675590977e+03
5.581864116834823335e+02
-1.806631149505518579e+02
-2.703474764505594976e+02
-4.129781089059417241e+02
-1.073554214580287180e+03
-1.879139794521917338e+03
-1.403857701891469105e+03
-6.690479636664028931e+02
-5.287922785838632080e+02
-9.932354732981854895e+00
8.306933964318138806e+02
1.546759405207639247e+03
1.660536703584707993e+03
1.927566322235237976e+03
2.194205832551294407e+03
2.351023392082087412e+03
1.609733850212991001e+03
1.737368555244463550e+03
1.431708187066798700e+03
4.048066520620616870e+02
-1.313739283280153529e+02
-9.896954332639682050e+00
-8.686103148469733526e+01
-9.952837371890829843e+01
-4.373105957438496603e+02
-4.904861062747370397e+02
-2.234005673874109448e+02
-4.058246403749498086e+02
1.593849925685909774e+01
1.859523309612279434e+02
9.205607817108533482e+02
1.112771929071148406e+03
1.512373446782597739e+03
1.936939610067255671e+03
2.395727474351875571e+03
2.668109436772420850e+03
2.427607059250277416e+03
1.896149959554287989e+03
1.250134804457570681e+03
1.288390481550373124e+03
1.010855986548638271e+03
4.566039439008215481e+02
-9.446569405224954608e+01
-2.016830184220007141e+02
-4.339935290013103213e+02
-5.939943718957481167e+01
-1.888733069342827378e+02
-1.114304735817624987e+02
1.608325072890783645e+02
6.788616493862127754e+02
1.120801304405682231e+03
1.648626732301569746e+03
2.150342362062100165e+03
2.281017897635664212e+03
2.481614695343484982e+03
2.357143344207230257e+03
2.586624073458851854e+03
1.170066766817259804e+03
1.101409380735936793e+03
1.268621227732379111e+03
7.807230313248478524e+02
-5.013305598263715979e+02
6.634345005338054762e+02
7.440685573157029467e+02
-2.194461749930177120e+03
-6.754182049851762713e+03
-1.768101796810246924e+03
-9.923027408510735370e+01
-1.852519857946955653e+03
-4.840000198465635549e+03
-6.587589847720128091e+03
-6.583260108474069057e+03
-6.259058024371315696e+03
-5.766874455269077771e+03
-5.423615417485914804e+03
-5.073352052793070470e+03
-4.233107329858563389e+03
-4.194825325345709643e+03
-4.516495102906342254e+03
-4.687146252271120829e+03
-5.161778513198091787e+03
-4.085365149532408850e+03
-1.738578968128199733e+02
1.298691454086968633e+03
-5.797048967406532256e+02
-4.884949275158026467e+03
-2.369064224257969727e+03
1.183978083135559473e+03
7.981540467521024311e+02
-3.480465350117864546e+03
-2.828281480476575211e+02
2.623103570800485613e+03
2.073389749570683762e+03
1.500712325954591222e+02
2.970211149526267945e+03
3.215859883709794758e+03
4.750022223816487781e+02
5.937065025400127070e+02
2.283000881719904555e+03
2.392854525456942611e+03
2.009294176662126574e+03
2.157350970683950436e+03
1.715031016060986758e+03
1.075343252517955307e+03
1.233238890155722771e+02
2.090018531452489299e+02
9.154060028893158005e+02
1.436567882811798881e+03
1.625511299653531751e+03
1.897280770180431091e+03
2.212926836409753832e+03
2.420518714436966093e+03
2.936150696248731947e+03
3.116840268727752573e+03
3.458651848840053844e+03
3.339640510515231654e+03
2.930830475542572003e+03
2.668266988209317788e+03
2.338996390443527162e+03
1.812990388685285325e+03
1.314299138910242618e+03
1.090826956756702202e+03
4.766337523610362155e+02
3.658825690823015293e+02
-9.198275391897352904e+01
-1.521449721434657079e+02
-3.425595068572328614e+02
-3.711765513996963932e+02
2.310091626930579025e+02
5.730158197775241433e+02
8.546857711830467679e+02
1.204129093838612107e+03
1.304496986975535265e+03
4.298137370268914879e+02
-1.586130509405723387e+03
9.749046097314071631e+02
1.748041354353706311e+03
1.397283582318953449e+03
8.725866339921602730e+02
3.670932261108728767e+02
6.260971974657795869e+00
-9.669622711401380855e+00
-1.234449885633320605e+02
-8.664066290335333633e+02
-1.129430578818130698e+03
-1.237636460467068673e+03
-1.032092587448264112e+03
-1.116778184020478193e+03
-1.185658376257059444e+03
-1.009750254985164361e+03
-4.650453563051825085e+02
2.155196823802053530e+02
5.299169504549398653e+02
1.155168409995668071e+03
1.594303534402308060e+03
1.289351869173164232e+03
1.282316015500547564e+03
1.220176360692444177e+03
8.559393699038564591e+02
5.336093917025862083e+02
3.581564348618910003e+02
2.215963408152627210e+02
-2.411520778434891099e+02
-7.330928562766240475e+02
-8.602839405212312158e+02
-1.009637734404398543e+03
-9.961970199951789482e+02
-1.178040944350950213e+03
-7.841009896820611402e+02
-5.413621108503558617e+02
-3.178375829685805343e+02
-2.255456814350178831e+02
5.652074338784186835e+01
6.744066776543544393e+02
1.177093411685561023e+03
1.257482299909702533e+03
9.916349849011327251e+02
9.459157180147023780e+01
-5.217289276285229107e+02
-9.223536646865716193e+02
-1.007280496362126769e+03
-4.045159000650293706e+02
-3.661349586096687858e+02
-7.441953335267771763e+02
-1.294698412031015778e+03
-1.679651319985660393e+03
-1.934093006578240875e+03
-1.932063927448744153e+03
-2.414604674595302185e+03
-9.827207910644974618e+02
-7.540114709376095448e+01
1.973718075826496658e+02
1.655711721836404848e+01
-1.328431023403314839e+02
-5.480651673973764559e+01
-3.528470883235110023e+01
2.397290045025021072e+02
-5.048821524065372159e+02
-8.313554452833065511e+01
7.698660017356909293e+02
4.481190019960978930e+02
6.960000349739813430e+01
-1.357156349096496797e+02
-6.639105916952534017e+02
-1.127000024829132371e+03
-1.092994006646636535e+03
-9.099368541627640070e+02
-8.718750932408610197e+02
-4.858381683412576422e+02
-1.798276907775942277e+02
6.015726962023822466e+01
2.491731563967212537e+02
7.081854677176773976e+02
1.068150222577173736e+03
1.381049062326887451e+03
1.681910499821660778e+03
1.801738155787867981e+03
1.660546627465757183e+03
8.793347935764676322e+02
1.980238256710466089e+02
-2.064229882890535066e+02
-3.130653305095816563e+02
-3.919544897339150680e+02
-4.651426462713287151e+02
-7.415891016094549286e+02
-1.182301487915415237e+03
-9.723390020802964955e+02
-5.697063428036614141e+02
-4.384222252229478727e+02
-1.094980142048132024e+02
1.590812492556550239e+02
5.873370827655386393e+02
1.307228565625251804e+03
1.372784054461846836e+03
1.561036251104677376e+03
1.958986422325509466e+03
1.918657975162990624e+03
1.820017265121732180e+03
1.417030148337388255e+03
9.326264989761087918e+02
6.328161973977827301e+02
3.316418185305964812e+02
2.430722439239289088e+02
-1.229319605678975904e+02
-6.553883346705571284e+02
-9.432878052990615743e+02
-5.036065108203148384e+02
-5.374054693457159146e+02
-7.656731583641012548e+02
-6.683920489347395915e+02
-8.654039439252152022e+01
7.799056069662123036e+02
1.602936032020846824e+03
1.749530152050597962e+03
1.957741522851338232e+03
2.099583515802609782e+03
2.152112795961959364e+03
2.029331185410628677e+03
1.622235892868302471e+03
5.667106898600403611e+02
1.158500551484165157e+02
-1.479290051061032045e+03
-5.728675807792807973e+03
-3.910395913135974752e+03
-1.065474931144859738e+03
-3.346866905659300301e+03
-5.305598894127791027e+03
-1.759700133492302939e+03
-2.842166396616090424e+03
-1.060948241996141633e+03
-2.403049901095414043e+03
-2.174648938569244194e+02
-1.785176683577258700e+03
-3.280968818694582296e+02
-2.222742622370985259e+02
2.564339238652632048e+03
3.648258539918223846e+02
5.491755558965521686e+02
-1.561646734347597430e+03
