1.158564420464256045e+03
5.580590227691052405e+02
8.446691371304547147e+02
1.495379090605420288e+03
1.220168450457473000e+03
1.820552692213531998e+02
1.177052547193834926e+03
1.769185004890708569e+03
8.144489115901706100e+02
-1.433082247392024783e+03
-2.535531938977857408e+03
5.170572267595422318e+02
1.436777904463994446e+03
1.774616990093848017e+03
1.964666742776798174e+03
2.013131973272664482e+03
1.766379025241196359e+03
1.577253574999867169e+03
1.103831996786133232e+03
9.053318037242603395e+02
8.672266975609844621e+02
3.893595389890650722e+02
4.045585302759992032e+02
5.135971370457024250e+02
3.997959511731498310e+02
3.062378007412377201e+02
5.338114207352822405e+02
2.393093886702440329e+02
8.008976397992265674e+02
1.261385764321324586e+03
1.276490647323204939e+03
1.418330350800631550e+03
1.661137372101852179e+03
1.525700425099166068e+03
1.676078534490313132e+03
2.305145546138247482e+03
2.129911869704651963e+03
1.587355659905235143e+03
1.148522719345030737e+03
5.533622544413015021e+02
2.648364234058868192e+02
9.369234635079320697e+02
1.305579422230463479e+03
1.504862167205016931e+03
1.325746184844240815e+03
7.932446495735777034e+02
6.233441562090906700e+02
1.790263246698324622e+02
-2.727471235120117399e+02
-9.296256939019967547e+01
1.148361970922571118e+03
1.553236208038825225e+03
8.946533337917650215e+02
1.193651730848128182e+03
1.356196847051932991e+03
1.346215840194009161e+03
1.669715109051474201e+03
1.584634132665183415e+03
1.320059945552624185e+03
5.960812220139206374e+02
1.227605533009607825e+03
1.964515169017700146e+03
1.998813962781219061e+03
1.583518094279872912e+03
8.776008033794339553e+02
9.890565582381359491e+02
5.659201914632136550e+02
-1.726729548927148926e+03
-5.541888917374557423e+03
-7.233620725566320289e+03
-6.881897239486372200e+03
-5.875700946810116875e+03
-6.419069352908630208e+03
-6.785110564412248095e+03
-6.423630056939375208e+03
-6.903642520006937048e+03
-7.589263047279912826e+03
-7.415277406578142291e+03
-5.775880691046188986e+03
-3.908374234687455839e+01
7.761084565489062470e+02
-2.790281209348889206e+03
-1.959223213360564841e+03
-5.186464632248995485e+02
8.093806777125337248e+02
8.537623328231514961e+02
1.278566304310277701e+03
1.569828507359941796e+03
9.276173222823267679e+02
3.849478742156512681e+02
7.227569136258766775e+02
1.384087545766737094e+03
1.354029042382406715e+03
1.516529900749280159e+03
1.619548971499559229e+03
1.256099482774900480e+03
1.427239957949243490e+03
1.421016803032792041e+03
1.411465607595789152e+03
1.447537717986330563e+03
1.139260890530273173e+03
7.756440670558679358e+02
6.626892061599186263e+02
8.003752399424669193e+02
9.957186861397027542e+02
7.928347851010506702e+02
6.278817861162976754e+01
4.493738204555016935e+00
1.544959262955114582e+03
1.627237585961035165e+03
1.181384923823711460e+03
1.130412289693617822e+03
1.220287585534257005e+03
8.490752928459653504e+02
1.222807244291793268e+03
1.420491863824978282e+03
1.318087429699513223e+03
9.035747014979941696e+02
4.979985510661875310e+02
4.014530963298649340e+02
3.479585416017778812e+02
5.054385804287959871e+01
2.132542852435801990e+02
-3.692700863674262735e+01
-1.559706312690897505e+02
-6.086044679455728357e+01
4.435194430818793165e+00
4.888640435701566389e+01
-3.941152106905641972e+01
-1.443223006982437653e+02
-5.974770346055282744e+02
-2.203145539663456475e+03
-2.176234206891285794e+03
-7.197482908830758106e+02
-1.181104900034570591e+02
2.553054454822346031e+02
4.883604507132808976e+02
-7.361204657970500875e+02
-6.199726066992579945e+02
-1.721308233820220721e+02
-1.481829872488465753e+03
-1.061985222804122941e+03
-8.605892479662256846e+02
-9.175469330862437118e+02
-9.578368917824598157e+02
-7.795339835467659668e+02
-6.666711396272841057e+02
-5.131922697405038889e+02
-5.990954453754394535e+02
-8.692684442529734952e+02
-7.286674540301874003e+02
1.262233520847540369e+01
3.876151817290169674e+02
5.444011997362333659e+02
3.879767282064830169e+02
9.533448987222007531e+01
-2.345841406964538862e+02
-9.176186029992936710e+01
-1.250948756230808101e+02
-2.606252869489213708e+02
-1.534131858854899022e+01
-4.872083825166799329e+02
-1.038202416907946144e+03
-9.474052162517327815e+02
-7.868811775665964205e+02
-9.476142957002905405e+02
-9.206004684427023221e+02
-6.897331758604517518e+02
-5.209867748823016882e+02
-2.444594453266198570e+02
3.168620860189739687e+02
7.120759079748675049e+02
1.040118759959306999e+03
6.599388813716689128e+02
-2.853999469281480401e+02
-6.294089949440557774e+01
2.662548244549075207e+02
-8.081216856219900491e-01
-1.810981478403107303e+02
3.234532604930784601e+02
3.248172134642032347e+02
-5.619144521513835144e+01
-7.986089820158196062e+02
-1.229449319242751244e+03
-6.356952496460861539e+02
-1.352181876437687720e+02
-9.622421709678005186e+01
-5.427556764747380385e+02
-1.926360360960891853e+02
8.418140953661990977e+01
-6.737473392221659196e+01
-6.934275793254704467e+01
7.111845410635253302e+02
9.771139319438514121e+02
9.054949123416932935e+02
1.099368393704848359e+03
7.127035816996935864e+02
8.185370418140074662e+02
7.997291109863894008e+02
5.391945177109070073e+02
1.749594760522932404e+02
1.950299919658072838e+02
-6.644738957532808854e+02
-5.316219290604898333e+02
-1.327299693480831138e+03
-4.364230411241279626e+02
-4.658455727024573179e+01
-1.812058428309587441e+02
2.046061147502178130e+02
5.754036154899780513e+02
8.562535189833459981e+02
1.161359632123811252e+03
1.225622636513082853e+03
1.418341877242784449e+03
1.817536564930869645e+03
1.745142862958051865e+03
1.460532762599294983e+03
1.419763804925701152e+03
1.385771397444372496e+03
1.424689974667637216e+03
1.371358078843621115e+03
1.046515194112254449e+03
7.126511732775096561e+02
6.833678427964497359e+02
7.893027251013296564e+02
8.344188450358398086e+02
9.049950549602402816e+02
1.085482377176090267e+03
1.564226434601119308e+03
1.800892171419990518e+03
1.392397186296947893e+03
1.546164003868761938e+03
1.777046409507537646e+03
1.967675769823481687e+03
2.101711177675890212e+03
2.129808746934918418e+03
2.153827463318164064e+03
2.252501499412208886e+03
2.262891905432727071e+03
2.001966092531366030e+03
1.915889842636137246e+03
1.753849708321612070e+03
1.629772130037354373e+03
1.033122169358962310e+03
1.091066348798171248e+03
9.105514723150970440e+02
8.596338631622713820e+02
7.336621780050937787e+02
8.704824425063188755e+02
1.572504148272328621e+03
1.875353093659418846e+03
2.530621588479426464e+03
3.052324088601613312e+03
3.088620139948479846e+03
2.794579148746469855e+03
1.736181255887497628e+03
-6.290343804555195675e+02
-4.206893529557660258e+03
-6.144863393751208605e+03
-6.319082351896060572e+03
-6.275678913646441288e+03
-5.870577569423695422e+03
-5.803480260521516357e+03
-6.018308054779828126e+03
-6.137355880466239796e+03
-5.564275337606285575e+03
-4.946525918906811057e+03
-4.864433930645840519e+03
-4.944802034365778127e+03
-4.801268485723898266e+03
-4.272410859829898982e+03
4.379251362771810818e+02
3.862741605177673591e+03
3.240925482487519730e+03
-3.915442950621874729e+02
-4.572611428647590401e+03
-5.009149042712829214e+03
-4.814539906905213684e+03
-4.935585068550070901e+03
-5.570545909429232779e+03
-5.327301017883511122e+03
-5.148828129181953955e+03
-5.360792043670144267e+03
-5.196203940935317405e+03
-1.617271084701578729e+03
2.861184019224155691e+03
1.809059985053081618e+03
-1.176929004799355170e+02
5.766645435341773691e+02
2.121878985643658325e+03
2.896538516985524438e+03
2.871521520983634673e+03
3.359835576446811046e+03
3.423305265240740027e+03
3.647401163830896166e+03
3.823898451359986666e+03
3.950753552568173291e+03
3.722609976212132551e+03
3.318152935305457959e+03
3.138409958645152528e+03
2.984624791838203691e+03
2.940721782400433767e+03
2.918602422062243477e+03
2.660990398295179148e+03
2.664411948312422737e+03
2.700044007025546307e+03
2.484781794472854472e+03
2.550607815338348701e+03
2.535862880399758524e+03
2.840971558657864534e+03
3.088767534701419663e+03
3.138508256631520453e+03
2.895374805815558830e+03
2.429523828223908367e+03
2.431773939996713125e+03
2.783665095914443555e+03
2.747882159917500303e+03
2.429512655268253184e+03
2.038789740408272337e+03
1.859058513080108241e+03
1.531301170185345882e+03
1.149356658460039853e+03
5.266948460885865870e+02
4.803362338115483681e+02
8.050730250452413657e+02
1.164216251322106473e+03
1.484827437163617560e+03
1.322744945725887192e+03
1.378580196138523888e+03
1.796742395009385973e+02
1.728349114776781548e+01
9.420863593083184924e+02
6.505907445682428261e+02
1.674703030262227230e+03
2.343674633921663826e+03
2.370874430335017223e+03
2.129451670866521454e+03
1.788888413028681271e+03
1.042298422273759343e+03
9.792723700994980618e+02
9.543349968792854270e+02
6.221639879020891613e+02
4.340799249166158802e+01
-7.069511745809511467e+02
-8.111200106588761400e+02
-8.054932386183344306e+02
-9.223246880037202118e+02
-3.031077042754775448e+02
-4.763962806874570077e+01
-1.866873312874801343e+02
5.934910140331204076e+01
-1.988501033860183895e+02
-3.109253240162283305e+02
-1.369811310939670648e+02
-3.173117341790896830e+02
-3.244045483649281323e+02
1.561216832580739755e+01
3.198183426223201309e+01
-2.958072268655848234e+02
-9.763719209731715409e+02
-1.631897671393194742e+03
-1.633886409210609600e+03
-5.693431170373847863e+02
-4.553852014873928056e+01
-3.760254932615637813e+02
-8.204210853226719564e+02
-6.017912127030136844e+02
-3.897915103271582780e+02
-6.333338505879078184e+02
-7.080146991056941488e+02
-7.866099559271908674e+02
-7.348123449665827138e+02
-7.736035051945220857e+02
-6.494481026914121458e+02
-9.524249879126142559e+02
-1.222940527000773727e+03
-1.159563072143018871e+03
-1.407522694440664509e+03
-1.705864947090596388e+03
-1.787577185619360762e+03
-2.065893108345620476e+03
-2.262152418779538493e+03
-2.870810741312654955e+03
-4.534686344268214270e+03
-7.179467533273934350e+03
-1.083390223163697374e+04
-1.132702655120326017e+04
-6.868609463537973170e+03
-4.028000883348540810e+03
-6.636451059642753535e+03
-9.514543697958517441e+03
-4.715472331521044907e+03
-3.597001702731664409e+03
-4.476436389137889819e+03
-4.392385432025206683e+03
-2.944874297658426258e+03
-2.538916859805513468e+03
-2.253314365962306056e+03
-2.544045936314959363e+03
-2.494321186732334809e+03
-2.155139058682835639e+03
-2.066304116255518693e+03
-2.301681541120877228e+03
-2.233424157214699335e+03
-2.250183687739664947e+03
-1.995349507000354606e+03
-1.844984366719828131e+03
-1.819186323819167001e+03
-1.393714030639186603e+03
-8.362626813734550524e+02
-1.007292664931541708e+03
-7.222369152508803154e+02
-5.797996700483693076e+02
-4.929306039038112317e+02
-3.842975231766142201e+02
-4.644684780757815474e+02
-3.442858394072657688e+02
5.849708189803139646e+01
8.262852743343817110e+02
1.019065148909554409e+03
6.334760976409015711e+02
3.033119723055630175e+02
-1.146352827451740950e+02
-3.979167992005986889e+02
-3.179279697723094387e+02
-5.907541775773862582e+02
-4.049994985916751489e+02
6.895031457989383625e+02
1.286204374060976761e+03
1.574423586275885100e+03
2.177955925018183279e+03
2.433180232195597455e+03
2.637927840840770386e+03
2.508946205378498689e+03
2.607613700507322847e+03
4.165308348319439574e+03
5.545492061203123740e+03
5.536390235450375258e+03
5.101340316614606309e+03
4.152542357953350802e+03
3.083828661489729257e+03
3.159818842040534946e+03
1.634849477402473440e+03
7.987660406181900044e+02
1.383726618884186337e+03
2.754534147326631228e+03
3.609008222810009556e+03
4.759087884612233211e+03
4.955956448679873574e+03
4.197451406371135818e+03
3.304234374166723683e+03
2.978057478177294797e+03
3.644745664300589851e+03
4.959465223487012736e+03
4.138410102803503833e+03
2.679302409172371426e+03
1.617528379216466419e+03
1.099617572630482073e+03
1.315267573620593566e+03
-1.809618069879750010e+03
-2.704032875428370971e+03
-7.669574720926340206e+02
-2.477659933547969558e+03
-1.491429074126878504e+03
-2.915888427629614625e+02
-2.315083424491532696e+03
-3.612116757003630482e+03
-3.954006395903385055e+03
-7.534904393373802122e+03
-2.907037927788283469e+03
1.185454909139256642e+03
5.283478016255557122e+03
6.886631081390047257e+03
8.372956654192008500e+03
9.145651855437587074e+03
1.027634523453156908e+04
9.257762989177004783e+03
7.030834285217658362e+03
5.516643624377908964e+03
3.934720699310271357e+03
-4.824458541822181132e+02
-6.768865460794733735e+03
-1.135167002738782321e+04
-8.825262799511736375e+03
-2.996786792542520743e+03
3.361039209321460476e+03
5.826700024122642390e+03
5.823832467685274423e+03
6.056648025847761346e+03
1.156577364573672276e+04
1.535618995080450622e+04
1.665086730781864389e+04
1.511780435609690903e+04
1.120162819346169272e+04
8.410995686320693494e+03
5.556265696750210736e+03
3.643618499461157626e+03
3.735968158364374631e+03
3.086873455197674502e+03
-4.472035196174528210e+03
-1.150071069556458315e+04
-7.398195670008152774e+03
-3.166441141607170380e+02
1.708016488975755749e+02
-1.224896528708002052e+03
2.199450002832158589e+03
2.878843849203650279e+03
-1.205965908753348685e+03
-6.906043442012858577e+03
-1.194734703279643327e+04
-1.743792488722710186e+04
-2.555187914108068435e+04
-2.738830974517796130e+04
-2.691881136626227089e+04
-1.923696619453185122e+04
-1.015678462425666839e+04
5.546336203808857590e+02
1.493020674149927981e+04
2.259277026551808012e+04
2.171726248869977644e+04
1.640072244913100803e+04
1.315431648120417231e+04
1.528601367420310453e+04
1.438069325625281090e+04
6.705452151949701147e+03
4.325469716624303942e+02
-1.810766752236683260e+03
-2.420598275830468992e+03
-3.214620042065124835e+03
-6.220672366528908242e+03
-1.041261801436541828e+04
-1.547730698257103904e+04
-2.003822306602945901e+04
-3.161737786042156222e+04
-4.455947424379751465e+04
-5.029343364033319813e+04
-4.135328614282800118e+04
-2.988099610660193139e+04
-2.495240514856797017e+04
-1.842151312431482802e+04
-1.366035619081060395e+04
-3.819070323266778814e+03
7.599535959820686003e+03
-8.238231572308161049e+03
-3.263222478048452467e+04
-2.376011918899585726e+04
-4.029774269945875403e+03
5.411468258463066377e+03
3.750691130091128343e+03
-1.831777717050239971e+03
-1.751875778306470238e+04
-2.666334983026848568e+04
-1.011945913058257975e+04
6.322191862535698419e+03
2.433185846108380429e+04
3.340361364368076465e+04
3.415653407504181814e+04
3.381279399033925438e+04
3.159165426589021808e+04
1.022629388288348673e+04
-1.029308804802537816e+04
-1.997139949760396848e+04
-1.893863923637569314e+04
-1.672052718626491696e+04
-9.790793180746921280e+03
-1.081815815645571638e+04
-1.386061539678180088e+04
4.250090248503478847e+02
2.136980524098647584e+04
2.172493601374869468e+04
4.142638032952283538e+03
-1.129789796666920120e+04
-2.235856656741832194e+04
-3.444127687102762866e+04
-3.218778093120431731e+04
-1.057683463324382501e+04
3.120372371688437852e+04
5.306505224469671521e+04
4.496934060913953726e+04
1.917071818123054618e+04
9.255297057527814104e+03
2.756523301965590144e+04
5.378359121096585295e+04
5.807545806791364885e+04
4.403005518366147589e+04
2.888052683471642740e+04
1.265532493582041752e+04
1.895460140983883093e+03
-6.210123291957929723e+03
-1.929624255783434637e+04
-1.771788046048639080e+04
5.791153549463797390e+03
2.902506525662522836e+04
3.159397629941840569e+04
3.059199910596007612e+04
2.727140990222029723e+04
1.627220926148541730e+04
-3.376474410849772994e+03
-3.651849979999416973e+04
-6.600977708033434465e+04
-7.951018950333514658e+04
-6.129567849921966263e+04
-1.321518259624966231e+04
2.721734132922030403e+04
3.817390962149498955e+04
3.962865383337612730e+04
3.504869617545018264e+04
2.344109657240062734e+04
1.206600709301218740e+04
9.991423500588271054e+03
1.643237100817922692e+04
3.132500562368942701e+04
3.305736116339486762e+04
2.262048075813034302e+04
1.493739524700668335e+04
9.583199207959210980e+03
-1.159029798355293678e+03
-9.074264011471172125e+03
-6.583498033899207257e+03
-9.576826349807814040e+03
-2.254122755109872742e+04
-1.848660240110881932e+04
-1.720789871645355015e+04
-2.752905628794732911e+04
-2.614709370930122532e+04
-1.984599615014055962e+04
-2.531575307008437812e+04
-2.867434720078158716e+04
-1.971882806914197499e+04
-1.683311872373055667e+04
-1.621323511408265949e+04
-8.223251344249343674e+03
7.461858779274790322e+03
8.419105052959708701e+03
7.393491417670330520e+03
5.494034767424737765e+03
-2.205391149835605120e+03
-3.667785178935643216e+03
1.446772779716661034e+03
-5.269693324580852277e+03
-1.068807767526592761e+04
-6.263127595115122404e+02
1.074466171309459969e+04
1.263159382868450302e+04
7.249019295263204185e+03
-2.864000442680196556e+03
-9.079160627618910439e+03
-6.990405641812897557e+03
-1.936328111718270293e+03
-9.019312757797158611e+02
-1.135003232686598494e+04
-2.495365867550506300e+04
-2.863907701227813595e+04
-1.883224494004073858e+04
-4.736169512577801470e+03
9.690173759196737592e+03
1.288156159124102305e+04
4.647857892777571578e+03
-4.307982856878365055e+03
-3.963026912948967492e+03
1.290702306529214866e+03
1.747125043392548832e+03
8.481544814744667065e+02
-1.573292326836524808e+03
-5.352889517557682666e+02
4.942072588728649862e+03
5.038722260068541800e+03
-1.613367255499084422e+03
-6.118287469607347703e+03
-1.135009749626442317e+04
-1.266989265749682272e+04
-8.051711783559755531e+03
3.944691496180599302e+02
1.053542523381715682e+03
-7.350629665614336773e+03
-1.834219126620014868e+04
-2.212118606141878627e+04
-1.470461710642855542e+04
-7.901570101323663948e+03
-6.295098269787140453e+03
-8.998219118779412383e+03
-1.296501287989757839e+04
-1.119857042621273467e+04
-4.997982570978810145e+03
-4.028361448302760891e+03
3.161290612226689973e+03
9.955913487673082273e+03
1.015141030947666150e+04
1.061172957719438818e+04
9.207835480696996456e+03
1.389673610031556200e+04
1.250035753714665043e+04
5.260516405440458584e+03
3.761651131978159128e+02
2.503309802811676548e+02
4.267017618961333028e+03
9.097208814067809726e+03
1.295696248136579197e+04
1.028111129386253742e+04
6.141739524691267434e+03
4.572790346139342546e+03
2.650075875540138441e+03
-3.525432131101868549e+02
-3.460021724176136104e+03
-2.435461111341526703e+03
-2.268531181566516466e+02
-4.841322343833578543e+02
-2.508324552823709382e+03
-5.053486885119231374e+03
-4.222718874463146676e+03
2.692880153309697562e+03
9.981482277087503462e+03
1.267007034194308471e+04
1.163661708340221412e+04
8.859092211812545429e+03
5.324329312629671222e+03
4.498470425165469351e+03
5.202479882767626805e+03
6.792185197941995284e+03
6.907001131131242801e+03
4.395650146577590021e+03
5.281805912837037795e+03
6.215040858578491680e+03
5.424888322755476111e+03
4.951273221110071063e+03
3.425880266580811167e+03
2.235789241205772214e+03
2.225849485889544212e+03
-1.596773412309544483e+03
-3.673439481661639093e+03
-6.769339941503657201e+02
2.748930016112918224e+02
8.282765982549732087e+01
1.191810329853109351e+03
6.027370291001784608e+03
7.765161080785029299e+03
5.242353350556115402e+03
4.425132963825938532e+03
3.756711881746399740e+03
-6.967686372997223998e+02
-6.191159370768627014e+03
-6.558485551093310278e+03
2.123660474023042298e+03
9.456632758280744383e+03
1.011100509773393424e+04
7.703422818186078985e+03
6.339529858872899240e+03
6.081309331616761483e+03
7.541813486305682090e+03
5.782249942178475976e+03
2.847266936424032338e+02
2.630425899099327580e+01
3.622293256910910713e+03
8.762667450990677025e+03
1.034515414530658745e+04
8.414794688669910101e+03
7.341196198073327650e+03
7.301446697913625030e+03
5.912732757880559802e+03
3.255684810381954776e+03
1.627067552062769664e+02
1.819827908819935658e+02
1.896142761016848226e+03
9.023448135717148944e+02
-8.601128795803066396e+01
-1.177203714887581896e+02
-8.226717382705039654e+02
-3.241766505098737980e+03
-8.633664788105901607e+03
-1.146674327831711707e+04
-1.113516090142212488e+04
-9.722578340445728827e+03
-7.612272816490228251e+03
-5.863558635797400711e+03
-5.623951420903320468e+03
-6.710149066674879577e+03
-8.147560995097123850e+03
-7.833808066808059266e+03
-7.427969007631059867e+03
-8.948508736431291254e+03
-1.058883275185722960e+04
-9.779354616377053389e+03
-5.399862843385333690e+03
-1.534787859912143631e+03
-1.674241536574465272e+03
-6.641099019636227467e+02
-2.578159016208400317e+03
-8.087205759915183080e+03
-1.064503180582031928e+04
-1.180255758956839600e+04
-9.540090616144600062e+03
-7.146246645539171368e+03
-6.591378516393589052e+03
-5.854633789704979790e+03
-4.077359520784199958e+03
-3.779183763655279108e+03
-5.121343583060841411e+03
-6.073864210855481360e+03
-3.990214892280448112e+03
-4.438654915398673438e+03
-6.184000727926716536e+03
-2.754121006681293238e+03
3.160569041336177179e+03
3.293004591590152813e+03
1.856733770322724922e+03
3.429569620743865471e+03
5.642979690182724880e+03
5.133059628171574332e+03
3.702653993673089644e+03
3.713677137581429179e+03
4.828874109885243342e+03
4.784853356567451556e+03
3.729104075498654765e+03
2.579296850210942011e+03
2.679625746759221784e+03
3.096310401322267808e+03
3.885216390285808757e+03
4.139770275441860576e+03
2.116513222948310158e+03
8.687779382788493194e+02
1.086539594964217486e+03
2.957381937740380636e+03
3.454936507708064255e+03
4.247546258663074696e+03
3.981818450037851107e+03
3.226914922159585785e+03
2.937373608684151350e+03
3.418900297572772160e+03
3.641734872095652918e+03
2.464854279697273341e+03
1.814672993176309546e+03
1.993293218712031830e+03
2.397070571439961896e+03
2.658848317477664750e+03
3.311593882832608870e+03
3.358607403653973961e+03
3.386710023587344040e+03
3.972246075678923717e+03
3.639942280524906437e+03
2.364603322294251939e+03
1.297048408915289201e+03
1.510828401230284328e+02
1.640242902009057161e+03
2.688053183676046046e+03
2.605406641159070205e+03
1.944416395405813773e+03
1.042769889464618473e+03
6.445336692572780066e+02
6.779079167442154130e+02
3.624686006401070131e+02
-3.560533126722363022e+02
4.446153187147863264e+02
4.973764620343773686e+02
8.899623773889746872e+02
1.534712630383235137e+03
1.791235203877447248e+03
2.020814785520426085e+03
2.423672674916518190e+03
2.643364515612107425e+03
2.130934880643050292e+03
1.400108603003315011e+03
9.316614812091759177e+02
5.662512710007214309e+02
3.624137362568988010e+02
7.469699527997333917e+02
3.353000989206778968e+02
-4.002097148069232162e+02
-3.192344863991798434e+02
-3.495744384173136723e+02
-4.935436050416566900e+01
-2.125293900911138394e+02
-1.070954160987508601e+02
3.795421895488613728e+01
-5.673308961915801518e+01
8.980073062968756403e+01
-1.402299206828837157e+02
-8.713876677305538578e+02
-1.632729388079650107e+03
-2.381541716834131421e+03
-1.966702004337125572e+03
-1.820211916953376885e+03
-2.068896754344374585e+03
-2.173297482767193287e+03
-2.113569207378601277e+03
-2.608795954000566780e+03
-2.160030702637708600e+03
-1.503980153337885213e+03
-2.111504017286550152e+03
-2.370347277272929659e+03
-1.972390837378986134e+03
-1.496743559660760866e+03
-4.343425092407668444e+02
-3.461440257852456170e+02
-7.063586752234913035e+01
-4.093161241363724798e+02
-5.948276107022611541e+02
-2.892761367781378112e+02
-8.574729383547045813e+01
-4.046414956816493032e+02
-8.421953962730483454e+02
-1.251031862643501654e+03
-8.916626063111172016e+02
-1.404599003123410512e+03
-1.613113993648036057e+03
-7.089787139354424426e+02
-2.094601865540531890e+03
-2.632629219547442062e+03
-1.903197508599652792e+03
-2.229127956710011858e+03
-2.066070716723271744e+03
-1.102105785454303941e+03
7.639959355101781284e+02
1.182706301783348863e+03
1.061575899717486209e+03
9.734654642716271837e+02
4.565160165344038887e+02
7.409241668159645542e+02
8.290629419440028869e+02
1.004102441412035773e+03
9.470068314223544803e+02
6.708627636678343151e+02
4.813300894428739412e+02
4.998451286892046710e+02
3.385798258531623901e+02
3.149686052032980115e+02
3.058117485229125805e+02
-1.548764807722251930e+02
-2.904259106894243132e+02
6.564976676254706263e+02
1.516269536467639909e+03
1.982406767521774100e+03
2.037568597445491150e+03
1.912866041954145430e+03
1.965739391835708375e+03
1.667111779283459100e+03
1.212717774693086994e+03
1.339831875058209107e+03
1.628696113270844990e+03
1.138315477791271633e+03
5.690183728961756060e+02
2.892319676515030551e+02
4.361715478587575490e+02
3.600260581180697272e+02
1.515081151986997554e+02
-3.449906742426632036e+02
-7.215778087685845321e+02
-6.932661092677133183e+02
-7.356214093391550932e+02
-8.323950659219740373e+02
-7.021254475086435605e+02
-8.249213986219290291e+02
-8.131127634168946088e+02
-1.176111771967585128e+03
-5.803624661031478809e+02
-4.621097443356048871e+02
-4.788834285161216826e+02
-2.666652783056019871e+02
-5.396474243062010601e+02
-1.140911564640321103e+03
-9.214926376351409090e+02
-9.243195443326065970e+02
-1.152752548377352468e+03
-1.137016924720717498e+03
-1.389016992697266005e+03
-1.578736696285192238e+03
-1.605254277774791944e+03
-1.579824922120804104e+03
-9.180320046884935437e+02
-9.312019186692818948e+02
-8.171612667568460893e+02
-2.697304166141072983e+02
-7.647247224624320552e+02
-3.151888296840033945e+03
-4.398612088504753046e+03
-4.734037600917651616e+03
-2.783333880569702160e+03
-9.334876381660119478e+02
-2.358277645359532926e+03
8.308892223490411197e+02
-1.174064412873737183e+03
-3.639787284974844624e+03
-6.374854067001618887e+02
-3.180074044451292252e+02
-1.029412195086156316e+03
2.100094434881325924e+03
-8.391601412675370284e+02
-8.762276825138890217e+02
1.073468843733647418e+03
1.396095374923025702e+03
-1.298354169216740047e+03
1.357006823461115346e+03
1.648632026971500864e+02
8.183794943467273697e+02
4.839215115076431744e+02
-3.316013789182645155e+02
1.307836922308090152e+03
-9.504319492441217108e+02
1.111782902600968328e+03
-2.256853288509402773e+03
-4.370098391754382646e+03
-9.620369970102889283e+02
-1.333279603089686134e+03
-2.241938976450775911e+01
9.505830010156644221e+02
9.317199635713038788e+02
7.028271971757141046e+02
-1.564842576976013333e+03
-3.344876580865122833e+03
-1.989594211359026986e+03
-2.242863131639209939e+02
1.129066099631237137e+02
2.662184279949780716e+02
2.959816146477661505e+02
1.152309566125833840e+02
3.269684261095150646e+02
3.544134811499091029e+02
-3.523938922289294595e+01
-1.149114272757747841e+02
1.532175321858231598e+02
2.730909663411284214e+02
2.929790413021295876e+02
-3.008970521620983263e+01
3.038939082102341445e+02
1.081176004425156520e+02
-1.433337653319593983e+02
-2.301949773220835596e+02
-1.334576168637518094e+02
-1.518746591699016051e+02
-9.543974851093487644e+01
1.447566299108260637e+02
6.777322679233244571e+02
1.161695673801020348e+03
1.342827959173452427e+03
7.112860955523817665e+02
-6.230480842377058934e+02
-3.667906989905433420e+03
-2.632579185036951003e+03
-2.199853245130768300e+03
5.253083854999807727e+02
6.246849453947517077e+02
1.255220931464163243e+02
3.032546383275641233e+02
4.274573759186419579e+02
3.962579257971509605e+02
7.460251733872698878e+02
1.088829111801640920e+03
8.788439303935025464e+02
6.899173887428557919e+02
4.530853534673164518e+02
3.364725226859335976e+02
7.981149753779368439e+02
1.501012756332093886e+03
2.056315547116688322e+03
1.576254927656888640e+03
1.483838919003009323e+03
1.878992477965155786e+03
1.892091894281338455e+03
1.980863770518207502e+03
1.685964207665962249e+03
1.740315019979568433e+03
1.710432697218723661e+03
1.189334891877124619e+03
8.598530197092103435e+02
8.520345833002954805e+02
1.446023629970675529e+03
1.222971921323334300e+03
1.118869032812318892e+03
1.121668330478001508e+03
9.175380514448468148e+02
1.101640777520745360e+03
1.567001942780031413e+03
1.398615607699857946e+03
1.710517420354631440e+03
1.696721557263558452e+03
1.576325901095621475e+03
1.430557413936341845e+03
1.602419125682433332e+03
1.313887810798433065e+03
8.058618699638080898e+02
1.047454618233504334e+03
1.153665878600164888e+03
5.466324639922207780e+02
5.454222841746737913e+02
9.840541177247897622e+02
1.112521685876507036e+03
6.358660951086490059e+02
2.402434327372875771e+02
3.097419743025141088e+02
8.212679036200594282e+02
1.095809221926462214e+03
9.054859988272078226e+02
5.073365351043854048e+02
-3.675452551287967822e+02
1.383177617646007995e+01
-9.275788715568562566e+02
-5.658665723460188929e+03
-7.382327549542410452e+03
-7.447491480881692951e+03
-7.165097501833279239e+03
-6.760404189271645919e+03
-7.202190505244559063e+03
-7.369462927585817852e+03
-7.712153348992311294e+03
-8.080123065368592506e+03
-7.361427668172425001e+03
-7.254054134006862114e+03
-2.823978957663368874e+03
1.654854934039801947e+03
1.305389594415309602e+03
-6.712927335031583880e+02
7.417961469468409632e+02
1.820682357772675459e+03
1.420406338339573267e+03
8.329740124066905764e+02
8.563983352006946461e+02
1.265706480241786494e+03
1.759958696273800342e+03
1.682219251010467815e+03
1.275490976787914860e+03
2.717905249431177594e+02
-3.468963515838279932e+02
4.583945775389297523e+02
4.238131715362039813e+02
2.663645930109218511e+02
5.980411693260073207e+02
7.308380623987807212e+02
4.307127633652931422e+02
1.572546408438665111e+01
-1.111049383870043812e+02
3.872185501795459004e+02
7.017316809463948175e+02
6.244615151862161611e+02
6.654182461365070367e+02
9.256728440246513401e+02
7.372580164839095005e+02
2.692330436178766604e+02
1.194947100453086506e+02
3.440735423172296237e+02
5.197286616369366641e+01
-6.178004517065304526e+02
-9.372441176097331663e+02
-1.129245930811668359e+03
-1.422909536247328560e+03
-9.742825322503115331e+02
-7.532795219886389759e+02
-1.818782048903843247e+02
1.559275204611451215e+02
8.010011170664007807e+01
7.854104664344681908e+01
4.993143487448452902e+02
5.354469826535832908e+02
3.329902203347232330e+02
6.189647068743078080e+02
6.332423417667905596e+02
-2.202195116009741866e+02
1.251737699865167087e+03
1.141311081235910024e+03
6.355386096775450824e+02
7.966290041587718633e+02
4.716004402501627055e+02
-8.488942847496034574e+02
-2.508037303857202915e+03
-1.512564276126275900e+03
-4.254439639398922282e+02
-1.877850348007259981e+03
-2.702741516273713387e+03
-1.330138525664340932e+03
-4.281193612375292332e+02
-4.747833096039807970e+02
-8.380572063024874296e+02
-6.948859626569320653e+02
3.745887975130794079e+00
3.778901621693366906e+02
7.749588524526618016e+01
-4.684306043563303206e+02
-1.352887977913596160e+03
-1.474910469343586101e+03
-8.624981112624697062e+02
-2.626292260138495749e+02
-2.512888649168086488e+02
-5.304806090508926673e+02
-9.862618978683165096e+02
-1.547655545713909078e+03
-1.471638086030081013e+03
-1.691237522863619233e+03
-2.663491160564358779e+03
-1.739456488834443462e+03
-2.701004310433443720e+02
-4.564058111261839485e+02
-6.653984684599321326e+02
-1.149121223945924385e+03
-2.012503244246230679e+03
-1.597508085972297749e+03
-4.432087756398323677e+02
8.403155260105562547e+02
1.030162667853440780e+03
1.286355613459109009e+03
1.998797901455397778e+03
1.400459561240546464e+03
4.035145878030427014e+01
