-1.681782966400452324e+02
2.285467738390829311e+02
2.641872434873912994e+02
1.051624818272180164e+03
1.726763226007179810e+03
2.256652661891372190e+03
2.937360754597588766e+03
3.166856149902577727e+03
2.612106085194228399e+03
1.436021993906164880e+03
1.180634389999519271e+03
4.408689029102864652e+02
-4.451436232179747776e+02
-6.347587650305661100e+01
4.905588229600658110e+02
2.648679212167136825e+02
-2.370164376467903082e+02
-4.571046213212664497e+02
-1.372167977054138248e+02
1.962087380724843513e+02
5.571868966571558985e+02
5.009092303044915298e+02
1.048933084215617555e+03
1.924536133352089564e+03
2.445862843944500128e+03
2.605741546605874191e+03
2.320115504313652764e+03
2.021956635682608294e+03
1.406237145235366143e+03
1.756876540963800835e+03
2.225505018428750645e+03
1.761529743364133083e+03
1.279001973094937284e+03
6.697327624331663856e+02
3.060209257487146033e+02
5.136031292731624944e+02
4.244140662737269736e+02
7.484279189273123620e+02
1.515361956979311572e+03
2.438287124734835288e+03
2.793053926023842905e+03
2.969811970907943305e+03
2.652586206555185981e+03
2.802400440097004775e+03
2.994288379327402254e+03
2.813189684061944263e+03
2.746994317198259523e+03
3.103704315252809010e+03
3.526339991183328038e+03
3.479867826437617168e+03
3.136265790106769145e+03
2.681419565447997229e+03
2.729329287161543562e+03
2.554027301181425628e+03
2.044557163785123748e+03
2.241937150310160177e+03
1.932139728798323858e+03
1.439182387718164136e+03
1.378129399790926755e+03
1.285920342292301939e+03
1.366430150379948373e+03
1.610701814248113124e+03
1.667862894693138742e+03
5.510609902568761242e+01
-2.791559554639961334e+03
-6.615287586240690871e+03
-6.761219446415861057e+03
-6.951412880329582549e+03
-7.657819035510625326e+03
-7.666427738935198249e+03
-8.077166039349287530e+03
-8.396061302554942813e+03
-8.715148391458069455e+03
-8.074372829892462505e+03
-8.404739246198734691e+03
-8.808218347072430333e+03
-8.266915112829146892e+03
-8.133871965622915923e+03
-5.221010933737496998e+03
-2.131327837456135512e+03
-5.957868937888193614e+03
-6.398607774020751094e+03
-6.022429445250409117e+03
-5.383234044109285605e+03
-5.251017970012407204e+03
-5.065793717191850192e+03
-4.801542344324036094e+03
-4.672261576985761167e+03
-4.844020709124649329e+03
-4.281838664401009737e+03
1.435284015665115021e+03
3.572393799635551204e+03
4.042591150232670770e+03
3.772854786506473829e+03
2.885123936907195457e+03
2.591370408628700716e+03
2.576626107515389776e+03
2.315962009293608389e+03
2.397391809530802220e+03
2.173889750797229681e+03
1.911498222270588258e+03
2.013264538616680511e+03
2.777173080336490330e+03
3.159244442830664411e+03
3.703541524264760483e+03
3.689050571134166603e+03
3.036872313699770984e+03
3.093982041374857545e+03
2.904358536048368023e+03
2.183019316711845022e+03
1.741932051256821069e+03
1.323061825255447047e+03
7.194991967246652393e+02
6.332848500850806204e+02
4.774043055061765131e+02
2.088559728446481927e+02
4.077584637649773640e+02
4.881019915369032560e+02
6.468468980273047464e+02
1.178958748480004033e+03
1.173438233792892788e+03
1.477379354679847893e+03
1.435831827546214981e+03
1.721952833094061361e+03
2.214919060740240639e+03
2.435816992131260122e+03
2.479600374091542562e+03
2.739183122712639033e+03
2.901477064761857491e+03
2.752506191564211349e+03
2.042405750911710129e+03
1.602290754646715641e+03
8.871662822347692554e+02
2.233091536922218836e+02
-9.011695282841708377e+02
-9.453536431096631532e+02
-1.111238578417391182e+03
-1.530854630637708624e+03
-1.016427924151351476e+03
-9.446921836833855650e+02
-6.821087114222883656e+02
3.202707978372517914e+02
8.752847889850478396e+02
8.882688133409242255e+02
1.334263332361318362e+03
1.824305955020104420e+03
1.856494814410750678e+03
1.333018646671222541e+03
8.278571451229335025e+02
-2.041598880351787386e+02
-7.390285550040613316e+02
-6.118252032163088643e+02
-7.450508246323715866e+01
2.769927329399868654e+02
-2.663093232320775883e+02
-1.044379312832014648e+03
-6.882346983489152308e+02
-5.269463389462316627e+02
-8.085637384179373157e+02
-8.930452113357137023e+02
-6.464505554396275784e+02
1.992570678327966789e+02
1.762157645450892687e+03
2.694334341490119186e+03
2.828774748490160164e+03
2.986477525061942742e+03
2.494493839582398778e+03
1.887860596931949885e+03
1.280568601180746100e+03
2.706582502338351333e+02
-2.739528016675667459e+02
-5.832781835364772860e+02
-1.011250926057976017e+03
-1.084828437863628096e+03
-1.244062450672724481e+03
-1.702037597375219548e+03
-1.875743522617197186e+03
-1.839134032520527171e+03
-2.296139826771840490e+03
-2.057865376615691730e+03
-1.091397863912961611e+03
-2.107327941014025043e+02
1.132351513542175780e+02
-4.074710917057416282e+02
-5.979249798244055683e+02
-2.352869882121361513e+02
-8.975061498054703861e+02
-1.450342128984059400e+03
-1.659718063160554038e+03
-2.193544206400620169e+03
-1.943908515095378334e+03
-3.440028774132295894e+03
-3.841914814260370349e+03
-2.149531685428480159e+03
-1.569842169760221964e+02
1.549714539288186472e+02
-2.545477619938967706e+00
-6.023015592174822359e+02
-1.210135393738411949e+03
-1.019601353715195046e+03
-7.822310215696688829e+02
-7.991685561710199863e+02
-2.046586440602020275e+03
-1.841429752854308845e+03
-7.628278475674533183e+02
-5.074418787899599010e+02
8.759063352763487842e+01
2.922856879429669448e+02
2.324343902386425782e+02
5.833492167254755856e+01
-3.379581073628775130e+02
-6.133976269613784780e+02
-8.057856632997214774e+02
-1.049039431761491414e+03
-1.522194360765231522e+03
-1.558742398762763287e+03
-1.541276630497817450e+03
-1.321737108545946285e+03
-7.335089789662621342e+02
-4.129175875059915768e+01
5.008726991691674471e+02
6.279457142212268081e+02
6.194602676683034588e+02
1.049149666776008644e+03
1.780248984341384130e+03
2.565741729461569776e+03
2.501563460812180892e+03
2.014435384695145785e+03
1.939904573673147297e+03
2.082756053634815089e+03
1.844218473487398796e+03
9.329141085080659650e+02
9.691856104617252186e+02
1.752504498303077753e+03
1.822010103931843560e+03
1.271146903108908191e+03
5.140079319245204488e+02
1.298059790990561737e+02
-1.047484677945248563e+02
-2.525926646011199068e+02
-3.234361197251936346e+02
-1.922922916655889480e+02
-4.479406239764573527e+00
6.914638949330026207e+01
7.029257406357477294e+02
2.187324410288348645e+03
2.554260940291327643e+03
1.823102037573264170e+03
1.486068794517204196e+03
8.122248684912647150e+02
3.705511108446194726e+02
1.219386318951645620e+02
1.629660066091839781e+02
2.934078375418083056e+02
4.613274567839624751e+01
-7.286454116630432054e+01
5.535077153806871593e+02
8.812394862968322968e+02
7.158882828476799887e+02
4.708316239327150470e+02
5.035746941755570560e+02
9.365201723069151285e+02
1.469084787457307812e+03
2.322254574235243581e+03
2.565646842044425739e+03
1.849981558159325687e+03
1.613372369275025221e+03
8.868498056716545079e+02
1.208468934000364698e+03
1.290620382257048959e+03
-3.503553655457899367e+03
-5.537256500390594738e+03
-3.157238810251353243e+03
-5.449391064574507254e+03
-1.804028910290158137e+03
-2.275934552970402365e+03
-3.275743116716632812e+03
-3.512926266824932782e+02
-2.727631761167432160e+03
-2.376922667006966549e+03
9.935139543290864594e+01
4.996858015486840259e+02
9.442119078250087796e+02
1.372238360358301634e+03
1.773048106470476796e+03
2.220943293103953238e+03
2.175777137520719407e+03
1.787406895718522264e+03
7.478093132808190546e+01
-1.687111377105844667e+03
1.170837068171936835e+03
8.837038863717422146e+02
5.854373348382537188e+02
-9.500527985008122300e+01
-4.649491799785960211e+03
-3.821948362080269817e+03
-2.337470672700557770e+03
-1.613984645669241672e+03
-1.225248572348176140e+03
-4.527886466727293282e+02
9.278415905740240532e+02
1.678569429501338618e+03
1.988023729310843919e+03
2.498903701934550554e+03
3.380065939397170496e+03
3.640611293248325183e+03
3.287679404076052833e+03
2.310292366893739199e+03
1.028539367714201489e+03
-4.985038386837195503e+02
-1.430831502154672307e+03
-2.002385183686914161e+03
-2.413125729266725102e+03
-2.758965774839305595e+03
-2.286927043738709017e+03
-2.577036494975272035e+03
-4.137235671186481341e+03
-5.599457542844610543e+03
-5.351466892675708550e+03
-2.755940868985875113e+03
1.712733200405301375e+02
2.187061310552409395e+03
2.577414847690101396e+03
2.003174487573198348e+03
1.566368926580416655e+03
1.212218245012779335e+03
1.458067985845434350e+03
1.450223934503886539e+03
9.712029090241987888e+02
6.775311278255032903e+02
-1.765078521728310079e+02
6.804321114213058763e+02
8.141739271762833141e+02
7.071973343822581626e+01
-3.638650466391288205e+02
-4.316837590556779105e+02
-1.324029435733913715e+03
-2.485230837229398730e+03
-2.814388140936967829e+03
-2.374750987007867479e+03
-1.377385404618594521e+03
-4.664235689530114541e+02
6.021968306910725914e+02
1.260867075404323487e+03
1.236263169549808026e+03
1.023027105567332228e+03
5.615252823344851549e+02
2.934901203901689115e+01
1.526541501584536888e+02
2.465685852735382468e+02
-1.267567270078246366e+02
-1.001504053286678527e+03
-1.912379258058194182e+03
-1.748526460446669034e+03
-1.090915411477447833e+03
-1.129452503261752781e+03
-1.011991973126848507e+03
-2.093792738576785837e+02
-7.552885255623050398e+01
-3.024809226906536423e+02
-2.525968248421137119e+01
1.710617678983888084e+02
1.731570305612404582e+03
2.717422270279268560e+03
3.083549066625741489e+03
3.416027317551400301e+03
3.020193130047951399e+03
1.994179535931002192e+03
1.166946340748365628e+03
9.205168252149597947e+02
8.458966837707766899e+02
3.490940439455715136e+02
6.661535244597152996e+02
1.097045422302361430e+03
6.348265837934695810e+02
-5.314955396078613603e+02
-2.128017269540003781e+03
-3.756670779052741182e+03
-5.121451576442443184e+03
-5.414303384985218145e+03
-3.382280980580648247e+03
-4.903467606302230024e+02
1.801661435353757042e+03
3.462729051434915164e+03
3.532882809992790044e+03
3.135154069753547446e+03
1.181491964909260560e+03
-2.706070607464787827e+03
-8.110487982304392062e+03
-9.646725076993761832e+03
-8.549786884484768962e+03
-8.070478725197315725e+03
-7.621916438271217885e+03
-6.081094026354275229e+03
-5.560090709461242113e+03
-5.091073565659258747e+03
-7.689205181587305560e+03
-7.375631549213258040e+03
-2.592401731937364730e+03
-1.028413212556782128e+03
-9.976854192362904996e+02
-1.683350658060083560e+03
-1.606463409905367143e+03
2.849922701376951863e+02
2.600137311065835547e+03
3.017973150567552693e+03
3.023468240641602279e+03
2.537510563972510226e+03
1.895045331734413139e+03
2.033002454617868580e+03
2.640263580198892669e+03
3.783788587703147186e+03
4.606685083335816671e+03
4.863727566405121252e+03
4.514652671481271682e+03
4.604253134832018077e+03
3.911392806418635246e+03
2.727931631752053363e+03
1.691719708661887353e+03
2.149616001937009514e+03
2.640566245052393242e+03
2.349532073503629817e+03
2.557446534707372393e+03
2.746298076986728574e+03
2.763067699221134717e+03
2.999648859935421115e+03
2.200884990056146307e+03
1.538593872103407421e+03
1.987638799809922375e+03
3.067950281651880687e+03
3.243416374233585884e+03
2.748935444118582382e+03
2.636311875593585683e+03
2.632368104915625736e+03
3.329974173778908607e+03
3.956048577012637452e+03
3.606443082007100202e+03
2.861958455873769253e+03
2.981491391891494914e+03
3.791923630443699494e+03
3.669167313843907777e+03
1.045110920708488038e+03
-1.798437316280065261e+03
-2.255479902048321037e+03
-1.521152802149023955e+03
5.284251887349422532e+02
1.267127733302774686e+03
-3.123234770070130821e+02
-1.597949413082076944e+03
-2.964859595907012590e+03
-6.096053292653578865e+03
-6.272792333174003033e+03
-3.988311243444410138e+03
1.784352583454961859e+03
1.169303221855563788e+04
1.701365335680961653e+04
1.685202735242558992e+04
1.544198215181494197e+04
1.117850264531416906e+04
5.779564160239359808e+03
-2.346050294459452289e+03
-8.434425689054709437e+03
-3.665658265395491071e+03
3.052087050891526360e+03
9.505737263703545977e+03
6.927298822897502760e+03
4.310648678152013417e+03
1.497714907563138468e+03
6.734325445779393249e+02
1.636686710992154303e+03
3.013423414369092825e+03
-1.821456872686146426e+03
-2.386073403741594575e+03
-1.688492308231971492e+03
-5.377772103496488853e+03
-5.619990513883017229e+03
-6.498115579020030054e+03
-8.147241835687996172e+03
-1.726440769820420974e+04
-1.897662604210879363e+04
-1.769695664514604141e+04
-1.570639437581150378e+04
-1.449100352583736276e+04
-1.744375555214740962e+04
-1.299157678812791892e+04
-1.046248719811808769e+04
-4.371474481917706726e+03
-1.297528101310193733e+03
7.918461297466145879e+03
1.221444973517275139e+04
2.081137120321080147e+04
2.395027588399700835e+04
1.529126142188389895e+04
7.747408540159612130e+03
8.336717203132739087e+03
1.009225786861189772e+04
2.820063214211454579e+03
-5.887803971596524207e+03
-6.849306380890770924e+03
-7.649343168740845613e+03
-3.915772523454696966e+03
-5.896531358222636300e+03
-1.039462111155663115e+04
-1.058687836261836856e+04
-7.804087030080901059e+03
-3.258111117348210428e+03
2.345156557612573124e+03
8.233823352231285753e+03
9.974934712153954024e+03
8.515594658003659788e+03
5.493959649353097120e+03
1.558233578161393098e+03
-2.207478171517592273e+03
-6.364070280866279973e+03
-3.674347911364878655e+03
5.097840173944797243e+03
1.026972932106661210e+04
8.349482088236602067e+03
1.211324940600267655e+04
1.726020688427883942e+04
1.802344992389838080e+04
1.400515525711767987e+04
9.517352822542703507e+03
4.963635848733094463e+03
-9.143113424227791484e+02
-3.302799421912257458e+03
-3.046818881154160408e+03
-5.520033750650958609e+03
-6.062905210824275855e+03
-5.755903819409276366e+03
-1.000804367967853614e+04
-1.191307733401981750e+04
-9.120071664019158561e+03
-3.171025897845519012e+03
3.237295189681870852e+03
9.812538102049613371e+03
1.170077610400288722e+04
6.358181702643988501e+03
8.356920535599272171e+02
-2.571009055834694664e+03
-3.206914821383772505e+03
-3.565370388126902412e+02
1.978133226356676232e+03
2.893146308704497642e+03
1.963963816853327216e+03
1.291886662917146964e+02
-1.310048785035705805e+03
-2.242358605292964057e+03
-3.946793232949036337e+03
-7.509231967394729509e+03
-1.010356279696334423e+04
-1.216629158157439451e+04
-1.632282617840828607e+04
-2.163755187333300273e+04
-2.569238049124036479e+04
-2.516217201249737991e+04
-1.794280040053501580e+04
-1.005113578735858027e+04
-6.176954038358260732e+03
-5.948055224687491318e+03
-7.705288520851705471e+03
-8.787465381938554856e+03
-9.106382755727017866e+03
-1.009683560967293124e+04
-1.082260141309002938e+04
-1.063741708281923275e+04
-1.109508008137053002e+04
-1.182444076910048534e+04
-1.193841794635448241e+04
-1.190293900428674533e+04
-1.301787475685666141e+04
-1.496712674543819594e+04
-1.722152638336060409e+04
-1.950290950166683251e+04
-1.929519404972692791e+04
-1.493835744746895762e+04
-9.638528074503139578e+03
-6.947720890088675333e+03
-6.073802405593835829e+03
-3.989560297668289422e+03
-1.240832593745956956e+03
4.619421095252305349e+03
1.789321423363002032e+04
2.430454612162589183e+04
2.547251886834409379e+04
1.985622012044750591e+04
1.783369582134467782e+04
1.918103965902738128e+04
1.805006393105527604e+04
1.764477721987694167e+04
1.764021790090463764e+04
1.968838183184570516e+04
1.904221490626107334e+04
1.995370978974504760e+04
2.282088989471152672e+04
2.372767292951678974e+04
2.432795033456727469e+04
2.261660958549082352e+04
2.133060179434926249e+04
2.551581550186099412e+04
2.599821833271370633e+04
2.088176549257238366e+04
2.042136010905939474e+04
2.051393011642537749e+04
1.982639727274250617e+04
1.907861236400040070e+04
1.927848586732214608e+04
1.569994424862105916e+04
1.562589377118491029e+04
1.338815219205291942e+04
1.029147425314438806e+04
7.679697190408298411e+03
5.710667921365420625e+03
4.950190445021538835e+03
5.254039428488969861e+03
5.584116454207742208e+03
5.024280005198818799e+03
3.165290566088786363e+03
1.076981381346635317e+03
-5.659343850237943343e+02
-3.404670186862393166e+03
-6.696368601721543200e+03
-7.191219530175188993e+03
-6.138322809651303032e+03
-5.861849940460220751e+03
-5.900008780079080680e+03
-5.730014277596329521e+03
-5.842080197536703963e+03
-5.840391257396375295e+03
-6.050216333550401032e+03
-5.857803719386979537e+03
-5.631337322835021951e+03
-6.469955779407669979e+03
-7.326859399870245397e+03
-8.190234689606367283e+03
-9.039349324003049333e+03
-1.072647756927640876e+04
-1.218402371424479679e+04
-1.204337500059882404e+04
-1.236974897526136738e+04
-1.220631623782584757e+04
-1.164625865433439867e+04
-1.206183994294620243e+04
-1.289723254728358916e+04
-1.314313972433676827e+04
-1.336735708153062660e+04
-1.377534142622419131e+04
-1.207151206107470716e+04
-1.028592271507753867e+04
-7.768859383394228644e+03
-5.708853654699676554e+03
-4.014991974264042256e+03
-4.194470994106437502e+03
-5.842055498992004686e+03
-7.168363300679198801e+03
-7.129009642507450735e+03
-7.338850508113413525e+03
-8.402218573040287083e+03
-9.770317306397879292e+03
-1.110537092949268299e+04
-1.107470493956436258e+04
-1.040655829853617070e+04
-1.004698359449369855e+04
-1.005211996000736144e+04
-9.267106771345410380e+03
-7.754008863666362231e+03
-6.606976486582274447e+03
-5.708222539814426455e+03
-2.296929721328020605e+03
1.242795168821246534e+03
3.067838735937828460e+03
3.158100813465800911e+03
2.781422303076154549e+03
2.007769108610923240e+03
1.049078139317088699e+03
3.382789681706490796e+02
-2.858241654954621822e+02
-9.503022883437123483e+02
-1.237207506783952340e+03
-1.051674218561830685e+03
1.773061065805018188e+02
1.628670639215027450e+03
2.149371279424684417e+03
2.125475124984282047e+03
1.938909824895969905e+03
2.173566017295534493e+03
2.938393944677625768e+03
4.111421807331580567e+03
4.149723863375053952e+03
3.667246793837705809e+03
3.215985932538241286e+03
2.680883388219669087e+03
2.459914990360713091e+03
2.155168920290278493e+03
2.323712856387885950e+03
2.248514933852213289e+03
1.762506267861884226e+03
1.668801201500105435e+03
1.290712703129388728e+03
1.453383166730963694e+03
1.512693171852776914e+03
2.031589657154734823e+03
2.271042528660635071e+03
1.235171473865264943e+03
-7.287212477711102565e+02
-2.060565878325548510e+03
6.867297123533126069e+02
3.151473073696985011e+03
3.142522681928111979e+03
3.872718954376326565e+03
3.518819620076768842e+03
3.530417725532568511e+03
3.348753960365738749e+03
2.390300099384196074e+03
2.325360151049551860e+03
1.897252174416262278e+03
1.236252776495064381e+03
1.871839800572901140e+03
2.038200529555220101e+03
1.791562550995706715e+03
1.466746343942803151e+03
2.210775478240495886e+03
2.500453457704286393e+03
2.730994710302300064e+03
3.317597117887927652e+03
3.565245683814731819e+03
4.068928217461547320e+03
3.926710924872466876e+03
3.389256644694233728e+03
2.688386472949693143e+03
2.024142292250135370e+03
1.327011726187647810e+03
1.900867361141858964e+03
1.883903540260841055e+03
1.459254627898994158e+03
1.041723235816361921e+03
5.639541174410404665e+02
8.408376836906087419e+02
7.593773576090547976e+02
3.377406267347217863e+02
3.563680965317463460e+02
4.428318487169693185e+02
8.872587737444691811e+02
9.763969613651560167e+02
1.491537309466081524e+03
2.123220454805664758e+03
2.528794482862773293e+03
2.595871126276108953e+03
2.744899672035471212e+03
3.022981857292576933e+03
2.886320722446361287e+03
2.991411945705227026e+03
2.731193858743974488e+03
2.369511131330607441e+03
1.595739408977975472e+03
1.004467337088556405e+03
9.617438833628517614e+02
1.225224436058873607e+03
1.394406830689788421e+03
1.483588146566890828e+03
1.847557431695863443e+03
2.920103821643745960e+03
3.586092157528200460e+03
4.294420905094053523e+03
4.088989891378173070e+03
3.668118461118931918e+03
3.491150235168432118e+03
3.676353928541481764e+03
3.346904689908568344e+03
3.114802531837782226e+03
3.125189266452280208e+03
2.386551487503712906e+03
2.234288045815163514e+03
2.145571611106489399e+03
2.148925569083480696e+03
2.302902199989025576e+03
1.719336369021958717e+03
1.954940133492714835e+02
-5.445169978739924773e+03
-6.606587441716480498e+03
-1.742633415353892815e+03
-1.922037494766613918e+03
-5.339982521484581412e+03
5.093122488780311983e+02
3.130662731009709887e+02
-4.930848379051049051e+03
-5.751476512851370899e+03
6.495265141234333441e+02
4.979407471444461635e+02
-3.794612251446169012e+03
-4.409462771640281062e+03
-5.007863501282990001e+03
-5.229965820480450930e+03
-3.452506498591593754e+03
-7.403998193525068928e+03
-5.656382201344183159e+03
-6.572792194233056762e+03
-3.847394872703897818e+03
-3.367518908798096618e+03
-5.884253277310373051e+03
-6.169532680046506357e+03
-2.811290642443888828e+03
-3.874767687753375185e+02
-4.035139209460874099e+03
-1.240345922662385874e+03
8.769423829379246627e+02
1.546899446412391171e+03
1.372446159840868859e+03
-2.317478720607475680e+03
6.326728791299390053e+01
9.558066085415222233e+02
1.049055206336665606e+03
7.745952142661957396e+02
5.307638739835256274e+02
3.382344946997777129e+02
-4.087951836882963619e+01
-6.313354137870811655e+02
-6.000463252503209333e+02
-6.621300480012765775e+02
-9.297522888128322620e+02
-1.333887071677578206e+03
-1.006557258607949393e+03
-5.468721763577101456e+02
4.201429779201115480e+02
1.009474537735680087e+03
9.230429046363792622e+02
8.088065541432141572e+02
1.296848456742788130e+03
1.891115422142898069e+03
1.763448301112164927e+03
9.797860891868854196e+02
6.941835472542120442e+02
2.654125806012846169e+02
-5.078023999685032095e+02
-9.794151656272555329e+02
-1.017266184355379892e+03
-7.715848465165635162e+02
-7.065035742239134606e+02
-1.198325772144945404e+03
-1.823863383384418967e+03
-1.928786774887244974e+03
-1.822647680343801767e+03
-1.233040060717879669e+03
-1.051906901820843387e+02
4.669675547524425951e+02
6.782268010292646068e+02
5.474800588366991860e+02
7.330186716186092326e+02
8.726554386096338476e+02
3.136485451773216369e+02
-1.181558240124069386e+02
-4.849107640028781816e+02
-8.785100115899600723e+02
-1.307996359300838094e+03
-1.417155496379613169e+03
-1.649889130512831571e+03
-1.472641897127433595e+03
-1.329147004007519399e+03
-1.463732017064764705e+03
-1.630515563454204312e+03
-1.675770863502154953e+03
-1.590488744444970962e+03
-1.049628555248120847e+03
-1.622933139992974247e+02
7.909393539678533216e+02
1.072914737477902008e+03
1.077860724270770788e+03
1.596951541324503069e+03
1.607253844048377687e+03
1.293827978481773243e+03
9.316446765106729799e+02
8.936909488938974846e+02
9.050378015904140057e+02
6.137838380086027428e+02
4.570391666506653792e+02
6.128856749104046457e+02
1.973883205373410874e+02
-1.032689636140929395e+02
-3.349102148674105592e+02
-1.363225031229950091e+01
-7.753527308830339848e+01
-2.434914205055758032e+02
-4.336987492547506662e+01
3.358574689616268074e+02
6.942483344460258650e+02
1.297865121664775188e+03
1.890838690484015160e+03
2.170166203165491879e+03
2.711864135054453527e+03
2.854080154411660715e+03
3.095923799412249991e+03
2.665453296397433860e+03
2.409694714053467578e+03
2.418828437420476348e+03
1.806897677162620539e+03
1.225870498790508918e+03
1.125810053956944557e+03
1.369000981011093998e+01
-2.679483476225027061e+03
-7.681581927355112384e+03
-9.746494637793548463e+03
-9.399175060087693055e+03
-9.124620638863872955e+03
-8.827751503579649579e+03
-6.548656716912208140e+03
-4.567294348060495395e+03
-5.184680826381922998e+03
-5.065770054895327121e+03
-4.713569981780169655e+03
-1.641877356684022743e+03
-8.125235435257643530e+02
5.525104103138709810e+00
3.320171708200547073e+03
3.993398327275347128e+03
3.680350820536611536e+03
3.424126156643186278e+03
3.276780560178130145e+03
3.209247290686975703e+03
3.021510902043048191e+03
2.673645874943789295e+03
1.806654784617783207e+03
1.576504969633022029e+03
2.011181726388721700e+03
2.139730465065081262e+03
2.463174875009462994e+03
3.123303346301534020e+03
3.622161205689600138e+03
3.798820118121356245e+03
3.777430472822628872e+03
3.805059233507846329e+03
3.526697711435383553e+03
3.342402875195052729e+03
3.142221165648439182e+03
3.227124279782336544e+03
2.818111342384086129e+03
1.885202162297168343e+03
1.766361617011674298e+03
1.352478479201394293e+03
1.137550970885857623e+03
1.227626037066327171e+03
7.777480748058808331e+02
3.009942373733855447e+02
2.903564158721516719e+02
1.358047911848096305e+02
4.172478872448750167e+02
4.627884083816032899e+02
5.985393202047310979e+02
7.855038653162371247e+02
6.567017130245686758e+02
4.921089735837812782e+02
3.567611448214637448e+02
2.295969139344004475e+02
-4.794063788759098657e+02
-1.227215703024004597e+03
-1.489881935085323448e+03
-1.489421782847551867e+03
-1.743925537498941821e+03
-2.244402442199351299e+03
-2.276881616448138629e+03
-2.584390662846937630e+03
-2.327869211120123509e+03
-2.130333430759580551e+03
-2.123711856693028039e+03
-1.435136910662178252e+03
-9.227795252824689669e+02
-6.955171282510571018e+02
-4.331751722891763023e+01
5.369111951263175797e+02
3.829691580898933125e+02
3.784725936729705609e+01
7.575809413448095029e+02
5.740648800132615861e+02
-3.763793225641839513e+01
-6.395946249094401992e+02
-1.230452830085698821e+02
-2.280512646042418226e+02
-7.226091826146769108e+02
-1.089643274167617392e+03
-1.319251835140678850e+03
-1.131493492010332375e+03
-8.554515189637839967e+02
-8.190258747622863211e+02
-7.122536539378894531e+02
-6.133275411914501092e+02
-2.063024483747138333e+02
-6.418643845025707151e+01
3.931023811611131009e+02
8.904892017150003767e+02
1.237891765831607927e+03
1.901231634141245650e+03
1.739532175983394382e+03
1.468790864955619099e+03
1.093900078060129545e+03
7.608072223407442607e+02
1.033322846310968544e+02
-2.646317265846956275e+02
-8.550187397385351460e+02
-7.478131214214928377e+02
-1.419055680351852061e+03
-2.155934062900439130e+03
-2.450532407086947842e+03
-2.269930242363818252e+03
-2.095239608726977167e+03
-2.330567705872447732e+03
-2.139893594936203954e+03
-1.645222469794041444e+03
-7.296157978024045860e+02
-1.551180190273896926e+02
-2.777877984861601135e+01
4.550477892011534919e+01
3.447839298969482797e+02
9.259211564148556590e+02
1.232765833516915109e+03
1.153216806524293816e+03
1.098201723429703407e+03
5.895434349877949671e+02
1.701765157695289474e+02
-5.040422502102891826e+02
-1.038236319481850387e+03
-1.265340427822543234e+03
-1.755418026677252101e+03
-2.065463718975765914e+03
-1.778590610183766330e+03
-5.988686429540238123e+02
8.126760469400205693e+02
1.160056081887543769e+03
1.630412443077431817e+03
1.954746466685599898e+03
1.910931614957218926e+03
2.065727082103572684e+03
2.034177357236474791e+03
1.919489241165071235e+03
2.025582008361037424e+03
1.715379233578030608e+03
1.843713862978675934e+03
1.052929236602290530e+03
3.648544253053996727e+02
3.850000455617429225e+02
5.786177831606991049e+02
4.899591523943535663e+02
3.793688309732687003e+02
3.992924475510814659e+02
1.053007524450128813e+03
1.559256899347589751e+03
1.197502601779454835e+03
1.190737358587051403e+03
1.800377187821212829e+03
1.801402233678319135e+03
2.248870141816475552e+03
3.126668376870842621e+03
3.160564138589262711e+03
2.799952430075927623e+03
2.080298897710869369e+03
1.952835849265101842e+03
2.003215907949545453e+03
1.684648024296774111e+03
1.836259630847773224e+03
1.643847394892150760e+03
1.449233642373892053e+03
1.241497071853637181e+03
1.015585783486194600e+03
8.623507991540136572e+02
1.173225388887360850e+03
1.502762292612271040e+03
1.882677415674523900e+03
2.119390937123553158e+03
2.499226511636335999e+03
2.859887938785847837e+03
3.009143123182789623e+03
3.395037951480920128e+03
3.209637539873200694e+03
2.822885362698484187e+03
3.309817872667118536e+03
3.669412730437106802e+03
3.699592762876312918e+03
2.907425918700555485e+03
2.229969682523479605e+03
1.982207799962011904e+03
1.924119010234924872e+03
1.592725775463162563e+03
1.346051869934584374e+03
1.290236025327515108e+03
1.607262800950062001e+03
2.587120305063122032e+03
2.465798335611906168e+03
-2.396382361632106210e+02
-4.621111749366317781e+03
-6.239477781050045451e+03
-5.564717870847505765e+03
-5.578749410049829748e+03
-6.138489336788215951e+03
-5.550942687065348764e+03
-5.878106213628717342e+03
-6.358012163498619884e+03
-6.241621733391858470e+03
-6.416856152164563355e+03
-6.553666682405197207e+03
-4.960066295568419264e+03
-5.386950460617315002e+03
-6.368180951193391593e+03
-2.938705888102886092e+03
-4.462414923647627802e+03
-7.573337236296300034e+03
-7.109444760177572789e+03
-6.839682538509749065e+03
-5.835981715505988177e+03
-5.287151227213749735e+03
-4.368101563329631972e+03
-3.685809714557630286e+03
-4.005225720297167754e+03
-4.572333986412057129e+03
-4.345022242838679631e+03
-4.446197074400024576e+03
-4.791889035022138160e+03
-3.082079036232481485e+03
1.270330543713640509e+03
2.852416710346602486e+03
3.420216277972716398e+03
3.812815890923594452e+03
3.121230299807316896e+03
2.897440625833899503e+03
3.072550435080516309e+03
3.095719246109731557e+03
3.162058039404825649e+03
3.184547725515431466e+03
3.412296932260889662e+03
3.512489272300184894e+03
3.858219672184771753e+03
4.724535196580332922e+03
5.480518792158897668e+03
5.453248892160276228e+03
4.985837381517353606e+03
4.504240778051167581e+03
3.762517958138326776e+03
3.175697637175136606e+03
2.860846105535176775e+03
2.069004031897167351e+03
1.457246249355809823e+03
1.477664753730433176e+03
1.381280902821401469e+03
9.901190666736149524e+02
7.092267035921146316e+02
1.194644356114104994e+03
1.437424023778244646e+03
1.292712115607275564e+03
1.162523452444455415e+03
1.533974502759450161e+03
1.821192378072263182e+03
1.559315236309525517e+03
1.772310422001230336e+03
1.728218735811181432e+03
2.108186253734801085e+03
2.254037966190356656e+03
1.883683867862211628e+03
1.353302000255743906e+03
7.594192731093422708e+02
2.544222237656634036e+02
1.141845517468024127e+02
-7.534733608653683632e+02
-1.678479432293812351e+03
-2.237685575370630886e+03
-2.387051121734108619e+03
-1.998794261656496928e+03
-1.313817226515865514e+03
-1.063946173346862452e+03
-3.263094281449866116e+02
5.102512841320026382e+02
1.395175159614261020e+03
1.900467013382153254e+03
1.409148711699080422e+03
1.196593957256329304e+03
1.100464452413090157e+03
9.266831708528596891e+02
6.032325350043105345e+02
3.270231930767783979e+02
4.170726957362019220e+02
-2.335016923678444982e+02
-9.647280632515326033e+02
-1.368733677152393511e+03
-1.656578125209430937e+03
-2.066248476911644048e+03
-2.591820296065202911e+03
-1.814392581521711691e+03
-1.316969477885971628e+03
-5.595807187772056750e+02
4.478285855960856452e+02
6.373013320118752745e+02
9.158235504965094833e+02
1.692352521025286251e+03
1.906832266729467165e+03
1.682226589587062335e+03
1.748532864992728264e+03
1.641739947014060363e+03
1.086764996687411440e+03
8.236239409141529677e+02
2.331838462195778732e+02
-5.916539753524406251e+02
-8.899447982645087905e+02
-1.033686259354960157e+03
-1.008985367408244201e+03
