7.750927363915365049e+02
-1.257728594129133398e+03
4.668138967858769206e+02
-2.229160871018123999e+03
-2.243658751209773982e+03
-1.751660035720668930e+03
-4.919005687905371815e+03
-4.589690544979480364e+03
-4.541687386778238761e+03
-3.427927512696188842e+03
-6.543049203859962972e+02
7.572189673911329919e+02
-3.498315720965179480e+03
-4.527872212934521485e+03
-4.081392735086400535e+03
-2.008783200924016455e+03
-2.088021652149024703e+03
6.640227505826676406e+02
1.258278517229214231e+03
-5.324246958500076943e+01
-4.481444264178743651e+03
-2.788303410463593536e+03
1.079241296257285285e+03
1.745225568460373097e+03
1.662553144980335674e+03
2.894342157456424047e+03
3.586652078914846697e+03
3.983375070283553214e+03
4.433358055279731161e+03
4.662731928634075302e+03
4.674633565853377149e+03
4.311876974940623768e+03
4.680498507491432065e+03
3.876596208187059801e+03
2.366194165637788956e+03
1.367337342113430623e+03
1.326973595226043699e+03
1.837032720391140401e+03
1.864578741145569893e+03
1.359579730922373756e+03
1.175035205245020052e+03
1.771969773478495654e+03
1.707402766201063741e+03
6.562627688042690579e+02
3.261066186743197903e+01
-5.975090630288369908e+01
2.981788062239174906e+02
3.638892740805171684e+02
-5.645867040694568004e+02
-1.845419104435927693e+03
-2.700608154186651063e+03
-1.843115516585898376e+03
-8.619480241225180635e+02
-2.321987293797827192e+02
-3.520008147638445735e+02
-3.234324447220646107e+03
-5.140799812662822887e+02
1.937736220279041618e+03
1.782093075446164676e+03
1.019887188716813398e+03
1.330208805137761146e+03
1.089392631720950249e+03
-5.593915080656200871e+02
-8.999239404279417158e+02
-1.289293133448747994e+03
-2.216460745553117704e+03
-2.332604504026138784e+03
-1.773651686270704658e+03
-1.037520030224679203e+03
1.233526734689342902e+03
4.623259616246403311e+03
4.898863088986913681e+03
3.872115281747549034e+03
4.030672966580626507e+03
2.935360098089711300e+03
6.635826201722603628e+02
-3.459699012831866298e+02
-9.904806612720492467e+02
-6.693711437502514627e+01
6.448413451501220379e+02
1.412866312901956917e+03
1.539007814111139851e+03
1.413296194814820637e+03
2.665736710335581392e+03
2.122231530654088601e+03
1.100777491056075405e+03
1.161278892377868488e+03
-8.523498659867673268e+02
-2.464122808077157970e+03
-1.322934141782452798e+03
1.458288479746720668e+03
2.559437180776742935e+03
2.973347890824864407e+03
3.255930761585196251e+03
2.078066549508592288e+03
1.260782818402430848e+03
1.803190607991845354e+03
5.422237090097376040e+02
-5.562098056686903647e+02
-1.143125667976760951e+03
-1.830456965026602120e+03
-1.548208047418027945e+03
-8.264134024474583384e+02
-9.560080047253121620e+02
-2.483088930195470311e+03
-2.953559068420996027e+03
-5.953676194174236116e+02
1.544353767331904805e+02
-3.708175805260191737e+03
-8.271174759618519602e+03
-8.451463403807218128e+03
-7.805248676845538284e+03
-7.570653381031499521e+03
-6.744798406412296572e+03
-5.970714743541721873e+03
-6.183230359587847488e+03
-6.259470837963877784e+03
-4.876543935519736806e+03
-3.542426964678572858e+03
-4.530144187999749192e+03
-3.215643407524861686e+03
9.924280937310267348e+01
-1.413567069572999799e+03
-3.738048803754914388e+03
4.337801525182568980e+02
3.098942209169942998e+03
3.336463196408434214e+03
2.999238244723731441e+03
2.870129585932798364e+03
2.371961177561332534e+03
2.787837974889248471e+03
4.520922398328455529e+03
5.110292735588871437e+03
3.874050673752601597e+03
1.909078625418497268e+03
7.994060420742799806e+02
9.199610779149976736e+01
-1.664167144255334733e+03
-1.755951767703509176e+03
-1.583286991705992250e+03
-1.260169881017076477e+03
-1.265633319242022253e+03
-5.856963048379845986e+02
-5.783230992522917404e+02
-9.684619832735205591e+02
2.007968393724977147e+02
9.873987617002836714e+02
1.940298201578533963e+03
2.154576058948769514e+03
2.189366304346915967e+03
1.824812032696702772e+03
1.571912760147724839e+03
3.029646827718504028e+03
4.717133515359490957e+03
4.910300500027212365e+03
4.628183706728607831e+03
4.093749711078860855e+03
3.118977417650864027e+03
2.699943413193936976e+03
2.266650787380685870e+03
1.499092604746490679e+03
1.996329941127168695e+03
1.499334933573716853e+03
1.091353772980986747e+02
-6.451959268282053017e+02
5.284470490020256648e+02
8.681463507878701193e+02
1.209351316388299438e+02
-1.792163528267234938e+02
3.657546454978468091e+02
1.820905343067604690e+03
2.908312670848466496e+03
2.863948048662085057e+03
2.334840665966095912e+03
2.133993332849248418e+03
1.298403130905736361e+03
-1.587796793172871332e+02
-1.910595580035199873e+03
-1.657963549460328522e+03
-3.104865163833269435e+03
-2.616346575796913385e+03
-2.336844568743109818e+01
-7.389401792034050231e+01
-3.168788052177894315e+03
-2.767071278630156939e+03
1.273326519179148818e+03
-2.844929542026306422e+02
1.208535753194272729e+03
3.952578453079659653e+02
-2.350401577314197766e+03
-2.353281318646905675e+03
-3.313353877563811807e+02
5.693750097272246649e+02
1.789578514124835920e+02
5.483980678812171163e+02
-3.075500434477004546e+03
-4.980585081417122638e+03
-3.928708135763849896e+03
-2.493844365475009454e+03
8.498590591755348100e+01
-1.220191896663950047e+03
-1.696357757160412348e+03
4.024163595454958227e+02
-3.827551866832021119e+02
-2.871963262023210518e+03
-9.753425745552295894e+02
-3.487714585094936410e+03
-4.098543269930735278e+02
9.564532301690600207e+02
-6.397849092142132577e+02
-6.587022401499845046e+02
-8.773467245611236649e+02
-2.075808802812011891e+03
-1.969364654786122628e+03
1.008943965223552595e+03
-1.538714691418527991e+03
-1.025085428205974722e+03
-2.261169842007187526e+03
-5.795168564107995735e+03
-4.154167811177231670e+03
-1.601017638062644210e+03
-4.997720521074598423e+02
-1.253452143195459030e+03
8.589511367242470214e+02
3.429383611939889306e+03
2.229782704430913327e+03
-7.548040956012847573e+02
-1.993520566083841743e+02
1.351125641207707304e+03
1.228645230331788525e+03
7.201839766251196124e+02
1.700759260332107260e+03
3.534186588304215547e+03
5.285341628737315659e+03
5.493372347538280337e+03
4.298353667127764311e+03
2.819201993553707325e+03
1.618901095411863935e+03
8.406419285043873515e+02
2.361762862763391695e+02
-8.436133804756766494e+02
-7.687220859804706379e+02
1.190839273903224921e+03
1.868846691039168945e+03
1.944232957519492629e+03
1.651008197464980867e+03
6.381406758313505634e+02
-1.564319792764783301e+02
-3.341700865380329333e+02
-9.832952804512658531e+02
-4.860883684155830906e+02
1.431782197462066506e+03
3.062050498490694736e+03
3.796858111853196988e+03
2.760098631921014203e+03
1.004501689550505603e+03
3.736783971636015877e+01
2.091867269216898819e+02
3.283295463624828017e+02
2.836021247265324519e+02
-2.330284346365152430e+02
-2.226918873462907698e+02
9.906721118225218561e+02
1.613986647741402749e+03
1.882228724393120729e+03
1.978438747491257118e+03
1.521563976269242175e+03
1.076396096778023548e+03
5.118969014605546590e+02
-4.063844817996301373e+01
-6.301213267022510536e+02
-9.905380757896358546e+01
-6.309269159489618772e+01
1.032567019984870740e+03
1.240749528301683995e+03
1.327295670341874256e+03
1.942344399421148637e+03
1.649039983631051427e+03
2.125838176457155441e+03
2.786683075218758404e+03
1.804734440346046540e+03
1.732233890989578185e+03
2.602885456311169946e+03
2.418612250041004700e+03
8.634014676641307915e+02
6.891883862928312965e+02
1.603020983923325730e+03
1.533960251090537668e+03
2.106049781938776505e+03
3.081188948397239074e+03
3.190480784256328661e+03
3.266979514382920115e+03
2.982562580054102455e+03
2.585116186750562974e+03
2.499593887470197842e+03
1.765982574676437935e+03
1.189325252882264067e+03
5.616914358711757131e+02
3.471233912976079523e+02
-3.965154328508512549e+02
6.247050788753338111e+02
-1.632180649621146813e+03
-5.669069297084735808e+03
-6.446004521784473582e+03
-5.677986126108189637e+03
-5.515709588244289989e+03
-6.003873265507993892e+03
-5.866772935143112591e+03
-5.224932476604887597e+03
-5.043433055444374986e+03
-5.838274773675757388e+03
-6.278326180234657841e+03
-5.903967905947492000e+03
-4.898402164236287717e+03
-5.031579441886446148e+03
-5.043195957927724521e+03
-2.355922304654713116e+03
-3.925887634021877602e+03
-5.613546022110309423e+03
-5.171056816272446667e+03
-4.673386496240520501e+03
-4.932604000909596834e+03
-6.682739858700398145e+03
-6.895684805239009620e+03
-5.001174098006752502e+03
-4.982769840009162181e+03
-4.903280948743950830e+03
6.149754679639249844e+02
3.417083629917472535e+03
2.668533296761887414e+03
-3.826350294558174028e+02
2.292159058934416862e+03
3.010774373268503041e+03
1.976365703314982056e+03
1.376826948636161205e+02
-1.487534019239687098e+02
2.775757959714089225e+02
-1.287952375289283680e+02
6.330219814444624262e+02
2.494198514339864232e+03
3.663232233100341546e+03
4.998350184627076487e+03
5.391283744611947441e+03
4.104611629097442346e+03
2.723452416802064818e+03
3.142414100967535433e+03
4.691643809062114997e+03
5.213075340675161897e+03
4.791256880399942929e+03
4.625403986560550038e+03
4.302403442864640965e+03
4.215384304070402322e+03
4.232976542113799042e+03
3.675672003861963731e+03
2.947508092620444586e+03
2.627992088249319750e+03
2.546100559669195718e+03
2.191227273698995305e+03
1.518810249692545540e+03
1.913808880505130674e+03
1.408073001772566386e+03
1.042357119272111959e+03
9.520572268361678425e+02
9.640384158296201349e+02
9.505784972139176716e+02
8.354966606251155099e+02
1.719631661939296919e+03
1.344518025023733571e+03
1.984044372259403417e+03
2.949531346792653949e+03
2.776673208260603587e+03
3.611013791488845072e+03
3.803451682480927957e+03
4.231061757270376802e+03
4.575580735883778289e+03
3.654910428337286248e+03
2.156586244480493406e+03
2.123735017101572794e+03
1.994759959462667439e+03
2.052177072109164783e+03
1.652749120273887684e+03
1.703309904200695655e+03
2.502378181368269907e+03
2.566775163814897951e+03
2.544383324399144840e+03
2.249587346372484262e+03
1.769923072959551746e+03
9.423627115746231766e+02
9.271957532059865343e+02
2.458996074658813541e+03
2.599334268020755644e+03
2.331211429379898163e+03
1.791124347589732452e+03
2.395853720726248639e+02
-2.254554034109982865e+02
8.982670439098494626e+02
1.297200616627262434e+03
9.838021284669855504e+02
4.927847467660712368e+02
5.379097040578230917e+02
7.431951944137505279e+02
4.335567573590985830e+02
3.254929915690816529e+02
-8.913082708989718128e+01
-9.285039047004415806e+02
-1.734490724855980943e+03
-1.283740421161865470e+03
-5.243625736796271894e+02
-1.217070765910421528e+02
3.897425692863244535e+02
2.340197071820166741e+02
5.959136338891203195e+02
7.192670460396406042e+02
3.984586145375455999e+02
2.749616502083778187e+02
-2.958536434037364984e+02
-1.929122416634721048e+03
-2.795359190572505668e+03
-3.405377105856636717e+03
-3.750332551063920164e+03
-3.481860471527959362e+03
-2.887731647283719212e+03
-2.246712354868335296e+03
-1.794212733437552970e+03
-2.412824585218277207e+03
-2.506589270251859034e+03
-2.022232801117460667e+03
-1.617990588166229372e+03
-1.900604650512472517e+03
-1.591879604182603089e+03
-2.134622286554873426e+03
-3.533344823244852705e+03
-3.391060731320799277e+03
-3.866338174622534098e+03
-4.079690835346543736e+03
-3.479487750060226062e+03
-4.480642751596066773e+03
-4.808151355213792158e+03
-4.966780313937708343e+03
-4.585173270276696712e+03
-4.710113945674550450e+03
-5.553493977333705516e+03
-5.026409439553764969e+03
-3.939945101341538702e+03
-4.241466900494061520e+03
-5.329198085864717541e+03
-5.753736816207712764e+03
-5.001854540098042889e+03
-4.556025846000909041e+03
-3.597822255035884154e+03
-2.870158992005551227e+03
-2.924014853884299100e+03
-3.454673506581355923e+03
-4.301159914837536235e+03
-4.552437039217065831e+03
-5.414733144489422557e+03
-6.883820701244738302e+03
-7.217353057263105256e+03
-7.302329174264640642e+03
-6.485907355067650315e+03
-6.218861019169692554e+03
-6.802544206606897205e+03
-7.112055343987995002e+03
-8.037074765172095795e+03
-7.685906679499039456e+03
-6.591370373345806911e+03
-6.046569919981182466e+03
-5.606038487216526846e+03
-5.163553143610904954e+03
-5.355558660028660597e+03
-5.655434672571693227e+03
-6.060869461880015479e+03
-5.743785811405329696e+03
-5.030726567211150723e+03
-4.996432480067470351e+03
-4.681649785419092950e+03
-3.892461771252326798e+03
-3.960299404494495775e+03
-3.908005726566547764e+03
-3.954849644813069517e+03
-4.205006239280817681e+03
-4.543209418605687461e+03
-4.649235269963611245e+03
-4.504979485304809714e+03
-4.880221747524934472e+03
-5.334968890907877721e+03
-5.090409961122602908e+03
-4.299237317853104287e+03
-3.840881597281741051e+03
-2.685954945965209390e+03
-9.603394015432303377e+02
-7.340419597334540924e+01
1.023054566165383363e+02
1.541981720013971824e+02
1.681356276607763903e+03
1.430797084104509850e+03
1.003444819963392092e+03
9.841215904692310232e+02
9.831136234797968427e+02
8.995996001154634314e+02
2.539134460518893661e+02
-9.094830496065708303e+02
-2.563640706859176589e+03
-5.275741148423262530e+03
-3.166992138643843646e+03
-9.345115304101987022e+02
-2.187396844882340702e+03
-2.697115100104270979e+01
1.876404569705633094e+03
2.373496550391777419e+03
3.946088659405767885e+03
3.600914883985322376e+03
6.012442688574659769e+03
5.453266596584147010e+03
6.309072123232635022e+03
9.310305947353388547e+03
7.985664944570949046e+03
7.504980842118380679e+03
8.918752237123080704e+03
5.487618015992743494e+03
4.749333068903459207e+03
4.589806234739794490e+03
5.468727150431855989e+03
6.486293989200746182e+03
6.750048661282985449e+03
4.925955486977667533e+03
7.201649471786303366e+03
4.781421281196056043e+03
9.392750446915057182e+03
1.077106649652586930e+04
1.406328250413351634e+04
1.444592419446994791e+04
1.511227335265965303e+04
1.406980762843831326e+04
1.169884964229012076e+04
1.151034184249483224e+04
1.097040154808754960e+04
1.338802872613084764e+04
1.415782408373951148e+04
1.399117513335509466e+04
1.368462387075056358e+04
1.276888055646565226e+04
1.236262745681207889e+04
1.273030824438506716e+04
1.356639201166866405e+04
1.419731853012536158e+04
1.530844448576545074e+04
1.657326807477799593e+04
1.679715121786536838e+04
1.652740140952811635e+04
1.635639075301887351e+04
1.560869416001642458e+04
1.470815498284184469e+04
1.493538029088102121e+04
1.691982502748837942e+04
1.689715504741172117e+04
1.460521473803480694e+04
1.242039056119990892e+04
1.163890948271078378e+04
1.054718790833534513e+04
8.846995123926852102e+03
9.840004924397302602e+03
1.484776864823409596e+04
1.718120744242717774e+04
1.446580397413854553e+04
1.014096836478922705e+04
4.283275808525013417e+03
-2.310730609746802656e+03
-5.538415740855598415e+03
-6.496022992708111815e+03
-6.737853180878720195e+03
-5.428119385252931352e+03
1.167924440260344596e+02
6.444548868801442950e+03
7.232180201416407726e+03
3.885319736209254643e+03
1.106810514682239500e+03
-3.840490590416864052e+03
-1.173572120878238275e+04
-1.985894277215973852e+04
-2.595937549394829330e+04
-2.733636690037072549e+04
-2.438682438551941232e+04
-8.541680560060098287e+03
1.018592080482197707e+04
1.059000647351347470e+04
-1.878596709120765581e+03
-1.121176490957822352e+04
-1.265968864997684977e+04
-1.141812995467211294e+04
-1.342899872493037765e+04
-2.138709812569832502e+04
-2.420725484561720805e+04
-1.980532624128415046e+04
-1.640625038498084177e+04
-9.758847952173658996e+03
-6.735086295073906513e+03
-1.614880788205528552e+04
-3.319377951734103408e+04
-4.584369817447177047e+04
-4.861126825250543334e+04
-4.343317156401015382e+04
-3.144115405687273233e+04
-1.420892324199223731e+04
4.580430079886580756e+02
7.761244222980276390e+03
1.166133509293485758e+03
-6.945713744157907058e+03
-7.710823178843635105e+03
-1.434572111779034276e+04
-2.429792708231712095e+04
-2.964104612627059396e+04
-3.635158170976119436e+04
-3.932192810916190501e+04
-3.537848891658867069e+04
-2.985167914324385492e+04
-2.536785986073680760e+04
-2.456932166250735099e+04
-3.108348156534765803e+04
-3.757273082889337820e+04
-2.803943708617732409e+04
-8.714923440862110510e+03
1.275058965600855845e+04
2.430574897850440539e+04
2.498323974978402839e+04
1.651264284285369649e+04
2.755649200932068197e+03
-6.074022753998492590e+03
-4.523820007845344662e+03
-4.719023477900263401e+02
3.627577435346451239e+03
8.734274656459674588e+03
6.758424522278311088e+03
9.622953829714857420e+03
2.321446657290864823e+04
2.940371893115399143e+04
1.855836867387680832e+04
1.056705008985398490e+04
7.873711308710914636e+03
4.216679937678462053e+00
2.709202111059702474e+03
1.266862609363279626e+04
1.885847700952109153e+04
2.818459497680000641e+04
3.230687127368799338e+04
1.617532811140703052e+04
1.812516141534234066e+03
-3.138054714047634661e+03
-1.516641734135969273e+03
-6.284409222028974909e+03
-1.474866717663947384e+04
-2.024789991277788795e+04
-2.057546150328781005e+04
-1.414063825619891031e+04
-1.049467817132265191e+04
-8.573715080455105635e+03
-6.697919634861633313e+03
-6.292649669212115441e+03
3.228773199962901344e+03
1.319909297615383548e+04
8.715084168498742656e+03
3.782462639381812551e+03
1.851803966098885439e+03
-3.423618751970423546e+03
-1.354423263646331861e+03
1.038992841940833569e+04
2.619588778617800199e+04
4.154401628947225254e+04
4.316384876765814261e+04
3.489595560356869100e+04
2.949481049006349713e+04
2.734681581500560424e+04
2.126955899970333485e+04
1.872160158040814713e+04
1.823421015095785697e+04
1.268770131476852293e+04
7.981435987374639808e+03
3.970648772662355441e+03
2.709574740393622506e+03
7.210459986251004011e+03
1.591057672030327922e+04
2.509322651561035673e+04
2.540156651754209088e+04
2.167075538200753363e+04
1.847895942047775679e+04
1.383928193382207974e+04
7.662855834858149137e+03
4.649865318819130152e+03
1.191936254001310772e+04
2.420423297781907968e+04
2.928953770157736653e+04
3.002815186288430414e+04
2.756698243016338893e+04
2.387211514368059943e+04
2.267941828590017758e+04
2.093683771506847916e+04
1.499922261462292772e+04
9.519360261396243004e+03
2.761157024782602093e+03
-1.731776800178180338e+03
2.079184051619552520e+03
-2.068127470180871114e+03
-7.594912966266815602e+03
-1.202646673152304356e+04
-1.077419227310737551e+04
-7.046359993732286057e+03
-5.735397014700146428e+03
-6.227742700524811880e+03
-4.732757848069067222e+03
-5.359758934118744946e+03
-5.672141057375735727e+03
-1.196341022192550736e+04
-1.822576046337332446e+04
-1.409863663908933268e+04
-1.133778382896388575e+04
-1.012694516696406208e+04
-1.152977341486125442e+04
-9.415755097752589791e+03
-6.238406436854504136e+03
-5.538366234772562166e+03
-5.536214597651534859e+03
-7.029681174313160227e+03
-1.680946769090760426e+04
-2.389905418806877788e+04
-3.290805229768513527e+04
-4.054827920463649207e+04
-4.270234627625130088e+04
-3.974094379163515987e+04
-2.870779793422093280e+04
-2.142868415030830147e+04
-1.230747685519726474e+04
-1.897807406372657624e+03
-3.524323434015137764e+02
-4.548184882362158532e+03
-1.023969418994690750e+04
-1.024774146340003426e+04
-1.054001381913848672e+04
-6.793101153992611216e+03
-3.615916934580470297e+03
-1.324133086434674397e+03
-6.699163113718909699e+03
-1.273779031130363910e+04
-1.057921918233604265e+04
-3.831453556628753631e+03
5.137457959495225168e+02
-1.142280490960177076e+03
-6.062849548687851211e+02
8.639975663919387443e+03
1.176878825494137891e+04
7.477446195294531208e+03
4.308311274153975319e+03
2.079536615942621665e+03
-3.224525371026304015e+02
-5.085210134351435045e+03
-3.896431651569523638e+03
4.973298306627424608e+03
8.024275599456330383e+03
6.084688024687109646e+03
5.161349932247843753e+03
3.237549564560847102e+03
8.073234152399478489e+02
-1.861426344200572771e+02
-5.014988243065284479e+01
3.769574167699572058e+02
1.515921821881293454e+03
3.856595650374414163e+03
7.335666664586819024e+03
1.034648929982814661e+04
9.834694881494964648e+03
8.542871344375284025e+03
8.450755817539444251e+03
5.336509829898358475e+03
1.967422039395712773e+03
-5.043086689614808904e+01
-3.943711787694696341e+03
-7.037243405650893692e+03
-9.221855331299551835e+03
-7.684003585501311136e+03
-4.255903934963014763e+03
-6.039057859852317961e+03
-8.831906542997323413e+03
-6.731618178117715615e+03
-2.852162406138510050e+03
-1.667994108243404298e+03
4.269805623779869848e+02
1.316944697984283266e+03
-5.050043828902536006e+03
-1.398733460170807666e+04
-1.432079858566093208e+04
3.704389022490968273e+02
1.600397763692155786e+04
1.448978120427380600e+04
7.534861612123812847e+03
4.228223206786879928e+03
2.601434721524039560e+03
3.396757808291845890e+02
-2.783834605243282567e+03
-5.281030128145798699e+03
-4.204822854076737713e+03
-1.958132816259786068e+03
-1.770010587089578848e+02
2.376365040249037065e+03
4.576984690991068419e+03
6.856062441028198919e+03
8.007811192618390123e+03
6.393385066860265397e+03
2.262991257108217724e+03
-1.727216664874653816e+03
-2.822979430569614578e+03
-2.888025306326760074e+03
-4.183238283064575626e+03
-3.475486889350111596e+03
1.286706175520291254e+03
7.299892957618852961e+03
6.443327032453920765e+03
2.552469749316415744e+02
-1.787026991533727596e+03
-1.246178585927287941e+03
-1.654141981640382028e+03
1.767016943462020890e+03
4.996725839616110534e+03
6.770725752009470852e+03
7.800678691825174610e+03
6.369397205800571101e+03
4.311491188264054472e+03
3.710094403845178931e+03
3.930389412857695334e+03
4.165670932379190162e+03
2.912089719165746374e+03
3.635655277543605735e+03
3.811650238314468879e+03
1.237801023928878521e+03
8.128416851953357991e+02
1.061328462034193308e+03
9.490171658450387895e+02
2.762575466962980997e+01
-1.088188041499694464e+03
-3.431795780856868532e+03
-5.732202662604595389e+03
-6.712409833628900742e+03
-2.377243610136051757e+03
2.128176481991338278e+03
1.678499615700258119e+03
-5.927822743246426853e+02
-4.391892705631113927e+02
6.222340828280938467e+02
2.667628465770040336e+01
-7.582700875535792875e+02
3.824402848212362755e+02
2.651973614756585448e+03
3.092127218591796918e+03
4.932285980997176921e+03
6.378495440077346757e+03
6.839445036094045463e+03
7.723620453701751103e+03
8.480208459013309039e+03
7.395438544814152920e+03
5.484059569307212769e+03
3.668837309550589907e+03
1.897427667583667244e+03
7.874010227331342548e+02
-3.110295166668376510e+02
-1.105220837242746256e+03
-4.406596873495016098e+02
8.173814564054366656e+02
2.470686723992974748e+03
3.626090287845053354e+03
2.959427996278057435e+03
1.862760076059243374e+03
1.463548419129315107e+03
9.889301832737504583e+02
-1.404089888626158427e+02
1.475741676317994973e+02
8.601444164574639899e+02
1.124763878896727192e+03
1.201366258022407237e+03
1.039310775395544624e+03
8.913332681396429962e+02
1.988674953536020666e+03
3.979253565616912510e+03
4.906731402911709665e+03
5.334994122811760462e+03
6.006157805579760861e+03
5.448122781784289145e+03
3.147728213421279179e+03
8.413387179866866745e+02
-5.519952769113559725e+02
-4.060398742524081172e+03
-3.410854125640864822e+03
-1.462437672245138401e+03
-1.563807409697537594e+02
9.345392421694655241e+02
5.905669120915796384e+02
-2.791163401989043450e+03
-4.481712381208274564e+03
-4.706195590590235952e+03
-8.121026100620620127e+03
-1.030791936317329601e+04
-1.071046776431181752e+04
-1.091548440682493310e+04
-1.032035912779905266e+04
-5.253845123405884806e+03
-2.427795673088708384e+01
1.563592749343044034e+03
2.814215203655237474e+03
5.172165454931406202e+03
5.903028341167622784e+03
4.495164812620107114e+03
3.341384966546448140e+03
1.114386836151627904e+03
-2.018402330132003044e+03
-4.015981443143707111e+03
-4.036419426783018480e+03
-4.394764342476812999e+03
-5.296043277138422127e+03
-4.953152185477441890e+03
-2.914555846396376182e+03
4.687327306295075005e+02
4.263815574572803598e+03
5.994376196469269416e+03
6.057641721259786209e+03
5.731983074257462249e+03
4.370306420670436637e+03
2.564852850982477321e+03
1.394221905075146651e+03
1.028263510460749558e+03
2.286845753872458999e+02
-1.196708310692958548e+03
-1.177199443865560625e+03
-2.755232289035009217e+02
-1.958776200080212959e+02
-5.465608144319278381e+02
-3.783560649723390839e+02
-5.333812590206896402e+02
-9.568044095898430896e+02
-1.498070480002863860e+03
-1.763827108512310588e+03
-2.101641225681491051e+03
-2.566945143677950000e+03
-2.593351420284805499e+03
-2.262751882948581169e+03
-2.860315089717572846e+03
-2.413992008750225978e+03
-1.184683071079429737e+03
-7.836678440713063765e+02
-6.959848998391765917e+02
-3.983306701907459342e+02
-1.258475150368336699e+03
-2.002344851848343524e+03
-2.496818890410968379e+03
-3.051079356869251569e+03
-2.631559944865267880e+03
-1.481277651496359340e+03
-1.139943016112785472e+03
-1.667527202524911729e+02
1.032569388726663959e+02
-6.260465149120294654e+02
-1.629461045614740442e+03
-2.815620715318179464e+03
-3.638456202739269429e+03
-4.417093746979805474e+03
-4.435022367530285919e+03
-4.504738246372407048e+03
-5.340408919825108569e+03
-6.513168544581722017e+03
-7.026444725153381114e+03
-7.494262770663657648e+03
-8.172822749330201077e+03
-5.617685868198136632e+03
-2.450754213660438836e+03
-5.579848077373333126e+02
-8.425689520468658884e+02
-1.460624539036935175e+03
-1.445099245238621052e+03
-1.384386592422921012e+03
-1.655706879874411470e+03
-2.361267585864355624e+03
-3.373132807092636085e+03
-4.500163585199750742e+03
-3.787744650250728228e+03
-2.045016081714460142e+03
-1.732784101097593066e+03
-9.172396593738629917e+02
2.201751234317029926e+01
6.963679452136422015e+02
1.465841343296912100e+03
7.954212745873201129e+02
6.547746277245322517e+02
4.755168750323061886e+02
-4.808815379326512129e+02
-9.650470731748687285e+02
-2.024830588242377189e+03
-2.655712137793810143e+03
-1.420726092783548893e+03
-2.429233756994912255e+03
-2.382285784275613878e+03
2.977033662107832697e+03
8.891188320710460175e+03
9.727319420516440005e+03
7.884805877955857795e+03
6.108051047735076281e+03
4.869217564198265791e+03
4.117725347065102142e+03
3.901213184612497571e+03
3.266923234208678878e+03
1.992393746814572523e+03
1.337146108383318506e+03
3.280261339286765860e+02
-1.037832822300156067e+03
-1.148321803329421073e+03
-1.142194717923071266e+03
1.351002895056430191e+02
1.030915424590787097e+03
-9.755128966549045799e+02
2.240237874531927446e+03
4.204315493738596160e+03
-2.423155106739324083e+02
-3.690325645654600521e+03
-3.122759969773924240e+03
-2.838639337549993343e+03
-8.731946664772443910e+03
-1.024476622734039483e+04
-1.030723365275985088e+04
-1.084142392517607004e+04
-1.170527693770881524e+04
-8.363453403069866908e+03
-4.180665442579731462e+03
-2.829008244730319802e+03
-2.143221678545230134e+03
1.307035452386066254e+03
2.598934096557111843e+03
8.568341483730326047e+01
-1.168704032662746386e+03
-1.965005628170957834e+03
-8.023922214847301575e+02
-8.050684079407624267e+02
-2.568515828433764000e+03
-3.996468255147935906e+03
-4.299134641987271607e+03
-3.157656715027240352e+03
-2.498816376243382365e+03
-2.363645399504399848e+03
-1.491957429662812274e+03
-2.550420100900412592e+02
2.557559739854820236e+03
6.673302412132506106e+03
5.644951370299545488e+03
3.001456470931894728e+03
2.873308565807928517e+03
3.004040503568750864e+03
9.545122330162740809e+02
-2.863021598030306336e+02
2.579498348534819456e+02
1.364564768976244522e+03
2.624675045930552642e+03
5.004011521019027896e+03
7.320681191445422883e+03
6.691900995690121817e+03
4.587507353463385698e+03
3.875638073429634915e+03
4.573243824792345549e+03
4.488267897902735967e+03
4.336120845047291368e+03
3.701321651270890015e+03
2.932097166267070861e+03
2.336290859849350909e+03
1.075917227026251339e+03
1.302464114026307413e+02
1.311648821229339603e+02
1.332314655652401143e+03
1.925546227224858512e+03
3.075640705298476405e+03
4.203307937715443586e+03
4.613447099351065845e+03
4.353199902055400344e+03
3.647686895662306597e+03
1.985197845853275794e+03
-3.644774683865200586e+02
-1.964718967089758280e+03
-8.443978194381739968e+02
1.334828048477942275e+03
2.925678388729285416e+03
4.010426217871467088e+03
4.687171155596378412e+03
3.923914734679447065e+03
3.061918904086118800e+03
2.781110390758439280e+03
1.704599865554485177e+03
-2.343917259304052436e+02
-1.108096579058678117e+03
-1.061374398244931626e+03
-2.053134527740294288e+03
-2.618209518670524176e+03
-1.524478152436749383e+02
1.063389644563593720e+03
1.643335281265513686e+03
1.624359698520566781e+03
2.043304380853174280e+03
2.329819615630874068e+03
1.631894190176769598e+03
1.702960354045174881e+03
2.248795751256475342e+03
2.541084762017530466e+03
1.588997278160523138e+03
1.268648240599937253e+03
1.485816032012252208e+03
1.293266015248436361e+03
7.722254886633055548e+02
5.259072908983428363e+01
6.522908946703394122e+02
2.227504673945149079e+03
3.280328283209566507e+03
3.042651604962336933e+03
2.682571306543089122e+03
3.014998338299129045e+03
3.622017607919873171e+03
3.341827464771379255e+03
2.799300454353471196e+03
1.213331058912786602e+03
4.218302910139737492e+02
1.069587934194410764e+03
8.763992388014669359e+02
2.762065177653912542e+02
8.731730106096119925e+02
1.060341891850434422e+03
4.496648410078048528e+02
4.040621910178123244e+02
-1.685144052292089896e+02
-8.760913879162873172e+02
-1.339791665129668445e+03
-2.234644139156362144e+03
-2.434659819567150407e+03
-2.721855362656730904e+03
-6.141271618179707730e+03
-9.362834824509511236e+03
-9.338772904641946297e+03
-9.155256672514247839e+03
-9.705263751772668911e+03
-8.737803717725864772e+03
-6.532862816249946263e+03
-6.475508615547402769e+03
-7.429745402612520593e+03
-6.520648554494727250e+03
-8.110229319833325462e+03
-9.488390266578044248e+03
-7.309512438740493053e+03
-4.060652879095224762e+03
1.780299644738930056e+03
5.853247534514700419e+03
6.103137840517782934e+03
4.608235649440768611e+03
4.268398751907517180e+03
3.961427926080711131e+03
3.541452274332161778e+03
3.800395206321549267e+03
4.384151700246515247e+03
4.771641560163355280e+03
4.469740740242191350e+03
3.159016800294842142e+03
2.351337009365735867e+03
1.049799990553691259e+03
3.234013210761451660e+02
5.139073671238434144e+02
3.073284433623322798e+02
-8.341765790333437280e+02
-9.146620127835499261e+02
1.479799229722372615e+02
8.888973261369081911e+02
7.950273145607593506e+02
1.678177494070960165e+03
2.370303138790662160e+03
3.389438601539872707e+03
2.729548032196410077e+03
2.112578846003658782e+03
2.405330111454862617e+03
2.171642822680817972e+03
2.052713308951071213e+03
2.433566048110741121e+03
1.917969032320648921e+03
8.010854612210482628e+02
-5.148517367689534012e+02
-1.071963575537848101e+03
-1.900589265158413582e+03
-2.697713658841311826e+03
-3.327326436637485585e+03
-3.889489968495800440e+03
-2.607244296809509251e+03
-1.159404478158365009e+03
-4.487931780418191465e+02
5.895487629519406028e+02
1.474713932981587732e+03
1.028620495791413759e+03
6.561234735828398925e+02
1.293190770251007507e+03
1.640854396692507407e+03
1.665101043217249980e+03
7.447940680931782254e+02
-7.282266819735262970e+02
-2.086779010495755301e+03
-3.056447327463724832e+03
