7.323619853575735760e+03
8.256486760358891843e+03
9.749347179665717704e+03
1.139594793405649762e+04
1.200964285080224727e+04
1.242324101310883634e+04
1.277760865536742131e+04
1.208264025787186620e+04
1.172431103204940518e+04
1.188645066331235284e+04
1.165377617919978366e+04
1.133232944548698106e+04
1.100204460089179156e+04
1.074340309544205411e+04
1.012077683162031099e+04
9.070813715367157783e+03
9.090300757426779455e+03
9.274305870946864161e+03
9.140170029766415610e+03
9.494770139662479778e+03
1.104832097789305590e+04
1.143328530929503904e+04
1.044299501141882138e+04
1.038551015590611678e+04
1.086744619266181689e+04
1.112521491517302093e+04
1.129651367570508228e+04
1.091417287868190579e+04
9.968331548289637794e+03
9.003510305820371286e+03
7.631533125829632809e+03
6.560458112374432858e+03
6.633656000497861896e+03
6.383961091854673214e+03
6.420131776650126085e+03
6.246294517505398289e+03
5.876156253682594979e+03
5.771521330251965082e+03
5.605640894033400400e+03
5.932700909742229669e+03
6.789837445640093392e+03
7.572846021150390698e+03
7.689414135081662607e+03
8.011186568315929435e+03
8.720428543870386420e+03
9.626949392459748196e+03
9.286759849518781266e+03
7.744942042711404611e+03
5.621474406923913193e+03
3.590382182273997387e+03
2.040501352332727038e+03
-4.249752560748970609e+01
-3.902736753835780291e+03
-7.858047879534978165e+03
-9.956401528483011134e+03
-1.061270979763672949e+04
-8.669134081782196517e+03
-5.398745992356629358e+03
-1.596546445535602288e+03
-1.503533006143164357e+03
-3.652526067518984746e+03
-6.229431499650674596e+03
-8.927409992521799722e+03
-1.168928380996831220e+04
-1.648986693257277875e+04
-2.115717789312477908e+04
-2.677507656510307424e+04
-3.322840171047484910e+04
-3.780894751412696496e+04
-4.097957198843068181e+04
-4.097312401794011384e+04
-3.799743911521046539e+04
-3.969042898672298907e+04
-4.132883443103878380e+04
-3.777544815144746099e+04
-3.262282948376938657e+04
-2.578982600763204027e+04
-2.238835559243145326e+04
-2.135699966904795656e+04
-1.392873392512164355e+04
-1.569941192176202640e+04
-2.544483302473766526e+04
-3.201097044484985599e+04
-3.511764708511688514e+04
-2.400346044168333901e+04
-1.014702434499351875e+04
-8.264006568281472937e+03
-3.369180839773985554e+03
9.318795019706712992e+03
1.720628574599404601e+04
1.318654247992779347e+04
-7.241182479126633552e+03
-2.054967234678466048e+04
-1.751356431856025665e+04
-1.131431229917091332e+04
-1.418981712370313107e+04
-2.174257825979369591e+04
-2.657817021831092279e+04
-2.282645732661594593e+04
-2.108630242957220980e+04
-2.041248630810343820e+04
-1.902663217822099568e+02
2.141184392051530085e+04
1.838641366112239848e+04
9.779920421168601024e+03
1.706151911005088186e+04
2.211848160652769729e+04
2.709411676059431193e+04
4.027778206193936785e+04
5.034300463889056846e+04
5.996219265572407312e+04
6.179575172858809674e+04
5.139475185555100325e+04
3.651566519117065036e+04
2.494081051106979066e+04
1.485571624014835834e+04
7.655710551508977915e+03
6.575379844139680245e+03
3.541040695389140183e+03
-8.606025642057717050e+03
-2.148473714566191484e+04
-3.323069667556307104e+04
-4.219048239122033556e+04
-3.010341330887388540e+04
7.256913057350057272e+01
1.851962126241628721e+04
2.888532586844971956e+04
4.247997392874663637e+04
5.781085832481262332e+04
6.853214882038804353e+04
6.739824110748220119e+04
5.647301543228447554e+04
4.812900759686958190e+04
4.251069657378650300e+04
3.222684300375592284e+04
2.296290689046219995e+04
1.202330978693484758e+04
-4.470085080417944141e+02
-8.002950720132686911e+03
-3.495908348019479945e+03
9.627202639053075472e+03
2.372355239596090178e+04
2.826945730063628798e+04
2.046485214413679205e+04
8.069061783833054506e+03
1.673282922583386153e+03
-5.820130322244321519e+01
-8.035372956432984211e+03
-1.701222060568865709e+04
-2.025757113622766337e+04
-1.952234422786888172e+04
-2.135663063979935032e+04
-2.291944495556234324e+04
-2.389966807311385492e+04
-2.670519943555787177e+04
-3.237704527561585564e+04
-3.138522149648187406e+04
-1.665661364018639870e+04
-1.513427020813498166e+04
-1.468029254013829814e+04
-7.727744542104837819e+03
-7.168507125075027034e+03
-1.044261873887382899e+04
-1.223320772506190588e+04
-1.884834830866725315e+04
-2.619307355963448208e+04
-2.660146551235623338e+04
-2.068064247299432827e+04
-1.840375760758023534e+04
-1.890592495163946660e+04
-1.646131072450623105e+04
-8.167096218591553225e+03
6.032538866552386935e+03
1.798949165399345657e+04
2.267359832125524554e+04
2.161762005956795838e+04
1.804326648397035751e+04
1.655725132794594174e+04
1.579426122754107564e+04
1.201914048729030037e+04
6.475818101844434750e+03
1.783934226154669886e+03
1.657202182487885693e+03
4.644343262282724027e+03
4.118145711482473416e+03
-4.226354112316954570e+02
-4.166263886293219002e+03
-8.160061985484920115e+03
-1.223129938740232319e+04
-1.508931034875197292e+04
-1.451339799423408476e+04
-1.173595359826656750e+04
-7.906270847933872574e+03
-3.238612111907790222e+03
-1.097434987107061261e+03
-3.260162823720989309e+03
-3.883096214245073952e+03
-5.452536313920836619e+03
-6.211877974286696372e+03
-4.509501449745712307e+03
2.655158248247267693e+03
9.680779568468464277e+03
1.030791749616553898e+04
8.053191178449282233e+03
3.718283120816750397e+03
1.674876671098041015e+03
1.948738669180447914e+03
2.401491128024633326e+03
2.198757729474935786e+03
3.841112152626920306e+03
6.804189201730122477e+03
3.840745004417904056e+03
-8.894970672478742699e+02
-2.376036508505953407e+03
-4.962286868128460810e+03
-8.483546442354718238e+03
-9.623102244779922330e+03
-4.187266025022859139e+03
-3.124385991502450906e+03
-8.445839221271942733e+03
-1.207098016725022717e+04
-1.098714107629222417e+04
-8.316692078744343235e+03
-7.642959763852931246e+03
-4.246157808401694638e+03
-6.755353480223440101e+02
1.944255949646337058e+03
3.702901981532514128e+03
7.375236334061093658e+03
1.551580172856052559e+04
1.580543213106337316e+04
1.050873017784333751e+04
8.229533558231007191e+03
1.190361313402027008e+04
1.523969131067460330e+04
1.227258566601712482e+04
7.427132206011998278e+03
4.390958590124761031e+03
9.567775112010396015e+02
-3.984555456849915117e+03
-7.963242961556340560e+03
-9.381605727122296230e+03
-1.094565032412408982e+04
-1.262953786771452360e+04
-1.094967275608149976e+04
-7.390643521483694713e+03
-8.462068502592839536e+01
8.488697564132722619e+03
1.366434761338419594e+04
1.318335215027687445e+04
9.861621142285157475e+03
7.033921503214219229e+03
7.635186266140055523e+03
7.725279267360255290e+03
3.904072889067885171e+03
2.512466218670097533e+03
3.127403258925096452e+03
3.791824086722922857e+03
4.248686689334132097e+03
4.227844486688089091e+03
3.048257358449085132e+03
2.199078998981791756e+03
1.637346257144925630e+03
1.182020290138753353e+03
-4.288030804458313128e+02
-2.352048707679367908e+03
-3.602679634105421883e+03
-4.065676136471719474e+03
-2.797954637417396498e+03
-1.454417215965022933e+03
-3.266975280776714044e+03
-6.823548042073281067e+03
-1.028303624339863018e+04
-1.174538343105703825e+04
-8.560443534221230948e+03
-6.093086030452955129e+03
-6.121323142417849340e+03
-7.676130457972007207e+03
-9.143245612157743381e+03
-7.537395296184379731e+03
-4.904484630837157056e+03
-6.246431406124380374e+03
-9.716969231159680930e+03
-1.412680156177166100e+04
-1.674870764896120090e+04
-9.182561753816771670e+03
1.742893879687730532e+03
5.509885976510755427e+03
3.810570285918020090e+03
8.030317038823116036e+02
-8.165360968203076482e+02
-9.649598707827771022e+02
-2.837009804545185034e+03
-5.045489781912622675e+03
-2.732185294463266473e+03
8.395096184479261865e+03
9.367507682334520723e+03
8.054229867210254270e+03
7.252507669565966353e+03
5.012613735553397419e+03
5.253813035431960998e+03
4.399358845822584954e+03
4.052494148668379694e+03
4.092488214257350137e+03
3.597615640921585509e+03
2.588214686924372927e+03
2.567555049436727586e+03
2.919821326916458929e+03
3.025350590808885045e+03
4.330611100269493363e+03
5.353824331898141281e+03
6.470058956072949513e+03
5.927456062892615591e+03
4.282075722196380411e+03
2.610952977532600471e+03
1.261153667901336576e+03
1.221107068702499873e+03
2.796141629730041132e+03
2.960652633528636215e+03
3.261944556250479309e+03
4.407275229413972738e+03
4.568116395880234450e+03
3.584747639572203298e+03
2.674511016584614481e+03
2.483770585050681802e+03
1.154626562903434888e+03
-3.976869044521237839e+01
-1.754457567660159839e+03
-4.487567315457183213e+03
-6.569578139412764358e+03
-8.183315541512621166e+03
-6.765127183190301366e+03
-5.940148594463323207e+03
-4.697461823497944351e+03
-4.387843239701487050e+02
2.745090837972530608e+03
4.623719921068121039e+03
5.360915950152292680e+03
5.637384322526861979e+03
5.322246527977898950e+03
4.210453796771602356e+03
4.407754722267864054e+03
6.041972481389950190e+03
5.790932500416052790e+03
5.698471375185875331e+03
7.315041974044117524e+03
8.574935829129000922e+03
8.270247691793030754e+03
6.968365615278564292e+03
5.642945737684492997e+03
4.722792780534644407e+03
3.998794610825814289e+03
3.391868521814439646e+03
2.323413072723675668e+03
1.871169231982345764e+03
4.204107980307049957e+02
-2.888738953416519962e+03
-3.117255546833965127e+03
-3.531827202410625887e+03
-2.086824304522608145e+03
8.684878713016834126e+02
2.459715297206321338e+03
3.417673503249204259e+03
2.033469440002985721e+03
-3.999534624204259217e+02
-4.143838815609423705e+02
9.201272241693226306e+02
2.553363153157854867e+03
6.157032612608759337e+02
-5.358326696138359466e+02
-2.991631416545763386e+03
-4.162680467783581662e+03
-6.216865449900666135e+03
-4.550299946785920838e+03
-2.922311852129713316e+03
-1.305733361145101298e+03
-2.921755329215689926e+03
-4.017241117785839833e+03
-5.315152693561647538e+03
-2.960526141966694013e+03
-2.257966699263194641e+03
-3.245321397438847725e+03
-7.883453832020247773e+02
1.048153992766067404e+03
1.906734428005881000e+03
1.242037055418440787e+03
2.619059950753296562e+03
-5.553649198284958288e+01
2.580722555084292935e+02
2.461930080854146127e+03
-6.381099724681595262e+02
-1.956559211768748582e+03
-5.172813476317962795e+02
-2.085106404073667818e+03
-5.185822682049729337e+03
-3.702648434015362909e+03
-4.134524432501558294e+03
-4.429432972236836576e+03
-2.983873986684539432e+03
-5.617404368431121839e+03
-5.584032519439006137e+03
-4.734250795710306193e+03
-3.363350790321181648e+03
-1.890632316605186134e+03
-1.187611021146805570e+03
-2.916526415984310106e+01
4.102919853034209723e+02
1.113688310234838070e+02
3.912396730169178340e+02
3.627233429293559652e+02
4.167234094790167376e+01
-6.856979854674237913e+02
-1.650136513894407699e+03
-2.276176254933478958e+03
-2.583192456195653904e+03
-3.033598255785766924e+03
-3.868506592380007078e+03
-3.912658372190307546e+03
-3.901381359715703184e+03
-3.289338794517389942e+03
-2.652811184546188997e+03
-2.172473281960509212e+03
-2.019122639568526893e+03
-1.841571752824607529e+03
-1.320209295030830162e+03
-6.147503762895345290e+02
1.337205696284220835e+02
5.428236457453866706e+02
3.321567954847223518e+02
5.836616421190373103e+02
7.694322585903101981e+02
3.258155922392844559e+02
-2.021095869490542896e+02
-7.069614992404854092e+02
-1.195997218157366660e+03
-1.313129226013091511e+03
-1.415155555295066279e+03
-1.766141330720558926e+03
-1.724656767490371294e+03
-1.782207655664547246e+03
-1.724975819115113381e+03
-1.891684672900275018e+03
-1.700129424980057365e+03
-8.293231789324401007e+02
7.604585420974235888e+01
4.158106610434534787e+02
1.067074302356002818e+03
1.438768630094506534e+03
1.390680454891087038e+03
1.373265819899049120e+03
1.303379698394149955e+03
4.323155825518531401e+02
-8.358961861419137449e+02
-1.316161789449359048e+03
-1.760424975223646015e+03
-1.525632633533556145e+03
-4.169563337757382442e+02
6.381248421938613546e+02
8.524445399668295522e+02
5.333130362048875668e+02
2.850303757207059903e+02
-2.811773828415277876e+01
2.217275944660625839e+02
6.163634182877651710e+02
1.100807972490835255e+03
1.298270497844160673e+03
3.366524768826894274e+02
-1.808231249018472909e+03
-2.889046456867633879e+03
-2.914638838519396359e+03
-2.545006542444683873e+03
-2.948891993309530335e+03
-3.315137993735240798e+03
-3.322901759400721403e+03
-3.634789691727804438e+03
-4.218609874740042869e+03
-4.311870886511811477e+03
-4.403536624218685574e+03
-4.902919961249338485e+03
-5.069119093948578666e+03
-3.770883167387291451e+03
-9.904889830773834092e+02
1.590955586094249384e+03
3.064475712363383536e+03
2.468134814534441830e+03
-1.515253870252112392e+03
-2.098038622087756721e+03
-1.606643367462425886e+03
-1.791454923209135359e+03
-1.935653549216559213e+03
-2.553942685458531741e+03
-3.178460924845319369e+03
-3.113644611540379628e+03
-3.268154235450544547e+03
-3.454154407076089228e+03
-3.228557328082568802e+03
-3.661044908088714692e+03
-4.358607254082304280e+03
-2.650383394463286095e+03
-1.977272017158019253e+03
-3.995253177536891599e+03
-1.510670050158115146e+03
1.312337989882260672e+03
-1.322623389069270843e+03
-2.638809662081493570e+03
3.498028352980817886e+02
3.068559660741411335e+03
3.431830066519214597e+03
3.549724391548706535e+03
3.573924311313906856e+03
3.629406617914784874e+03
3.466555951484353955e+03
3.660373169702688301e+03
3.622476732993112364e+03
3.733579859733159083e+03
2.974761800858497281e+03
2.143088225513095949e+03
2.432423906553950019e+03
3.082598697381622969e+03
3.069802825004948318e+03
2.743184023363120104e+03
3.059816843659577444e+03
3.867569693664791430e+03
3.902359796685106630e+03
4.031187856943271527e+03
4.452969890912313531e+03
5.106574788290064134e+03
5.290083571324576951e+03
4.831601001541034748e+03
4.615072407562999615e+03
5.077178159960591074e+03
5.508340384038302545e+03
4.636670763490623358e+03
3.573408304756827420e+03
2.947749200721145371e+03
2.324709021831001337e+03
1.559687179912354168e+03
9.845832126474435597e+01
-4.696781224274324131e+02
5.995701350467270458e+02
1.975309384629034412e+03
2.099277893759322524e+03
3.024637442470522728e+03
3.971962201119185465e+03
4.652488923305485514e+03
5.082435128651900413e+03
5.181972499511343813e+03
5.193976625160915319e+03
5.322140211510466543e+03
5.013488455909501681e+03
4.910135335826729715e+03
4.364610413928142407e+03
3.322223596537716276e+03
2.200881408225232008e+03
1.260266136313318839e+03
1.338961549718019342e+02
-4.429079026354030475e+02
-1.981583522102864379e+02
8.209820734716265633e+02
1.409355239433758925e+03
1.195896181953580708e+03
1.333650142540127945e+03
1.636620523746437584e+03
1.454647742175811800e+03
1.748607796195190986e+03
2.859487531794541610e+03
3.087285055530350746e+03
2.470939418063146150e+03
1.891319258337002566e+03
2.138491710851904372e+03
2.242472032544912054e+03
1.990202283884679900e+03
1.294783362806222158e+03
-6.627697750938965555e+02
-1.550740766746157533e+03
-2.062054771391093709e+03
-2.670871948255869938e+03
-2.760284803206268862e+03
-2.717110231658755765e+03
-2.850334683296592175e+03
-2.920088489027749347e+03
-3.425410714725491744e+03
-3.656087438548980117e+03
-3.588097204509175754e+03
-3.620282742227915605e+03
-3.196464717922985074e+03
-2.473679144743286543e+03
-2.296932548287587451e+03
-2.745437864629103842e+03
-2.598127398250727310e+03
-2.407105287732789748e+03
-2.901667274907768387e+03
-3.172606238487202063e+03
-2.896855428549301450e+03
-4.628358855794365809e+03
-5.382039607696743587e+03
-5.925708122417650884e+03
-8.846236260649797259e+03
-9.604778287852697758e+03
-1.108741144016385078e+04
-1.224590785453985518e+04
-1.149819292132979535e+04
-9.906272749766847483e+03
-6.019049231489086196e+03
-4.158358695826132134e+03
-4.690939482201601095e+03
-6.588570038209213635e+03
-6.374260813898821652e+03
-3.108907526831719224e+03
-4.674169889934935895e+02
-1.864900796334951849e+01
-7.575538384228372024e+02
-1.616888055083719109e+03
-3.432289204325490118e+03
-5.289929326064473571e+03
-5.512721755260031387e+03
-6.007676449169385705e+03
-6.192759212222128554e+03
-6.101846543909160573e+03
-5.277780669746271087e+03
-3.787157454089085149e+03
-1.476752982648134775e+03
5.303983367916100633e+02
2.192244441533674490e+03
2.506942904687673035e+03
2.412051358266132866e+03
2.264649691562258340e+03
2.091891176803906546e+03
2.181851785346194447e+03
1.642848267954504536e+03
2.310758669461417867e+03
3.306663299890911276e+03
4.393610238574994582e+03
3.937955713160334653e+03
2.372840176897611400e+03
9.035073794088402792e+02
1.069684556281113146e+03
2.294627646583086062e+03
2.349843918555133769e+03
1.159189263407530007e+03
1.141831132907932897e+03
2.837894782078898970e+03
4.216640378881069410e+03
4.080093516888345675e+03
3.496836815734488482e+03
4.002884092227012843e+03
4.163066379623767716e+03
4.556896381225069490e+03
6.128478045417348767e+03
6.639719316847625123e+03
6.181051920252537457e+03
6.142746063424035128e+03
6.843541797766818490e+03
7.062683926406768478e+03
6.371319480674899751e+03
4.932402345777813025e+03
4.043404684374624139e+03
3.109287838195198219e+03
2.779088230161787578e+03
3.261844901911360012e+03
3.654687252476989670e+03
3.564806355846244969e+03
3.472261358668368757e+03
3.186172052179440016e+03
3.714736487936425419e+03
2.975110845795916248e+03
1.576401731088068345e+03
1.733640419101870748e+03
2.559962009651272183e+03
4.236469471695922948e+03
5.787315445810302663e+03
5.201575162385793192e+03
3.218287069595366120e+03
-3.974272339407782511e+02
-1.205149251543747937e+02
1.624090072793317631e+03
1.912313426385312141e+03
1.505138243136696701e+03
2.269711478767352673e+03
-6.718216691421556561e+02
-8.794445761305057658e+02
1.316859205464008028e+03
1.157121204658712259e+03
1.353558894247150306e+02
2.287615736005180679e+03
6.129876367307732608e+02
2.043489370233073942e+03
3.898144850218103784e+03
2.036974630817134312e+03
2.224048558318637788e+03
8.333987448099644553e+02
1.310973878531938681e+03
1.238762153237103348e+03
-2.822262518331400770e+03
-1.891053110123900751e+03
-3.213692836338193956e+03
-3.217177839427794879e+03
-2.456570184141333357e+03
-3.516824811413254793e+03
-5.138911283194945099e+03
-3.811018807243196079e+03
-5.577224653025124098e+03
-5.722450967669335114e+03
-3.029798302893585515e+03
6.437199653380271229e+02
-1.618462164539312482e+02
-9.205606385419032449e+02
6.784992089576977605e+02
-1.677643815492754584e+03
-1.972015144785446637e+03
-2.933764357238529101e+03
-2.830958938613622195e+03
-2.288637498285590482e+03
-1.103962184431273954e+03
-1.590726167890140914e+02
-7.430134255157466896e+02
-8.739131114526483088e+02
-4.658575473418416664e+02
-5.997858969986568809e+02
-1.629779724534277648e+03
-2.658987333423102427e+03
-1.915535422482832246e+03
-3.694967977743532970e+02
8.021291865848071438e+02
1.094135902814501975e+02
-2.059780713250252575e+03
-2.405632582332697439e+03
-1.251241616186081274e+03
2.783104557174343086e+02
1.714933880575629473e+03
2.584501995166785036e+03
2.240941423882931304e+03
7.871473382217878907e+02
-2.411490457966055487e+02
-1.416987833404584535e+03
-2.249400307500852250e+03
-1.667353997996123780e+03
-1.513354766568137848e+03
-1.925481283802381313e+03
-2.541037557545477284e+03
-3.044850117983856308e+03
-3.765969905593826297e+03
-3.275178681424833485e+03
-2.251964410363714705e+03
5.946257872290339037e+02
3.651704715240895439e+03
4.031012182586750441e+03
2.892520492053451107e+03
2.285143405149362934e+03
2.932866676667027150e+03
2.042404567982843218e+03
6.024142032781302305e+02
3.361734558881938710e+02
-1.425587200699084462e+02
-6.709864939275317965e+02
-4.092668560077692632e+02
-2.875135783352943690e+02
-1.179562088477236330e+03
-1.270859779438253781e+03
-1.088424348637027606e+03
-6.089970098971896277e+02
-1.340913952395436354e+03
-2.884618515403791662e+03
-3.168041444233910170e+03
-2.107983078940266751e+03
-1.611645337518330280e+03
-1.536141125324133100e+03
-5.185513248003103399e+02
3.188154130227398582e+03
4.993786007665131365e+03
3.824233339198569411e+03
3.899457920743946943e+03
5.009490261786317205e+03
3.493216768440845499e+03
-3.525840004747778949e+02
-1.839961112354723355e+03
-1.004940035670414545e+03
2.024244056783479664e+02
-3.619646800702366818e+02
-1.282212466896900196e+03
-1.039313020933032476e+03
9.717026062820236803e+02
2.993795869353753005e+03
4.015921643496817978e+03
5.014045640846408787e+03
5.548192314457602151e+03
4.111327090147149647e+03
3.603612452236894796e+02
-1.796711095667676091e+03
-2.541858762456789009e+03
-1.563070267970505938e+03
6.656416615571258717e+02
-6.487153650549819304e+02
-2.760109243163448355e+03
-4.364539940405723428e+03
-4.207157901972194850e+03
-3.566153253581205263e+03
-4.429576223217395636e+03
-4.278313227121930140e+03
-2.540473642682937680e+03
-1.675050343060034720e+03
-2.236010489762797533e+03
-1.573355828863503120e+03
-5.610458324137532600e+02
-1.257010202488903587e+03
-2.979322858097139488e+03
-3.444991007125466240e+03
-4.700019818533014586e+03
-3.303481451765429938e+03
3.088745457438405083e+03
5.029743503356710789e+03
1.688443829474531640e+03
9.288710792820962752e+02
3.264068647742504709e+03
3.488955188589606223e+03
2.769502867767007956e+03
2.167711231849969408e+03
2.236599661308737268e+03
2.398130430526504369e+03
2.045329122688858433e+03
1.012306623972765351e+03
-3.955130025519696169e+00
9.365461545272185049e+02
1.946921538339832068e+03
2.368259471996130742e+03
2.662520330396089776e+03
2.205698971843788513e+03
7.189063546047859745e+02
6.491243752761397445e+02
2.508313941651349978e+03
3.222653473773283167e+03
4.253080774937218848e+03
3.755564933656545236e+03
3.176161166722381495e+03
4.385914306797238169e+03
4.861805388404282894e+03
3.442812335256103324e+03
1.713035271462895935e+03
1.060497114797321501e+03
2.231194380142677858e+02
2.959469803203929246e+02
1.037030128150300470e+03
1.297365114129068161e+03
1.293916953197361863e+03
1.331752838972087375e+03
1.716967678678921402e+03
1.084553828176944762e+03
-2.734842826907936910e+02
3.621689425303638927e+02
8.087952188981616928e+02
5.922231804504319825e+02
2.922709731722296169e+02
1.179917803265592966e+03
2.209514600335535306e+03
1.699275990181794441e+03
8.248068374292219005e+02
2.641775601958670450e+01
-9.160522770598278157e+02
-1.235996344093624884e+03
-1.444324005794208688e+03
-2.287974921375855956e+03
-2.302894634314219729e+03
-9.068183651175042996e+02
-5.882755031856524965e+02
-1.623240385789156619e+02
1.555299171604670221e+02
2.694407152737112483e+02
3.489638785433406998e+00
1.538535906673947693e+02
1.156067619384963564e+03
1.209146159045736795e+03
5.043578227544194874e+02
-5.067625190374711508e+01
3.002156363724633934e+02
-1.919671276308162078e+02
-7.917432829815172681e+02
-3.480607668794640972e+02
-2.623822080970423940e+02
-2.798419467180045217e+02
-1.380329885689329558e+03
-1.789147641808766593e+03
-3.590856307088187691e+02
9.812685249403267562e+02
8.048729600464961322e+02
4.821519116232797160e+02
1.092983162637653095e+03
2.157306387676422673e+03
3.027297565522406785e+03
3.169780482699815366e+03
2.701712389342886127e+03
2.142303290783911507e+03
2.208566517720360025e+03
4.019283669469984375e+02
-1.845703157980490005e+03
-1.515196824312493618e+03
-1.289786348350459093e+03
-8.465716993907241203e+02
-1.408828067925008781e+03
-2.296537833910347672e+03
-2.894842763096369254e+03
-2.181977190263932243e+03
-2.062204099182729067e+02
2.136633168370073292e+02
-9.011843959880322075e+01
2.662667378329052212e+02
4.279630595939776185e+02
1.438430626472435051e+03
2.211505950114047664e+03
2.381252005113230553e+03
2.190230431407355809e+03
2.204862483515261374e+03
1.791803023976371151e+03
1.466431120597849258e+03
1.285028235170449534e+03
8.373078470112561718e+02
-2.628052641763612840e+01
-4.560703428864637203e+02
-4.856019490830570930e+02
-5.509695907376805053e+02
-1.123084655392324521e+03
-1.403400909090985351e+03
-3.855194176536066379e+02
6.638723669276117789e+02
6.224501608245871012e+02
5.139755998251096116e+02
-4.591947014825429108e+00
4.167072416720727119e+02
1.057557788316650431e+03
9.933898151383150434e+02
9.446641589400769590e+02
1.377029975481323163e+03
1.975600800282597675e+03
1.498625812553884543e+03
-5.033419834288889660e+01
-7.545728350542111684e+02
-6.026703336241797615e+02
-8.213818297143808422e+02
-1.042950390375141751e+03
-1.093582527112363323e+03
-1.247007199219580343e+03
-1.402359187932746408e+03
-1.460815020286323261e+03
-1.130189719379434564e+03
-6.861764547031871189e+02
-8.362375523439949347e+02
-4.472764514604967303e+02
2.659437245867441106e+02
2.328192548556483530e+02
3.464157179184147708e+02
1.497567863505818480e+02
3.529300420789089685e+02
-3.000982584627714544e+01
-3.506341550979376507e+02
-1.262911749897631125e+03
-1.715134964367436851e+03
-1.036863315030949252e+03
-1.554247903533472481e+03
-2.561489548501212994e+03
-2.639172645599827320e+03
-3.129081018782148021e+03
-3.496111261730405658e+03
-2.985679722107706766e+03
-2.501569763759981470e+03
-2.299367686652379234e+03
-1.918481934747194600e+03
-1.679715420378561475e+03
-1.984040632190909719e+03
-2.471896878055483285e+03
-1.876406865362989720e+03
-1.192553837220466221e+03
-9.646305886090020749e+02
-9.320172668705052956e+02
-2.217322339465297318e+03
-3.936099776790750184e+03
-4.177736644344901833e+03
-3.770674455539639894e+03
-3.846310543051381501e+03
-4.231134220930632182e+03
-4.661503629570792327e+03
-5.264253693414649206e+03
-5.402462468493477900e+03
-5.409802574131846086e+03
-5.518704027864434465e+03
-5.101096436557832021e+03
-5.114877900589807723e+03
-4.965599798795848983e+03
-4.698509518331787149e+03
-4.222686822522635339e+03
-3.972276417669130296e+03
-5.519641790029585536e+03
-6.509677674010505143e+03
-7.172553153070341068e+03
-5.612232162243248240e+03
-7.542381358836954860e+03
-7.240670025770006760e+03
-9.132330895735909507e+03
-8.085592194616127017e+03
-8.134094495347146221e+03
-7.966512344255625976e+03
-1.014257438063393965e+04
-1.085192305785357530e+04
-9.247545643428646144e+03
-9.423344075382721712e+03
-9.139325488842150662e+03
-8.660579613298012191e+03
-5.957097443267538438e+03
-5.347980117380157026e+03
-8.152217201192931498e+03
-5.668619359822856495e+03
-5.255892613231691030e+03
-6.699546001855429495e+03
-6.487443256834937529e+03
-7.265841554929615086e+03
-7.720306508906543058e+03
-8.278587810521756182e+03
-6.706474189807873699e+03
-5.749824671069177384e+03
-7.246545125792613362e+03
-9.266737043875464224e+03
-9.091132926156005851e+03
-6.971458609650951985e+03
-6.257721660343975600e+03
-5.963043768416378043e+03
-5.637411643424075010e+03
-3.973743906755428725e+03
-3.155481856817541029e+03
-2.968535205152132221e+03
-2.133886858677848522e+03
-7.497150456275019224e+02
-3.198419962308028985e+01
-2.735239810005648451e+02
9.880668848151962891e+01
3.549921595408285384e+02
2.395272946203938886e+02
1.301018246106039555e+02
-1.392532441931534208e+02
-5.167055701968603216e+02
-7.316853265357088958e+02
-5.995041310268824191e+02
-1.434412203282660982e+02
1.023168412638688096e+01
2.341286910551532685e+02
5.989754621147319540e+02
9.558759327336263141e+02
1.775784660044327666e+03
2.046155726805040786e+03
2.332644818791474790e+03
3.018590345661606534e+03
4.069476051068592369e+03
5.753059088111672281e+03
7.007006780439256545e+03
7.317769175758035999e+03
7.026749356345250817e+03
6.745448915265551477e+03
6.922621243163781401e+03
6.656630880271086426e+03
6.728886129882285786e+03
7.217234806917284004e+03
7.644510876043919779e+03
8.409900829742877249e+03
1.025226130115277374e+04
1.158801771696909782e+04
1.255059352127665989e+04
1.374637198227663976e+04
1.345693025184050384e+04
1.387458680433749032e+04
1.502264155476385713e+04
1.518977820377676289e+04
1.503145989524306606e+04
1.561852798554874789e+04
1.584181204970877661e+04
1.655781690558159971e+04
1.696902949063060078e+04
1.664473343149508946e+04
1.575804494127916951e+04
1.492030181565409839e+04
1.459376322300440188e+04
1.411583012113282894e+04
1.431797837178898226e+04
1.503747180322590066e+04
1.587578157844621273e+04
1.586731252366111221e+04
1.630814907265188049e+04
1.804367071329566897e+04
1.924339725352705136e+04
1.922055927455282290e+04
1.963134246499338042e+04
1.971632223924063146e+04
1.927311191009652975e+04
1.891910534380426179e+04
1.930946945277262421e+04
1.938738670921794255e+04
1.865556255898829477e+04
1.894289797362890386e+04
1.879352376644088872e+04
1.737555995505803003e+04
1.624559890360967256e+04
1.514702076993489391e+04
1.398417314113911561e+04
1.220862090530232308e+04
1.013193903261245578e+04
7.800674886483210685e+03
5.019403014463646286e+03
1.285892188186191561e+03
-2.207167863748897929e+01
2.325931915154071703e+03
3.256487878285482111e+03
-9.556977983507994168e+02
-6.201842035799654695e+03
-7.994195275515099638e+03
-1.059506743802554229e+04
-1.806869698392399732e+04
-2.455625033954443643e+04
-2.077183781656032443e+04
-1.962249627399937526e+04
-3.034035455219327559e+04
-4.006355441790410987e+04
-3.874525086293907952e+04
-3.579354037583121681e+04
-4.181152063111867028e+04
-4.840611076503028744e+04
-4.569928243276636931e+04
-3.971090749444608082e+04
-3.268397048772227572e+04
-2.213528567790086890e+04
-1.534466849868012287e+04
-2.220600667505283491e+04
-2.736813743555375913e+04
-2.288565640997582159e+04
-1.438916147945912599e+04
-2.413510892943151703e+03
6.607548237204508041e+03
6.195323287831432026e+03
8.342006955858093988e+02
-5.735282433915284855e+03
-1.151164784040403720e+04
-2.254446090491871655e+04
-3.433733871485530108e+04
-4.336683661869925709e+04
-4.038433047785684903e+04
-2.956216988418874826e+04
-3.096291990209108553e+04
-3.361700921268643287e+04
-1.733457002192135042e+04
1.782324529625548530e+04
5.001735580566438875e+04
5.057840285338889225e+04
3.672287423223064980e+04
2.615343769148501815e+04
2.898686080344276706e+04
3.755391756495118170e+04
4.566029122754540003e+04
5.475384009042126854e+04
5.054150744178969035e+04
3.431629335441150761e+04
1.258811445426325554e+04
-4.729061524531761279e+03
-1.618642866933211917e+04
-2.543121508343292589e+04
-3.384135831319467252e+04
-3.132083264290024090e+04
-2.343873222623603579e+04
-2.123598973742335511e+04
-2.106963048677213010e+04
-1.869758783744019092e+04
-2.034686457608991986e+04
-1.589941544633175545e+04
-7.261719967503953512e+02
2.438999512131784650e+04
3.299811032564612105e+04
1.105121526873146468e+04
-9.561611105106325340e+03
-1.013137512792800590e+04
-3.440076255440935256e+03
3.971434363740221670e+03
1.552733582906301490e+04
2.423289372523447673e+04
1.345690242256762394e+04
-1.181983953488838415e+04
-3.565536283960547735e+04
-5.389456982823450380e+04
-6.278739334363316448e+04
-4.432479736633157154e+04
-2.485087354573699849e+04
-2.524771047241956330e+04
-2.118726904053830367e+04
-9.260502944745825516e+03
-3.082666898430477886e+03
1.045011933009291715e+04
5.176978597530046500e+03
-7.216163585392926507e+03
-1.627047370486343971e+04
-2.973318981988812448e+04
-3.423849569679317938e+04
-4.105758143986830692e+04
-4.943466996893382748e+04
-6.477697572857344494e+04
-7.016883645372113097e+04
-6.550159399470876815e+04
-5.286561406910180813e+04
