6.285240884272057883e+03
-8.247451471153993907e+02
-4.801581659884273904e+03
-4.866342981819316265e+03
3.291084369510895868e+01
3.054147776662760407e+03
3.643235538433099009e+03
2.111012643656193632e+03
-2.898649654062712671e+03
-9.327814542935819873e+02
-9.474497064265835888e+02
-1.373767344688644698e+03
-1.799823569637907667e+03
-5.966587853150509773e+02
8.397171303274262755e+02
1.914340042966595092e+03
3.227230970710839756e+03
4.154359737905377187e+03
5.253631434863934373e+03
6.125984477780943052e+03
6.624456159538844076e+03
6.696100996415849295e+03
6.472854429777359655e+03
5.439687954589970104e+03
3.988581928956949014e+03
3.065543215389501256e+03
1.662474365791828859e+03
-7.786451538843029994e+02
-2.101894155048382800e+03
-3.116357847656128797e+03
-4.000075199385968972e+03
-3.745138155907802684e+03
-3.383586037009129086e+03
-2.660384315176168911e+03
-1.952458697539337436e+03
-8.187397486353139584e+02
8.668000189075313529e+02
2.041110031756434182e+03
2.431237025618501775e+03
3.220157926469242739e+03
4.668070026040043558e+03
5.204260974371914017e+03
4.077889181385164648e+03
2.764854925444798482e+03
2.456819260010034213e+03
1.434820923237245552e+03
5.502574495077479924e+02
-4.218486775370552095e+02
-2.171577150950667601e+03
-3.571778494234957634e+03
-5.673485918720959489e+03
-7.266992289831222479e+03
-6.080251919329100019e+03
-3.958660444455592369e+03
-5.791539455563528463e+03
-5.026617275987492576e+03
-4.041525149955043617e+03
-7.919456478417191647e+02
2.884931219170918212e+03
3.780005919931769768e+03
4.125468722131940012e+03
4.044456884151069517e+03
4.333922440109441595e+03
4.014838036045201079e+03
3.172338235519790487e+03
2.475497286584557969e+03
1.064336837211397324e+03
-2.721896365919990330e+02
-2.003032576572800281e+03
-3.529189359097289525e+03
-4.247759384576202137e+03
-4.749833996009352632e+03
-4.890396550089785705e+03
-4.398329211434151148e+03
-2.497525515266777802e+03
-1.051852587637078386e+03
4.908401456352109449e+02
1.756662459258941226e+03
2.782657604442690172e+03
3.464895925430401348e+03
4.518462748368470784e+03
4.951439658777791919e+03
4.615845005968863006e+03
3.700710258897960102e+03
3.130064097717237473e+03
2.055060239245568482e+03
7.346908191895020082e+02
-5.710986001543728889e+02
-1.640344202157124073e+03
-2.754990569864468398e+03
-3.643954655042934064e+03
-3.978294130669966307e+03
-4.508023526086613856e+03
-4.548134175929072626e+03
-3.214472432131760797e+03
-1.604895122632182847e+03
2.706732901120979591e+02
1.167320041965456994e+03
2.684066581969467279e+03
3.758996709029331214e+03
4.386145456355091483e+03
4.507639499175621495e+03
4.434396495921130736e+03
4.184402384320166675e+03
3.453709425005402863e+03
2.303325182120810950e+03
1.039320409944419453e+03
-1.882803357686523213e+02
-1.545389546163695286e+03
-3.296002001769350500e+03
-4.740122415907816503e+03
-4.985778792156938835e+03
-4.633011610345110057e+03
-4.750888313308816578e+03
-4.859374174166729972e+03
-2.049205631020377041e+03
9.775793157414601353e+01
1.268391777957645445e+03
2.233634735173671288e+03
3.388842436286036445e+03
4.322959964788580692e+03
4.870005617256878395e+03
5.200941258044901588e+03
4.637924003338716830e+03
3.234898050045968830e+03
2.450780374472361018e+03
1.283521395108507477e+03
-1.289034314624681485e+02
-2.143520111864082082e+03
-3.417446798865168148e+03
-3.726708416709191624e+03
-4.014224072041180989e+03
-4.265969951179214149e+03
-4.204915856245164832e+03
-3.452048549798247222e+03
-1.834342263478593395e+03
1.262965759898002318e+02
1.245907468146296651e+03
2.407550437457023691e+03
3.143293497956199190e+03
3.878216873563030276e+03
4.329292944809480105e+03
4.593483499596957699e+03
4.192817714138316660e+03
3.095334200993219838e+03
1.971038737582110798e+03
9.438702651527886474e+02
-2.172980202115148813e+02
-1.703518856110831621e+03
-2.955781611098458598e+03
-4.016161628557006225e+03
-4.208700458160106791e+03
-4.114508068500285844e+03
-4.052603598982233962e+03
-2.811892453435350035e+03
-1.355309422117471286e+03
-2.088347404304828672e+02
1.350627954607848778e+03
2.812156889564335415e+03
3.556751330194083494e+03
3.451481702972188941e+03
3.750390415073943586e+03
4.435382363202023953e+03
4.755436101350122044e+03
4.186631370933503604e+03
2.755918611149542357e+03
-4.457660149829005718e+02
-4.543468716868345837e+03
-2.465244592324905625e+03
-2.217200381699118225e+03
-3.346439863108528698e+03
-3.678023709006434274e+03
-3.822902484869285217e+03
-3.590107034491371905e+03
-2.323566636089152325e+03
-8.382200254910702597e+02
4.930063302006092840e+02
1.266123129157172571e+03
2.103627551723810640e+01
-3.623828534176393077e+03
-2.095626737226203204e+03
6.905385767650977868e+02
2.668869035204746524e+03
2.947334860067750924e+03
-1.426227198412708958e+03
-2.239807999419877888e+03
-4.700407237128155430e+03
-3.914086072805646836e+03
-4.809252741980657788e+02
-1.676022706153056788e+03
-2.465445141582846190e+03
-4.470189243240098222e+03
-7.789267782856612030e+03
-6.246649021481168347e+03
-6.666265656804650462e+03
-3.546016645333373617e+03
-3.794905639359448287e+03
8.240278652749133244e+02
-1.709126107763866912e+03
-3.702293042741310956e+02
2.507802372819264747e+03
3.029006145895984446e+03
-3.354893238044360970e+01
1.389191415759672736e+03
4.934156290000097215e+03
4.410211180089885602e+03
1.723135894492593707e+03
-2.635305653821867054e+03
-5.108176783325649950e+01
-5.447107059793261215e+03
-5.256393706755610765e+03
-3.571898382001487334e+03
-3.493559508951879707e+03
-4.146386717469516952e+03
-3.640509928686567036e+03
-1.066916574723680242e+03
1.416642649655084824e+03
2.746299246160303483e+03
3.623968383828778315e+03
4.466687330737945558e+03
4.850463323166551163e+03
5.589175948504997905e+03
5.999795197839969660e+03
5.647409097414778444e+03
5.245064936122613290e+03
4.914856250532808190e+03
3.719712411414235248e+03
1.708642276028813512e+03
-7.553879093399674503e+02
-2.292567081386526297e+03
-2.813012347768122254e+03
-2.688754165240684415e+03
-2.697892254943451462e+03
-2.925313628135077124e+03
-2.127819728476106775e+03
-6.738432475494004166e+02
7.169486294752222193e+02
1.899201012126651904e+03
3.492883017704977647e+03
4.413283603043845687e+03
4.783377145162758097e+03
5.349275640084988481e+03
4.295099892384972009e+03
1.505588213854953437e+03
-2.087491105902942081e+02
2.497036985247922019e+02
-2.371679509052923549e+03
4.886913661436834104e+02
-9.795385456637839070e+02
-1.636416705491713174e+03
-2.493596494917257132e+03
-3.128456498989568900e+03
-3.058277445110355984e+03
-3.493424923471174225e+03
-2.867699172938964239e+03
-1.166533115609418928e+03
8.703987343034000332e+02
2.588558586246344021e+03
3.666444483925852182e+03
4.492160268950453428e+03
5.341955793453524166e+03
5.518020351741796730e+03
5.106399711570975342e+03
4.753899098023382976e+03
4.339527292787413899e+03
4.150366597888598335e+03
3.393826233919201513e+03
2.263188448765044541e+03
7.415256438376471806e+02
-8.950858236940147208e+02
-2.454721250682780465e+03
-2.787985998978912903e+03
-2.616140074083783475e+03
-2.629882260419549766e+03
-2.022106785734370078e+03
-1.096974730861541730e+03
3.084345586338657199e+02
1.706301024771818675e+03
2.638798837506126802e+03
3.676800147507446127e+03
4.794545505572132242e+03
5.615806435175419210e+03
5.612401585341248392e+03
5.800782518621085728e+03
5.335879400175267619e+03
4.220589980093493068e+03
3.056760261545175581e+03
2.058094603744091273e+03
6.225933049076332964e+02
-9.397876912338015245e+02
-2.064024715257178741e+03
-2.464925147961145285e+03
-2.523354751767266862e+03
-2.677466314062448419e+03
-2.126453309176556104e+03
-1.372693034791894888e+03
1.784019601917385671e+02
1.641862094245582966e+03
2.380223821888258044e+03
1.000992567372620897e+03
-1.679658827486568725e+03
-6.069409601809968990e+03
-6.238925051176703164e+03
-6.433856304936872220e+03
-6.818607308805775574e+03
-7.018909796867599653e+03
-7.489031939847970534e+03
-7.347486099269667648e+03
-2.452638339462851945e+03
-5.745437007880514102e+03
-1.183542080305341369e+04
-9.203313120084840193e+03
-6.357595779887274148e+03
-3.570947547787529857e+03
-1.895439568547682939e+03
-4.759828217677360840e+02
1.159234596202854618e+03
2.675678953661819833e+03
3.836038073206717399e+03
4.792360973712977284e+03
5.594576469705541058e+03
6.006685122896898065e+03
6.313070834232501511e+03
5.820195563897730608e+03
5.450093269868370044e+03
4.984641910069144615e+03
3.934733424280292184e+03
2.412138247425800273e+03
7.251286683445135850e+02
-7.242269109236347049e+02
-2.351466175341974576e+03
-3.277224100520008960e+03
-3.435046058628096944e+03
-2.986327550378358410e+03
-2.414296781646738964e+03
-1.440301065825531623e+03
8.420876915654859829e+01
1.522631243468630828e+03
2.505532629872973303e+03
3.625232444538915388e+03
4.501627480738321538e+03
5.463952453132692426e+03
5.614076312345252518e+03
5.329550125916270190e+03
4.623636167563262461e+03
3.772891984379930818e+03
2.586237278917346430e+03
1.030238074577423049e+03
-4.247065045596234540e+02
-1.858698362959447650e+03
-3.077070837065839441e+03
-3.756591168721646227e+03
-4.346749130041313947e+03
-4.345261305523354167e+03
-3.878005267654384625e+03
-2.656344113075878340e+03
-8.614425778325369265e+02
7.146781782297080099e+02
1.627113959962640138e+03
2.519900524084734570e+03
3.379675138879306814e+03
3.373571399510152332e+03
3.037260261837542657e+03
2.406150106181459705e+03
2.103705786115826413e+03
2.001469970082185455e+03
1.355505332817285989e+03
4.738473724054048262e+02
-4.605577702433808440e+02
-2.408073199467649374e+03
-4.098579621253070400e+03
-5.152188503095198030e+03
-6.843267713873236062e+03
-8.475720642584108646e+03
-6.732837012647464690e+03
-3.486684694565301925e+03
-2.341322151699545429e+03
-1.096592102143217517e+03
-2.481781419306121279e+02
1.306329702427886332e+03
2.368828822859580214e+03
2.749429302328947870e+03
2.581610108387651508e+03
2.731237794440301968e+03
2.733473009639326392e+03
1.766028513585595647e+03
7.626127033198595200e+02
-3.408548872779840622e+02
-1.464045125985959430e+03
-2.678620209671133125e+03
-3.709715593912177155e+03
-4.693016060137074419e+03
-4.980146047775056104e+03
-5.180693013810471712e+03
-5.022722706383508012e+03
-3.952412725563171534e+03
-2.209956978239359614e+03
-5.413401543759048309e+02
6.144048188244041739e+02
1.688399598785901844e+03
2.769053885338654254e+03
3.754297781235054117e+03
4.262042851474328018e+03
3.980309568957999090e+03
3.699275626981614096e+03
3.253861533344685085e+03
2.661852391716746297e+03
1.830096075910804757e+03
3.134881171110616265e+02
-1.591648146928598635e+03
-3.303094701635053298e+03
-4.173048616857019624e+03
-4.542739666646737533e+03
-4.567297263708573155e+03
-4.343818997383486931e+03
-3.600216701234419361e+03
-1.425648290721675721e+03
4.028792584316458942e+02
1.884487236680176693e+03
3.208258867346047282e+03
4.422218508554585242e+03
4.966779007746530624e+03
5.342871598099967741e+03
5.739659495056939704e+03
5.886319099918254324e+03
4.864293027132811403e+03
3.352561653710389692e+03
1.859230228078906748e+03
6.141425524014496204e+02
-9.817412349009337049e+02
-2.416654477275953013e+03
-3.247866038593367193e+03
-2.981527678829874276e+03
-2.944815963489253136e+03
-4.195677726475514646e+03
-2.066361664982032835e+03
-5.644541185193003940e+01
3.579358342360197867e+02
2.826576018525698601e+03
4.268936764336178385e+03
5.409277188479134566e+03
5.961964945242024442e+03
6.570888819620044160e+03
6.637563701753857458e+03
6.723044668886895124e+03
5.462806362957388956e+03
3.872903661742819622e+03
2.628048489503306882e+03
1.003037105504084252e+03
-8.420105827779852916e+02
-2.012473184314098262e+03
-2.448352370670734672e+03
-2.692395491507410043e+03
-3.513093099701584379e+03
-4.038937902878661589e+03
-3.371003569772082301e+03
-1.953125931146582843e+03
-2.416008059350096744e+02
2.575230003945293902e+03
6.251029743002775831e+03
9.247112044090768904e+03
1.120548384249263108e+04
1.048955831336347183e+04
8.332467676769425452e+03
7.093878761031842259e+03
5.417846770117012056e+03
3.430290012578936512e+03
2.530708265569417108e+03
2.305998900983888234e+03
1.954014466783033868e+03
1.456201640567320688e+01
-1.973544393899545184e+03
-1.296533000129119500e+03
4.535299514582210350e+02
1.498621102179755781e+03
3.110721803413308407e+03
5.396706433501862193e+03
6.322585885545225210e+03
5.752336918332598543e+03
5.931927057320346648e+03
6.719420357652756138e+03
7.128789346925167592e+03
7.241017553660512021e+03
8.222075803532152349e+03
8.501005827537986988e+03
6.951840383329637916e+03
4.563504411011970660e+03
2.079886141591565320e+03
-2.108108315133822998e+03
-6.586482165135496871e+03
-1.206824855957843283e+04
-1.288951617773081307e+04
-1.351431271782346630e+04
-1.572163779211755536e+04
-1.730052695860991662e+04
-1.584001382988163095e+04
-1.455398761805149661e+04
-1.229834957145926637e+04
-7.961138708994727494e+03
3.446674036136648169e+02
6.486905711782131220e+03
3.009234659638503217e+03
-2.692309889820255648e+03
-3.930515859741040003e+03
-5.085090651280524980e+03
-5.538232160048021797e+03
-6.730479315461914211e+02
1.174393499601899066e+03
3.583189347934809120e+03
3.454299923840042538e+03
-2.676188621437292113e+03
-1.299330639576400790e+04
-1.527113705676483551e+04
-6.984690785450349722e+03
-4.967847448295133290e+03
-1.351833818450137551e+04
-1.690801504055690384e+04
-1.191080898926331793e+04
-5.501508380093485357e+03
-2.079980428917003337e+03
1.558413604778510830e+02
-4.458924333014407466e+02
-2.118044324149673685e+03
-1.815552227874846267e+03
-6.002611020185131565e+02
2.295009765336058990e+03
7.289389060361696465e+03
5.864042172092266810e+03
4.550012968901590966e+02
-1.206710039074011320e+03
-1.646019254568600672e+03
-3.852881783226255266e+03
-7.651138626023384859e+03
-9.979724009069666863e+03
-1.068353186818148970e+04
-1.371439681889246458e+04
-1.510017014919875874e+04
-6.194629332219871685e+03
3.195349441765086340e+03
6.700006924423324563e+03
8.789581730537141993e+03
1.108129182526196382e+04
1.217829023267017146e+04
9.485660650956944664e+03
7.571442704850523114e+03
4.988805422954201276e+03
2.870921928047405800e+03
3.452855707473095663e+03
7.252631652819211922e+03
1.129836570459442919e+04
1.384917225982417040e+04
1.120411669011109734e+04
2.516258222296706208e+03
-7.119400269425577790e+03
-1.243867670343895952e+04
-1.390539307913089033e+04
-1.387522788749913889e+04
-8.196021278381489537e+03
3.166574748060170805e+03
8.298365047286497429e+03
8.749826996666632112e+03
1.213743913173042529e+04
1.265327384884952517e+04
4.527143532614480137e+03
3.431024840432767178e+03
5.975069081010697118e+03
2.941517862497508759e+03
-1.431013142607612053e+03
-1.150451091117842952e+04
-1.951763162571473731e+04
-1.317827130653250060e+04
-2.266670795606813499e+03
6.485016344450350516e+03
9.396815385619585868e+03
7.965807991942188892e+03
7.102047141652247774e+03
3.995607791108158381e+03
-1.095339900754550627e+03
-2.431533546131882758e+03
1.187021749076965307e+03
5.753314064578707985e+03
8.680314785348389705e+03
1.035403186850588281e+04
9.442544831694391178e+03
1.205688632074658017e+04
1.650607055653712086e+04
1.483312348724383082e+04
4.888091763615366290e+03
-1.808061917318261976e+03
-1.548415374120017759e+03
-5.059986559280104302e+03
-1.535876240823346598e+04
-2.153278491554571883e+04
-2.380415390839686370e+04
-1.971395417731444832e+04
-1.134617874519391808e+04
-3.595794191096668783e+03
9.454258111081640891e+03
2.308998913023525893e+04
3.306242214677557058e+04
3.430551492061829777e+04
2.883035517431646804e+04
1.960595795832370277e+04
1.533219732951461992e+04
1.549494048585988094e+04
1.319012162864002312e+04
5.033769685754210514e+03
-1.136102200360121515e+03
-1.682500154401506734e+03
1.788477677479912018e+03
6.574612333366920211e+03
7.682717788125309198e+03
5.724653602165819393e+03
1.718329331739346571e+03
-3.484401454368818122e+03
-1.093853077003359249e+04
-1.250311273997951685e+04
-1.431724467667036697e+04
-2.339688181497096593e+04
-3.080297750276423540e+04
-2.022254815889593738e+04
-1.478876344147783129e+04
-8.666696676422254313e+03
-1.175520784864864027e+03
8.123660342835679330e+03
1.486879745755838121e+04
9.449841716797895060e+03
2.064645772379626010e+01
1.291446973009792032e+02
9.464358877100696645e+02
-3.651472157052484818e+03
-1.134783800657052780e+04
-7.706337691398683091e+03
-1.342053333924270419e+03
-4.120810623896614743e+03
-2.501282225294747604e+03
-3.665967770218317128e+03
-5.489949321213186522e+03
-1.027156312177724203e+03
1.504808259307601929e+03
6.006219345895765400e+03
5.969455633812097403e+03
1.559927889474603035e+03
-4.899035826226321660e+03
-8.907602720380009487e+03
-9.559094473241315427e+03
-1.244580309623445464e+04
-1.095442055656128287e+04
-2.368114343298206677e+03
8.667411774034726477e+02
3.470336143310219541e+03
4.536729740476699590e+03
2.793553916693331757e+03
9.304736612970599481e+02
-2.157573585391040979e+03
-4.499861458502875394e+03
-2.254224691206274656e+03
-1.318481306210949697e+03
-1.646260711963317135e+03
-1.802083546789605180e+03
3.803439799150958720e+02
1.580051064383372022e+03
1.843745683197998915e+02
-3.606521136997316262e+03
-8.852396454063085912e+03
-1.013637586828942040e+04
-8.104862928345400178e+03
-6.270429758059285632e+03
-6.022895685343590230e+03
-6.941904874393654609e+03
-8.033849320227562202e+03
-7.111443448839456323e+03
-8.009469434351539348e+03
-9.405415799715148751e+03
-8.136432758002234550e+03
-3.801566778996204903e+03
2.873016052249675340e+03
2.824844136397406601e+03
1.503746214571934615e+03
5.546735309064238209e+02
9.466511839078362982e+02
1.231701903527714649e+03
8.178837788475651678e+02
1.409262232523255534e+03
1.900859768372894678e+03
3.476642440061824345e+03
3.949595870287104390e+03
3.460679108913336677e+03
2.720828645022361798e+03
8.739267518413984135e+02
4.167978215936602169e+02
-4.768385251921680720e+03
-7.287336488337137780e+03
-5.416221722729324028e+03
-2.371200006270695212e+03
-5.016430723043988110e+03
-4.682822639861466996e+03
-3.204343121059370787e+03
2.025107642464423407e+03
9.566019434300819739e+02
5.595196930051669369e+03
9.317980737723230050e+03
1.177906631542710784e+04
1.269448434517241731e+04
1.086725433650491505e+04
9.764424278403153949e+03
9.884043540491129534e+03
9.755093487653808552e+03
4.811521107549161570e+03
4.224332978401342189e+03
4.157617746786858334e+03
-3.265622415473490946e+03
-4.610483847923299436e+03
-6.750010458623948580e+03
-4.402363745184846948e+02
-1.612722732851380840e+02
-3.498134402619551111e+03
-3.041729801568191760e+03
9.120544276964399160e+02
6.517483338147586437e+03
7.393760948537586046e+03
3.764876996130652515e+03
4.465955623302240383e+03
5.053102989130116839e+03
7.724266512242558747e+03
8.830418994786836265e+03
7.838594407575412333e+03
6.410975593284796560e+03
5.266615685741282505e+03
4.633313984407472162e+03
3.813026287284810223e+03
3.314810218097971301e+03
1.992633662799767308e+03
9.863723253689286139e+02
7.431315063531779970e+02
5.131043177186236335e+02
1.004282448250588800e+03
1.726715529297815920e+03
3.010507406682600958e+03
3.592757944028470774e+03
4.067485682997957610e+03
4.454836874543445447e+03
4.755011059848258810e+03
4.751986533783824598e+03
4.386740534849936012e+03
4.010482425719585990e+03
3.255759139730878360e+03
2.077799621406969436e+03
1.300428441417204795e+03
6.405328210522291101e+02
-6.897295605482348719e+02
-2.206334737312966354e+03
-3.204585072771153591e+03
-3.830392233333990589e+03
-5.281758939563773311e+03
-9.290160639080540932e+03
-5.277967700023485122e+03
-5.152911571996393832e+03
-2.780780734580526769e+03
-1.096558465559096248e+03
-3.747966447916247944e+03
-8.891165797467073162e+02
1.026409307145083403e+03
1.179783450983503826e+03
1.936545038647664796e+03
2.102736803570831853e+03
1.947550496664319780e+03
1.485411522694887026e+03
1.087459262913750280e+02
-2.087991848452675640e+03
-4.261468332931895020e+03
-4.797030793101026575e+03
-4.739745015434396009e+03
-4.850974458925846193e+03
-4.022509338331385607e+03
-3.270561959991842286e+03
-2.970371079099093095e+03
-2.186880451518921745e+03
-6.399155188709275990e+02
-2.033460443363929073e+02
2.166931206946906343e+02
8.390516069294932322e+02
1.180561221562204992e+03
1.903113443326536981e+03
2.663555189875959513e+03
2.761829688671727126e+03
1.951662259033174905e+03
5.079829496370808215e+02
-3.081331767579725920e+02
-1.411535360176400218e+03
-2.819274150448038654e+03
-4.381432456183253635e+03
-5.821815392239012908e+03
-6.039513604210643280e+03
-6.613381554743853485e+03
-6.712666789193574004e+03
-5.150986104022395011e+03
-2.760227976586739715e+03
-4.204161406937291190e+02
1.444550746796609701e+03
2.332003240022986120e+03
3.152965449634882134e+03
4.248574452541753999e+03
4.808889245914938328e+03
4.631749271845312251e+03
4.584825201529466540e+03
4.235968494255940641e+03
3.800150980402229834e+03
2.733758150232665230e+03
8.554070717814313412e+02
-3.376269927407263367e+02
-1.551576061897645104e+03
-2.689612046634470516e+03
-5.675860211394826365e+03
-9.179825216443203317e+03
-1.415904445134228081e+04
-1.533220646695579489e+04
-1.170496307910499672e+04
-7.329572905338274722e+03
-6.286659881328604570e+03
-6.024300045130989020e+03
1.452899379966653214e+03
4.317853145025050253e+03
-3.490022071074494761e+03
-5.112620307575197330e+03
-2.176381908862992077e+03
2.913704036693381568e+03
4.375484467047471298e+03
3.223444121334463034e+03
1.882571811607887639e+03
7.901957253631816229e+02
-7.173676348201049677e+02
-2.319124515839705509e+03
-2.593837281147583326e+03
-7.522430145312213767e+01
2.444515796607368429e+03
4.001007640263316262e+03
5.085171894521616196e+03
5.917160012822952012e+03
6.882128995702134489e+03
7.366325815619624336e+03
7.280526604113082612e+03
7.169612480083026639e+03
6.933046574267717006e+03
6.450606090003462668e+03
5.407174810930251624e+03
4.592246881461821431e+03
4.137118937866386659e+03
3.784470057632064709e+03
3.067146432348379221e+03
1.468913085850006155e+03
-3.987871032175348773e+02
-1.563389717672951974e+03
-1.856959858310633990e+03
-1.324112367251055957e+03
-6.281062121062217329e+02
-3.908898711751777455e+02
1.117210219910475189e+03
3.506910882865045096e+03
4.736726319342753413e+03
4.270489104888821203e+03
3.139981326559728132e+03
2.522492381760905118e+03
2.652602984502783329e+03
4.014267652460774570e+03
5.253104857304188045e+03
5.275740883436725198e+03
4.253975821898789945e+03
3.089049229563606787e+03
2.488205989217049591e+03
9.466756146673106969e+02
-1.733555588304674018e+02
-1.014755247251561173e+03
-2.144768726655183855e+03
-2.630117676662426675e+03
-1.789667764288714579e+03
-1.762042685000170650e+02
9.334961946551745768e+02
2.781089507962817152e+03
3.236868915607588860e+03
3.161490460797107062e+03
3.391591805158521765e+03
2.780139393651186310e+03
9.922626355602511694e+02
-5.633915243974220175e+02
-8.106606605570777901e+02
2.432741923741662760e+01
2.693969389550676169e+03
1.615184234438325177e+02
-4.639940687871392583e+03
-6.416647789834830292e+03
-2.614976890529555021e+03
-2.467347338859535284e+03
-2.255538550956549898e+03
-1.064020378020576914e+02
-5.455514000255594510e+03
-6.650790120471145201e+03
-1.416439000679141373e+03
-3.242099639809088330e+03
2.356599501937065781e+02
3.213154795855390603e+03
3.336288408846336552e+03
6.583295154930071647e+01
1.566960336752027615e+03
2.117331378679325098e+03
-7.927701613726275127e+02
-4.671148341914533262e+02
2.501281105727392514e+03
3.409398948569091317e+03
2.056421406762805418e+03
9.733526552427116485e+02
-3.538761413559867833e+03
-5.683963311587159296e+03
-4.459589689406173420e+03
-1.104167274579812511e+04
-1.197809882656905029e+04
-8.895917354349074230e+03
-3.708326982579451396e+03
-6.250252017477730988e+03
-6.675466557231742627e+03
-3.418712016110480363e+03
-1.412847657066772172e+03
-5.009061196107206342e+03
-2.983698355348041787e+03
3.613152011497418698e+03
3.774526210139111299e+03
-8.015566112076355694e+02
-1.599162594028800413e+03
1.916475093924270595e+03
1.913420425811509858e+03
4.016595694372765593e+02
-1.712069398712464363e+03
-6.314166747778100216e+03
-3.927986902941605877e+03
-3.594080449026266251e+03
-3.708328907500618243e+03
-3.155811442890779745e+03
-2.149607018793231873e+03
-1.328720212747173036e+03
-1.301015227374031724e+02
1.427187036110570261e+03
2.913140745792428788e+03
3.880662309623917736e+03
4.327810920185148461e+03
4.372567623660751451e+03
3.892895817681530389e+03
4.358020850664303225e+02
-3.244953348398978505e+03
1.128527482624086247e+02
2.397973959137221300e+03
1.395200768416367737e+03
3.336220761846192886e+02
-5.344111858478253225e+02
-1.434167385897143504e+03
-1.886739888602062365e+03
-1.536399813067638888e+03
-1.151797444475232169e+03
2.835172789706215326e+02
1.673913101937220745e+03
2.701296420563305674e+03
3.871083067234344071e+03
4.810319878820030681e+03
5.566580040357291182e+03
6.180891704072669199e+03
6.383166730194565389e+03
6.439947713939969617e+03
6.567838989397602745e+03
6.461165593405047730e+03
5.841693020392332073e+03
5.093207726590575476e+03
3.925721756781883414e+03
2.187492869034450905e+03
1.073879412918489152e+03
6.011517003051657184e+02
5.470040849000000662e+02
8.181030386988509235e+02
1.401582456850932431e+03
1.869473365747596517e+03
2.702409204266472443e+03
3.792680727916523210e+03
4.618754313977994570e+03
5.282192192898596659e+03
5.806995621412123910e+03
6.423124852421138712e+03
6.779513724846127843e+03
6.578067901104946031e+03
6.701720861106776283e+03
6.756465088010542786e+03
6.828198469680160997e+03
5.855945718496507652e+03
4.454639515380595185e+03
3.187201473738055483e+03
1.577619575387234818e+03
4.147624285763571947e+02
-4.724516354234726805e+02
-1.073046408782784738e+03
-1.074011825461326907e+03
-1.823421224092712976e+02
9.949936447971550706e+02
2.605161043343303362e+01
-3.023085645557785483e+03
-7.464377770959285954e+03
-7.374791312570660011e+03
-7.055331367320477511e+03
-5.283973295784770926e+03
-5.050768899083999713e+03
-5.046754603760302416e+03
-4.885864018756040423e+03
-5.991142968464111618e+03
-6.219687135601611772e+03
-5.209652908520552955e+03
-7.844705094596531126e+03
-1.062170781687813542e+04
-1.097344721423736701e+04
-4.595446340947203680e+03
-3.539453273629848695e+02
-1.713992087088828612e+03
-5.674242668318855067e+03
-4.339085904647089592e+03
-8.315444850390504143e+03
-8.252184059558596346e+03
-6.536313195682245350e+03
-4.317735383765098959e+03
-3.238393691408391533e+03
-3.025274678013301127e+03
-3.580356473478379939e+03
-1.153551666707338882e+03
5.964225959796977804e+03
1.069827198775499710e+03
-6.576853783819894488e+03
-3.543824147634955807e+03
6.158282722763730135e+02
5.320336358208793399e+02
7.058271471938999184e+02
4.422200403840474792e+02
3.981568531398463051e+02
3.727106878378247075e+02
-6.400893334363850045e+02
-1.941226036872122449e+03
-1.705571226834180152e+03
4.200897252124000261e+03
5.378196896266756994e+03
6.079432485806363729e+03
7.066746691257859311e+03
7.062259251148801923e+03
6.594924275621572633e+03
6.072696741043389920e+03
5.664608768161629996e+03
4.868706286681125675e+03
3.821040221705393378e+03
2.896511934006644424e+03
1.396128487388406711e+03
2.418486854301303026e+02
-5.024524654636900323e+02
-1.072809236903824512e+03
-1.354274907550527814e+03
-1.628791266117028727e+03
-1.625235057814090396e+03
-1.224548969971786391e+03
-1.717177454851657501e+02
1.552415677571232209e+03
3.149975014818368436e+03
4.341046287190669318e+03
4.555704752562114663e+03
4.316854939500851287e+03
4.240485519468731582e+03
4.171602390130847198e+03
3.238609843301347155e+03
2.813698894535781164e+03
1.848811448713021946e+03
4.101570037903027810e+02
-4.311367840374292655e+02
-1.821936510712425388e+03
-3.330447463318937935e+03
-5.515956508897275853e+03
-5.907606637375622995e+03
-4.251254509526835136e+03
-4.757745142987015242e+03
-2.621473785660597969e+03
-5.167950332182925877e+02
8.004010408293677301e+02
1.762866185976657789e+03
2.595785687994406544e+03
2.726739867388854691e+03
2.967939676377273827e+03
3.346393247433231409e+03
3.398090640147814611e+03
2.985985509664265464e+03
2.259139527862642353e+03
1.238607045594701958e+03
1.492505755582015468e+02
-1.246193657135141393e+03
-2.957748458132734868e+03
-4.455376973873010684e+03
-5.392046315940879140e+03
-5.548717444851639812e+03
-5.493385069983560243e+03
-4.959057362992964954e+03
-3.393601374030127772e+03
-1.697887557795807197e+03
1.791525153919519369e+02
1.642584327094673426e+03
2.682453029707214228e+03
3.210819908977689010e+03
3.696675758929323365e+03
4.031016391318990372e+03
3.993827415409568403e+03
3.117167160362154391e+03
2.135080840047193760e+03
1.356488824792470496e+03
1.482877891460202022e+02
-9.946203888107592093e+02
-2.939277504690820479e+03
-4.533702269703868296e+03
-5.097017065458985599e+03
-5.457286455472722082e+03
-5.381482503316251496e+03
-4.603477764967427902e+03
-3.024162063625818519e+03
-1.204465977858376391e+03
1.725581153172031179e+02
1.412816965599441119e+03
2.238264511087439587e+03
2.791001206789740536e+03
3.370132993376346349e+03
3.744671891206277451e+03
4.047445806037006150e+03
4.151643671067072319e+03
1.511192863730590489e+03
-3.200447675945688957e+02
4.779104187825028021e+02
-6.622056790898883264e+03
-1.334914342769652467e+04
-1.246947184023355294e+04
-5.157981178661897502e+03
-3.593777097374773803e+03
-3.065866350379075357e+03
-3.214247266748906895e+03
-4.571957066357827898e+03
-3.623751224788200943e+03
1.714191043262016763e+02
2.235430271703891776e+03
3.996263008520416406e+03
5.394249959828212923e+03
5.626979836975554463e+03
4.979672086472517549e+03
5.406452461036478780e+03
5.396104679711768767e+03
4.221090221210417440e+03
2.985527127685157666e+03
2.540343011228028445e+03
1.263330941540577442e+03
-1.330091093602541150e+02
-1.550014616210750091e+03
-2.468251686336175226e+03
-2.842255046021050475e+03
-2.494521515965917388e+03
-1.989065370041701044e+03
-1.237630711193685784e+03
-4.738832871656423436e+02
7.187590653122479125e+02
1.773332856321857207e+03
2.558177664946891582e+03
3.864058707938337193e+03
4.439657654317143169e+03
4.930046525508452760e+03
5.343295521771440690e+03
4.827328723177960455e+03
4.019409733123042315e+03
3.732381680664964733e+03
2.336917887250901913e+03
1.313574239973162321e+03
-1.521026506219421606e+02
-1.530481787506713317e+03
-2.362869229460388851e+03
-2.662714713241957725e+03
-2.293124546526236372e+03
-2.256440193891365652e+03
-8.456077421799325293e+02
4.158449399923371743e+02
1.726532291105047079e+03
3.090014975909914028e+03
4.351755246967092717e+03
5.183141962006570793e+03
5.798915538514163018e+03
6.156705080476071998e+03
6.210672957896530534e+03
6.179846360480576550e+03
5.315248842602590230e+03
3.990116708847840073e+03
2.812849413137111242e+03
1.968558896547457834e+03
3.882471020027364830e+02
-7.761834371859521298e+02
-1.786765911821144755e+03
-2.609539299964718793e+03
-2.834559240343510737e+03
-2.570863619524168826e+03
-1.530454436855968652e+03
3.177771761966798749e+02
