-4.209054185305293686e+03
-4.262804123834343955e+03
-4.845496662268164982e+03
3.929135143475890004e+02
-1.648611229878509675e+03
-3.776074534368458899e+03
2.235129440360091451e+02
-1.275797992991523870e+03
-1.378938089084368130e+03
5.290036316139186283e+02
-4.919816861885666981e+02
-6.328849739478366700e+02
9.052918471241158613e+02
-3.577536768626459434e+03
-4.396392107521840444e+03
-2.738322248751088409e+03
-5.027355007708204539e+03
-3.071566435498115425e+03
-8.875925968481882592e+03
-5.144462680463965626e+03
-4.778153145785149718e+03
-4.097046356183509488e+03
5.749215204251310070e+02
1.907752877909935705e+03
1.037425995634346464e+03
2.055892469354036621e+03
2.813224897555605367e+03
3.400488914611324617e+03
3.804678071487912803e+03
4.130726754273543520e+03
3.889654378175725014e+03
3.408437341438986550e+03
3.032069477970750995e+03
2.275474957646251369e+03
1.276621012804110251e+03
4.654820145094196278e+02
-1.630218072527693778e+02
-3.149292088041625561e+02
4.672927065684397974e+01
6.239268232864214951e+02
1.237638974711756418e+03
1.072821118145959190e+03
1.504364628158784171e+03
1.391804520959824231e+03
1.184112588335189457e+03
2.248366935535651919e+03
2.661289732377788368e+03
3.077592532337536340e+03
3.384770869704070265e+03
3.373798906757889654e+03
3.609341743717349800e+03
3.176085954428248442e+03
3.155167174006734967e+03
2.600674747799026136e+03
1.508936116340923263e+03
7.825790136842996390e+02
3.061042983828930915e+02
-1.682847060050622190e+02
2.500623494854226010e+02
6.375522607660567473e+02
1.141103487371172378e+03
1.433268321426384318e+03
2.282805406395290447e+03
2.523191014857493883e+03
2.383248775898431177e+03
2.650104338337172067e+03
2.968908829878937013e+03
3.101790352278366754e+03
3.228665485892778634e+03
3.616033218567395579e+03
3.165187410580638698e+03
2.758929511460458798e+03
2.587236519222481093e+03
2.570272057744114136e+03
2.584663526762817128e+03
1.907321102376649833e+03
1.126824082589654608e+03
3.945778893916348693e+02
1.765229173240450962e+02
2.684669640251554483e+02
8.513864780849928593e+02
1.434261590249893970e+03
1.654199887432124342e+03
2.365226688296726934e+03
2.725352739200602628e+03
3.323598257660391937e+03
3.613978596821872543e+03
3.527506838940265880e+03
3.495213055300483575e+03
3.925067265262141063e+03
3.868065913969008307e+03
3.702236389630545091e+03
3.283594365459542587e+03
2.941124741219740372e+03
2.195844068416370192e+03
-1.020269385219517289e+03
-5.408284063304809024e+03
-1.081126535063169104e+04
-1.113817113314698327e+04
-1.044298821267169114e+04
-1.074467387271979896e+04
-1.053117349592320716e+04
-9.579492721427377546e+03
-8.011596199658609294e+03
-6.626420179688355347e+03
-5.385971596810833944e+03
-6.191116121430098246e+03
-5.082757897311161287e+03
-4.725096912767447975e+03
-4.369100848423163370e+03
-3.067661125670341335e+03
-3.207303848345520123e+02
-4.973197698304667028e+03
-6.802146483090257789e+03
-7.274578728207611675e+03
-8.139481564854338103e+03
-7.535921486332925269e+03
-7.821921729649887311e+03
-8.443457500495700515e+03
-8.347546961612762971e+03
-7.866128347942642904e+03
-7.945190133884958414e+03
-5.668704571276382921e+03
2.329385938635658476e+03
4.583148006092821561e+03
5.759583260329908626e+03
5.949789143329181570e+03
5.841854601145124434e+03
5.534800540555825137e+03
5.261655402517339098e+03
4.864424024252597519e+03
4.339195726354927501e+03
4.028007797460370966e+03
4.006917613435468411e+03
3.549979822241569764e+03
3.013100695829122287e+03
2.350215586091280329e+03
1.712333651940055006e+03
1.352498375507889932e+03
1.116749726119221123e+03
1.309111289754678182e+03
1.705493961601711590e+03
1.821949334727311225e+03
2.184601372145246387e+03
2.708504359158815532e+03
2.884758649379998587e+03
3.233467448046103527e+03
3.231677824606430931e+03
3.100369859489598639e+03
3.219457112262740338e+03
3.349985355834930942e+03
3.379047901477396408e+03
2.646630359698783650e+03
1.805713426942176739e+03
1.249284452170324812e+03
6.494124187403378983e+02
4.341161945363646169e+02
-3.766109789003532171e+01
-4.229708080309305274e+02
-4.737531717180103783e+02
-5.589716182928443686e+02
-2.514755201466991821e+02
1.788430529276571121e+02
1.971751376956891022e+02
1.805127259756812066e+02
7.060638475850598752e+02
7.938227336132302980e+02
9.179737067407827453e+02
1.304544366807589768e+03
1.393490158182153664e+03
5.975659951314448790e+02
8.149323716096812404e+02
1.127721623734521927e+03
1.351868236675799835e+03
9.444791113999051504e+02
-1.499043763230054367e+02
-1.018505397569763431e+03
-1.278338203375497415e+03
-1.202079642652996881e+03
-1.255067786241891326e+03
-1.055430457014790136e+03
-9.110425490174164906e+02
-3.278431015153938688e+02
5.002374282006272779e+02
8.062191343734773454e+02
1.025120726812521980e+03
1.537874936825020768e+03
1.695555544873187273e+03
2.019201143722760435e+03
2.451769359080387403e+03
2.788242603564599904e+03
2.371621832103299312e+03
1.850947854272294990e+03
1.166206803810262727e+03
3.383202860183571943e+02
-5.437382266081632451e+02
-1.058971029597636061e+03
-1.669411219096943114e+03
-1.907168908922446008e+03
-2.307235780668279403e+03
-1.981601836967375903e+03
-1.561294998399560654e+03
-9.733308188765403202e+02
-3.346655062908072864e+02
-7.229085903780362798e+01
2.598003600504364954e+02
5.186601735880501565e+02
5.562170216560459721e+02
7.744532564021337748e+02
1.283433934297313272e+03
1.386202260748776553e+03
1.170650300946852894e+03
9.447686715847329424e+02
2.565677466118881966e+02
-5.099913234016563024e+02
-1.332004149832253688e+03
-1.775504978328900961e+03
-1.887570002568356585e+03
-2.252277301862975492e+03
-2.516637324459946740e+03
-2.439687554115983403e+03
-1.990401488773098890e+03
-3.120802146752992485e+03
-5.383870302200391961e+03
-1.047164583778342603e+04
-1.002321491599544061e+04
-2.574504109482244075e+03
4.925617881640955034e+02
1.494928931375470029e+03
1.558593850327004702e+03
1.707491503010774295e+03
9.944950956656283552e+02
8.887145702546051780e+02
6.350929450599850270e+02
3.024401181489183159e+02
-5.763216886704324224e+02
-7.931327067774686839e+02
-9.727944127192224641e+02
-1.682011389525848244e+03
-1.862399424602005183e+03
-1.253241773299591841e+03
-1.505664461219907651e+02
4.781347711400625258e+02
3.964783753556855572e+02
8.956297301471641958e+02
1.103460812391494301e+03
1.333041223428544299e+03
1.693464031217567936e+03
1.590634136130315710e+03
1.969610193529142407e+03
2.294042208758502056e+03
2.067866027228189523e+03
1.745571025136675416e+03
1.846809629734655573e+03
1.225815045087375665e+03
4.410108254859100043e+02
-5.616274203110672261e+02
-1.021680890078153311e+03
-1.109369862921231061e+03
-1.059668632707947836e+03
-1.062151416567959359e+03
-7.422757208309750467e+02
-3.949402520580229066e+02
4.084397934126282053e+02
1.053244439449882748e+03
1.337381296895930518e+03
2.114692658081974514e+03
2.620378281249994416e+03
3.164301825410183028e+03
3.296340563136265246e+03
3.743975785476379315e+03
3.612964203026074301e+03
3.283037232000837321e+03
2.394493818320083392e+03
1.520024738854542193e+03
7.352602078258887559e+02
3.564635595887950217e+02
-3.252204771157531695e+02
-4.398457525579068488e+02
-4.277123220888697119e+02
-4.746050540522652454e+02
-8.373696991137926489e+02
-4.870937515459550582e+02
2.332929250519375159e+02
8.628344160111342944e+02
1.335466996450215902e+03
1.867057430003666013e+03
2.157669456437396093e+03
2.526437257349468837e+03
2.588458001714472630e+03
2.731709132451568621e+03
2.764163142669673107e+03
2.431942894604006597e+03
1.960149414254676230e+03
1.345780459753048717e+03
8.488921345841824859e+02
1.495049047160242708e+02
-1.371673633597946036e+03
-6.121691339530603727e+03
-8.434570001204747314e+03
-7.421137686161408055e+03
-1.263336321069322821e+03
-2.553282982307274324e+03
-3.203771853691529031e+03
-5.752694064117283233e+03
-4.149126561053883961e+03
-2.404012666020886627e+03
1.815839988152320529e+03
1.554555939693554819e+03
-1.855949415675782575e+03
-1.667757804474450950e+03
-4.410916728660485205e+03
3.014147112380682643e+02
-8.927026736968578007e+02
2.739873400185859396e+02
-5.027447364792426924e+03
-5.969270354181832772e+03
-7.136298795819468978e+03
-6.650048932535312815e+03
-4.889728529705097571e+03
3.423059414265262603e+02
-2.817858978388362630e+03
-1.206142892301036454e+03
-1.990435386040429194e+03
-2.628661281614983181e+03
-5.088097093973918163e+03
-3.133779652059893579e+03
-6.684812494954638851e+02
3.276944957124400844e+03
-1.798741083642275385e+02
2.501093694818363929e+03
3.812203274380138282e+03
-1.358117143916894953e+01
1.771884544724501438e+03
3.178677294827903097e+03
2.518934538702604641e+03
1.598267738008351216e+03
9.610293282895543143e+02
8.233158470223514769e+02
5.024493097897046141e+02
3.982603443039723174e+02
8.245187867992996189e+02
1.570113398589083317e+03
2.446375493521549743e+03
3.316987801231368394e+03
3.508229144434000318e+03
3.458473213552094421e+03
3.398022171212365265e+03
3.823083004990685822e+03
4.194009005271511342e+03
4.223299305366780573e+03
4.282244349247562241e+03
4.150077895706402160e+03
3.555110886162473889e+03
2.630565075877566869e+03
1.725445677853272855e+03
9.197000486741296754e+02
3.049375424504815442e+02
3.375664613679199988e+01
1.705485985910268880e+02
1.711700419526700614e+02
-5.043809257124361238e+02
-2.578051818421484498e+01
1.044097580072598703e+03
7.899228983150736667e+02
1.021496854225324796e+03
1.583061138022475461e+03
1.812580569573203775e+03
2.534116287478610047e+03
2.841509202489379732e+03
3.211364647615051126e+03
3.420172861218304661e+03
3.411402165067863280e+03
2.892695686059810214e+03
2.414300774132145762e+03
1.839593471925360745e+03
1.276433620559564133e+03
4.239743030648451168e+02
-2.886774825912600591e+02
-5.724909307936338791e+02
-6.155327341205774019e+02
-7.601095077291568032e+02
-4.236185197327390028e+02
3.999067789219973292e+02
8.664351981095404653e+02
1.203920537054140823e+03
1.595573020408258117e+03
1.907599429230989472e+03
2.207049166491445249e+03
2.270017086193497562e+03
2.751354864382996311e+03
2.822026884049942510e+03
2.532909858053743392e+03
1.829968946680865656e+03
1.099299744377844718e+03
4.441370590578937936e+02
-4.646589896365227901e+01
-5.503626101381340732e+02
-1.154405287380195205e+03
-1.427684772001034617e+03
-1.725604492120065061e+03
-1.497414902236407215e+03
-1.024735056902689166e+03
-3.734814290873209188e+02
-7.474870738279707894e+01
2.604887112809097403e+02
7.564033544933627127e+02
1.390100454074158279e+03
1.632719840502855732e+03
1.521348379255114196e+03
1.199942490325346853e+03
1.350497921871769449e+03
1.324805933237948466e+03
1.090765476358667229e+03
5.385195081664627423e+02
-4.883245536021605204e+01
-9.393172076725721809e+02
-2.864962569671806705e+03
-6.652833256846410222e+03
-1.145689382959879913e+04
-1.341095061723150502e+04
-1.324877091589757765e+04
-1.280415957944381444e+04
-1.182597829338631345e+04
-1.012627458979646144e+04
-8.497177264901367380e+03
-9.100204146271684294e+03
-9.467431556703653769e+03
-8.566044855615564302e+03
-8.416941147005085440e+03
-4.257806827809296919e+03
1.308362771532774786e+03
2.302690810247015179e+03
2.107228634033892831e+03
1.625745093401677423e+03
9.401628334986389746e+02
2.927516626824453851e+02
-4.350100727445201869e+02
-8.212644841777054125e+02
-1.035938498030755454e+03
-1.175060022583182899e+03
-7.666860193541494937e+02
-5.215162125733829726e+02
6.593502832226151611e+01
3.425730823734139108e+02
9.494262479315290193e+01
4.369475584288692289e+02
1.024420542815585122e+03
1.498564317089608949e+03
1.626648910256386444e+03
1.620681629324922369e+03
1.629683447786422448e+03
1.602762973105377796e+03
1.736948962240732953e+03
1.234310150071424459e+03
5.510555331270877559e+02
9.226256050349891780e+01
-2.591699401112024930e+02
-1.080450318604900531e+03
-1.467549562761106245e+03
-1.292505645845970321e+03
-1.155374849910145713e+03
-4.920840734374548333e+02
-2.915122888680731421e+02
1.647308775773081990e+01
1.028956014113124411e+02
7.377803226463981900e+02
8.901217657222406388e+02
1.228845995274114102e+03
1.502879993512220381e+03
1.928300344184263395e+03
2.118144517641558195e+03
1.968278547131661298e+03
1.786614066263024142e+03
1.461134747937250040e+03
1.360904462149192113e+03
6.709323074573757140e+02
-5.689249700799395271e+01
-7.416876748138444100e+02
-9.193550555880398178e+02
-8.699097544979620125e+02
-1.116149208591150682e+03
-1.240317697384133908e+03
-1.504813585390770356e+02
5.684448252197380498e+02
1.024041097299256535e+03
1.503392495946226518e+03
1.953584222827639451e+03
2.317739896357309135e+03
2.442740559156219206e+03
2.070307288463553050e+03
7.325889386144556283e+02
7.335006991196150921e+02
2.150718781269270494e+03
2.762271488808589311e+03
2.406867246133297158e+03
1.774336581915292527e+03
1.010568747315514315e+03
6.694444813449619005e+02
3.219313144764572030e+02
-8.705237544972979435e+01
-9.356214987344787914e+01
6.142689777068775356e+02
1.594312530805713550e+03
2.554506486416385087e+03
3.200893157493237595e+03
3.270586738664118002e+03
3.755468128807547146e+03
4.647281522604012935e+03
5.362038567706643335e+03
5.809528514670113509e+03
5.728629075854017174e+03
5.226149834186297085e+03
4.851996946947321703e+03
4.456083113080549992e+03
3.939305179744601446e+03
2.474525428002124499e+03
9.546192359196334110e+02
-2.748519599129977564e+01
1.061295194521356109e+02
1.491346782214217228e+02
3.823568827712014127e+02
1.112890504956658106e+03
1.940705940789925535e+03
1.985765476617041941e+03
2.509929619181256840e+03
3.064068361483792160e+03
3.733976438489575230e+03
3.747584826216411329e+03
3.671880565288276102e+03
3.944807247123094385e+03
4.215254991777482246e+03
4.438081593392344075e+03
3.710164005701667975e+03
2.546471726600449074e+03
2.023839956523446290e+03
1.577163027634141145e+03
7.593606355881483978e+02
5.233946565743086694e+02
1.132098220568754869e+03
2.480291220217932732e+03
3.116876779435648587e+03
1.861840939562517860e+03
3.721292588936680659e+02
-1.482718713326413535e+02
4.116163309257745482e+02
-2.246937494536293545e-01
-1.697899493826264461e+03
-2.370421383758501179e+03
-1.985844684189832833e+03
-1.314197095689237131e+03
7.914924359629471837e+02
4.015169334365775285e+03
3.900733299572636042e+03
1.992061947431669296e+03
-3.361130377019092066e+02
-1.673836847589906029e+03
-3.005731579081208565e+03
-5.189164393609496074e+03
-5.843375217581279685e+03
-5.296761410956444706e+03
-6.088167603368728123e+03
-6.959593535999507367e+03
-5.289227867024880652e+03
-2.416113609394033119e+03
1.588212892543668318e+02
1.301227389172478070e+03
9.273557235039180568e+02
-2.060032297025047683e+03
-5.252917722643023808e+03
-6.078539949880212589e+03
-5.445784612051455952e+03
-8.754696266034883593e+03
-1.042536663973309987e+04
-5.894277251790655100e+03
-2.550941816438023579e+03
-4.290449290966850640e+03
-5.985726679264082122e+03
-6.807105028876005235e+03
-6.384167941878524289e+03
-5.143611522698588487e+03
-7.859208581646629682e+03
-1.184983695933742274e+04
-1.495973829258229125e+04
-1.723362007966119199e+04
-1.103109036443312289e+04
-2.555145053660440226e+03
-1.193762775665863728e+03
-9.859926516255513889e+02
9.645300498354308729e+02
4.390499777972386255e+03
1.131100869114664420e+04
1.494631384408941267e+04
1.081757594689361395e+04
7.075882703622442932e+03
6.683369628923318487e+03
4.375161171407898109e+03
-2.302643953867103846e+03
-1.230801382740228291e+04
-2.080689532349799993e+04
-2.236821106128221072e+04
-2.041886088609999206e+04
-1.189662246421655436e+04
3.129658133114798147e+03
1.087414936587532793e+04
1.113992825442557478e+04
4.173159630201678738e+03
-1.139968630017738178e+03
-7.989305657479651018e+03
-1.477765805731992441e+04
-8.126844219344308840e+03
5.765246597978123646e+03
9.797814546009709375e+03
8.501024269454272144e+03
1.753943225170680080e+03
5.563475164657739924e+01
-2.937769769421252477e+03
-6.409250556400577807e+03
-5.711676552339675254e+03
-5.027471022921664371e+03
-6.580806981415776136e+03
-1.200856451867053693e+04
-1.525463138049497684e+04
-1.855289345844350100e+04
-1.958219849610842721e+04
-2.362454437656695063e+03
1.676750502805365977e+04
2.096281419118233680e+04
1.834762774945297133e+04
1.172409171473808419e+04
6.138336767888105896e+03
4.216410635210176224e+03
6.684498145061123751e+02
-9.014445052436102515e+02
-1.715171003776802308e+03
9.483642622626574621e+02
1.181022804119153261e+04
1.660346295122741867e+04
1.647215513653184098e+04
1.507234566887746223e+04
1.261309960531240176e+04
8.545495975238593019e+03
6.375622176350953850e+03
6.399553586867236845e+03
6.891364863723600138e+03
9.064119099576189910e+03
9.985947717685494354e+03
1.007490137048367069e+04
8.089049447134374532e+03
4.588487586416283193e+03
1.159247761603129675e+03
1.823566790588478170e+02
-4.311328278342847966e+02
1.225784914511140869e+03
5.695073536619960578e+03
9.736769769449647356e+03
9.191912619010105118e+03
4.863513496700851647e+03
4.288485160562645433e+03
4.740759883137858196e+03
3.236304128205974848e+03
1.109111289759826377e+03
7.672179303512228898e+02
1.495619988115604656e+03
3.974276472347248273e+03
7.058181090625495017e+03
9.626313532962676618e+03
1.259169398295963583e+04
1.270627947147085069e+04
1.122702218142220590e+04
1.053688042260704060e+04
1.057780991324066417e+04
1.003073664257950804e+04
8.296564194731878160e+03
4.978250052965629038e+03
7.968498128926760273e+02
-2.879189184963159278e+03
-4.996909552878247268e+03
-4.927610840686033953e+03
-3.977480551295512214e+03
-4.155577373071038892e+03
-6.720060350560942425e+03
-4.016102724745865999e+03
-3.568645029036293636e+03
-5.474724980174936718e+03
-7.087534008943552180e+03
-5.422131499303545752e+03
-4.790980220233534965e+03
-4.009174937806551952e+03
-3.099281888406834241e+03
-5.631822963030507708e+03
-1.056294986965380485e+04
-1.401487708135280445e+04
-1.200377405979892683e+04
-1.237270925753140546e+04
-1.202085133469429638e+04
-1.233735119267835762e+04
-1.488136672890637965e+04
-1.463204132183347065e+04
-7.498473300558271148e+03
-6.768407396611262357e+02
1.027769593029969428e+03
1.389257771634237088e+03
-1.278530107409763787e+03
-3.301717264366992822e+03
-2.861419725642198046e+03
-3.185737900034357608e+03
-4.301752502021219698e+03
-5.055525724220487973e+03
-5.961213430245859854e+03
-6.937973291033418718e+03
-5.316872450225727334e+03
-2.794980399897684492e+03
-5.824107407353741337e+02
-9.182699724294969883e+02
-9.066579770555167670e+02
-1.508733771088382127e+03
-3.701698155636318916e+03
-5.568672552997472849e+03
-6.445821767205866308e+03
-6.046211221908504740e+03
-5.098922224241323420e+03
-3.169053009216636383e+03
-1.178737951479738967e+03
-7.800987955664163565e+01
2.320582316141193644e+02
1.183393377223492507e+03
2.806896176478623602e+03
2.831534299998745610e+03
2.045320624399286544e+03
1.364165194475187491e+03
1.387923585407163955e+03
1.949502797243446821e+03
1.829898954729215120e+03
9.050481444147864067e+02
-2.681437796390477502e+02
-3.301758249185442310e+03
-8.047844901757594926e+03
-1.156047989195476839e+04
-7.202718492421159681e+03
-3.026713847679510309e+03
-4.839525646342733125e+03
-6.117047995960741900e+03
-5.611389548786967680e+03
-3.371463921874494645e+03
-7.463114171352543735e+02
-7.279163443807435669e+02
2.325766403243300829e+03
5.307773703174953880e+03
6.130048687195638195e+03
8.791449264772192691e+03
8.435971143299950199e+03
7.212674604114178692e+03
6.254589436766157633e+03
5.389709127415917465e+03
4.836005523123384592e+03
3.525484706645504957e+03
3.100170243794258113e+03
1.739012290618614088e+03
-4.440085184213360208e+02
-2.559876427695517123e+03
-3.771597547183518600e+03
-1.630154436476338788e+03
9.095601266960748035e+02
1.314552262013377458e+03
3.350823706087052869e+03
4.900445003132484999e+03
5.787470670388263898e+03
5.331982798308675228e+03
4.450139455121074207e+03
4.043990787646285753e+03
3.974512902694031709e+03
3.643784184660250048e+03
2.961959487327532770e+03
3.074113861758004532e+03
3.773293185218140479e+03
2.154441494283128122e+03
-8.733876738531281489e+02
-2.115142145370903108e+03
-1.881794231603652634e+03
-7.053220217672977697e+02
5.073838182318882559e+02
1.324356701388096099e+03
1.320650410136157461e+03
1.175371867163417619e+03
1.976680710489874627e+03
2.825643548232027115e+03
3.511311885999381957e+03
3.593777426021628798e+03
3.594119276140759212e+03
4.033475728331479331e+03
4.073947060819821672e+03
4.038585094086115987e+03
4.041447651811657124e+03
4.330612623576337683e+03
4.296157697502546398e+03
3.369069858367677625e+03
1.967297741296941240e+03
1.001913685149331968e+03
1.821444215924746288e+02
-2.728590003920730283e+02
-7.613924671315749038e+01
4.813120572329394236e+02
5.996715484399716161e+02
1.221074354686791366e+03
1.476627246723069675e+03
1.782351517585823558e+03
2.039263725798712358e+03
2.098269138252629091e+03
7.852368097070863087e+02
-3.579456149407914381e+03
-2.724657713797503220e+03
-1.882282533839941721e+02
-2.132157082467460441e+03
-2.835393915002844551e+03
-1.708387017931930245e+02
-2.036522174113101073e+03
-4.800523138030818700e+03
-3.783775795086102789e+03
-4.670162675375500839e+03
-2.874862101872726271e+03
-4.278984447511360486e+03
-9.745351656112485443e+02
-4.457425011683224511e+03
-1.898436335977436102e+03
-4.671304961387319054e+03
-3.841954312136109365e+03
1.039512217838534070e+03
-1.982970306104500423e+03
-3.905043090226020468e+03
-5.482068277159236658e+01
-1.625791408254276348e+03
-4.033930388214584127e+03
-1.965908098683837352e+03
2.802849573514180861e+02
-1.224360014437462496e+03
-2.433923856192838230e+03
-1.869527912446963001e+03
-3.114857438680470295e+03
-4.581768771033061967e+03
-2.236328799386034916e+03
-6.912515909411445136e+03
-8.090068387953499951e+03
-3.902325942631047837e+03
-1.714794761305657858e+03
-1.367366062080995562e+03
-9.182194012839372590e+02
-5.915303413729563999e+02
-3.456188786837001317e+02
6.058763821750320488e+01
1.996455217225558556e+02
1.040557844408657957e+03
1.870109240023375605e+03
2.748491836894372227e+03
3.155072803355043561e+03
3.120213398881292505e+03
2.687959119343146995e+03
1.900820018446254835e+03
1.546476032663525984e+03
1.081220382587975791e+03
8.921437128409851312e+02
3.365276404343534296e+02
3.076606979589402613e+01
-1.211171398369915764e+01
1.109734467041363786e+02
7.982363049044333820e+02
1.637804080542559632e+03
1.665609234627845808e+03
2.324823069505140666e+03
3.410996379066597001e+03
3.785460887800372348e+03
3.445690460837382034e+03
3.382352792897479048e+03
1.449589713401323706e+03
-2.018686021491604151e+03
1.301275307308834499e+03
2.015586376059387703e+03
1.376933294033549146e+03
8.385770940775607869e+02
4.236751566334879158e+02
-6.755325211883567604e+00
-3.518531947386333059e+02
-4.962926853877066264e+02
-3.276491816190515465e+02
3.179809020654366236e+02
1.378094780098049341e+03
2.354129294036666124e+03
2.606084053497233981e+03
3.113726059402702958e+03
3.597213654305696309e+03
3.717554568099122207e+03
3.782790984316889080e+03
3.847922493303311057e+03
3.494388209526422088e+03
2.918979371374281527e+03
2.165554173086978608e+03
1.737074389912216247e+03
1.033573301178099200e+03
3.322243073776278379e+02
-2.950889475599604452e+02
-9.436148907056776807e+02
-1.675453941782277525e+03
-1.744758728028441283e+03
-1.303434956547589763e+03
-8.084099689596438338e+02
1.555507605808383857e+02
6.815846121590159328e+02
1.010690472321912239e+03
1.670734869875262575e+03
2.278734290787153896e+03
2.087478164373118034e+03
1.888628020924910743e+03
2.315148722247226488e+03
2.858374167437973483e+03
2.874625765277770370e+03
2.348624947791529848e+03
1.667296658301517027e+03
5.978107354716728423e+02
1.151913098721432647e+02
2.532179320660393174e+01
-2.288535696290503552e+01
-9.360473378629812657e+01
-4.139265468053116024e+02
-3.198354196083569718e+02
2.676086273870241143e+02
7.885895037049247094e+02
1.281347335401197824e+03
1.554858255669443224e+03
1.436074565895806700e+03
1.711143717812384466e+02
-2.786828796335671996e+03
-7.848607570391300214e+03
-9.262067448377503752e+03
-8.366169409843465473e+03
-8.278938665821533505e+03
-9.279526620749029462e+03
-9.334986341934538359e+03
-9.197258294957799080e+03
-9.797092021897922677e+03
-1.072287996672217741e+04
-1.093550293797202721e+04
-1.103467015661689948e+04
-1.124435053476221401e+04
-1.156478918667920334e+04
-8.742823870366291885e+03
-1.339414607103627759e+03
9.604908120994973615e+02
2.957224189903237402e+03
3.690081342631684038e+03
3.727144947796914494e+03
4.234982621587044378e+03
4.422750664034017973e+03
4.357410534733649001e+03
3.798051825742216806e+03
3.454941362445937557e+03
3.302892032182879120e+03
2.827335410597183909e+03
2.531201735579024444e+03
1.897795810452548722e+03
1.313250444816141226e+03
9.689328012543663817e+02
6.388587165568292221e+02
2.069057081250223291e+02
9.217235019145255137e+01
8.087524449289095401e+02
1.151760598151410932e+03
1.215374690550367177e+03
1.248671336600120412e+03
1.594489779894638332e+03
2.155799111051812815e+03
3.006647762482891721e+03
3.600224177206362128e+03
4.003504277073870526e+03
3.817612579746166375e+03
3.397751034350640111e+03
2.717994700108729830e+03
2.000326160656344427e+03
1.558692128780489156e+03
7.880970609770149622e+02
-5.456559277260485885e+01
-7.122744188303477131e+02
-1.043946997629851694e+03
-1.266490724994404673e+03
-1.520888157911967937e+03
-1.328155216855652725e+03
-1.311108762413999500e+02
1.116414441760028240e+03
1.432543209640398800e+03
1.693265278226077271e+03
2.165558616114787583e+03
2.525514251764259370e+03
2.345221159510394955e+03
2.222615621658966575e+03
2.387891010998219372e+03
1.873574290722706337e+03
1.184888832467420571e+03
2.224904270779454976e+02
-1.476595535828326092e+03
-1.723366052999949261e+03
-3.021893230792309623e+03
-2.926283288405267285e+03
-3.028735360785913599e+03
-2.839206628113853185e+03
-2.291444372506501168e+03
-2.203748128826164702e+03
-1.433155174448715798e+03
-5.685001061542429852e+02
-5.791993934108389652e+01
4.428574464388826186e+02
1.041981903599735915e+03
1.298528835959528806e+03
1.430516795959793399e+03
1.433873072049162147e+03
1.411697396028162302e+03
8.109342520618027947e+02
3.876216422505484616e+02
3.048939711571132420e+02
-8.227530034941480608e+00
-7.157664053344366266e+02
-1.098033571564473050e+03
-1.482125220034612312e+03
-1.863905513958738311e+03
-1.908529264687309251e+03
-1.965960093421362899e+03
-2.093132666637092370e+03
-1.239997940955822287e+03
-1.415370960506356539e+02
2.294265770681656491e+00
2.565444060037042959e+02
6.511906431127583801e+02
9.092228942762227462e+02
1.302532112027115545e+03
1.267044430353792677e+03
1.039934040357184131e+03
8.582702741363070800e+02
8.079167247114950214e+02
4.477015878259314832e+02
-1.654806292110375239e+02
-8.486958121640469699e+02
-1.785017998007003371e+03
-2.166416924061534246e+03
-2.032925027075325261e+03
-2.076722274240824845e+03
-2.038866389904276730e+03
-1.657424347458001876e+03
-1.077370685823399526e+03
-5.526470555214857541e+02
-2.733526383793515038e+02
2.514279834365941326e+02
6.546408831844876204e+02
6.473230686558418938e+02
1.243400574021343118e+03
1.814744665339828771e+03
1.912328207073115891e+03
1.557142530717953377e+03
1.146119883100637935e+03
1.142202398002438713e+03
3.192941768140612453e+02
-3.627713602604139282e+02
-7.071602470431099619e+02
-1.915920082274751167e+03
-2.027138556897165017e+03
-1.594823475628014421e+03
-1.184059049280489262e+03
-8.489809111751388855e+02
-1.117682356120008762e+03
-1.153306984653060994e+02
2.349002370937040780e+02
8.384783048514499342e+02
1.621364002490458233e+03
2.288410699489981198e+03
2.470419147648196940e+03
2.973150516439049625e+03
3.258760940745420157e+03
2.487554081160395981e+03
2.367110437583744442e+03
2.140413098162845927e+03
1.825998135826829866e+03
1.366271344158149986e+03
5.537343290970916314e+02
6.545536669013446271e+02
7.762751072703342743e+02
5.453550517541078761e+02
5.345274064557419251e+02
9.573267844709605470e+02
1.664339464729519023e+03
1.863416593448450158e+03
2.355987460616803219e+03
3.096609717349399034e+03
3.244995243466045849e+03
3.056638229287656486e+03
3.296969256925991886e+03
3.817820264095077619e+03
3.956795351149991347e+03
4.109170975788786563e+03
4.085474214145095175e+03
3.193927226752372462e+03
2.742326202936461868e+03
1.860090047611953878e+03
7.901788249839858054e+02
2.319799981752871929e+02
2.431857487051875069e+02
1.684251723260407516e+02
2.293413779154783185e+02
1.401857249686757768e+03
2.041018442556799300e+03
2.305747165570835023e+03
2.192997322257620453e+03
2.377684391461792529e+03
3.171777876053066393e+03
3.615246510918961121e+03
3.618114513029882346e+03
3.757376066257394996e+03
3.770016248767669367e+03
3.818015589209006066e+03
3.243347499542635887e+03
7.039981901155016430e+02
-2.868074001607838909e+03
-8.688852723697995316e+03
-1.001839289876500879e+04
-1.013970580720311773e+04
-1.027382486046362465e+04
-1.003781767189778657e+04
-9.498705512588017882e+03
-9.045397158819898323e+03
-8.443916733620928426e+03
-8.021289910688070449e+03
-7.487463572013165503e+03
-6.667339173967551687e+03
-5.147921305547182783e+03
-5.400937083007004730e+03
-4.435183479648399043e+03
-6.722314701020078473e+02
-2.467941472827994403e+03
-5.805176858612838259e+03
-5.950905552049184735e+03
-6.232125561704887332e+03
-5.963801228243348305e+03
-6.204900059471003260e+03
-6.706439224764430037e+03
-7.173418763348272478e+03
-7.632800066275710378e+03
-7.392652585475841988e+03
-7.317927547533579855e+03
-7.127470139042540723e+03
-6.753248068410256565e+03
-4.141162884959052462e+03
9.398365761794601667e+02
-2.409169342803412292e+03
-3.076075500962756450e+03
3.597239550424848858e+03
5.641846859021065029e+03
6.450781411694544659e+03
6.593112182607847899e+03
6.907903087959728509e+03
7.250264509733447085e+03
6.636239455926441224e+03
5.362872624870989966e+03
4.145233803971286761e+03
3.302312940712058207e+03
2.755162762241759538e+03
3.094821981570737535e+03
3.246319751379699028e+03
2.714755235330768301e+03
2.461238788356872192e+03
2.804808592363465323e+03
3.145525380388743997e+03
2.952535503774742210e+03
3.132947521165600392e+03
3.662808011441172312e+03
4.096163907768433091e+03
4.197107317751028859e+03
4.454756288843471339e+03
4.945225427354928797e+03
4.713602571305556012e+03
4.395892381674258104e+03
3.985162143505509903e+03
3.341455207130492454e+03
2.634864182678541511e+03
2.077445290232684783e+03
1.577265959404404157e+03
5.983054994709281118e+02
5.634663860102865556e+02
4.526852119275400241e+02
3.434275730208969435e+01
1.488120442686123965e+02
1.098302717952416970e+03
1.571084600517725903e+03
1.994388897249237061e+03
2.178156612675289125e+03
2.636233429691901620e+03
2.877709969090703908e+03
3.240795832638151751e+03
3.055497041428720422e+03
2.981629866356811362e+03
2.775344740174945400e+03
1.732772166742900254e+03
1.298134903391847274e+03
5.320431765092347405e+02
-7.916572813005096805e+02
