-6.690993580715215103e+03
3.204861694339051155e+03
2.828201146308054376e+03
3.276373143166771115e+03
1.499763165082410887e+04
1.641114992955993512e+04
-1.267998696860882410e+04
-3.611247737974121264e+04
-2.116293033287657818e+04
5.662879173807453299e+03
9.461874804701604944e+02
1.852278548303719845e+03
1.792349110717745134e+04
3.061204872751837320e+04
3.145417393503190397e+04
2.930409840431301200e+04
3.172599110197985283e+04
3.735910148455581657e+04
4.679861942844522127e+04
4.975481650424427062e+04
4.476103973775765917e+04
2.857340770931059888e+04
1.633224718794001274e+04
2.549667437452845843e+04
2.606080047160669346e+04
5.905817035205782304e+03
-3.587739941993478169e+03
-7.125551642668288878e+03
-2.298237406356181964e+03
1.230444825928164619e+03
-3.909386353444975612e+03
-5.208531912932324303e+03
-3.060854304253537975e+03
-3.638087759986630772e+03
-8.965050696477666861e+03
-9.826596746881015179e+02
2.205230967068478276e+04
2.353914768164372072e+04
9.274361171591564926e+03
6.809812539901623495e+03
1.926224768144480186e+04
3.648926598208938231e+04
4.811796522777183418e+04
4.486299894885182584e+04
3.736962339346736553e+04
3.032099445419213225e+04
2.578920680637686382e+04
2.209636020978822125e+04
1.327859905953144880e+04
-1.119502154647273215e+02
-1.137427648238000256e+04
-1.862832023306823248e+04
-2.893692145853144393e+04
-3.907797601881501032e+04
-4.658443257657279901e+04
-3.928019896848680219e+04
-3.438229616255705423e+03
2.560551672648263411e+04
3.059199837778145957e+04
3.008625581426305143e+04
2.108536603811438181e+04
9.695319102006536923e+03
1.172097665119516705e+03
-6.683432938267888858e+03
-1.040931796435236538e+04
-5.713555324688675682e+03
-4.211517912691524543e+02
-3.187056837816695861e+03
-1.626826994463828305e+04
-2.862190006715780692e+04
-2.424505841107897504e+04
-1.477669150354319027e+04
-1.388788480696443730e+04
-1.064471200041672637e+04
-7.912273088468998139e+03
-1.169467905756436448e+04
-1.493705478405754548e+04
-1.887943420640437398e+04
-1.992593869103294492e+04
-1.556711537152000801e+03
8.633127942722449006e+03
-1.604996645248349694e+02
-6.812670451043954017e+03
-6.071463357655535219e+03
-4.909015858856172599e+03
2.311552174927684064e+03
7.474040325781697902e+03
1.095024811139093435e+04
1.319810273873148071e+04
1.099838444338807494e+04
6.976863209825703052e+03
6.167351525016075357e+03
5.071659177021132564e+03
5.736731231969098189e+03
6.265397452918695308e+03
3.206235430170853761e+03
-4.597108495932993719e+03
-8.131647780142747251e+03
-6.824297678666577667e+03
-6.745536760820414202e+03
-6.423543223522596236e+03
-8.609123245698323444e+03
-1.185350222828993901e+04
-1.766645491186030631e+04
-2.353788097973392723e+04
-2.569288029899929461e+04
-1.933869931010465734e+04
-4.758637656421677093e+03
3.711237163982374113e+03
-1.067939678681197620e+03
-8.552603771165673606e+03
-1.119008063752241105e+04
-1.208856716469261301e+04
-8.778042952919642630e+03
-3.162778530317487821e+03
6.460043974037879707e+03
1.355933659802997863e+04
1.559789932850791774e+04
1.378252041978058151e+04
7.004886933613533984e+03
1.578704049324190237e+03
8.618820013799726212e+02
2.919362620253882596e+03
6.072108986426493402e+02
-2.537059756351630313e+03
-2.820283155040239308e+03
-4.386643756147324893e+03
-4.308130993100398882e+03
-4.998577845999810052e+03
-8.577149419862722425e+03
-1.094287034591257179e+04
-1.430598768079377078e+04
-1.191169576372205665e+04
-3.185109253634638662e+03
8.024598340120942339e+03
1.415946105350471589e+04
1.206439323944632451e+04
6.291489446582628261e+03
2.691707808446996751e+03
1.837501829372458587e+03
2.437020373397905132e+03
3.817257845077556794e+03
4.533134700997444270e+03
5.390723089752768828e+03
5.276071461478828496e+03
4.451678918878402328e+03
3.969754989815609861e+03
3.349216218978770485e+03
-2.269095659818296554e+03
-9.010182160045940691e+03
-1.080505310925362028e+04
-7.493687892642016777e+03
-5.472115489460309618e+03
-3.722438206730709680e+03
9.133433513466258091e+02
1.386152605057471874e+03
4.459145649622845440e+02
-4.934950296254944533e+02
2.479094860203265114e+02
3.879136653607973585e+03
6.383323747639336034e+03
4.916537183672758147e+03
-9.773949618946376177e+02
-2.063402848142877701e+03
-1.696180657778044178e+02
-2.964132133798891118e+03
-9.191779458005592460e+03
-9.444466497621922827e+03
-4.588068923173740586e+03
-2.783569439762599814e+03
-2.428101570867473583e+03
1.113409667655647809e+03
3.505886929047780086e+03
1.110539627290708268e+04
1.475215174511316582e+04
7.121181257852276758e+03
4.837673595761879369e+03
1.523798252360651304e+03
2.193494090310662614e+03
-6.113005026176573438e+02
-3.461663170875872765e+03
-2.086990173503294841e+02
4.554816576511308995e+03
1.739228395245155525e+03
-4.877603640524515868e+03
1.900193098186487987e+03
6.330828002620431107e+03
2.769793765694421836e+03
1.547285841621681584e+03
7.422695004550222393e+02
7.906645572392053509e+02
3.797321147698141431e+03
3.191267010334430324e+03
2.487702205158008837e+03
-1.529342288876710199e+03
-2.303829648564708805e+03
-2.181794390763407591e+03
2.158410614852784022e+02
1.253377621547788067e+03
3.897900486013774298e+03
3.878373935427190645e+03
6.818270980034367312e+02
-4.917279271730146775e+02
1.635728697364338814e+03
2.149370221899888293e+03
6.564505330080340855e+02
-1.767300243269089606e+02
7.950087650389230021e+02
1.652502631437896525e+03
2.403630932370092069e+03
6.724471077044515823e+02
-1.451518753291601115e+03
-2.761737695875433474e+03
-8.489900310832009609e+02
2.813567492899816898e+03
5.123549304037905131e+03
3.922804183630657917e+03
2.477939604159949795e+03
1.762851033261313887e+03
1.238722057269701963e+03
3.518472201188989175e+02
1.954776766451980620e+03
1.549202627039244135e+03
6.309795458913604307e+02
-4.517633157019821510e+02
-6.623336961647113696e+01
3.205333214492327443e+03
3.426797218284793416e+03
2.203980216008104890e+03
1.761926220311008962e+01
-1.832736700884256152e+03
-1.958401106005149131e+03
-8.089642524238357737e+02
6.958008172298918907e+02
4.471595808642368866e+02
-1.932544906388107165e+03
-6.474283609256531236e+03
-1.048243131772606830e+04
-1.027100950314028341e+04
-7.067295145980652705e+03
-5.556196477574184428e+03
-3.606977742962377761e+03
1.353759846995374346e+03
3.301813639818015872e+03
1.509856588368277244e+03
1.617983885007489846e+02
-4.442307778856148843e+02
-1.106648828363987377e+03
-1.430755666954642948e+03
2.605475186917696533e+02
2.349070352660154185e+03
4.486725023885840528e+03
4.547822947138482050e+03
4.970834216469706917e+03
5.050999867670713684e+03
5.673847119218017724e+03
6.476898230817346303e+03
5.787822190395803773e+03
4.302402436478387244e+03
4.217281044522655975e+03
4.951308892084558465e+03
4.945485098159520021e+03
3.129448732556079904e+03
1.320833309062726130e+03
1.053737689587642080e+03
6.102439975656637898e+02
-1.730370530767323487e+02
-5.369607004613303616e+02
6.770693473175458621e+02
1.553724152457017681e+03
2.398960301950045505e+03
3.486542038493135806e+03
3.401719676596035242e+03
2.694155284579735508e+03
2.116557061156614964e+03
1.689468503344656483e+03
2.205255095575953874e+03
1.201569678954283063e+03
1.403545717458669969e+03
4.611717863280181291e+02
-3.027157725258583469e+03
-8.065873225589815775e+03
-1.016212899587918218e+04
-1.146541529586467004e+04
-1.052006423183906736e+04
-9.775769184346385373e+03
-8.824539798250903914e+03
-8.058634705085069982e+03
-8.292366460914174240e+03
-8.290906940587681675e+03
-7.819949163590800708e+03
-8.162173528843342865e+03
-8.565446645240330326e+03
-7.384278258773394555e+03
-1.473323725286547642e+03
1.823835224031915232e+03
-1.161481694325392027e+03
-4.445397978367573160e+02
5.169590747128290786e+02
1.568241753876743587e+03
1.681437432347527874e+03
1.632055233194281072e+03
1.536271159170681813e+03
1.269078086958225640e+03
9.165408554474140601e+02
9.262786840500867811e+02
4.819346557291084423e+02
2.195896875872907685e+02
1.621376215204160474e+02
1.280226722242400115e+02
2.244893288150431090e+02
4.425831916120858978e+02
4.851511807404381784e+02
1.067574780940223263e+03
4.937888641170299024e+02
-2.136088519598899893e+02
3.838185034648840883e+02
1.088893353577077050e+03
1.564008726758649345e+03
1.165146803091076663e+03
7.045818193912383549e+02
2.441524691704498764e+02
-8.818245538083397150e+02
-9.324657673885935765e+02
-6.360506630768297782e+02
-4.775752386770760154e+02
-2.207531119066456426e+02
3.562266829885411994e+02
9.918199606201523011e+02
1.082656351897024251e+03
8.546560202895635712e+02
8.637735551899238544e+02
6.875509040662558391e+02
6.460847686311271900e+02
2.615493771686801097e+02
-4.019891102350702994e+01
-1.587301743023994902e+02
2.963882745345143803e+02
6.466989709801656261e+01
-1.369441726391976601e+02
5.706902533323372495e+01
9.167335116123433636e+02
1.404317792592702062e+03
8.377719787841904235e+02
2.804692895747792249e+02
-8.385319939816156420e+01
5.059432539838410747e+01
2.933593462770703013e+02
3.128145318445255612e+02
-3.762615426647653294e+01
2.862378368716671844e+02
-2.586122235329292351e+01
-1.660617012558247552e+03
-1.878596445180412729e+03
7.851597389098749318e+02
1.144228126905400586e+03
7.174535631557036197e+01
3.877088234687183217e+02
2.973056568854868829e+02
-3.772975885541887351e+02
-1.457699730507254117e+02
6.899887557915534444e+02
9.237483431430481460e+02
6.908505002555658621e+02
1.214602119007521566e+02
2.428254097399214118e+02
-3.998505456168860661e+01
-5.946960537292551408e+02
-4.705800725258563375e+02
-1.776872126769482350e+02
-4.012706341066447067e+02
-3.805496158088514562e+02
-7.304966946778063175e+01
1.214055630205476888e+01
2.452976445275978392e+02
7.128811201346760527e+02
7.824376923458454485e+02
6.379609345148701323e+02
4.350883662736724773e+02
3.455879801074709690e+02
2.698344347860573862e+02
2.608810510670381291e+02
1.794743228279475034e+02
-3.431068898469739992e+01
-3.958541580311792529e+01
-9.028567498690804882e+01
-2.162041425213065224e+02
-5.673227871489604013e+02
-9.206001087332675752e+02
-4.875562512574323932e+02
-8.517257831127752752e+02
-9.694763499920300092e+02
-8.585660470269134521e+02
-6.874082330895286077e+02
-3.136846367216177214e+02
-5.551373048249804043e+01
3.228770353196476322e+02
5.043397342939707642e+02
3.217405600215505501e+02
-2.649120938674207082e+02
-3.385885256451520036e+02
4.477285954648223765e+01
1.420694909659306120e+02
-1.438625520363252690e+02
-4.081079496438795786e+02
-6.983244942448772008e+02
-7.622013486173999581e+02
-6.959647756182831699e+02
-8.529842510015861308e+02
-6.262474451479127993e+02
-2.889065947762694009e+02
-6.540319804218252386e+01
-6.455256901462477970e+01
7.171556080010446976e+01
3.522977974279112914e+02
5.050708159112263047e+02
5.876950327589096332e+02
5.531008123808310302e+02
-9.882894106046229581e+02
2.238296397575051060e+02
9.550296615137763183e+02
8.570339324189047829e+02
4.820828837487512715e+02
2.113491317000647314e+02
1.392696047929819940e+02
-2.244127225699701000e+02
-3.484012393175165698e+02
1.002769868643640336e+02
3.682768775954619400e+02
6.666309001748081755e+02
7.937821999448643737e+02
1.143779846826378389e+03
8.885669700328745648e+02
8.237882205530059991e+02
1.272511210538402565e+03
1.341383096257397028e+03
1.901584780103131834e+03
2.085300067688740910e+03
1.817214277404019185e+03
1.887627425714687433e+03
1.793804771164415570e+03
1.560966508199408736e+03
7.560808121583136199e+02
7.723540490035030643e+02
1.372598707439938607e+03
1.094970541495270254e+03
1.080886656747225516e+03
1.214114110690073176e+03
1.519349116186460378e+03
1.788759786242460223e+03
1.476287345213104345e+03
1.335867587082117552e+03
1.312645926299266876e+03
1.584524654775532099e+03
1.813207204189802951e+03
2.078632060809184168e+03
2.524493715556428015e+03
2.375205641648766687e+03
2.083119978899283524e+03
2.118852656201470836e+03
2.125683512758682809e+03
2.036148695372493421e+03
1.971413192120283384e+03
1.930369538566261781e+03
1.848807327808583523e+03
1.741901083112102697e+03
1.738373279825269719e+03
1.907380059454164666e+03
1.963951336276182019e+03
2.243049277557624464e+03
2.049391111202771299e+03
1.777819278577899922e+03
1.857361832658950789e+03
-3.397967284828216066e+02
-4.495734182525236065e+03
-8.029431700733603066e+03
-8.594750779260142735e+03
-8.507638674436157089e+03
-8.070350899536579163e+03
-8.033820673371745215e+03
-7.610065524412451850e+03
-6.741019724141937331e+03
-7.108800634031137633e+03
-7.424568283739064100e+03
-7.572130155310621376e+03
-6.909422970590787372e+03
-7.266323590822761616e+03
-7.034027958736612163e+03
-3.768389462072395872e+03
2.153649955130949365e+03
2.771988781773370192e+03
1.996690487368634024e+02
-4.866085454131175538e+03
-7.157954185419319401e+03
-7.241896448299347867e+03
-7.221165662626383892e+03
-6.919040226808428997e+03
-6.710478491909410877e+03
-6.401511209188945031e+03
-3.353429627596705359e+03
3.094996763799976634e+03
2.537123169477359170e+03
-7.220541472867513448e+02
3.914422876781730452e+02
2.932638429297016501e+03
3.070542832088189698e+03
2.562044256331479119e+03
3.215095102028995370e+03
3.345729439139975057e+03
3.412158082765717609e+03
3.046380196153358611e+03
3.077480149620948396e+03
3.179422930580058164e+03
3.010245902043797741e+03
3.686168917064250309e+03
4.091304752105427269e+03
3.748547538136797812e+03
3.661880852542607954e+03
3.414468125599215909e+03
3.027515242254393797e+03
2.962024029456575136e+03
3.172966750131945901e+03
3.424482365320748158e+03
2.901674764989163577e+03
2.441602688334027334e+03
2.473124868682918986e+03
2.491231449523995707e+03
2.267943918017129818e+03
2.006331555208169902e+03
1.912574913266860904e+03
2.293746618569470229e+03
2.534005090389322504e+03
2.413416567121005755e+03
2.134855260109746268e+03
2.132454357040373907e+03
1.951186796996940529e+03
1.945235340990468330e+03
1.722903198950750493e+03
1.685441749556534432e+03
1.998726262021723187e+03
2.294746734115236904e+03
2.183368008778249077e+03
1.568535565130830946e+03
1.373197476350606394e+03
-2.145766843941196669e+02
-8.945782923682978662e+02
-3.285703948918942388e+02
-1.433556337894170156e+03
-1.884149468733572519e+02
8.379058021983298659e+02
5.563092122374288238e+02
6.045465685928886614e+02
1.184002332744834803e+03
1.445599640583754990e+03
8.408896234334841893e+02
6.273495207836615464e+02
3.568658212587005210e+02
1.524055756552058369e+02
-5.901674945511025783e+01
-1.253721544755588297e+02
-3.416273278549413703e+02
-4.473584058159416799e+01
4.912532118538391046e+02
4.493569364785711286e+02
6.461447846378531779e+01
-5.429838144028618672e+02
-1.055407859425429251e+03
-1.044642613079986404e+03
-1.382688396451350627e+03
-1.556541376711317753e+03
-1.341210502989626775e+03
-8.006175840433485291e+02
-2.367726950332272793e+02
4.732876151031421728e+02
4.425069631057379524e+02
-4.391320860088068230e+02
-3.552207080006009221e+01
3.673465524740830688e+02
-8.556739760564512665e+01
-9.331891873385411600e+02
-1.043569413361929037e+03
-1.370728550099209542e+03
-1.259704507289110552e+03
-1.257537960955500012e+03
-1.943262981222499775e+03
-2.476968279284066284e+03
-1.700590618581452873e+03
-1.743092272716205343e+03
-2.150534966681202150e+03
-2.391914706771853162e+03
-2.689254146326949922e+03
-3.260557116758239772e+03
-2.904837691495131821e+03
-1.851079703626837045e+03
-5.183664050779100307e+02
-2.927095518715835851e+02
-1.460858176419819756e+02
4.935010820802264107e+02
-1.949189748758408314e+03
-7.117203707729766393e+03
-9.785473734337729184e+03
-3.751019868899555604e+03
-4.953877162795744880e+03
-2.269127047470133220e+03
-5.865819960152720341e+03
-5.800929343933219570e+03
-1.515465487727839673e+03
-5.644548620328267816e+02
2.797015958082101861e+01
-5.221144234116002281e+02
8.003574597985696073e+02
1.000019074681464645e+03
1.614931144382317143e+03
2.278176734640504037e+03
2.329667252234176431e+03
2.445374208459988495e+03
2.845321263140096562e+03
2.763375862807257363e+03
2.133409724102886230e+03
1.867413880650856299e+03
1.653391071420093795e+03
1.280320912959452698e+03
1.649124225669418593e+03
9.897825933427009204e+02
-2.370918200922085006e+01
-7.344591776583208684e+02
-2.795221882875185315e+02
1.003114234010771156e+03
1.736367563300028451e+03
8.841810145659796945e+02
-7.434600040749576237e+02
-6.465857098437496688e+02
4.117484552037198569e+02
1.332523163381800714e+03
1.664735730289583898e+03
2.113420459206683972e+03
3.254543707842564345e+03
3.870021962091828755e+03
3.870743270318898340e+03
3.440724913061872940e+03
3.147962781847609676e+03
3.018393352283987952e+03
2.258996693070552283e+03
2.391717074845297702e+03
1.573563320316646013e+03
-2.584793220032418617e+02
-1.126520346670158233e+03
-1.403555295408950315e+03
-1.041651736160531300e+03
-4.228352647223778717e+02
2.191191149031133989e+01
3.465562188323422674e+02
3.650828818621533287e+02
3.474983175988150492e+02
7.577564788156868758e+01
-5.613033310687085731e+01
1.174858554258130198e+03
3.271738586897312416e+03
4.147399839509055710e+03
3.708828035869190899e+03
2.227091236096071043e+03
-6.528494165719753255e+02
-2.247997906493474147e+03
-2.494412086340830228e+03
-1.352176404688124649e+03
4.827289859820609195e+02
1.731304233982655660e+03
1.972501824511758514e+03
1.851359252036143289e+03
1.885845585155852632e+03
9.809768378682612138e+02
7.597269162394686646e+02
3.151403128086017205e+02
-7.997677191492078919e+02
4.359339330336604235e+02
1.224177997073389179e+03
1.307153697363312631e+03
1.819085291691696966e+03
1.462790907361782729e+03
-7.997624560371233429e+02
-5.198512813802623896e+03
-7.177493848258651269e+03
-6.924725527979069739e+03
-7.411195676821809684e+03
-7.978908633291051046e+03
-7.766914508395981102e+03
-7.357139594550324546e+03
-8.124591938893380757e+03
-7.966305092528450587e+03
-7.553166996663235295e+03
-7.201192225785323899e+03
-6.911585655858431892e+03
-7.304835751811038790e+03
-5.113973720289651283e+03
1.101846167413984631e+03
2.739662452135409239e+03
1.290532216914345554e+03
-2.237549864180481563e+03
-5.761578484237884368e+03
-7.456474137118839280e+03
-5.914271245880720926e+03
1.180951822912216585e+03
2.825291719303967511e+03
3.252814059898155847e+03
4.036524502919414772e+03
4.580426211118744504e+03
4.920589769211369457e+03
6.770904691950294136e+02
1.087911464833872969e+03
1.885109517878162478e+03
2.295643900769986431e+03
1.602573206128113725e+03
-7.310741755529460306e+02
3.177406818564281252e+02
3.375103112110132315e+03
3.974005061799708528e+03
-1.347534507175338831e+03
-1.243467844772644185e+03
-5.997371866243690874e+02
-4.343525851474891510e+02
-7.412733902119365439e+02
2.059566018534121667e+03
2.173172458454042044e+03
2.050569471474379952e+03
1.701795567148705004e+03
1.494827639665021252e+03
1.212673362766787932e+03
1.706375074078958960e+03
2.397990577164592651e+03
2.397572879226134773e+03
7.743254516860132526e+02
-3.664960573539095776e+02
3.861958614207166534e+02
1.655196318105046885e+03
2.624555692050715606e+03
2.840266874131775239e+03
2.136296682762683758e+03
1.739664537676337659e+03
1.085492258159146559e+03
1.722756767544650984e+03
2.359110161872466506e+03
2.216115063122535048e+03
2.111919405708500562e+03
-1.285900793475137789e+03
-2.023378503627156078e+03
-6.947738471851735085e+02
1.276784283452910387e+02
-2.536971454629583320e+02
-5.618329320508893261e+02
-3.613274353122273652e+01
2.992575570541336560e+02
1.009380072612986851e+03
1.507990591785204060e+03
1.236073081692467667e+03
1.111607114280844144e+03
7.652227827751111136e+02
8.632878909004151637e+02
1.486715530741994826e+03
1.786590168506728787e+03
1.902033215447208022e+03
1.665744806446244411e+03
1.194491979123104784e+03
9.127304043014986519e+02
2.908612809357434799e+02
6.062870956549868140e+01
1.668122963016121787e+02
1.042554224126398736e+02
2.589518437783939930e+02
-3.708952220846266101e+01
-1.768653757806808073e+02
4.476649038144182100e+02
9.324373734913418730e+02
6.184766683978173205e+02
2.468779723873804812e+02
6.676402588587786795e+02
1.124827767093166131e+03
4.294195179577881731e+02
-2.016032681269090290e+02
-5.018359769780008151e+01
3.386892831355473277e+02
1.260009792008032946e+03
1.557723601624057437e+03
9.668737083153342837e+02
-3.445990384029117592e+01
-5.302631592026488079e+02
-4.994759500244260835e+02
-1.020252709057391257e+03
-1.899234107460726761e+02
1.119463279662731566e+03
1.303949416810425419e+03
9.406890376836875021e+02
5.876786448769649951e+02
6.658690471757830665e+02
9.352857050372253980e+02
1.249099149206595939e+03
1.484282198838337536e+03
1.445699539041804883e+03
1.359450081421777213e+03
-9.644763166338650251e+01
-2.834191227134812834e+03
-5.906913957970691627e+03
-8.487480536811497586e+03
-8.699956738753504396e+03
-8.993036528762950184e+03
-9.060384718337678351e+03
-9.102283136207568532e+03
-9.163147142478206661e+03
-6.906037289657177098e+03
-3.778760089656146874e+02
-6.616222936538125623e+02
-4.200253429956635046e+03
-1.638688481094872486e+03
2.292648748360694810e+01
4.155834442017163042e+02
6.035017792690296119e+02
8.636447270516845265e+02
1.127913053838080259e+03
1.677296473145198661e+03
1.766973329570694432e+03
1.305149718715458448e+03
1.162634346427801120e+03
8.202027003610962765e+02
6.505401691685239030e+02
6.506224681122946549e+02
6.934683737241487052e+02
5.250897254859322629e+02
7.953104598006966626e+02
9.032096253094508711e+02
4.981473578806268847e+02
8.922142209151984389e+02
8.899637969989876183e+02
5.561887610518621159e+02
7.480660902321121739e+02
9.926999207914251429e+02
6.431550060733420651e+02
3.933597868014006735e+02
5.123048902940315656e+02
9.600363575287560707e+02
1.072697936135703230e+03
9.931779260292395293e+02
1.099234574449217007e+03
4.099814229136081849e+02
1.766293540547512748e+02
3.052511979159856992e+02
8.092113899492564144e+01
-9.150550575037026135e+01
-2.122542949727023824e+02
-5.514442036323536058e+02
-8.579289632550194256e+02
-4.966515417800216596e+02
-1.523174029493870592e+02
-2.249638137839244223e+02
4.222928984114699347e+02
2.117621647312768346e+03
2.161371912354609321e+03
1.807831353972367879e+03
1.607045414425267609e+03
1.393917997704795425e+03
1.196929220505210196e+03
8.044166982841205709e+02
2.654206231539338887e+02
2.834315641063193993e+02
2.308316883108618924e+02
1.107742589041599103e+03
1.353972760744512414e+02
-1.246122162397868806e+03
-1.277795919093168067e+02
1.920238034940466889e+02
-8.835897047519704017e+01
-3.850202913824360280e+02
3.654024230548721608e+00
2.650585368434307156e+02
7.849881589762270551e+02
1.103108043805143552e+03
1.105495933509848783e+03
1.070614076495879090e+03
1.151521390163548404e+03
1.069715617888612087e+03
1.141973613299085400e+03
1.095366508887462032e+03
1.138610247236003033e+03
9.312735609856978272e+02
7.214921863211953905e+02
6.546591815764412559e+02
1.966438367675289669e+02
-2.681136313571972210e+02
-7.043544858160665854e+02
-9.310199100032166371e+02
-1.111942894518103458e+03
-1.464808529504504122e+03
-1.688762574945327287e+03
-1.066925072209306563e+03
-1.452533419786138893e+02
3.301492891972275174e+02
-1.317684530599387358e+02
-7.550636710069962021e+01
2.289806821636841221e+02
3.735573444362772193e+02
6.789743919087468385e+02
5.997921547242622182e+02
7.423813605328574567e+02
1.036228923821907983e+03
1.143291981378504488e+03
8.539367489233767401e+02
8.205725634695249937e+01
-6.672747220012979597e+02
-9.188547714293349600e+02
-1.100459945344816560e+03
-1.284544371315054377e+03
-9.033593157574885026e+02
-6.718072726758578028e+02
-1.202104227477259428e+03
-1.077697857008872006e+03
-2.517725939568043998e+02
-1.266442202531237804e+01
3.166596452829906738e+01
8.114334022037438672e+02
1.367329069263555539e+03
2.082728643254366489e+03
2.519241977380461776e+03
2.127073157123091733e+03
1.757276402746902477e+03
1.829698744798122789e+03
1.513611888432250907e+03
1.669113207154832025e+03
1.228958617456943784e+03
1.086921870166553617e+03
7.421709826482513108e+02
8.469950824037257462e+02
1.123950798415108238e+03
2.782307618803314426e+02
-3.884038774028038915e+03
-3.506071572821149402e+03
-8.637879207357806877e+01
6.809399233621049916e+02
6.570663894217625511e+02
1.412385794601564612e+03
1.914953362799761408e+03
1.702136762971885901e+03
1.620762641647740338e+03
1.959369454512461971e+03
1.344872848936483024e+03
1.522867360958443896e+03
1.253342964453416926e+03
4.685510275311464738e+02
1.378904659589006201e+02
-6.397196135208100713e+02
-4.363621408426598464e+03
-2.353202066595989436e+03
1.148029547202902023e+02
3.774867872760577825e+02
3.992991051265760802e+02
1.266615430202592961e+03
1.757181373134443220e+03
1.893523950531865921e+03
2.058475236452238732e+03
2.215301928879086518e+03
1.641907106110545556e+03
9.653406869892838813e+02
9.075841404676608590e+02
6.909827630078174252e+02
3.002988753415838801e+02
4.537685696560196220e+02
6.581226375800490587e+02
3.673741314076368667e+02
4.973789868309949043e+02
-3.800454710347119125e+00
-2.119565088586016373e+02
-3.972509776399090242e+02
-2.021816100337817943e+02
2.170614789288977136e+02
-4.294609435161594035e+01
-2.159194555633090715e+02
-2.122438266787501107e+02
7.463797436699904608e+01
-1.407086701918609037e+02
-2.502809323035725981e+02
7.443716817824592624e+01
1.066271570515721123e+02
1.709735872017922134e+02
6.258116702609341928e+02
3.645469112617889778e+02
3.280210240544261779e+01
-7.137097508380717272e+02
-1.400010354479012221e+03
-1.542167826995377936e+03
-2.059664227811879755e+03
-2.548852666770647375e+03
-2.684072136709422921e+03
-3.405101695300375468e+03
-3.207629202833137242e+03
-2.846623594631424567e+03
-3.520904722001776008e+03
-3.853346173796078347e+03
-2.020463773433207280e+03
-1.551176236985379546e+03
-6.358997077333150628e+03
-4.397136886873785443e+03
1.166474156865311215e+03
8.536421105933459330e+02
4.739142491382173148e+02
1.037405450895030690e+01
2.268162633006133433e+02
1.257181218169198722e+01
-3.437118576773393670e+03
-3.327648379520841445e+03
-3.420682784389834978e+03
-8.495983330074751620e+02
-1.086675880858941127e+03
-1.329103516807582764e+03
-2.040887194818555372e+03
-8.324759195890062983e+03
-7.499778447789182792e+03
-2.453451355364773008e+03
-1.903048957561552243e+03
-3.174821662651644147e+03
-4.643550856925030530e+03
-7.898494811808619488e+03
-7.867593842799165941e+03
-2.786719363507947037e+03
1.351391843512851210e+03
2.979581682302492482e+03
2.735404304040286661e+03
1.782363200611498087e+03
1.080702849396396005e+03
3.196983613110152191e+02
-3.902625065852486728e+02
-1.209579693542626501e+03
-2.062126848887427968e+03
-2.621108179536960961e+03
-3.138555944869887298e+03
-3.096253714201793173e+03
-3.601458019921044524e+03
-4.224398781679145941e+03
-3.835056195006894995e+03
-3.026814811219976491e+03
-2.955112407866908597e+03
-3.700802500031746149e+03
-3.485661350525936541e+03
-1.968398239756650810e+03
-1.296950188393357628e+01
3.412605457204567301e+03
5.865277623874363599e+03
4.919092971267497887e+03
3.044185224256716538e+03
9.572406233646601095e+02
3.960032757605648044e+02
6.552125563617716253e+00
-1.347090423427358701e+03
-2.450921263368240034e+03
-1.539821654117508615e+03
-4.635736041987876206e+02
-4.921892524463880250e+02
1.139043933719193092e+03
3.242122334511638201e+03
2.522488777681434840e+03
1.239586014776339340e+02
-2.735799532569704297e+03
-6.614754350601588158e+03
-5.611993417374566889e+03
-1.225758581164798443e+03
3.205096860106541044e+03
3.103507518189542679e+03
8.530977617859390421e+02
-4.316247267460226453e+02
-6.480222519859473778e+02
-6.945328509636706258e+02
-4.709789770274244916e+02
-1.882709954198064224e+03
-3.856882409799532525e+03
-3.060982056683444625e+03
-2.518706428066900116e+03
-3.033527888659940800e+03
-3.954085159562094304e+03
-1.791671815360070696e+03
4.620688121813167527e+03
9.735867072354019911e+03
1.283466974168535489e+04
1.204063960715260873e+04
1.081344424749691098e+04
1.023472953564783347e+04
9.409202856662672275e+03
6.025061239397521604e+03
3.398078819302847478e+03
5.936985502874178565e+03
1.093381040135735384e+04
1.136662848874466363e+04
8.267432825539686746e+03
5.857998955158579520e+03
5.774809517014597986e+03
6.845672432974130061e+03
6.281679557146350817e+03
4.838668075786203190e+03
4.415581160944125259e+03
5.744586432068492286e+03
6.365006466372186878e+03
3.546439991004527201e+03
6.923758428456188767e+02
9.870341282753591372e+01
1.958189030500781428e+03
4.664420839008334951e+03
5.587170603213925460e+03
3.568735321612706230e+03
-9.670473593439196520e+02
-5.194547514892554318e+03
-8.894435871566300193e+03
-8.432558666455910497e+03
-7.803935145375139655e+03
-9.862843136103931101e+03
-1.021296273750273394e+04
-4.934337100889733847e+03
2.296990410380341018e+03
8.087746612032242410e+03
1.597711361080702954e+04
1.441807479898765814e+04
9.878900191500533765e+03
9.313162383648443210e+03
8.501309147794192540e+03
1.996215574755317675e+03
8.244198806050439998e+02
-3.532102370252344485e+02
-9.314523032961096760e+02
-2.553509816907271215e+03
-8.452743382115973873e+03
-1.213814362032443205e+04
-1.791046399860166639e+04
-3.116456328215046960e+04
-4.355880435450855293e+04
-4.828611508167955617e+04
-4.465074678742792457e+04
-3.968714532325139589e+04
-2.745455935087805483e+04
-1.057091233820498928e+04
3.917893669383818633e+03
4.455730247574997520e+03
7.138399794158322948e+03
2.013482596113910040e+04
3.025199746487788434e+04
3.103024301800990361e+04
2.466930396720456338e+04
1.591514140360940655e+04
1.088279251776567980e+04
6.448441339924609565e+03
3.738424011108301670e+02
-3.241270463272530833e+03
-1.943884347671635624e+03
-2.202916982956176980e+03
-4.744622641298643430e+03
-7.126112839319357590e+03
-1.069299512771977425e+04
-1.644341801431851127e+04
-3.202144944994337857e+04
-5.240418362091095332e+04
-6.643351760943741829e+04
-5.903138537685337360e+04
-4.221772178064616310e+04
-4.364940862183798163e+04
-5.444863666539953556e+04
-4.123762286146970291e+04
-1.787222581230595097e+04
1.177761587471583698e+04
3.794090799611565308e+04
4.660362846692557650e+04
3.228451648658514750e+04
2.234111219141452602e+04
2.075528756185332895e+04
2.066007722097318401e+04
1.756352788926340145e+04
2.236878990241952488e+04
2.823376165893490543e+04
3.303729590708649630e+04
3.958443926704275509e+04
3.571573761834470497e+04
2.523516574975976982e+04
1.541664953231735853e+04
1.294707969781534848e+04
1.450958025158755663e+04
4.740320959367748401e+03
6.208502069751671115e+03
1.233728179914119210e+04
6.422781442111588149e+03
-4.964136057333412282e+03
-7.924367414270535846e+03
-1.029068521293845151e+04
-8.271213705839127215e+03
2.481101317225219645e+03
1.866483510568631027e+04
2.998192114219206633e+04
4.187671852262017637e+04
3.486512033845430415e+04
1.046197866547832928e+04
-4.574354952978123947e+03
-6.129628909725762242e+03
4.120996305153000321e+03
2.497830628659307695e+04
2.262984279671074910e+04
1.215789559541726703e+04
1.204835048217595795e+04
6.933477578976629047e+03
-1.427966150030561585e+04
