1.151063393193300953e+03
1.063091421489781851e+03
-2.046253748992013186e+02
2.438791948243525383e+02
3.075677575230709522e+02
3.264202838962797273e+02
-2.916110567580324187e+02
-9.866283820472780235e+02
-6.898320287778369675e+02
-7.559515817379184455e+02
-7.349313484192314263e+02
-8.128836055237616165e+02
-3.688114137407000044e+02
3.337506244688935197e+01
3.435005994990749514e+02
4.156381348561025106e+02
4.585539192413403953e+02
1.063532878234899044e+03
1.227616452052287968e+03
1.711489298503411874e+03
2.132076430012313267e+03
1.872349402174696024e+03
2.151331229142037500e+03
1.804964977186561555e+03
1.493212566996145370e+03
1.313015675862598528e+03
1.016322956849406751e+03
3.841156985778255262e+02
1.093675074106267147e+02
4.401335244231783150e+01
1.550315987000924167e+02
3.033978860173526186e+02
8.411097229309303884e+02
1.011962057808268924e+03
9.481175436621674635e+02
1.158746215062247529e+03
1.607747749917468354e+03
1.936963062945486172e+03
2.342706121641204845e+03
2.697690862794076565e+03
2.676838074232859526e+03
2.845126560861600410e+03
2.879503498997575207e+03
2.556829500595291847e+03
2.313436163210671566e+03
2.011200947306078206e+03
1.274008853663124910e+03
8.998391283559312797e+02
8.646470902280125301e+02
6.953904802665610987e+02
7.110800671322915605e+02
7.117228951080567185e+02
1.138305726065597355e+03
1.239827116589082607e+03
1.311265288359498300e+03
1.401663509615250859e+03
1.653013382843690351e+03
1.831294882937358125e+03
2.050475532590181047e+03
2.099579288372693100e+03
2.113599366770346478e+03
2.194533454972575328e+03
6.353957110624162397e+02
-3.107840666983258870e+03
-6.128190336292102984e+03
-6.958644473142960123e+03
-7.077242839829378681e+03
-7.158977498867794566e+03
-7.112866060495862257e+03
-2.568889610470551361e+03
5.199456417284577583e+02
-3.608321916139684163e+03
-6.359670806561579411e+03
-6.615106917352991331e+03
-4.646599194123101370e+03
3.848798799501113308e+02
-3.752648278063839371e+03
-6.048099500410320616e+03
-5.414494103839773743e+03
-5.038802862491711494e+03
-4.427063226698574908e+03
-1.218376836542470983e+03
-2.326588765662287187e+03
-5.145427032621202670e+03
-5.060106163059582286e+03
-4.752639208312783012e+03
-3.017193161442376095e+03
-1.174529456870393915e+03
-5.024842263091655354e+02
9.098215561440894135e+02
-4.763654188149250331e+03
-6.949866037758205493e+03
-6.159758242607103057e+03
-9.213118892398691742e+02
1.842530159023706119e+03
2.467780968350237799e+03
3.172502640288879320e+03
3.431725882552953408e+03
3.623464130540215137e+03
3.906733215131205270e+03
3.821567049762545139e+03
4.046031063646301391e+03
3.855105193534006958e+03
3.596825589660572405e+03
3.482205921815188958e+03
2.912308950312034085e+03
2.285139449569797307e+03
1.707719882509253466e+03
1.500079689835067938e+03
1.194222195431295404e+03
1.086188106875399853e+03
1.439013986461594641e+03
1.588755723747988895e+03
1.646471339170151623e+03
1.697187492112070231e+03
1.897961528306346963e+03
2.131835019006324274e+03
2.147849094011733541e+03
2.115035763187778230e+03
2.410409674401221309e+03
2.739018225268252536e+03
2.502920587793172672e+03
2.422130172110139029e+03
2.333660288866519295e+03
1.833523233272008611e+03
1.354735101233821297e+03
7.783211975348486931e+02
3.113303475998217777e+02
1.597980049129684517e+02
-9.928844774484073810e+01
-1.419082605048110395e+02
-2.320288979354090486e+02
1.023831674074172042e+02
3.794098815693233746e+02
4.052062925051942557e+02
6.008402815470083169e+02
6.493133923888510708e+02
9.687708480872865948e+02
1.261256091958153775e+03
8.759336676567301083e+02
6.878482802308726605e+02
1.109785051850726177e+03
1.479716708100884716e+03
1.541357784420319604e+03
9.786367016067732720e+02
6.237176516429211688e+02
2.866614194978741921e+02
-1.795471522135041198e+02
-6.479360910285555519e+02
-9.164945644350999601e+02
-7.852694537316330070e+02
-5.862286588989500160e+02
-5.003765157301692170e+02
-3.997258339321936091e+02
-5.032075929980771321e+02
-5.077923811335430742e+02
-4.645108342508517580e+02
-2.793243787451260118e+02
-6.819503400542113525e+01
1.538425423846134095e+02
3.607840070689636036e+02
5.406973992190870604e+02
3.945661657295206055e+02
7.763822717755198255e+02
7.031251965615635982e+02
1.978108522781602971e+02
-4.196066099633999329e+02
-9.151316259566111739e+02
-1.493797125884542538e+03
-1.680620844532295905e+03
-1.468590625871830980e+03
-1.410718896593734144e+03
-1.372057976909360605e+03
-8.845834675628602781e+02
-7.412923308021225921e+02
-8.161588767048041291e+02
-6.822292475336549842e+02
-3.674960538624359856e+02
-6.094616916376870819e+01
2.544344488061901188e+02
4.775912122867389371e+02
6.375251466348864824e+02
6.512823588820986060e+02
4.987989139722175196e+02
5.300623885685405412e+02
8.609296984604183933e+01
-3.421947048111937306e+02
-7.788444388474573543e+02
-1.430899046662338606e+03
-1.617389840788924403e+03
-1.529331860336760428e+03
-1.385753657121944570e+03
-1.040680159996394650e+03
-1.568106343037598663e+03
-2.789055252687162465e+03
-1.443551591950059446e+03
-6.835622380371148665e+02
-1.601136789529676037e+02
-4.428377322368791624e+01
4.489558454038843252e+02
7.785956629119621084e+02
1.616390796893043955e+02
4.780089201910922725e+02
9.907597210894375621e+02
7.738646633068349274e+02
5.462307920462531001e+02
1.528524495846663172e+02
-1.333009471970618449e+02
-5.353010326205643423e+02
-9.001824133581520755e+02
-8.369795012422165428e+02
-7.617331857421835366e+02
-8.964620748408922282e+02
-6.441468923611597575e+02
-3.588067226886295202e+02
-2.448591950141550910e+01
-2.120141576624151725e+01
2.706909016916475608e+01
3.022721019582346571e+02
2.063670038057759939e+02
4.343643764210589211e+02
8.202841231135688531e+02
1.183107193223387185e+03
1.472817701943129350e+03
1.341408309762118961e+03
7.898442571888867860e+02
-1.289144415970379782e+02
-4.599053137342796163e+02
-5.121330655029260015e+02
-6.976795272674266926e+02
-9.825945357243975877e+02
-9.718784033856974247e+02
-6.155152645375927705e+02
8.520271590489452151e+00
5.301508279120117777e+02
3.443710419481478198e+02
3.701943855900043445e+02
5.636472281027079134e+02
1.129680654313487366e+03
1.158303766551911394e+03
1.234484678670107769e+03
1.504251939358671734e+03
1.652606290800008765e+03
1.604571242507723355e+03
1.455110649719236562e+03
1.033171380152235770e+03
4.017820755369039034e+02
1.459148109217436229e+02
-3.824512699715788813e+02
-4.373207566700592110e+02
-3.997674095605627258e+02
-1.647336360224033456e+02
-2.332301891725367966e+02
-9.227235040435346036e+01
1.791495460437328120e+02
4.180509905886000297e+02
4.313910236292040850e+02
7.321917354939812412e+02
9.525196316978676805e+02
1.147447025258492658e+03
1.263815677886311960e+03
1.541673620443363006e+03
1.625059718723550532e+03
6.539840344280701174e+02
-3.155521580508342595e+03
-3.710524732738137573e+03
-3.205024613125775431e+03
-3.799971784320008737e+03
-4.211403865723880699e+03
-3.004352307745454254e+03
-3.605820299004023582e+03
-2.886833383159459572e+03
-4.988352472952326025e+03
-3.088333067711404965e+03
4.381845918485818743e+02
8.222575322268178297e+02
6.748793224055152677e+02
5.220545702794690897e+02
1.122886301608203894e+03
1.523348200817251382e+03
1.942464252483481687e+03
2.085213343002512829e+03
1.967644099537380953e+03
1.988806570449189849e+03
2.071728205972384330e+03
1.656395323245171312e+03
1.224796908306481100e+03
7.208828144895923060e+02
4.356544780863588926e+02
-2.580881959931878555e+03
-3.737738782461487517e+03
-2.374888424284871689e+03
-1.732319222628587340e+03
-2.905005893584546811e+03
5.560645266707832661e+02
1.178909943078127981e+03
1.162581836601941859e+03
1.162134729871150284e+03
7.015659238487781977e+02
-1.660118878264331670e+03
4.561085287962939105e+02
1.682305885358814521e+03
1.856511738778061044e+03
2.044702760827900192e+03
1.883935055625442601e+03
1.288200320725951997e+03
8.925426794671020616e+02
6.849854816136706859e+02
4.054374523725516042e+02
1.897476336137824831e+02
-2.610048539529891514e+02
-7.174533922790617169e+01
1.724725384651008824e+02
3.026946017963141458e+02
8.498648489913870208e+01
2.333451290777568659e+02
3.887604272527390208e+02
6.052539332319754521e+02
1.131794547397596261e+03
1.443586211762876019e+03
1.641984555884413339e+03
2.026171504522590340e+03
1.918069356788900222e+03
1.857341210179166183e+03
1.461855643335807372e+03
1.151390527093487890e+03
5.600248420066159269e+02
2.428451202007329073e+02
1.436330555986907420e+01
-5.221307338157455433e+02
-9.328355743183158211e+02
-1.251328973197797495e+03
-1.558064548644153547e+03
-9.345795679726119261e+02
-6.564658744226306908e+02
-1.054430781273758981e+02
-1.977784576403160202e+02
-2.097763762110635525e+03
-2.578929916105582379e+03
5.133576245830250855e+02
1.062630934845790080e+03
1.274234201510014373e+03
-1.251010142242467964e+03
-1.362502155717307232e+03
5.560952984246354163e+02
9.021440983485302922e+02
3.585577280115232952e+02
-6.187297225800944744e+01
-1.827732849197108465e+02
-4.703098883939027246e+02
-4.195583576998547528e+02
-5.898315825697669652e+02
-3.301315447622683905e+02
1.950672788588175166e+01
2.261162734574371314e+02
2.767324567694305983e+02
3.864105397184908952e+02
1.036178825623320108e+03
1.122054100643997117e+03
1.302137752397677104e+03
1.268360366846814031e+03
1.679606501773704849e+03
1.810810773845313634e+03
1.836849830581342985e+03
1.826885745626163043e+03
1.380034322319886542e+03
9.121984974172148668e+02
3.501824083780270485e+02
-5.304952254463245964e+01
-2.204392043372077126e+02
-5.459981316532057463e+02
-6.237262372220350244e+02
-6.107484669891914564e+02
-4.830713746069023387e+02
-3.366876954543507168e+02
-4.186397221826771897e+02
-3.088918959240687627e+02
2.316236509739038070e+02
6.649781865186394043e+02
9.660309285931442673e+02
1.087679562005066146e+03
1.039039354319846552e+03
9.111510603656249714e+02
1.035037881594173768e+03
1.297692185247562747e+03
1.038039853602687344e+03
5.980267054713360722e+02
1.026326509238063380e+02
-4.451339313975905725e+02
-3.372719783229832728e+02
-7.117243875000472144e+02
-2.421476314131469280e+03
-6.467676461359453242e+03
-7.110278945606830348e+03
-6.336317227440890747e+03
-4.156680133200603450e+03
-6.843116257449856903e+02
2.588510962492878775e+02
2.769200100024006019e+02
-2.136178976697035523e+03
-6.046364351933882517e+02
7.405974944974597065e+02
1.464480515537992460e+03
1.739042852702376649e+03
1.592279289315443521e+03
1.581158550296943076e+03
1.266656451016242954e+03
7.777733680945552805e+02
3.035834936416067649e+02
-2.768965005274009172e+02
-4.586704357731538835e+02
-4.576865933471162293e+02
-3.589910391273905930e+02
-3.555478573897992760e+02
-1.313176541229551049e+02
1.969995177035656297e+01
6.055346966079513749e+01
4.862228555014430640e+02
7.016288795784284957e+02
8.467938311483028428e+02
1.066714560868483204e+03
1.165488259597220804e+03
1.237232331684517931e+03
1.364058006045693446e+03
1.166007478231510277e+03
7.891110116025631669e+02
6.624192589227457120e+02
2.419104853631960736e+02
-5.234753053210291682e+02
-8.128108074621774222e+02
-9.251471908000041822e+02
-9.405114836244644039e+02
-1.010922945804260166e+03
-1.001284564366354857e+03
-8.574768901738796103e+02
-6.875634446639927546e+02
-3.266025534230285530e+02
-3.555180796717676230e+02
1.675114803124450802e+01
2.581823921060702673e+02
6.057982074967092103e+02
9.985349007841449520e+02
9.453471974211745419e+02
9.993067346573844816e+02
9.174537063157314378e+02
6.187477799837445218e+02
1.731566857859767765e+02
-3.702502078105136434e+02
-1.065232998987106157e+03
-1.354745445854010995e+03
-1.411727207103361252e+03
-1.571053322583788486e+03
-1.162629885265983603e+03
-9.302820547476017055e+02
-1.097490658404678015e+03
-7.143797031193402063e+02
-6.408321101881632558e+02
-4.447098805845324136e+02
-4.960333345533781539e+02
-1.809825737338572651e+02
1.575058830377455479e+02
2.575784377309285560e+02
5.112684596685168685e+02
5.346097026046710425e+02
4.695110626695947076e+02
5.139918220635609032e+02
1.181198997866121942e+02
-3.731366846659410612e+02
-8.218143798903934112e+02
-9.388070108932923858e+02
-1.011031584269932637e+03
-1.029605369942569723e+03
-1.135618165010063422e+03
-7.370343459531020471e+02
-6.497852098397685268e+02
-6.688775682182458695e+02
-5.302453136690181736e+02
-3.958882135021796103e+02
-2.437218575707229036e+02
2.526717134421502919e+01
2.440607923534772397e+02
3.375693299816070976e+02
4.177423057676218718e+02
3.865837402974860879e+02
7.331221033778729179e+02
8.193850800154609715e+02
3.693301805984683028e+02
-3.511442385689666139e+02
-7.869435563440903252e+02
-7.378762158790904095e+02
-1.023039842420894729e+03
-1.366632938847917330e+03
-1.356620761410226578e+03
-1.005908311670213607e+03
-5.474914562593438632e+02
-2.884800664371346670e+02
-3.359278577870629192e+02
4.195441039385072735e+00
1.438925751314060903e+02
5.751658193997042190e+02
9.040172418337043609e+02
8.394791099322201262e+02
9.545090680512215613e+02
9.890873893765442517e+02
8.632053236091491044e+02
9.888912988088972043e+02
3.541384571888941650e+02
1.548629914766721924e+02
-2.140262696819744406e+02
-4.534836622427822022e+02
-6.796270140697055240e+02
-6.354510725914226441e+02
-6.209875848220591479e+02
-5.042263291461671315e+02
1.378072969260059324e+02
4.372592093942903944e+02
2.910718930611790256e+02
3.919969235727808723e+02
9.970090598381630116e+02
1.042091026204297123e+03
1.213319322222643450e+03
1.443929623045002700e+03
1.292767918259650742e+03
1.832711120441781077e+03
1.762508231692157779e+03
1.760392228494647043e+03
1.678416474563608972e+03
1.070720805836476757e+03
5.017811601850116290e+02
2.520937370936449327e+02
-8.594843243414197786e+01
-2.473962986548086747e+02
-2.698105258858165030e+02
-3.593235607541150785e+02
8.997499796476095923e+01
7.069327871334688780e+02
9.324296245007874404e+02
6.487805513154407890e+02
8.687412404693386634e+02
1.483349724355802891e+03
1.960413457810992895e+03
2.455827384706889461e+03
2.934618047271562318e+03
2.833740890849739571e+03
2.610186965714580765e+03
2.761965329015774842e+03
2.257247496804492584e+03
1.539896437591567292e+03
8.949674464772656393e+02
5.749941302103422913e+02
9.520246528264317476e+01
-3.072918030281555275e+02
-2.598177052874463016e+02
-2.098258038143104187e+01
2.439140571348762876e+02
3.057557898626277506e+02
1.069683643542790747e+02
4.690397860018950382e+02
1.129931809909173580e+03
7.647146943976396187e+02
1.154379959199373388e+03
1.662959590693498967e+03
2.599477047781392685e+03
4.174834974005983895e+03
4.695031163001417553e+03
3.531058946077837390e+03
2.723939733347247966e+03
2.598695510832107175e+03
1.516227374381154505e+03
8.465289171632497300e+02
7.505742787896932668e+02
5.133312989927596846e+02
-2.742651211971086127e+02
-1.187196001165586267e+03
-2.924428063314607698e+03
-4.465038396121760343e+03
-4.699942395284082522e+03
-2.642024957311305570e+03
7.436336265010386342e+02
8.001318613694720625e+02
-1.091535532242080762e+03
-6.748417585438021888e+03
-7.145514724941463101e+03
-6.993795375283209069e+03
-7.791345656922569106e+03
-4.071119495847009148e+03
2.429545434397649331e+02
1.598545999660915982e+02
-2.054398883359360752e+03
-8.532825675722913729e+03
-9.824536519126964777e+03
-4.241526383989008536e+03
-1.026777412976832466e+03
-6.660671972854148635e+02
-4.420096464284797548e+03
-4.527895382314656672e+03
7.030651764875195795e+02
8.488995431992464091e+02
-1.149387150377535136e+03
-7.618595562910043554e+03
-1.033083265259200198e+04
-9.437228901254657103e+03
-8.344631460771955972e+03
-3.951799055708579544e+03
-4.539755204927541854e+03
-4.401597979523512549e+03
8.696842250326366184e+02
1.647108776756786710e+03
8.448067226146861231e+02
-2.761991471025581291e+02
-1.475857875186938145e+03
-2.395073611705384792e+03
-2.471891655031060509e+03
-2.421408253857351156e+03
-1.598573235744244130e+03
6.447420131045366816e+02
2.557546030782494199e+03
3.630842745944687977e+03
3.624653014119660384e+03
1.734973657052282078e+03
1.735803433881187857e+03
3.956211639946669948e+03
5.437371326028547628e+03
4.858316516076213702e+03
4.368046389808175263e+03
4.649564541719269073e+03
4.987937049154271335e+03
5.655223738153748855e+03
5.101415805148320942e+03
4.594524186877277316e+03
4.026590673945332583e+03
2.788647882247626967e+03
2.294695303888942817e+03
2.955774024187917348e+03
4.402936113493241464e+03
4.505187982625326185e+03
3.253547435413989206e+03
2.919134031348138251e+03
3.110985976822255907e+03
3.580087030871358365e+03
4.196627329982283300e+03
4.323875793766766037e+03
3.647625214989559481e+03
2.807890878095570315e+03
1.884488237716277581e+03
1.330614314864522839e+03
1.576406511835333276e+03
1.959947389152229334e+03
5.634424613743676673e+02
-6.518408085678180441e+02
-2.327147072500382365e+03
-2.787633082379764801e+03
-3.353425121144302921e+03
-3.030546404025131324e+03
-2.218379069494248483e+02
2.403803721583234619e+03
2.721680090037260925e+03
3.081575951871514917e+03
3.021705698487483460e+03
3.297843965024092086e+03
3.294785316046225944e+03
2.660576562467405438e+03
1.559320872487655379e+03
5.181256238363748707e+02
3.199236654654355902e+02
1.396475220907860546e+02
-2.006671940526088065e+02
-2.199897305914660706e+02
-9.472935375860108707e+02
-1.433546032660642140e+03
-1.429651183814065689e+03
-1.483607132306030280e+03
-9.214679485890870865e+02
-6.092284146001117051e+02
-1.529884420218729474e+03
-2.969519502198862938e+03
-4.468208408338800837e+03
-5.700039064738977686e+03
-6.409015448279915290e+03
-6.249126633323185160e+03
-5.707430073887760955e+03
-5.070951368678850486e+03
-3.407631199622344411e+03
-1.338420011501178351e+03
1.037175164294225311e+02
6.748777426958237129e+02
1.033017546953548162e+03
5.671100181650965624e+02
-8.098036318015278994e+02
-1.174860983370417898e+03
1.329277580079881886e+02
7.216581642823074390e+02
4.672625111427786919e+02
9.705905568191703878e+02
2.249606180131132078e+03
3.174370529964834532e+03
4.242922935483003130e+03
4.632252957783910460e+03
3.604390898033276699e+03
2.950329440711119332e+03
2.286965819393063612e+03
1.402574657001862874e+02
-3.012813825110000835e+03
-6.102254309006254516e+03
-6.804078543721051574e+03
-7.060327208158159010e+03
-7.867049105959187727e+03
-8.463281021534539832e+03
-5.191065364325087103e+03
1.023523349718304871e+03
1.674432522813133801e+03
6.968193018178344289e+01
-1.070765911494441092e+01
1.618220558222956925e+03
2.072377227616972505e+03
8.007679032668351056e+02
2.073335421565623164e+02
5.781037758151398975e+02
1.257070037627051306e+03
2.153201186482910543e+03
1.803501528994460386e+03
1.214907196364727042e+03
1.207322033644330077e+03
1.008697557980077931e+03
8.911239125185910837e+01
6.053380482031317911e+01
1.576973375710010259e+03
1.814368988167100724e+03
8.306246347139162935e+02
-3.672695971441016809e+02
-9.633900296298176045e+02
-1.637695775335650751e+03
-2.039156219054792928e+03
-2.258823531163777261e+03
-1.100715550405049953e+03
6.331871216297539604e+02
2.602906186782253826e+03
3.367372523200959677e+03
3.032649355611398278e+03
2.026739873945878117e+03
1.653582726129220418e+03
1.883184249033309470e+03
1.420542132943101024e+03
-8.092521617877600875e+02
-1.950069590843701917e+03
-7.092148620727991215e+01
1.488074250020247291e+03
7.518630721325755530e+02
-3.366183170870323238e+02
-1.478503007007979209e+00
8.662422876758569146e+02
1.074556408964405364e+03
1.914958543658101178e+02
-2.649086517506970040e+02
-3.596735887710598263e+02
-3.317459071381755962e+02
-2.701697807403382967e+02
3.610323598048388476e+02
3.928269242227875679e+02
-6.826984454780014033e+00
-9.288708679098888865e+01
6.467713699003915906e+01
9.248388925638316778e+02
1.226670419468815908e+03
8.691514573037156879e+02
1.094300319963040920e+03
2.431226345570805734e+02
-2.234049747456632531e+02
-9.062643701167231711e+02
-1.508480480836157994e+03
-1.929100656172649451e+03
4.094763502537780653e+01
2.182740429485467303e+03
1.662248254758643498e+03
1.270450329773118938e+03
7.503313187795116619e+02
2.739337455901775797e+02
-4.226564926549818324e+02
-7.152873101491987029e+01
2.502802139456261443e+02
-3.857329639029537702e+03
-5.246389174881733197e+03
-3.825790537301366385e+03
-1.425353883982794059e+03
-4.037994998736645357e+03
-3.075657051550466804e+03
-5.748284363317110547e+03
-6.825801522262069739e+03
-4.308305601858629416e+03
-3.116860925406974729e+03
-2.483500902636610590e+03
-2.514135226609552774e+03
-3.954641714223008421e+03
-5.670920967715541110e+02
4.635161896193428674e+02
2.550249127435429273e+03
3.049122320024806868e+03
2.715059677939275844e+03
2.525943711238638116e+03
1.943729087794713905e+03
1.291477033203574820e+03
1.165151413664615575e+03
3.477934838320226163e+02
-7.804947268078931302e+02
1.963379419273009944e+03
-1.437552710274467927e+03
-4.273351887293435539e+03
-1.660200787483164220e+02
-1.939540716876818124e+03
1.296984635849213873e+03
1.475537668466537752e+03
-2.458082641874800345e+02
1.557151031251965378e+03
1.810239357186827874e+03
1.404382719422170339e+03
1.238693645010255977e+03
1.271359214982672256e+03
1.678318092819623871e+03
2.218423138052173726e+03
1.829665390359541107e+03
1.671012171007994993e+03
1.449632653725600221e+03
1.703661800921871190e+03
2.204151273972090621e+03
2.294011016513321920e+03
2.635153890182675241e+03
2.795366679207377274e+03
2.268521055420719676e+03
1.161517956606363896e+03
1.604948735330837906e+02
-4.442287619152540969e+02
-1.850360211187711229e+03
-2.526781939543358931e+03
-1.757523667551606877e+03
-1.658721623902343026e+03
-6.294431732565233233e+02
6.208482387249424619e+02
1.019776807844116661e+03
1.463906973871934952e+03
1.978050093991387939e+03
1.466514436066125882e+03
1.399105508538772710e+03
1.778639995353608356e+03
1.818703118225468415e+03
2.025237954025881891e+03
1.763088075089993708e+03
7.249098644990482398e+02
-1.020267651902029002e+03
-2.830962292289677862e+03
-2.839428673170170441e+03
-1.084425104239688608e+03
1.759438304974740731e+03
2.740659537362849733e+03
3.049768135758671633e+03
2.946207799242716192e+03
1.934376718714222534e+03
1.077154015181728482e+03
2.881433079655578240e+02
-3.264153246487450133e+02
9.882952213037976890e+02
1.941257785720900984e+03
1.582895857339468648e+03
6.087671992815294288e+02
-4.947389949266361668e+02
-7.265834911909749962e+02
-6.548994704416770674e+02
-9.193738386591788014e+01
1.494178814414118506e+03
2.261038018084659598e+03
1.431682637390169020e+03
1.322335114065323069e+03
2.026480694840374099e+03
2.693890815017234672e+03
2.869150143621509869e+03
3.444072577411586735e+03
3.370163527530599367e+03
2.615285710559010568e+03
2.065103422077476353e+03
2.779335741951590080e+03
3.497726981108638029e+03
3.611280414779701005e+03
3.306982374168147544e+03
3.533074317772579889e+03
3.917855902754101407e+03
3.977559329658772185e+03
3.778183353231296678e+03
3.756548440544926507e+03
3.739624790709857280e+03
2.920576142667854128e+03
2.146980207541873369e+03
1.962641745379336498e+03
1.297508280962516210e+03
1.049933396959727219e+02
-3.733482391556698303e+02
-1.168536468511121484e+03
-3.118047795875622796e+03
-3.110327744980476837e+03
5.591548074048234866e+02
1.159774348029450493e+03
1.362301794635274291e+03
-1.796707501217755407e+03
-3.704701748751921059e+03
-3.956596012561059069e+03
-4.134498379440357894e+03
-3.634265507929585965e+03
-3.009793952762033769e+03
-2.991098720884518116e+03
-3.989927014047643297e+03
-5.444164365499318592e+03
-5.695456053974870883e+03
-6.279800376244800646e+03
-6.798925533306858597e+03
-6.525100968361326522e+03
-5.266182827143110444e+03
-5.158920233678707064e+02
1.686388348559530641e+03
9.244913008503837091e+02
-5.339140492366772861e+01
1.321956349669986253e+02
1.386321043180051447e+03
1.550204369598789754e+03
5.032419866606050505e+02
-7.339245828218124643e+02
-1.653023115908162708e+03
-2.367938205479937551e+03
-2.768448545846960769e+03
-2.023286691711058438e+03
-7.714507622609365853e+02
2.285427922171045623e+01
1.053148668924307685e+03
3.014617308258898902e+03
4.263119676110289220e+03
4.856068307949554764e+03
4.585302145104321426e+03
4.211785866092869583e+03
4.022468363935172874e+03
3.170410896390738799e+03
1.453658617159863752e+03
-3.756639654929525562e+01
-8.676563964722777200e+02
-1.670407574103609704e+03
-1.676030655149911809e+03
-1.723686145827115979e+03
-1.813260813358367841e+03
-9.816334723711945571e+02
-1.748503033546133565e+03
-2.543694809714539133e+03
-1.704005477292927026e+03
-1.234881883719487860e+03
-2.235654535582289100e+03
-4.161112599665197195e+03
-4.941220053804254349e+03
-5.120795574766792015e+03
-4.978736960798425571e+03
-3.850889964816846259e+03
-2.606096233655153355e+03
-2.020561233941374667e+03
-1.674465321078002944e+03
-1.415546264196430002e+03
-1.056297182594811375e+03
-6.571411684664284394e+02
-6.810590897715867413e+02
-6.869819043170851955e+02
-5.865526359408499957e+02
-7.925858879704833271e+02
-1.030233084955802724e+03
-1.785717719138212942e+03
-2.494448696292417026e+03
-2.012894011054502926e+03
-1.881097809774173356e+03
-2.422131209577167283e+03
-2.885741511623073620e+03
-3.486549420157268742e+03
-3.296403820768837704e+03
-2.980129671945506288e+03
-2.397514429880995067e+03
-1.397316522865093930e+03
-7.461882581946950950e+02
-7.988726996936762816e+02
-1.755210341275518431e+03
-1.700964843341987716e+03
-1.832881984145162050e+03
-1.165854517668249173e+03
-8.258576437245243369e+02
-1.396649165623017325e+03
-2.060945414493180579e+03
-3.102524078764017304e+03
-3.831282028634830112e+03
-4.150036406227452062e+03
-4.864677082642420828e+03
-5.769129254820147253e+03
-6.362384652946781898e+03
-6.399444669871219958e+03
-7.256360946804479681e+03
-7.353991499769472284e+03
-7.258140707987151472e+03
-8.012658496720457151e+03
-8.287468442150111514e+03
-8.800525891924087773e+03
-8.690693675487540531e+03
-7.034635186969024289e+03
-4.795297487634858044e+03
-3.019942130836946490e+03
-1.830598253828143697e+03
-1.280127839053049456e+03
-1.723556836212076632e+03
-2.377953498827549993e+03
-2.751448318013059179e+03
-2.857079164859200318e+03
-2.850814253470756739e+03
-2.601734775213647481e+03
-1.669003017846666353e+03
-7.147405710324067059e+02
1.540497003264413820e+02
3.231736289492771448e+02
8.444404422472422311e+01
2.449427549896265930e+02
6.085310389496665948e+02
8.638761546414311852e+02
1.189708584365325578e+03
1.556844159850409824e+03
1.884177914518156513e+03
2.301486547693043121e+03
2.285651338488744841e+03
2.648388782204393465e+03
2.546605389052841929e+03
1.655053823929287319e+03
2.074403197545888816e+03
3.270204725486189091e+03
3.670037251573436606e+03
3.921712795508561612e+03
4.461898221096430461e+03
4.991138420554915683e+03
6.868349313295791944e+03
7.859562223267157606e+03
7.912268992715603417e+03
7.078195066363528895e+03
4.604345668994701555e+03
2.719316481991845194e+03
2.475273643460869607e+03
2.339446640198547357e+03
2.515243082893750397e+03
3.459968686098335183e+03
5.274396843697281838e+03
5.998043368592092520e+03
5.793276428294902871e+03
4.605709260190906207e+03
4.731828258864232339e+03
6.723852878761794273e+03
7.606416074729226239e+03
7.875651442914966538e+03
9.458054065676598839e+03
1.203079015238735519e+04
1.397960651827837501e+04
1.467557160523994571e+04
1.477026191309096430e+04
1.492004934167653846e+04
1.412044984986329291e+04
1.384094774578664328e+04
1.391039335707924693e+04
1.468453298965145768e+04
1.579340575519774029e+04
1.634534685757942316e+04
1.652290670491701167e+04
1.675897870095822509e+04
1.584150621099648379e+04
1.445262106942068749e+04
1.364720578602958994e+04
1.525517234620038107e+04
1.425169893299994146e+04
1.235385822179254865e+04
1.187831469884287617e+04
1.272951305894253710e+04
1.365917179254921029e+04
1.283501365787681425e+04
1.221360896191538632e+04
1.191057382975721885e+04
1.300056722856728447e+04
1.427629012569825863e+04
1.674242649545769018e+04
1.923362806610400366e+04
1.990563097381031912e+04
1.785613130069732506e+04
1.385285843573907732e+04
6.957668778208114418e+03
-8.175417305525381835e+02
-6.693952169043245704e+03
-1.145879426513309591e+04
-1.629316034511112593e+04
-2.189726676223601316e+04
-2.841638345159859455e+04
-3.570858042985339853e+04
-4.077606611719443026e+04
-4.085998149150735117e+04
-3.823838129049219424e+04
-3.252232855045963879e+04
-1.984198815769345310e+04
-7.176193390736500987e+03
-2.210753757232319003e+03
4.111488134362861615e+02
-1.032518617446097323e+03
-7.627708484989112549e+03
-1.232437022131107005e+04
-1.277338361083407835e+04
-1.196760531792369511e+04
-1.559087987979309582e+04
-1.901221608660327183e+04
-2.248769126746020629e+04
-3.036329076330269527e+04
-4.022179142386995227e+04
-5.116698197928555601e+04
-6.197463945091010828e+04
-6.918750566746194090e+04
-6.638133574975543888e+04
-5.484686763085114944e+04
-4.140484830232096283e+04
-3.359816183967181860e+04
-2.149449430417382973e+04
-1.055943161925415370e+04
-1.239760201012739162e+04
-1.744667885652189216e+04
-1.199337042798011498e+04
6.670665073100754853e+03
3.001873905880147868e+04
4.104309465102782269e+04
4.364215639893548359e+04
5.210942959258540941e+04
5.824431139083074959e+04
5.185910422599691810e+04
3.926722998789005942e+04
2.107612680374630872e+04
5.097218505072949483e+03
-4.212978469034929731e+03
-1.832495643430900964e+04
-3.700823943180653441e+04
-4.980344061252252141e+04
-5.313809922928245942e+04
-4.221865278366292478e+04
-2.273155049900204176e+04
-6.577319153887283392e+03
4.723564234160013257e+03
1.922066184248073478e+04
3.663257802741052001e+04
4.522582590201763378e+04
4.441091324254008214e+04
3.906654412856041745e+04
3.186121772430721467e+04
2.410737707121485437e+04
1.989151687871762988e+04
2.188823128036935668e+04
2.599405175482559935e+04
2.583657883535040310e+04
2.035440645436462000e+04
7.385842090371836093e+03
-3.791842551907401685e+03
-7.455156025773326292e+03
-3.996416804466216490e+03
-6.098495554759793777e+03
-2.188681794072328921e+04
-2.822592909048189540e+04
-1.922639824995697927e+04
-8.081689752004556794e+03
-8.671215647050365078e+03
-6.592371525468307482e+03
-1.065627420541246011e+03
-3.678947825794036362e+03
-6.128625590384230236e+03
-2.087408054830591936e+03
-3.879249574422562432e+02
1.484193530504729097e+03
-6.948769626628119113e+03
-2.455393111541615872e+04
-3.543742227766918950e+04
-3.308066695552388410e+04
-2.495844945550348712e+04
-1.501855149659971175e+04
-1.473467811904812879e+04
-8.600328853051260012e+03
7.976940578417484176e+03
1.770551641997881961e+04
1.675769799644851810e+04
1.696081146221504969e+04
2.030520375791411061e+04
2.416202669789480569e+04
2.500635219441861773e+04
1.863035271872103112e+04
1.161607820877699851e+04
1.228356911469842998e+04
1.683805011648422806e+04
1.837066943432420885e+04
1.818461175803609513e+04
1.587205309197373936e+04
1.297709256570498292e+04
8.615826605192300121e+03
4.598365368906395815e+03
7.893808132782342000e+03
1.419016780116394693e+04
1.699650952332901215e+04
1.542881855498079676e+04
1.272505563117351812e+04
