-4.128160925320913520e+04
-4.152215854426585429e+04
-4.188410411759930139e+04
-4.197076726650332421e+04
-4.223646044835811335e+04
-4.027044872039526672e+04
-3.559093459849101055e+04
-3.810693961771899922e+04
-4.751139599162132799e+04
-5.211923947216096713e+04
-4.838819419060673681e+04
-4.486197293629231717e+04
-4.029039462647687469e+04
-3.533806045945049846e+04
-3.313137047430907842e+04
-2.394147512818242831e+04
-1.984566794443493563e+04
-2.428936751077304871e+04
-3.195303302857376548e+04
-3.903816958587381669e+04
-4.346221953002161899e+04
-4.674645257758957450e+04
-5.176034629478731949e+04
-5.177145629564663250e+04
-4.473934976261401607e+04
-2.830921678995486582e+04
-1.434512389635976979e+04
-1.237502162736550417e+04
-1.462815962855566249e+04
-1.017079695818467553e+04
4.802016968999074464e+01
7.830109259966790887e+03
1.954575382632667970e+04
3.333990794406244095e+04
4.024274352464918775e+04
3.516234821847978310e+04
2.170378632029267101e+04
2.933141765780261721e+03
-1.517257551176870948e+04
-2.728857634165001582e+04
-3.617436048187430424e+04
-4.078292984002886806e+04
-3.272588321887043276e+04
-1.856167573840582918e+04
-9.105045305991487112e+03
-5.955023779188200024e+03
-3.864027499827065185e+03
-9.212614736060173755e+02
2.463107032796611747e+03
9.453752403412952845e+03
1.959742803923543397e+04
2.789891157352044320e+04
3.241980801806915042e+04
3.600591478892169107e+04
3.899489987704956729e+04
3.795341195650486043e+04
3.341101761188828823e+04
2.738822770175616461e+04
2.730043654183951003e+04
2.866990792945601424e+04
3.589371885533282330e+04
4.365490381058100320e+04
5.227761017110860848e+04
6.388582607741263200e+04
7.378651109999815526e+04
8.202253921072855883e+04
9.264070024234229641e+04
1.038068817524656624e+05
1.119939791904337326e+05
1.120334577718599176e+05
1.096536448086921300e+05
1.060381225476576365e+05
9.898839316596208664e+04
8.273486741507927945e+04
6.655296051066817017e+04
5.186610668918762531e+04
3.572072680608383962e+04
2.166469597517150396e+04
6.433802391013556189e+03
-9.129103368351412428e+03
-2.246959407557366285e+04
-3.770517574501570925e+04
-6.354616513896948891e+04
-9.274607894700330507e+04
-1.107125324909786868e+05
-1.195532108506326767e+05
-1.241731331344969221e+05
-1.196543220817247202e+05
-1.085436910350147082e+05
-9.466810777000302915e+04
-8.531602521284215618e+04
-7.740256909664600971e+04
-6.423486638159335416e+04
-5.374924942782995640e+04
-5.189513655219286011e+04
-5.065996653902209800e+04
-4.927527270479110302e+04
-6.022773635534796631e+04
-6.888115454444802890e+04
-6.322739822649761481e+04
-5.269965780446564168e+04
-3.652320690413998818e+04
-1.676226051213329629e+04
2.798110966537513455e+00
1.526340535576606089e+04
2.792700446904003911e+04
4.189406611128209624e+04
5.711392040457040275e+04
6.976265013198684028e+04
7.787017599403696659e+04
8.316068189423059812e+04
8.663972610181850905e+04
9.209258050306190853e+04
9.804516329976073757e+04
1.015740931272586167e+05
1.016432323486489186e+05
1.035876261937399104e+05
1.056829792842084426e+05
1.082119849532698863e+05
1.110271678055129596e+05
1.115089617425039614e+05
1.093747451446491759e+05
1.061859301868247712e+05
1.041578433603110025e+05
1.032126437245389970e+05
1.021035006148202665e+05
1.005075710783724935e+05
9.903899413898123021e+04
9.634474068165758217e+04
9.188099700137613399e+04
8.589575059835136926e+04
8.031310715644420998e+04
7.676539439736682107e+04
7.237277400701286388e+04
6.621139022277496406e+04
6.109936691132828855e+04
5.379980436853698484e+04
4.419977067906026059e+04
3.486131757544593711e+04
2.351429860775350244e+04
7.299517626512300012e+03
-1.472422683458466236e+04
-3.542197085803691880e+04
-5.131259543960229348e+04
-6.276922076562303846e+04
-7.390614600334754505e+04
-8.451931756133204908e+04
-9.595582807785333716e+04
-1.051416916516927886e+05
-1.079647741605181945e+05
-1.073429261007629830e+05
-1.079450100510084449e+05
-1.094817471779307816e+05
-1.125357459864053526e+05
-1.151468225123657758e+05
-1.139948574841353984e+05
-1.135824748916358076e+05
-1.132802169593548751e+05
-1.128536603217383381e+05
-1.121253995227931591e+05
-1.107040027832448250e+05
-1.091639079461520305e+05
-1.070454847375463723e+05
-1.059231719813886593e+05
-1.044565283759597369e+05
-1.009900704372373875e+05
-9.661809961398618179e+04
-9.177785518597574264e+04
-8.586561717981244146e+04
-7.836263428819613182e+04
-6.838368318167178950e+04
-5.778533987774685374e+04
-4.453023781162228261e+04
-2.777020433177320956e+04
-1.001494674736539309e+04
4.338990419913803635e+03
1.445596805421451609e+04
2.127950673112602817e+04
2.610589616708779795e+04
3.125420763015695775e+04
3.259147925538650088e+04
3.135067109652161525e+04
2.864763274713660940e+04
2.749307562332276575e+04
2.484888465472434837e+04
2.102390691353232614e+04
2.125828385889738638e+04
2.280531397147959069e+04
2.147411381539081776e+04
1.788188527308746416e+04
1.461727108463255900e+04
1.248603492094434296e+04
1.344893650360819629e+04
1.699462224880732902e+04
1.968276288265201583e+04
2.346304320454359186e+04
2.639684082014388696e+04
2.813746414526092121e+04
2.857910947253951235e+04
2.667170998740735740e+04
2.322621423215955292e+04
1.830094050188203255e+04
1.378324996192215258e+04
1.045228055865180067e+04
5.844057565011976294e+03
1.597121558053967647e+03
-1.611901061886777143e+03
-5.334455806356727408e+03
-8.810833004949272436e+03
-1.046280118712922558e+04
-1.034346717161956440e+04
-6.938326114004977171e+03
-3.749636801614289652e+03
-3.208127061401145511e+03
-3.461432450435413557e+03
-1.541564868530981812e+03
6.348396820501899356e+02
5.963537584617783978e+03
1.123765771768030390e+04
1.486652512782093072e+04
1.710723401220290179e+04
1.692331914795053672e+04
1.469804109578899988e+04
1.276981250868263305e+04
1.064623476805201426e+04
9.736341090535279363e+03
8.708283839673758848e+03
5.766057582523420024e+03
4.765560020993490070e+03
8.150261961348651312e+03
1.323297710506982003e+04
1.787734272641535063e+04
2.122011797918552838e+04
2.553942748288683288e+04
3.071832804170325107e+04
3.474362227009586786e+04
3.733007256082140520e+04
3.742364108988545922e+04
3.854787447631077521e+04
3.936170708604805986e+04
3.658255570716969669e+04
3.166918942310853527e+04
2.855578124863513221e+04
2.754480311394455202e+04
2.357454272130146273e+04
2.109734112232628468e+04
2.406996387293779117e+04
2.757444773466106562e+04
2.855683512332596001e+04
2.860838576104155436e+04
2.852993960820560824e+04
2.900346864008238117e+04
2.870174406194182666e+04
2.946643998682606616e+04
3.046868210941415964e+04
3.159822841627765956e+04
3.365151505225339497e+04
3.221803027927134099e+04
2.860413187802688481e+04
2.490028781986561808e+04
2.125589980923014082e+04
1.707432204560841274e+04
1.232667345818497233e+04
7.793035737104773034e+03
3.769242992758963283e+03
4.932400284527589065e+02
-1.408901002854470562e+03
-3.273577697064547465e+03
-6.449574274031159803e+03
-9.822739346565660526e+03
-1.253496574642245832e+04
-1.202191611849873698e+04
-1.161409537994660604e+04
-9.732088535938675705e+03
-7.231128824209131380e+03
-5.942842825379756505e+03
-5.793210744874021657e+03
-6.238362273872322476e+03
-7.209366530922495258e+03
-8.537303408329651575e+03
-1.179974961387698750e+04
-1.575558904109253854e+04
-1.932717102100970078e+04
-2.038198523601591296e+04
-2.182767575339058749e+04
-2.423436153080121585e+04
-2.398501921536280861e+04
-2.522772082493134803e+04
-2.748090297754984567e+04
-2.887453030818551997e+04
-2.762249471247266774e+04
-2.595790677364285511e+04
-2.438036965238291305e+04
-2.235367785984733200e+04
-1.960577219779148436e+04
-1.648807259326317217e+04
-1.348457024590543369e+04
-1.133515889864562450e+04
-6.436940473160764668e+03
-3.904925105508181787e+03
-4.790888323496482371e+03
-7.163764375337780621e+03
-9.251246405651872919e+03
-1.151938435835761993e+04
-1.401046068569118506e+04
-1.678584779847366008e+04
-1.826814268651265229e+04
-1.913893799108927124e+04
-1.989747255185401445e+04
-1.957776046031709848e+04
-1.860398519426471830e+04
-1.680734989904760005e+04
-1.483189757348959938e+04
-1.281263429597012328e+04
-1.031067139909089929e+04
-7.140793975827040413e+03
-5.390545480538821721e+03
-5.192002897514500546e+03
-5.540878608159468058e+03
-7.630858307007608346e+03
-9.899047263611331800e+03
-1.151725349437218392e+04
-1.381218472415080214e+04
-1.440586415769812629e+04
-1.244327205499087904e+04
-1.068800674656377851e+04
-1.167820459385254799e+04
-1.249035268828781227e+04
-1.338398558605423386e+04
-1.464341185392898842e+04
-1.532637768320752548e+04
-1.457430882050525724e+04
-9.721726359672864419e+03
-4.149869629006257128e+03
-1.025101846473243313e+03
4.335205407474348931e+02
6.315435121488521872e+02
-2.470324052679741555e+02
-1.206746235710032124e+03
-1.870135660291476142e+03
-2.429215824158305168e+03
-2.406283413320166346e+03
-4.163728484449819007e+03
-6.776675856329719863e+03
-9.229775426179963688e+03
-1.196878349405920198e+04
-1.449708613335843620e+04
-1.527827194269259780e+04
-1.627235783410164186e+04
-1.680197527241126954e+04
-1.618616781891776918e+04
-1.450431871637552831e+04
-1.288664318003096378e+04
-1.125687188635044913e+04
-8.703919548971776749e+03
-4.948607524071138869e+03
-2.906843020057356171e+03
-2.013038414838432800e+03
-4.856866092441953811e+02
1.277825212154350254e+02
-6.616066607768204904e+02
-1.436853265616513681e+03
-1.219899727543260269e+03
-1.745875138975794925e+03
-3.720920714918876911e+03
-6.134830267252950762e+03
-8.346156270865065380e+03
-9.367478614056142760e+03
-9.184392350511006953e+03
-8.840726672323131424e+03
-7.537124968398360579e+03
-4.827016630731972327e+03
-1.772620494993227112e+03
-5.953388065659835604e+01
1.864695613257728837e+03
3.909567325385429285e+03
5.473537079263964188e+03
6.757278794114487937e+03
7.784572603784359671e+03
8.141157903276733123e+03
7.481515976547525497e+03
6.680159966865126989e+03
5.380695615586339954e+03
4.414814480200233447e+03
2.542133501186649028e+03
4.173106532964475832e+02
-1.505858867161701028e+03
-2.868420021955513221e+03
-3.387521731219304002e+03
-3.557380075211532130e+03
-3.049956404358294549e+03
-1.946203186148938130e+03
2.966670106572094028e+02
2.482860171958375304e+03
4.481704564371444576e+03
6.950387918341600198e+03
8.661217374411127821e+03
8.546649149605726052e+03
8.093317642340786733e+03
9.951448728198853132e+03
9.553842811622098452e+03
4.052157329352847228e+03
2.467373997410674747e+03
2.954411329152779672e+03
3.773038501512152152e+02
-1.967128504883930873e+03
-3.205430716707380725e+03
-4.316955688586315773e+03
-4.266650601785004255e+03
-2.927510647727999640e+03
-1.581397535782305567e+03
-5.592684660650213573e+02
1.715282180675856694e+02
1.105983257638542682e+03
3.045009013492450777e+03
5.297597003175554164e+03
6.897750812180724097e+03
7.506375850730437378e+03
7.838472560725364929e+03
7.886798858336565900e+03
6.623306231460824165e+03
4.660884289668703786e+03
2.723181371493252300e+03
3.930379529679661346e+02
-3.077678191205318399e+03
-7.678259542126887027e+03
-1.126797323962705741e+04
-1.164212823526706234e+04
-1.018888214370979222e+04
-8.258488091956192875e+03
-6.101296413394561569e+03
-4.038611136740891652e+03
-2.911283861719823562e+03
9.750353115388263632e+02
6.297772105409889264e+03
8.441320276284008287e+03
8.502764331827889691e+03
8.746430244570250579e+03
8.915744406118214101e+03
8.221131009574546624e+03
6.591722811957754857e+03
4.512923226366815470e+03
3.989119381433637045e+03
3.281268687138287078e+03
1.311511283209254771e+03
-2.345652216683822644e+03
-5.468654804180090650e+03
-6.549104512958493615e+03
-5.854625859807219967e+03
-4.871009038270431120e+03
-3.493051053514791420e+03
-2.924286655728333699e+03
-1.245310390005809268e+03
5.433764578351143655e+02
2.886326875776418092e+03
6.280170215909181024e+03
9.161599885547351732e+03
1.071327906590631756e+04
1.146893403498267980e+04
1.139217994805684066e+04
1.097054838009596097e+04
9.699657391999209722e+03
8.421021985995250361e+03
6.849082019837943335e+03
5.082441226093486875e+03
4.179688147559076242e+03
2.717317943165877750e+03
9.638607841345163934e+02
2.635350091434563780e+00
-7.507803715293492814e+02
-4.765405224274056195e+02
6.690019990952482658e+02
2.813318939685185001e+02
1.696384970624963444e+03
5.763471836506045292e+03
1.052617040515023473e+04
1.120028846840650840e+04
1.442364224782948986e+04
1.535606286925479981e+04
1.501645720645631627e+04
1.714053258080194428e+04
1.440598872360455243e+04
1.315837658203522915e+04
1.233343953281897484e+04
1.157914721159200417e+04
7.609115354498687338e+03
6.434675992567955291e+03
5.139345376139245673e+03
2.401841344762029621e+03
1.206106528174598452e+03
1.891883396421293355e+03
3.780917703186363269e+03
4.501140968879737557e+03
7.285505409217582383e+03
9.992135080790723805e+03
1.084489216052629308e+04
1.563066777546714002e+04
1.610566816992664462e+04
1.616099272344644851e+04
1.830351197472513741e+04
1.795291404231174965e+04
1.739227335947902247e+04
1.618632926925912579e+04
1.377843687021019105e+04
1.130531882427480923e+04
9.608928781954829901e+03
6.835167932393811498e+03
6.172010259906586725e+03
5.882335317743547421e+03
5.564182661959580400e+03
5.139383440403040368e+03
5.124861101357950247e+03
5.720532273874533530e+03
6.484205281729136004e+03
7.547052025905002665e+03
8.707142657816411884e+03
9.876378795768414420e+03
1.024170518815679134e+04
9.565122526901541278e+03
8.679612929363132935e+03
6.965943667819999064e+03
4.467937954796373560e+03
1.658431338467778232e+03
-1.955998633385713219e+03
-5.701712093779766292e+03
-8.572981038739198993e+03
-1.106702988885732157e+04
-1.316703058545604654e+04
-1.491048153456826913e+04
-1.573069767434078494e+04
-1.568312297379493248e+04
-1.542313632945336758e+04
-1.553991531930052952e+04
-1.485268505224684850e+04
-1.277975715079331530e+04
-1.183738379037512823e+04
-1.085793460577364385e+04
-9.610692750372370938e+03
-9.168104306736673607e+03
-9.190658957776680836e+03
-1.000200112242365685e+04
-1.186007254588621618e+04
-1.425439570668746092e+04
-1.743773139073148559e+04
-2.070170663499944203e+04
-2.386103914715002247e+04
-2.658352078821301257e+04
-2.778906589501495910e+04
-2.774147690955658618e+04
-2.724854141709781834e+04
-2.622306709141011015e+04
-2.470486167715048214e+04
-2.314078437660888812e+04
-2.116570786952206618e+04
-1.874135824255015905e+04
-1.634585723785008122e+04
-1.470433912346787292e+04
-1.338468023362150598e+04
-1.197865639945640396e+04
-1.033530562462069065e+04
-9.164712312191675665e+03
-9.745028223608433109e+03
-1.123046131241545663e+04
-1.292436606008408853e+04
-1.483710699905190813e+04
-1.642996104066470798e+04
-1.717334641762109823e+04
-1.655358986777581595e+04
-1.604409911130620640e+04
-1.524933377602506152e+04
-1.363263071282702731e+04
-1.126342160098402383e+04
-7.959198722668024857e+03
-4.787254268868553481e+03
-1.210871523050621363e+03
4.178511535675635059e+03
9.036553512624093855e+03
1.264777149720686793e+04
1.589152994215292347e+04
1.897920783187050620e+04
2.102902169654898171e+04
2.312297440332852420e+04
2.465418377733495799e+04
2.546501888604288615e+04
2.567054702081771757e+04
2.542180157464959848e+04
2.459284052483363484e+04
2.252680109504581560e+04
1.960271766044394826e+04
1.660739529625187060e+04
1.613686250237471359e+04
2.016024478868894221e+04
2.519669990812529795e+04
2.700138788739771917e+04
2.697946572852324971e+04
2.773299162273985348e+04
2.896592960689215761e+04
3.018316976628268094e+04
3.092753237807903133e+04
3.153805930674714182e+04
3.199967065764206927e+04
3.017013499764134394e+04
2.778718894813993029e+04
2.772957545819441657e+04
2.691585848506532784e+04
2.420077769231404818e+04
1.881001511012998890e+04
1.096419359185650683e+04
1.009292889830229251e+04
1.140394127108621797e+04
1.134502142258575077e+04
1.138484698372723142e+04
1.179097435331163069e+04
1.192618493896714972e+04
1.280629965938852001e+04
1.436298889516418967e+04
1.575006429142284469e+04
1.730930655726175974e+04
1.776036495710341478e+04
1.800477544202963691e+04
1.782022093912927448e+04
1.728839770707990465e+04
1.620398925169506401e+04
1.455654397396757849e+04
1.211554636517668223e+04
9.269576215848997890e+03
7.026135322738147806e+03
4.774771510734795811e+03
3.256055967678663819e+03
2.726585549736895246e+03
2.283158621445102199e+03
2.796576162385505086e+03
3.588631465530510013e+03
4.384170981340561411e+03
5.433020572124710270e+03
7.224985888579569291e+03
8.518902251146448179e+03
9.668696700320831951e+03
1.047827287908771541e+04
1.141546861637138682e+04
1.184003449398201519e+04
1.024874606044339816e+04
6.745371788611349984e+03
2.670792349608011136e+03
-1.865153259233880817e+03
-5.969612445115405535e+03
-9.099727188522241704e+03
-1.250261923946088973e+04
-1.717934944581169111e+04
-2.142094409762028590e+04
-2.427723835674800284e+04
-2.491513765411553322e+04
-2.389159457510942593e+04
-2.291846771080169492e+04
-2.212037532424135134e+04
-2.005993208246137874e+04
-1.769770363955545690e+04
-1.609516066505077833e+04
-1.473995592604880221e+04
-1.433726305687181048e+04
-1.511835021996657451e+04
-1.693378553343661770e+04
-1.955246777647958152e+04
-2.238513245189661029e+04
-2.469833060496685357e+04
-2.720871200753896483e+04
-2.920087026002636776e+04
-2.998027544661894717e+04
-3.064836244530702243e+04
-3.103249009121193376e+04
-3.177200910710815515e+04
-3.168921427644208961e+04
-3.024035209683513676e+04
-2.801053431160958280e+04
-2.403779032333672149e+04
-2.089120336157741258e+04
-1.797981927387043470e+04
-1.499555821033682878e+04
-1.338330095658527171e+04
-1.171109753751349490e+04
-1.004291497094392616e+04
-1.002762627159818294e+04
-1.101516714395193776e+04
-1.254262040810863618e+04
-1.447617737836876950e+04
-1.580086232197933714e+04
-1.616759644236932036e+04
-1.714024110033559191e+04
-1.797858342902100412e+04
-1.810821253184874149e+04
-1.653804786523655639e+04
-1.278387062233059987e+04
-8.562913945260344917e+03
-5.656552056903703487e+03
-2.720313093381021190e+03
7.243525265646866274e+02
3.840967123766837631e+03
6.890177748426274775e+03
9.407592977024196443e+03
1.118775867956812908e+04
1.218832602405157922e+04
1.225195096586211912e+04
1.182244078328005526e+04
1.067342625816797772e+04
9.319371826097825760e+03
7.961830482888461120e+03
6.569466443008446731e+03
5.094900598073932088e+03
4.688935203727882254e+03
4.645322214581485241e+03
4.960901493237141949e+03
6.182535500025047440e+03
7.597038929884775825e+03
9.006392807798145441e+03
1.081766535278898300e+04
1.339987255846639709e+04
1.677902901484627000e+04
1.951714915389837188e+04
2.153328954363341836e+04
2.237342697966672131e+04
2.227453775720738122e+04
2.142965790279207795e+04
2.022365628732206460e+04
1.940143967661893839e+04
1.829699672986024234e+04
1.691423096204905232e+04
1.571513921479925011e+04
1.325069208827317379e+04
1.018973550106932089e+04
1.102149972251846339e+04
1.135821948795782737e+04
1.160980885848651633e+04
1.288694153720379654e+04
1.530415100877185250e+04
1.751942480238539429e+04
2.024276549757668181e+04
2.300825661603914705e+04
2.507694384916959098e+04
2.572015121551404445e+04
2.588505180764677789e+04
2.629832337410124819e+04
2.614807214303340515e+04
2.473366530226888426e+04
2.208976658565775142e+04
1.839741684690964757e+04
1.524542891181157938e+04
1.225655485895134370e+04
9.525571448531871283e+03
7.374368342358279733e+03
5.434043142842629095e+03
4.395146506927429982e+03
4.410559805219702866e+03
4.729586298449430615e+03
5.686743501543959610e+03
6.686305146658995000e+03
8.843169545185437528e+03
1.076424109894586400e+04
1.215121523524367331e+04
1.280807503123503557e+04
1.244942302469161586e+04
1.143843670261080115e+04
9.150768575324051199e+03
5.712861349771053028e+03
2.609704743546174996e+03
-6.013990334380198419e+02
-3.132039875641109575e+03
-5.668370766442850254e+03
-7.566983269184420351e+03
-8.761425022315892420e+03
-9.507139551531983670e+03
-9.681539503404832431e+03
-9.872106340331200045e+03
-1.038625603683808185e+04
-1.037060212610577400e+04
-9.434544970226708756e+03
-7.592417497052732870e+03
-6.706716042123470288e+03
-5.583919916336852111e+03
-3.291512448390036297e+03
-2.032043076113688358e+03
-2.307069463606218051e+03
-4.817341393218766825e+03
-8.274550755763426423e+03
-1.091437003365718192e+04
-1.355867846635026581e+04
-1.663933395298987307e+04
-1.996126007128582933e+04
-2.309044369603444284e+04
-2.496783202637558861e+04
-2.594633542872655380e+04
-2.640285062983218086e+04
-2.509832233741122036e+04
-2.286149956030812245e+04
-1.995508335136524693e+04
-1.719612272393932653e+04
-1.370054841153710186e+04
-8.248151550788854365e+03
-7.290000616669653937e+03
-6.474062951473583780e+03
-4.574401992230400538e+03
-3.505746864514304434e+03
-4.310983023917667197e+03
-6.147335402535936737e+03
-8.180052994284409579e+03
-1.056027229190462276e+04
-1.334624085999833915e+04
-1.593046354294834418e+04
-1.740060577043990270e+04
-1.805040901562431827e+04
-1.797015344010899207e+04
-1.537168485172351939e+04
-1.049499328772204717e+04
-8.246398516099126937e+03
-7.273094119313187548e+03
-4.553087862777884766e+03
-1.112606056899782516e+03
2.537704349959338742e+03
5.837329751490102353e+03
8.184116030553583187e+03
9.568076935508575843e+03
9.517161204826601534e+03
8.877737533167670335e+03
7.110953479732699634e+03
5.432695300370130099e+03
3.509873056668684058e+03
3.200339304439646639e+02
-2.423331878359518214e+03
-5.002677639765979620e+03
-7.478302467842499937e+03
-8.976125809476181530e+03
-9.257991752375255601e+03
-8.976472528935441005e+03
-7.808465312356061077e+03
-5.611577794408548471e+03
-2.838933290906033562e+03
-1.646729897816396146e+02
3.336023335201368809e+03
6.836034311890624849e+03
9.642759810693109102e+03
1.231457423436385943e+04
1.374210302182395208e+04
1.317363272691496604e+04
1.036089212899517224e+04
7.282547671496773546e+03
3.983708420282893712e+03
1.246250085410041265e+03
-3.046744706827906271e+02
-2.486273172976874775e+03
-4.440227293835694582e+03
-5.734086971193350109e+03
-6.038409783846257596e+03
-5.220315022428431803e+03
-3.540224209694385536e+03
-1.670776569003648319e+03
3.797635389772843268e+02
3.351140299339585454e+03
6.694128788769483435e+03
9.650431311647669645e+03
1.139262494359826997e+04
1.248314292749685774e+04
1.239480569378731525e+04
1.157340063593745072e+04
9.965278229027546331e+03
7.665399363125488890e+03
4.757749180329672527e+03
1.586228294475887196e+03
-6.884788341572914305e+02
-2.169909668377822527e+03
-3.674851824313527686e+03
-5.238664863583358056e+03
-6.007055472402376836e+03
-5.922971022006217027e+03
-4.393005814483718495e+03
-2.282879109886842798e+03
1.264300119272001552e+02
2.584515415239331105e+03
5.362675404462927872e+03
7.638878194740697836e+03
9.971312940305420852e+03
1.108979689263315595e+04
1.101475474723205116e+04
1.113202104007984053e+04
9.278328092341545926e+03
6.525633722412476345e+03
3.689755312683683314e+03
8.963869524665270205e+00
-4.062048580735530322e+03
-7.175640499552277106e+03
-9.403107512982100161e+03
-1.063549096478699175e+04
-1.096271036287890820e+04
-1.066993931185923248e+04
-9.959800045866888468e+03
-8.215748687439443529e+03
-4.850412006425411164e+03
-1.064117484463269420e+03
2.695293033446776917e+03
5.042682322543530972e+03
5.772234468762965662e+03
6.298525807700536461e+03
6.183296995129358038e+03
5.662796556694432184e+03
3.974019870295959663e+03
1.239201932491769412e+03
-2.237099397497503560e+03
-5.680018459265280399e+03
-7.877837305934093820e+03
-1.010294678493495849e+04
-1.269285132272922965e+04
-1.626918903341300393e+04
-1.964751167441903090e+04
-2.177828599719464546e+04
-1.863797945184464697e+04
-1.288620268957242115e+04
-1.122423431815283038e+04
-1.280337273711246053e+04
-6.840053151920065829e+03
-1.970706953604316141e+03
-4.749838563537231835e+02
-1.897961289944226166e+02
-1.541495166304110853e+02
-9.954965295576010931e+02
-2.124237883057872295e+03
-3.587418549898007768e+03
-5.914357591736445102e+03
-8.823875268810128546e+03
-1.234892901672933112e+04
-1.528064577651996478e+04
-1.786175104843827648e+04
-1.969579134930443615e+04
-2.050850478177389232e+04
-2.067377083203933216e+04
-2.004118578866507960e+04
-1.842820547744091891e+04
-1.502943645512808689e+04
-1.153552694112786776e+04
-7.675152398209405874e+03
-3.481906229745723977e+03
-5.483815709467963870e+02
5.786400081666832875e+02
4.753485424813263194e+02
-6.698093130025610265e+01
-1.355006782372586713e+03
-3.413292701714170562e+03
-6.233357358150109576e+03
-8.743882464535481631e+03
-1.171039427602159958e+04
-1.461855615119186223e+04
-1.542212627494612389e+04
-1.557972551794857100e+04
-1.529672254424458515e+04
-1.399247184685757020e+04
-1.322442112037873267e+04
-1.206093432659866448e+04
-1.098437301957131604e+04
-8.840997116006950819e+03
-5.899967704808736016e+03
-3.655423300869251307e+03
-1.346679854753554537e+03
5.030366377814034990e+02
1.110686184153324348e+03
1.362035935726447860e+03
1.069649644822333357e+03
-6.786311164983993649e+02
-3.420240295527689796e+03
-6.271773458142062736e+03
-9.252583909544064227e+03
-1.176700561068531715e+04
-1.386745692799702192e+04
-1.497538031829123611e+04
-1.498945969710238023e+04
-1.430034854522394198e+04
-1.321954966457615592e+04
-1.143958719629514053e+04
-9.055835737262728799e+03
-6.374748414637171663e+03
-3.818826067261124990e+03
-6.176853887949706632e+02
2.169118782655880750e+03
3.286873401990737420e+03
3.527827049465166510e+03
2.600276483292044759e+03
9.223400011135290697e+02
-1.075697937313867897e+03
-5.315793997504694744e+03
-9.746110806682845578e+03
-1.054400278180157511e+04
-9.743596267161850847e+03
-1.220818175614436223e+04
-1.226611580294908345e+04
-9.864868877514325504e+03
-9.552785275024636576e+03
-1.010523757130264312e+04
-7.813674268979943918e+03
-6.422586407685333143e+03
-1.540324033540268829e+03
-2.533922451350249787e+02
2.482668175591967156e+03
6.851251582989100825e+03
9.961764576239567759e+03
1.423867590139220920e+04
1.507623331068149673e+04
1.415446145876253468e+04
1.237642323635240245e+04
1.099201293095882829e+04
1.062798516392043166e+04
7.517124936343985610e+03
3.709205315130301187e+03
3.060987586034580090e+03
2.062147476157185338e+03
2.443419332285133351e+03
3.045644200272720354e+03
7.413470937212972785e+03
8.517532627786116791e+03
1.211441610555499392e+04
1.297877041810433366e+04
1.817132236479210405e+04
2.267466940179706944e+04
2.458051054699563610e+04
2.934654021435484901e+04
3.182508713756505676e+04
3.161543334641999900e+04
3.426884797673396679e+04
3.436466072346761212e+04
3.272521739294552026e+04
3.104671277636364175e+04
2.967719003645863995e+04
2.820866997785340573e+04
2.770747071582049466e+04
2.575782440742117979e+04
2.431972176201902039e+04
2.430416974470639980e+04
2.482220327698750043e+04
2.575911131252187624e+04
2.734097886986334197e+04
2.952779937012639130e+04
3.201873792300195419e+04
3.307430819265792525e+04
3.476297645194455254e+04
3.755598390009373543e+04
3.923528993356757564e+04
4.021203903143430216e+04
4.049729825760324456e+04
3.948604798653985927e+04
3.709613520710993907e+04
3.304858952662702359e+04
2.875260146505849843e+04
2.470040608355183576e+04
2.127302278839344945e+04
2.082759867524517540e+04
1.971959743074148355e+04
1.847018880300725141e+04
1.959359932131419919e+04
1.944121699626119516e+04
1.884793102028299836e+04
1.690053588408908035e+04
1.794455733467026948e+04
2.157467167064403839e+04
2.409480463171925658e+04
2.559484967310241700e+04
2.927858675406108887e+04
3.458389721189790725e+04
3.781172658881260577e+04
3.646104867915137584e+04
2.833186052058625137e+04
1.791707438650238328e+04
1.157948888666375751e+04
8.747326435844426669e+03
5.278612673493755210e+03
2.054891384725755415e+03
2.403003909158832812e+03
4.789080561394478536e+03
4.009311515550065906e+03
3.805755473707174019e+02
-3.312254209570588955e+03
-3.888315831626727231e+03
-5.605499305147000086e+02
-6.287846637830697318e+02
-7.614858956330411274e+03
-1.178347872202945473e+04
-1.088737823518577352e+04
-1.014516670900174358e+04
-9.846428877056618148e+03
-8.393714464642249368e+03
-2.885418422667687082e+03
-7.038953318223434508e+02
-2.780470119073015667e+03
-5.690431715844964856e+03
-1.253901131636906030e+04
-2.278433737144041515e+04
-3.144626378190104515e+04
-3.759756080974842189e+04
-4.091993752524506999e+04
-4.090108949635743193e+04
-4.252053126429139229e+04
-4.744459102143712516e+04
-5.337251287199000217e+04
-5.091338041394752508e+04
-4.574920661925506283e+04
-3.823814185589826229e+04
-3.691010693037749297e+04
-4.698678569198920741e+04
-5.230894851937197382e+04
-5.345854377136559924e+04
-5.288248593496582907e+04
-5.134442560934724315e+04
-5.396599590365902986e+04
-5.475193422376386297e+04
-5.485185280054806935e+04
-5.750627632542632637e+04
-5.853062904405140580e+04
-5.799325315622495691e+04
-5.474049753600989061e+04
-4.914527708783031267e+04
-4.523959536500360264e+04
-4.415354355943837436e+04
-3.748517992740756745e+04
-2.738426840064417047e+04
-2.103758102995016088e+04
-2.701198607768792863e+04
-4.937128759484683542e+04
-6.822220871331631497e+04
-7.526549214053717151e+04
-7.436107276465183531e+04
-6.542085517252746649e+04
-5.416360037202871172e+04
-4.580708544519513816e+04
-4.364915994025396503e+04
-4.435176253445436305e+04
-3.688178948368665442e+04
-2.232597991398417435e+04
-6.547056230338275782e+03
7.222243514232494817e+03
1.303313249496520439e+04
1.155694758942935914e+04
9.298922306831214883e+03
1.462940378852132744e+04
2.047170736469981784e+04
2.557504860289934368e+04
3.408982035353298852e+04
4.421529233721403580e+04
4.915959837378621887e+04
5.395490913622650987e+04
5.671929672183239018e+04
5.869469955934611062e+04
6.256791254024899536e+04
7.020773562146173208e+04
7.910089213994813326e+04
8.347105185651958163e+04
8.274286564014139003e+04
7.282583328294257808e+04
5.466738590367033612e+04
3.301100088492455689e+04
1.596812529912598984e+04
7.163305473016014730e+03
-7.329097619106890988e+02
-4.153240704895553790e+03
-9.336472005301975514e+03
-1.983035633446763677e+04
-3.317969372326011944e+04
-4.714141128451022087e+04
-5.906654061099932005e+04
-6.899130243411335687e+04
-7.683313455397958751e+04
-8.240447211393981706e+04
-8.731181220462877536e+04
-9.206565255522490770e+04
-9.579581421647089883e+04
-9.662124283773290517e+04
-9.687316027499246411e+04
-9.295662227159195754e+04
-8.362328550562086457e+04
-7.036043061415065313e+04
-5.257509400630018354e+04
-3.231130448578237338e+04
-1.270944060328720298e+04
5.181996549138277260e+03
1.510733353702836939e+04
1.456396950957253648e+04
2.120915461114980644e+04
3.415195495671463868e+04
4.677431642198340705e+04
5.716795400120416889e+04
6.133759936600861693e+04
6.467476261212303507e+04
7.043883195762583637e+04
7.609109833783538488e+04
8.090175256909473683e+04
8.588874006011962774e+04
9.361700377079703321e+04
1.029544400804809266e+05
1.118667267615681776e+05
1.212405186981368024e+05
1.323494087850069918e+05
1.435739312093535264e+05
1.525177082337923057e+05
1.583782809965668130e+05
1.614890194042280491e+05
1.631912059481066244e+05
1.650850692466871988e+05
