-8.318225673765209649e+03
-8.612808629208226193e+03
-8.991849353105142654e+03
-9.046038151061708049e+03
-8.863310958167052377e+03
-9.618708611253594427e+03
-9.764013757850363618e+03
-9.040933750145308295e+03
-8.117292057668215421e+03
-4.585078120611165104e+03
-4.840170052389789817e+03
-7.190422202313147864e+03
-6.124737674910539681e+03
-5.325932525998257915e+03
-5.879035529380073058e+03
-6.145072827867238630e+03
-6.120903169308976430e+03
-5.989298175677025938e+03
-2.509099170484040769e+03
8.047044994186715030e+02
1.151403570591703556e+03
1.050203008710096128e+03
7.472011852750727030e+02
5.564813395689511708e+02
-6.448500750795180920e+02
-2.351643010354001945e+03
-3.918778157615622149e+03
-4.778231937602731705e+03
-5.229950710166936005e+03
-5.347735034422934405e+03
-5.275556407928424051e+03
-2.740126896561544527e+03
1.967776406385349333e+02
1.337098899431923201e+03
2.683811922893462452e+03
3.200786501420880995e+03
2.989771128876455805e+03
2.246848664276898489e+03
1.703269487534409109e+03
1.008164074547966152e+03
4.435542015740600164e+02
1.254750374999759117e+02
5.969893601834461379e+02
1.438176623091725787e+03
1.743003181847332826e+03
1.906552578674852157e+03
2.548951091042018561e+03
2.886215454677352227e+03
2.979330285428748539e+03
3.069316205508344865e+03
3.101222377372858318e+03
3.410976549499045177e+03
3.584438296445077867e+03
4.534619716879608859e+03
6.231443640228931145e+03
7.047986089639935926e+03
6.836284381885106995e+03
6.642283265910344198e+03
6.975074556833248607e+03
6.734983214249187768e+03
5.916134826438375057e+03
5.186272855609316139e+03
5.069250168459210727e+03
4.876099400768795931e+03
4.846902714164649296e+03
4.168628042465838007e+03
3.440021546513555222e+03
4.500090504230367515e+03
5.870011688887437231e+03
6.804727421181207319e+03
6.393177916156316314e+03
5.039030310692633975e+03
3.509333681133529808e+03
3.138062534963386952e+03
3.141091336190587299e+03
2.828284565093931178e+03
2.830561492529962834e+03
3.661917027066075207e+03
4.392293879972306058e+03
4.629516878141172128e+03
4.398585929373074578e+03
4.801466758850565384e+03
3.867105131524394437e+03
2.867484649437942608e+03
2.858657720528843583e+03
3.214515188581608982e+03
2.296937032689987518e+03
1.657859181449967991e+03
1.541245844658107217e+03
1.775098994103007271e+03
1.343375692111662374e+03
4.829324409971740124e+02
2.937495288658542449e+02
5.967181078681902591e+02
1.228747839415930684e+03
1.297840875555169987e+03
8.789330075282532562e+02
1.098981833216530731e+03
1.042879999010954634e+03
1.308508094627538867e+03
1.360822437382126509e+03
1.159764314190098730e+03
1.386278158643912548e+03
1.107430382924191690e+03
8.010689075896340228e+02
2.681081599447681469e+02
-6.115929778620633215e+02
-1.977128175825132075e+03
-2.652650111274342180e+03
-3.043237512960833556e+03
-3.459909477022781175e+03
-4.063692964002608733e+03
-3.958714251634512493e+03
-3.022039298196380514e+03
-1.719646296768214825e+03
-1.633565443157617437e+03
-2.141773175006816018e+03
-2.272398712647767297e+03
-4.096546211899955779e+03
-7.386294378071278516e+03
-9.928725150941534594e+03
-7.100821689968012834e+03
-7.090634697817677079e+03
-7.707320624116713589e+03
-8.386006795640287237e+03
-8.242710589701227946e+03
-7.997414699218482383e+03
-7.167116898928805313e+03
-5.921851495359826913e+03
-5.152514951064506022e+03
-4.596202694688123302e+03
-3.591836600789635668e+03
-3.806426429203742373e+03
-4.449134459647695621e+03
-4.019112579730202924e+03
-3.446395749333783897e+03
-2.851033076488053212e+03
-2.444130093191301967e+03
-2.239798188981619205e+03
-2.976074234869142401e+03
-3.459938095250422066e+03
-3.854410944823115187e+03
-4.360563181607950355e+03
-4.788467628690284982e+03
-4.235140634332747140e+03
-3.412586006821751198e+03
-3.031939461472396033e+03
-3.401112081806912101e+03
-3.140101621870720464e+03
-2.106928517640841619e+03
-7.236398786798351921e+02
-8.801278395724465327e+02
-9.274327724245322315e+02
1.334175491555948270e+02
1.372387983289618660e+03
1.975322426213957669e+03
3.397203774587695534e+03
4.415949922734570464e+03
3.891462653573669741e+03
2.231829476444112970e+03
1.553214615459354718e+03
2.351480225028407858e+03
2.842537306829065528e+03
2.998501955349157470e+03
2.559289926449195718e+03
2.057911905224361362e+03
1.365466619870810064e+03
1.496007300658967324e+03
1.748554895974561759e+03
3.080162682241519178e+03
4.883883364617050574e+03
5.145569636339922909e+03
5.309212741866743272e+03
5.481898419602874128e+03
5.145545240793971061e+03
4.777147897460292370e+03
4.153745793191059420e+03
2.931527940641256919e+03
1.708553215816408965e+03
6.878840255980816210e+02
2.306508199800083219e+02
-4.090940395977643789e+02
-5.024431865860243533e+02
-2.303499486820354036e+02
8.626447918871249954e+01
6.835088251070571914e+02
1.974432605937191511e+03
2.782985686927062034e+03
2.752261048384364585e+03
3.217295731379472727e+03
3.597150937598743440e+03
3.085867279465587217e+03
2.170657386474448231e+03
1.658698500070421915e+03
-6.510506179552976391e+02
-1.799703970939236797e+03
-1.428163525329471895e+03
-6.833522463851099928e+02
2.655835261127337162e+03
4.054361720369651721e+03
3.961109821079451649e+03
3.411177443734175540e+03
2.365816502677365918e+01
1.645592244231270570e+03
-1.159720317295858223e+02
-3.837827028522989167e+03
-3.397951038195377805e+03
-3.026413908517070467e+03
-2.000247266268195062e+03
-2.613486079613639390e+02
3.022250345892373844e+03
4.345741823607925198e+02
1.051879583354902024e+03
-5.817448735817489478e+02
-8.212429086890568897e+02
-3.826508954700321738e+03
-5.455483982249705150e+03
-3.043086723381404227e+03
-2.226355616618059230e+03
-1.251308814134251179e+03
1.414132655491284140e+03
1.815125932102897650e+03
9.617525513788148146e+02
3.726017758608621079e+03
9.009382883139336400e+02
9.824672997021478977e+02
1.934568806173311032e+03
2.053320978798443775e+03
3.046808932015133450e+03
2.758059627965384607e+03
1.078079109639132639e+03
-4.250471901466269742e+02
-9.702036296056734272e+02
-1.080453836226204430e+03
-1.821798302163632343e+03
-2.727217405508945831e+03
-2.236731839810495330e+03
-1.344283889875094474e+03
-1.358806740757178659e+03
-2.064257454668494120e+03
-2.563609754541974326e+03
-2.277813740636275270e+03
-1.788909919530117349e+03
-9.779590314056193847e+02
-5.411024190776212208e+02
7.459538659825446416e+01
1.414152624695416307e+03
9.706450352179468837e+02
6.331655645015625851e+02
8.078855915513720447e+02
4.590396302632864831e+02
4.124075804155773426e+02
7.950229472142351597e+02
2.021979447805605560e+03
3.187416639780108198e+03
3.589334758060596869e+03
2.655510748900060207e+03
9.219631042679504844e+02
-6.152281553880643514e+02
-3.251444486329488655e+02
-1.828960045412971454e+02
-4.025088050949340754e+02
-9.239560140636408505e+02
-5.843492384027616993e+01
1.545937085834122172e+03
3.232144309591301408e+03
4.687539673143267464e+03
4.409408185882478392e+03
3.372328924648791144e+03
3.092090131506169655e+03
3.080138639638429140e+03
2.702609627818802892e+03
1.948434688709787906e+03
1.328385460967650715e+03
7.866144935006695960e+02
-7.252817251393595370e+02
-1.637668813374059710e+03
-2.468404823980499259e+03
-3.198508352313841442e+03
-3.885925518625068889e+03
-4.002621994600492144e+03
-3.864526911886731796e+03
-2.767734493624605875e+03
-2.655277176331973351e+03
-3.378086581671022032e+03
-3.312159316259147545e+03
-4.345413606310354226e+03
-3.508038782284209901e+03
-4.463673439326446868e+01
2.858570781228412670e+03
6.078659263518033185e+03
8.005463242754771272e+03
5.376876724022380586e+03
2.725937795409934097e+03
2.078742885505065715e+03
1.421497888568672352e+03
7.813504373553416826e+02
-8.773784985998493369e+01
-9.940112122192548441e+02
-1.413866058237500965e+03
-1.659704632286227252e+03
-1.746253807665728118e+03
-1.181022909909014061e+03
-6.178251693883325970e+02
-4.278899406696226038e+02
5.374261136888812871e+02
2.174967020738753945e+03
2.677511719958406957e+03
2.834934238582205126e+03
2.516884798125426641e+03
1.524094905902000164e+03
1.219985666681689281e+03
9.539028472195710719e+02
-4.545877301271301576e+02
-3.160039880900419121e+03
-3.333463690891651822e+03
-2.261008202755751427e+03
-1.727649963442166381e+03
-2.552486209400230109e+03
-3.343706521626527319e+03
-3.187243920809193241e+03
-2.875146792825796638e+03
-4.824088714521504698e+03
-6.712832314871007839e+03
-7.342145284175942834e+03
-7.508811868935760685e+03
-4.266374539275794632e+03
-1.678011045604099763e+03
7.125046714232262275e+02
2.793630094027625546e+03
3.965875831879856378e+03
4.363713510881390903e+03
4.642637106783224226e+03
5.315507289553646842e+03
5.595308274646838072e+03
4.661339445122674078e+03
4.416893382243877568e+03
4.194059079454177663e+03
3.476323886679011594e+03
2.626182177453228178e+03
2.916293007156256408e+03
3.732214375203826876e+03
3.479860770775921992e+03
2.748703584145452169e+03
2.184192993486508385e+03
2.494762095882864742e+03
3.097210165781131309e+03
2.606604425432636617e+03
1.744071734896036332e+03
9.785248648125300406e+02
5.724942733184597046e+02
8.445806507323495680e+02
8.654793378741421748e+02
1.358361828807878283e+03
1.531978983044526558e+03
8.399864782888018908e+02
9.598132016742574990e+01
-5.175892932679314526e+02
-1.242172092683672872e+03
-2.031609851567403382e+02
4.002281613625570458e+02
1.277291484967970973e+03
2.111941498787454748e+03
2.042660908165206592e+03
8.124210331378659475e+02
-5.928899994865319059e+02
-9.190858297102763572e+02
-1.136339695433626957e+03
-2.278426865828779682e+03
-3.517131412563757749e+03
-3.922473653845253466e+03
-3.471740609052821128e+03
-3.237827550297112793e+03
-3.262542187068267140e+03
-2.452577347572983399e+03
-1.870714906161311092e+03
-1.648168599453736761e+03
-1.165724396240606666e+03
-8.089356703871949321e+02
-4.579247421865442789e+02
-1.388537723317879454e+03
-2.512998035699876709e+03
-3.419781382633556404e+03
-3.871836631802174907e+03
-3.962536746325512922e+03
-3.116585687998901903e+03
-3.628366416579352517e+03
-2.448466700582342128e+03
2.578596105823990570e+01
1.176030646806394316e+03
1.133652421698346870e+03
1.860188160792977897e+03
2.430477092493642886e+03
2.473991422673348552e+03
1.825786294003611374e+03
1.161553083827158844e+03
1.364999809786573906e+03
1.227188561771320110e+03
1.224466071651386301e+03
1.411745403180156245e+03
6.219342248622862144e+02
-1.454198257894460994e+03
-3.866829661662763101e+03
-4.168400999952855273e+03
-4.297181329574542360e+03
-4.485253305475081106e+03
-4.900476932988640328e+03
-3.520428833123970435e+03
-2.571526578154150684e+03
-1.000427260973961552e+03
7.375884941839544808e+02
9.926101097179563340e+02
1.180356011979672985e+03
7.680273558048269251e+02
-1.150840027224343885e+03
-2.054627463756409270e+03
-5.170982995698839204e+02
2.116074088261243347e+01
-6.169120514189886535e+02
-1.164625219460765265e+03
-2.115978762504514179e+03
-2.967918166363891942e+03
-2.945471059986278760e+03
-2.461304025041430577e+03
-2.193230479531790024e+03
-1.492681081290445491e+03
-2.881646953399483664e+02
5.394798812395846426e+02
1.346789442093489470e+03
1.902708591062988944e+03
1.057670273257775534e+03
-9.518263825905067961e+02
-2.395911352586887915e+03
-2.535328453909847212e+03
-2.965678976663117737e+03
-3.024862738614903265e+03
-1.965713439948538280e+03
-1.015925819703232378e+03
-1.353576266196726010e+03
-2.144153719885224291e+03
-2.568279525318207561e+03
-1.929278693262655452e+03
-1.312509275425303031e+03
-1.663982400867535489e+03
-1.754047168839698088e+03
-2.030086359561975314e+03
-2.752243115632584704e+03
-3.886775430489472001e+03
-3.313907767953593520e+03
-8.517740412915250090e+02
7.269651705989391530e+02
7.941040931678317065e+02
1.475388023208779714e+03
2.993885356328740272e+03
5.419106161982789672e+03
6.805515452057732546e+03
5.907211202068401690e+03
5.451088957879857844e+03
5.184076315369172335e+03
4.420656391440550578e+03
3.948217212695025864e+03
5.331628839642794446e+03
6.648954746054359930e+03
6.698330974430775314e+03
5.776721260725401407e+03
5.481627883264844968e+03
4.604310202519610357e+03
2.732666894158918694e+03
1.966985050943774695e+03
1.665473306585735827e+03
1.501306018161347311e+03
2.204838663609462856e+03
3.364854162542606446e+03
4.554397134147526231e+03
4.740586179839537181e+03
3.992543898922594508e+03
3.488508225455335378e+03
4.339097451445317347e+03
5.441017832344012277e+03
6.333847922200313405e+03
7.365349686563461546e+03
7.753502597012152364e+03
7.265673353472798226e+03
6.618633886063375030e+03
6.149854998409608925e+03
5.980702317846622464e+03
5.539701214177473048e+03
5.422568452504959168e+03
6.620947109285953047e+03
7.529352203765336526e+03
8.045503218758692128e+03
8.028410155049516106e+03
7.376593909651787726e+03
7.387381721516458128e+03
7.391390443326811692e+03
7.972379535730509815e+03
9.182031580006636432e+03
1.091004911401871686e+04
1.199312921693620956e+04
1.221889380315134258e+04
1.144997342007589214e+04
9.854153083684432204e+03
6.876253792611902099e+03
3.269842367679793824e+03
-1.063236102977731662e+03
1.747764084598445606e+02
4.497553675570615269e+03
3.990933985720775127e+03
-2.233267342830744838e+03
-4.181192378251955233e+03
-2.944027558883048187e+03
-9.039456568047222618e+02
-1.150054070910195833e+03
-1.506381333380772730e+03
-1.300392411223994600e+02
8.017396987414300611e+02
1.279732240145327069e+03
2.438893204262024938e+03
3.851335391272962624e+03
4.052106326206555877e+03
4.414155796334123806e+03
5.915407787031032058e+03
2.768797824490743551e+03
-1.917007489930541340e+02
2.511129782745912507e+03
7.489404103072855833e+03
6.662133119510815050e+03
6.984590245020683142e+03
7.540012219007731801e+03
6.142400829493411038e+03
7.704850055685730695e+03
9.168460864787297396e+03
7.496422243146977962e+03
5.527854794239247894e+03
3.161886270595516635e+03
1.527636535820881818e+03
9.042526846630840964e+02
7.158907420103623735e+02
-9.881734371852022605e+02
-3.058687865227626844e+03
-3.324297606936399461e+03
-2.362693788751623742e+03
1.409479353203619212e+03
4.776578911307437011e+03
4.544467896852703234e+03
3.292068480997495499e+03
2.334744682642933640e+03
2.287859436476367136e+02
-3.818353039791817082e+03
-8.425963050857282724e+03
-1.290974694195407028e+04
-1.485349705132809140e+04
-1.476175199320290449e+04
-1.445196860246386495e+04
-1.672163295703254698e+04
-2.385729982933557039e+04
-3.781058041325288650e+04
-5.183905326406945096e+04
-4.766517223232494143e+04
-3.828746069487219938e+04
-2.909931086837526527e+04
-2.199204020089561527e+04
-1.433101029634072256e+04
-6.933670104768363672e+03
-1.284440011804161622e+04
-2.512960328743423452e+04
-2.865672793362313314e+04
-2.521419096619467382e+04
-1.568846231999148222e+04
-1.020477598923206642e+04
-1.069344263051020607e+04
-1.026172933391259721e+04
-1.198903546230906977e+04
-1.419383405427769867e+04
-1.815450099639379550e+04
-2.511817184976037606e+04
-3.298731207817191171e+04
-2.870454578590908204e+04
-1.883659554852691508e+04
-1.719366532505189389e+04
-2.398221930455117763e+04
-2.865589840863011705e+04
-2.793513490847515641e+04
-3.095300068727403414e+04
-3.278823867053065624e+04
-1.411643620936222032e+04
4.256787702536595134e+03
6.275971948648822035e+03
1.318655989208019264e+03
-6.651795721804945970e+03
-1.605906241315260741e+04
-2.374676338798429060e+04
-2.993840743959691827e+04
-3.740361129937100486e+04
-3.941403857489585789e+04
-3.662840086620546208e+04
-2.388237346558810168e+04
1.810287512987968057e+03
3.451887972657763748e+04
6.801274223700966104e+04
8.924815839392525959e+04
7.991030015811703925e+04
5.073126275159398938e+04
2.778126415669823109e+04
1.369955654963739107e+04
-5.692628659027268441e+03
-2.309215606354988267e+04
-2.226494088075420950e+04
-1.219187786248015254e+04
2.140155853258199386e+03
1.718715303205823511e+04
3.082921901451147642e+04
4.252251661136068287e+04
4.888410731148156628e+04
4.973199517423600628e+04
4.492019656514549570e+04
3.416549114023704897e+04
2.356769215167720540e+04
2.190457203503880373e+04
2.522703624951738311e+04
2.715394321752763790e+04
2.737823797878386540e+04
2.943581550665725808e+04
2.818953391867995379e+04
2.825214869502714282e+04
3.095036560588147040e+04
3.392086216859336128e+04
3.289022254393302137e+04
3.041794781230132503e+04
2.772261009869738700e+04
2.745187256073564276e+04
2.637823080437550016e+04
1.757824155766553304e+04
7.385456952573870694e+03
4.977359843029312287e+03
9.992457528106087921e+03
1.595319042086909394e+04
1.810812867021960483e+04
1.266873544128354843e+04
4.361438194117849889e+03
1.412713374554136635e+03
4.379160243740011538e+02
5.720401712151639913e+03
1.633964846471526835e+04
2.380087843771995904e+04
2.463224235628941460e+04
1.368211240469444056e+04
6.168910342695554391e+03
6.657889427657248234e+03
1.201634608255896455e+04
1.730057497741623229e+04
1.704390502692360315e+04
8.764655004473635927e+03
-3.528927385091003998e+03
-1.707158503116579959e+04
-2.417604027917118583e+04
-2.278301904120965628e+04
-1.111423044512650813e+04
-5.983343307342594244e+02
3.763852303546147141e+03
2.168366553939531968e+03
-2.846456772728225133e+03
-8.654369907551968936e+03
-1.162713548727283887e+04
-1.089368757915274364e+04
-7.141802960396900744e+03
-7.286323425941127425e+03
-7.857010314795635168e+03
-6.144769428989745848e+02
1.096847430424520644e+04
1.714218318165183882e+04
1.597810869883837768e+04
1.452753261356105031e+04
1.780754401758375025e+04
2.126144350121001480e+04
1.949464093287055948e+04
1.541746486849967187e+04
8.733273324238898567e+03
-2.030600154878334706e+03
-1.294784405154585693e+04
-2.497315349208487896e+04
-3.343011994188915560e+04
-3.707135869090241613e+04
-3.971748639966813789e+04
-3.789607674714257882e+04
-3.748672306188366929e+04
-4.628091031529426255e+04
-5.188497654071384750e+04
-4.726525315418229002e+04
-3.853523459762769926e+04
-3.747848121842268301e+04
-3.526930877002714260e+04
-3.014009510002749448e+04
-3.325336099305388780e+04
-3.862748118341729423e+04
-3.723063878901711723e+04
-2.886909447612265649e+04
-2.195114929162237240e+04
-1.688212262054962775e+04
-8.267225349825997910e+03
-1.156579660767860105e+03
3.073658466357680936e+03
8.764416086865112447e+03
1.423258839152788823e+04
1.900915138130659398e+04
2.476893837088890723e+04
2.511183817976162754e+04
2.252096805674180723e+04
1.881243147490038973e+04
1.936827055634499629e+04
1.629560147179050182e+04
1.092045949278465378e+04
6.854014203801376425e+03
1.556617582956498609e+03
-3.903590837534085495e+03
-4.503361381978698773e+03
-5.499365821186077483e+03
-9.193310819890741186e+03
-1.262006461159541504e+04
-2.196126203013894701e+04
-3.096341944577089453e+04
-3.058013722241369032e+04
-3.602201248008808034e+04
-3.823443269642927044e+04
-3.962377533372134349e+04
-4.578862285339734808e+04
-4.996150510377699538e+04
-4.470789061063255940e+04
-4.052114113497691142e+04
-2.913882305745471604e+04
-1.802639391556560076e+04
-1.319110189731619721e+04
-1.294318734079550813e+04
-1.094504091602034168e+04
-9.965063596822266845e+03
-1.154051767092296723e+04
-7.727721412329888153e+03
-4.533020414998082742e+03
-1.788604165682987059e+03
4.646413326988506014e+03
9.519857392826754221e+03
1.280347653862317202e+04
1.383995816324364023e+04
1.424011932928111491e+04
1.432682327113895008e+04
1.315473000809362384e+04
1.293667719691432467e+04
1.696751926938958422e+04
1.968513458159838774e+04
1.976647825964184085e+04
1.975832080907756608e+04
2.007654539406599361e+04
1.959997628986881682e+04
1.924937840712106845e+04
1.970057427522990474e+04
1.945550464037541678e+04
1.852497823925012563e+04
1.804481640088870699e+04
1.915695408651223988e+04
1.920868982398501248e+04
1.880106633890655212e+04
1.827304317768848705e+04
1.674106954636211958e+04
1.496766640801733047e+04
1.327707328438701916e+04
1.239854981715038048e+04
1.240413793119751972e+04
1.264742313321105939e+04
1.303946304307638275e+04
1.362216745176787481e+04
1.332319639854888374e+04
1.094612882775907383e+04
7.968695041403679170e+03
4.592594525750689172e+03
2.473665998779039001e+03
7.622012961015120709e+02
1.572380565612037095e+01
-5.109606302195657008e+02
-1.453344623401831313e+03
-3.007469635872109848e+03
-4.018822746447508507e+03
-5.345313361385704411e+03
-7.109724091926289475e+03
-6.198179256286470263e+03
-3.307320573769951807e+03
-1.650737123770108383e+03
1.031104438955893983e+02
1.842317976695042944e+03
3.311270032122943121e+03
4.958754109324759156e+03
6.241810101091593424e+03
6.768633863384100550e+03
6.448434407924275547e+03
5.632399869054695955e+03
5.477642886989027829e+03
6.602428634136584151e+03
8.460931752663869702e+03
1.028310902165547668e+04
1.442392530245134549e+04
1.920815802532675298e+04
2.087775604739699702e+04
2.071694742276495526e+04
2.113277432516483168e+04
2.194517916601986508e+04
2.350516528621158432e+04
2.496978052477795791e+04
2.456601762696724472e+04
2.286980880773954414e+04
2.105078602907957611e+04
2.013855217223160435e+04
1.949584812749807315e+04
1.821360792547034362e+04
1.578200560674383269e+04
1.192042195348720816e+04
7.915787397684271127e+03
3.225379210182729821e+03
-1.225803127257204778e+03
-4.885386904219456483e+03
-6.906837412400481298e+03
-8.092778911620168401e+03
-9.422866342414989049e+03
-1.066664336353579347e+04
-1.281095992401680996e+04
-1.612989397455148537e+04
-2.024854958154937776e+04
-2.260213234297084273e+04
-2.534506620023299911e+04
-2.850754896731408371e+04
-2.956830457580197981e+04
-2.986577475709067949e+04
-2.964853711837296214e+04
-2.638005575154264443e+04
-2.252969915664455402e+04
-1.896291529424104010e+04
-1.786726930434771202e+04
-1.531200805988029970e+04
-1.223635833254996942e+04
-9.368354298052921877e+03
-4.181807064149438702e+03
-1.303826214631583753e+03
-6.858214762756830396e+02
-1.855989231708558123e+02
-3.817465675866930610e+02
1.226609924511071057e+02
1.616989003383727322e+03
2.616021330786718408e+03
3.149408534731278451e+03
3.254714391561186858e+03
3.455227904117899016e+03
4.516236446568743304e+03
5.578246890961062491e+03
5.503195042589918557e+03
5.048966969263634383e+03
4.769922016543151585e+03
5.312005992324565341e+03
5.879383656940339279e+03
6.372614208588789552e+03
6.101473498913219373e+03
4.960604807287019867e+03
4.293351776955896639e+03
3.316181982313181834e+03
2.528180808056220940e+03
1.367505329279304760e+03
-3.521954561038032239e+02
-1.671706892328357526e+03
-2.909493510445929132e+03
-4.792635804076457134e+03
-6.429023988850219212e+03
-7.385348520960477799e+03
-7.828213158173165539e+03
-7.890799761554162615e+03
-7.205179955802589575e+03
-6.290299223175040424e+03
-6.568887576223958604e+03
-7.885142589498661437e+03
-8.589991136056321920e+03
-1.000620244328545050e+04
-1.134803881453527174e+04
-1.206464899850164693e+04
-1.058443853920818037e+04
-8.344449232960034351e+03
-6.811979565074844686e+03
-5.470507469299276636e+03
-4.230353526701144801e+03
-3.733396929302039553e+03
-3.971638522815562283e+03
-3.629144742634504837e+03
-3.356205182564051483e+03
-3.100929636648664200e+03
-2.882704778171819726e+03
-2.751909066925598836e+03
-2.516829893684615399e+03
-2.747092349354842099e+03
-3.063212524160695921e+03
-3.783974029849952331e+03
-4.826680457765251958e+03
-4.941917504040874519e+03
-5.392808789631360924e+03
-5.188343310177151579e+03
-4.807961068517274725e+03
-4.215126985913166209e+03
-4.213675402426053552e+03
-4.552014785195700824e+03
-4.664915546535732574e+03
-4.624271472506313330e+03
-4.568458342020700002e+03
-4.912584738633245252e+03
-5.518384462198749134e+03
-5.824255344573980437e+03
-5.532235783599216120e+03
-5.535473239414861382e+03
-5.016291274724610048e+03
-3.680685389786578071e+03
-2.428903257764804493e+03
-1.195533117386018148e+03
-1.410310961815848714e+03
-2.548486896733375488e+03
-2.356215504322251945e+03
-1.970768498655584835e+03
-1.737523211822057647e+03
-1.703170858020285550e+03
-2.008612076274629089e+03
-2.548728609752223747e+03
-2.693789949929197974e+03
-2.329311994438730835e+03
-2.809453779796875097e+03
-3.115288295225075217e+03
-2.911168119029713125e+03
-1.957152409317401407e+03
-8.445474956373510622e+02
-2.961998662202054788e+02
4.283377255666923702e+02
1.296921186831048317e+03
1.988287795758383936e+03
2.423334504624958754e+03
3.029141276854089483e+03
3.259369912359642058e+03
3.547829170939764936e+03
4.082948062719387508e+03
4.875892784697004572e+03
5.366190055569381002e+03
5.227994050211600552e+03
5.263803560183572699e+03
5.819866278041454279e+03
6.728518031983608125e+03
7.277460124311921390e+03
7.198676043388591097e+03
7.907141488172587742e+03
9.157214915042737630e+03
9.734970944825559855e+03
9.975509837356676144e+03
1.067259941010504917e+04
1.114107481385151550e+04
1.126967132180545923e+04
1.132081448831493799e+04
1.139192652425715642e+04
1.116205494686778002e+04
1.094762345868971352e+04
1.107704887078646789e+04
1.038234187924952494e+04
9.310762609582616278e+03
7.860618209419627419e+03
7.070059979676806506e+03
7.049774285466254696e+03
6.314470844954625136e+03
5.628716001849127679e+03
6.160715347612257574e+03
7.008030729183118638e+03
7.574296237063073931e+03
8.120796469201503896e+03
7.954927101939319982e+03
7.896644888444396202e+03
7.908109170044505845e+03
7.979734600459772992e+03
7.475921430834333478e+03
7.339898714227312666e+03
7.460553231602897540e+03
6.294359034764433090e+03
4.911964966486262711e+03
4.601635354609808019e+03
4.773237510742602353e+03
4.638686599877330082e+03
4.053209886887597804e+03
3.172133861446254741e+03
4.156976947765388104e+03
3.958784251266021784e+03
3.098403643154717429e+03
2.832728099698550068e+03
2.959359364499943240e+03
2.356539097249040424e+03
1.912036233183798004e+03
2.446787368219998370e+03
2.663039174859384275e+03
2.216432638377199964e+03
2.017088461628544110e+03
2.554546706172330687e+03
3.641257121518286567e+03
4.536125120228235573e+03
4.336053443997540853e+03
3.828037746069022887e+03
4.161995496829212243e+03
3.853926680959013993e+03
3.529823589004844962e+03
3.106451090892141565e+03
2.515305946496335309e+03
2.478234306013882815e+03
1.877212626686285148e+03
1.498157180771524736e+03
1.267848225722425013e+03
5.781311416417782993e+02
1.807820917911954552e+02
5.605303873431303145e+02
-4.518092784134316275e+02
-3.498401673817485971e+03
-7.555343922944972292e+03
-8.455003951977249017e+03
-8.357809862070622330e+03
-8.373954672303934785e+03
-7.954579797357044299e+03
-7.315821943418425690e+03
-4.994922550931426485e+03
-2.627168046876625795e+03
-6.725825624175505254e+03
-1.114418037568935870e+04
-1.095453306031228567e+04
-1.053190683088522565e+04
-1.113737799728241771e+04
-1.168043281733783078e+04
-1.197442446017108705e+04
-1.229770399639773132e+04
-8.984454864484096106e+03
-9.092785139352845363e+03
-1.178691907121797885e+04
-1.196520371115120543e+04
-1.165789894033026758e+04
-1.091622745830175154e+04
-1.096949605181654078e+04
-1.076117391761535873e+04
-1.069822558595695955e+04
-1.059640871258049265e+04
-1.045227345963481821e+04
-9.954538506982884428e+03
-9.500412765961627883e+03
-9.477236574878663305e+03
-8.451330284072590075e+03
-3.746880176012393804e+03
-2.145263715043690809e+03
-2.076784826367467758e+03
-2.043684486697381999e+03
-1.364053606790022513e+03
-9.900587684908803112e+02
-7.551116277686858211e+02
-5.854861956466487527e+02
-5.864448234769980672e+02
-4.833743799556708609e+02
-1.856965483773097390e+02
-5.263870744655397260e+01
9.383978879252798322e+01
1.717677721759135352e+02
4.960792425230632148e+02
6.605594517941652839e+02
3.057578432970468612e+02
8.846402626003917646e+01
3.016724428618898628e+02
2.383497791466498370e+02
-1.026148088525262807e+02
-1.353795388531906383e+02
-1.162099299231326626e+02
1.460177402051792512e+02
1.845092053799258167e+02
4.402070033079248219e+02
7.470068554816907636e+02
7.410953938560622873e+02
6.674518248428643119e+02
6.240111620301182711e+02
1.310530971082218230e+03
1.832774630038739133e+03
1.754732160500590226e+03
1.658312891583270130e+03
1.486474154205559898e+03
1.454357660772405552e+03
1.285404636260507687e+03
1.331600516319744884e+03
1.434962302978604612e+03
1.189587735225602955e+03
1.129311506963438433e+03
1.027912397109311087e+03
9.341210196181144738e+02
2.996417771073846552e+02
-1.933900202029640241e+02
-1.139871784937832331e+02
6.680448892980980418e+02
1.223590304171165826e+03
1.651471988971579094e+03
1.720870436959544804e+03
1.933301967390805203e+03
2.505782446495680233e+03
3.028776066246605751e+03
2.677990789327362563e+03
2.613405628549096946e+03
3.093113587581140109e+03
2.875986674497929926e+03
2.831101739352478035e+03
2.894701744793210764e+03
2.740004961641510818e+03
2.519877778663983463e+03
2.301192132500478237e+03
1.989026644637687923e+03
1.551581190277730457e+03
1.212038413250748590e+03
1.576750704829780489e+03
1.975651614450324587e+03
1.857762610769208095e+03
1.883104611959054864e+03
1.800789748406770286e+03
1.690109742350699889e+03
1.717152012757992225e+03
1.595043935933770626e+03
1.303908390945214705e+03
1.119946929913201757e+03
1.521313559927650203e+03
1.071041149378574573e+03
1.207298415136917811e+03
1.249372853375808518e+03
1.207497241702086058e+03
8.267826186185715187e+02
8.821940643345576518e+02
9.458159349096233655e+02
7.276422253916458658e+02
9.937031492933780328e+02
9.032932484535459707e+02
8.257229538797020041e+02
3.971369125194750040e+02
-1.021823462945609435e+02
-1.580390125349124446e+02
3.406065405091298430e+02
4.945222407047446609e+02
1.101745513995040710e+03
1.460490987144796009e+03
1.215804875051778708e+03
8.967823799207719730e+02
4.836586182544777444e+02
-1.743709238992622375e+02
-1.375284561471657526e+03
-4.410986638426005811e+03
-8.719338304859729760e+03
-8.929187632891222165e+03
-5.946447721173044556e+03
-2.160040759334692666e+03
-2.206904621558687722e+03
-2.649962345907915733e+03
-2.912943515214491526e+03
-3.528783170059630265e+03
-2.952519494313636642e+03
-1.858916566048878167e+03
-8.548289278675598553e+02
5.586525208342428783e+01
3.860809186067105543e+02
4.488464635323549601e+02
6.082368948120964660e+02
3.172103805357435817e+02
-9.022701984790531924e+02
-1.277085299924656510e+03
-2.451741825183123922e+02
1.765010909771289960e+02
-2.097822115900178375e+01
-1.861790661790045931e+01
-9.532316986735874309e+01
-6.860276248180560970e+02
-1.176743085753416835e+03
-1.880448781105623311e+03
-2.280225414374895081e+03
-2.220880217314389483e+03
-1.975237160114596236e+03
-1.879503265287760541e+03
-1.274603455305469652e+03
-2.613688576467860685e+02
7.622153880953919725e+01
-8.583734696526828145e+01
-7.052906672748514438e+01
-2.529493486141660128e+02
2.827356237383633584e+02
7.306400799909449688e+02
1.698726868720113430e+02
-1.663673522872048579e+03
-1.946144856089276345e+03
-1.817666305761693593e+03
-1.381245468466912598e+03
-1.540930170639699782e+03
-2.061837966388648965e+03
-1.777061240678117656e+03
-4.025931306806456291e+02
1.615356270246073507e+02
6.573355225154971322e+02
1.313787120203018958e+03
1.098704802302161625e+03
1.643953192344834633e+03
2.557517992514201524e+03
2.798490427890191313e+03
2.731866186419987116e+03
