-1.706545078131688342e+02
-1.253749089570237061e+02
-1.259796253617105094e+03
-2.095910943930545727e+03
-2.669660620000251583e+03
-2.634995402308760731e+03
-2.530880861156565970e+03
-2.350254968204697889e+03
-1.274135180612306613e+03
-7.465931109822174676e+02
1.483727880838508497e+02
8.607969468199465837e+02
1.421642533121633505e+03
7.499673563751506435e+02
6.487844899502009639e+02
1.226079009590270971e+03
1.140811127785598273e+03
7.049991983276610199e+02
9.637165676787855091e+02
6.069634645731333649e+02
3.863163865019651411e+01
-2.713903054920023123e+02
-3.510653006799824425e+02
-1.772585071647176562e+02
2.160735126290385324e+02
3.428606468422034368e+02
-1.519378477973175734e+02
-4.853094306488280267e+02
-4.501515487264981630e+02
-4.142044113313873481e+02
6.469735333617947504e+01
7.965005797248707040e+02
1.592205892579394231e+03
2.028818751878435933e+03
2.254271701576957184e+03
2.546500649819349746e+03
3.129272925682105779e+03
2.584057563725371892e+03
7.015619177992281266e+02
-9.789859035455948515e+02
-1.879670633183884320e+03
-2.377546809153588129e+03
-2.211483142128718555e+03
-1.366322755163804459e+03
1.730198265065500323e+02
1.444784029031924774e+03
1.403553612361807609e+03
1.635049333061910829e+03
2.029995984204830393e+03
1.733369502721357321e+03
1.487235442281520591e+03
1.685690483463667533e+03
1.682578599601589758e+03
1.043726921060507948e+03
3.339650449259153788e+02
-9.660077681602884070e+01
-6.302344668502333889e+02
-1.479915641163121791e+03
-2.704495541987542765e+03
-3.841006903500427143e+03
-4.457159964040150044e+03
-4.293943071826258347e+03
-2.354879355295748610e+03
-8.915799645587721045e+01
1.759357163688619039e+03
3.088144603394864134e+03
1.679162241835541408e+03
-3.780744326512061662e+02
-8.606640659829629385e+02
-1.054174037006592016e+03
2.141205092433964978e+02
2.479579282954610790e+03
3.516906614833108961e+03
2.862116788236108732e+03
1.822519779807319537e+03
1.795767661840131041e+03
2.653007794353820373e+03
1.227326640385479095e+03
-4.323775082570980999e+02
-1.154211499059342032e+03
-1.344523489981151670e+03
-1.158922463843597370e+03
-1.010495645823246150e+03
-9.581767018462579699e+02
-1.679213636322082493e+03
-2.122679713854421607e+03
-2.311584408674063525e+03
-2.555949930552017577e+03
-3.528760624047582951e+03
-4.018903030932305228e+03
-3.591395360313783840e+03
-2.571305309862537342e+03
-2.730569324322490047e+03
-3.044130276954187138e+03
-5.840543755015480656e+02
1.808593211218554870e+03
3.116805375426079536e+03
3.284585593572365724e+03
2.724896774948488655e+03
2.571789584077725522e+03
1.976308460310315468e+03
3.713593849498537907e+02
-1.139043507906824743e+03
-1.631946320462014910e+03
-1.900437695998422669e+03
-4.694831551954098927e+02
1.164984306698009050e+03
2.829599005915151224e+02
-3.669546981473091364e+03
-1.387151733527872011e+03
1.495785955191607400e+03
7.905628882759405087e+02
-9.120001450938626704e+02
1.416244334036970486e+03
4.714388111940384078e+03
4.255292648068623748e+03
-3.911433316328457011e+01
1.073234125997929823e+03
-1.707520323141079416e+03
-4.589406650795083806e+03
-3.810550771518812780e+03
-3.260406688281451579e+02
-1.293937673907358430e+03
-1.025215822633435664e+03
9.005983701519379281e+01
-1.917157253831833486e+03
-4.525796379569203054e+03
-3.587829938461558868e+03
-3.390190547305151995e+03
-1.339750689281367613e+03
-1.653522841072610845e+03
5.594462641462635020e+02
-6.788816720252923460e+02
3.064998429070258794e+02
8.156740882423806625e+02
3.509824969508577851e+03
3.364922105464619108e+03
2.006923703753603377e+03
1.418880468757452718e+03
4.457833836087904160e+02
-7.114390120455980195e+02
-3.137453036099104793e+02
4.548349063763070603e+02
1.790256362125419173e+03
3.203562584278129179e+03
2.722785120911292779e+03
1.369968096767612451e+03
4.592190330876421740e+02
-1.814486051944243457e+02
3.959512924436129424e+02
1.347460630159379207e+03
9.722175528730600718e+02
3.553408410778819757e+02
2.008023471322502189e+02
-6.044731953314756083e+02
-1.833367754305746303e+03
-2.000837779080851305e+03
-7.439999409832596484e+02
2.037051447964417548e+03
4.125260043648228930e+03
4.043593713271682191e+03
2.178103140514003371e+03
-1.372439562781636937e+02
-9.805069106292337437e+02
-1.073444898613984293e+02
6.315179420971303443e+02
1.359945531768724095e+03
2.107742032457975711e+03
1.852141964584435755e+03
1.563015383250901095e+03
1.264214603393177640e+03
8.070023300096420371e+02
-1.157783914253863031e+03
1.098688817405804002e+03
1.985654733001132854e+03
1.821246321786577028e+03
1.503422509223047200e+03
1.729237840871938488e+03
1.925623281834854197e+03
1.994680845252762538e+03
8.493046000395954707e+02
-9.381116928089173257e+01
-7.722222224353702131e+02
-1.429073305603097651e+03
-1.682906882618111922e+03
-1.976282267452801534e+03
-1.368165525063464656e+03
1.193998849019958897e+02
-3.546268376408663698e+02
-9.092503267477568443e+02
-6.446477774306721642e+01
1.266573615879173076e+01
-5.748790534662010714e+02
-9.526567445217951047e+01
6.894761435762794690e+02
1.000463480404219126e+03
3.907604434009771808e+02
2.944265169099773516e+02
-6.869747085428983269e+01
-7.126422905994932080e+02
-1.255407317762442744e+03
-1.661050851279827157e+03
-1.165660865321456868e+03
-1.259241148129897965e+03
-1.270732587997748851e+03
-2.225072859561158111e+03
-4.146245082721675317e+03
-4.137224770903944773e+03
-2.635915141142435914e+03
-2.076397291183470770e+03
-2.801711121964882750e+03
-3.371909701987101471e+03
-2.462010839604061857e+03
5.360151520970957790e+02
3.088154455706738190e+03
2.932406488607417486e+03
2.231720309743241614e+03
2.685094667740274872e+03
2.247453435213985813e+03
8.896966942165720411e+02
-4.812317789960478649e+02
-1.290261338100259536e+03
-1.689237797867408062e+03
-2.565231217684072817e+03
-3.484346631857679313e+03
-3.089532966291929824e+03
4.728522470654230148e+01
2.312066382225777943e+03
1.663763811280145092e+03
-6.866939655375322218e+02
-3.957247434388671536e+03
-6.942840318618234051e+03
-6.794540693589513467e+03
-5.159319202436008709e+03
-4.514150944058473215e+03
-2.991125636371440123e+03
-1.152298812078196988e+03
-1.123562701946083962e+03
-1.036034433375168419e+03
-2.118434559923880727e+02
1.719436103721083953e+02
4.043618476836222158e+02
1.177490688215686077e+03
2.210336777404191253e+03
2.480023320338416852e+03
1.623621007478153388e+03
3.951075785123157971e+02
3.255309563349416635e+02
-5.160576107718451340e+02
-1.290703036360415354e+03
-3.106245216771895343e+02
2.039087237945018387e+03
3.659701540433373793e+03
3.979369459373744121e+03
3.495786426160925203e+03
3.325754631168844753e+03
3.924170544897951004e+03
4.163929250444653007e+03
2.905065060303187693e+03
1.847733042397012468e+03
1.095923884959115185e+03
2.935233309636789159e+02
2.963841240804916879e+02
7.444509736917360669e+02
1.481681453478916865e+03
1.880142534312259158e+03
2.352911049931110483e+03
2.671811649844203203e+03
2.602851892012715780e+03
2.991060513583974171e+03
3.070469028502997844e+03
2.788077444400815693e+03
2.079804837835880789e+03
1.426760384473747536e+03
1.899175692060940492e+03
2.915117031103934551e+03
2.728808266374469440e+03
1.427537431909426459e+03
1.841953461358051527e+02
3.253447163204179446e+02
7.145399655232832856e+02
3.878571478112295949e+02
-1.536432691967610964e+01
-1.270741416380780265e+03
-2.371111851082769590e+03
-1.897432524825029986e+03
1.681624477581667634e+02
1.017514966641093906e+03
1.871796656013293386e+03
2.715294130491012766e+03
3.054778905381677760e+03
3.122735918022258829e+03
3.653916923438766844e+03
4.061583427913079504e+03
4.313993487155974435e+03
4.649661862845056930e+03
3.947596790555463940e+03
3.214526064589918406e+03
2.465324329996035885e+03
2.460886241698206959e+03
1.126033869237555564e+03
-1.027181917098573194e+03
-4.409473983370958194e+03
-8.029215617031907641e+03
-8.568498544817412039e+03
-8.404847892435653193e+03
-8.124932758695843404e+03
-6.641838985656070690e+03
-5.482683254025540009e+03
-4.948363697142843193e+03
-4.299945634734741361e+03
-4.665660200008469474e+03
-4.360074090183949920e+03
-4.901992179483430846e+03
-4.463888344049242733e+03
-3.642575114025861694e+03
-3.252107014984215994e+01
2.134002748774444171e+03
1.725993806280017225e+03
-2.788142988057286971e+02
-3.569132047659355067e+03
-3.853028785558726668e+03
-1.128878402671417234e+03
-1.362109677388730006e+03
-3.931622131924459609e+03
-3.905145989122518586e+03
-3.831910733589287247e+03
-3.390955032880082854e+03
-3.038299389687480925e+03
-2.957979722780211887e+03
-2.341228292807142225e+03
-1.538438051324590106e+03
-1.503188450258197918e+03
-2.133257075807632930e+01
3.189397085725253419e+03
1.671470881338046865e+03
-4.859501685273582439e+02
-1.235077110901506103e+03
1.418243729062276088e+03
5.004505158086066331e+03
5.088166692202976265e+03
4.175647885996139848e+03
3.789730380967253950e+03
3.088866374604351222e+03
2.652740887667848256e+03
3.436876401968863320e+03
4.126326959872075349e+03
3.784633650967936319e+03
4.009614712893805972e+03
4.991374194654732491e+03
5.382205594516013662e+03
5.430707629947712121e+03
5.324902840379601002e+03
4.339515320802488532e+03
3.929162451124142081e+03
4.313541971525928602e+03
5.131328703109792514e+03
5.522901116308880773e+03
5.937284615966850652e+03
5.647071821913159511e+03
4.398605975069392116e+03
3.031823850876206961e+03
2.150856758046792493e+03
7.868037153111838506e+02
-2.572027784165426965e+03
-2.620380098498998905e+03
-3.862092956371332548e+03
-1.959696363243030191e+03
-1.792713634938783343e+03
-4.197510078140507517e+02
1.957775059743778911e+03
3.135655496491063786e+03
3.225986985303661186e+03
3.173127733304914727e+03
3.737936159565543676e+03
3.688770161336130059e+03
2.850566792353698929e+03
1.683028505613944390e+03
7.384467225868518199e+02
3.714673039304133226e+02
6.083771554771180945e+02
9.886617246691894252e+02
1.987700392202582862e+03
2.124250524333842350e+03
1.724409962374802717e+03
2.337726872820602694e+03
2.849289147330595370e+03
2.681395799564176741e+03
2.034238486360504339e+03
1.186519825840953899e+03
4.491502203625196330e+02
9.419371465735998754e+02
1.246022325075189883e+03
6.785023424278575703e+02
5.844600771624916433e+02
1.549813033958999426e+02
-1.657673667410550024e+03
-2.725274749923013133e+03
-3.168867527115715347e+03
-3.116465063925790673e+03
-3.017052208560137387e+03
-3.977543985887746203e+03
-5.212720782996187154e+03
-5.332331765938325589e+03
-5.563146722387683440e+03
-6.727849974734661373e+03
-7.811296449220271825e+03
-7.483310652579885755e+03
-5.842511321846119245e+03
-4.691882159022009546e+03
-4.301510991367636052e+03
-3.526395704444057174e+03
-1.670566539256655460e+03
9.688612354680115057e-01
-1.196433739661249263e+02
-1.448253670389248555e+03
-2.634584489575239786e+03
-2.598383629803095573e+03
-3.433411971017622818e+03
-6.142348470834651380e+03
-6.653183647678883972e+03
-4.503142279909155150e+03
-2.864248649914354701e+03
-3.610472527952766541e+03
-3.194673104403825619e+03
-2.673644463037452624e+03
-4.642230860218473936e+03
-2.745273997901914754e+03
-3.071602611837786299e+03
-5.598921279015407890e+03
-6.993408584203588362e+03
-6.919830816213308026e+03
-6.647040814346292791e+03
-6.719962804807933026e+03
-5.952529178283606598e+03
-5.837639217434248167e+03
-6.496167542007673546e+03
-7.787848494343095808e+03
-7.702585944433181794e+03
-7.065300861183657616e+03
-8.170861399484860158e+03
-6.503172943498663699e+03
-5.199104370258544805e+03
-3.811643943649147332e+03
-3.255791529287455432e+03
-2.515342247304401099e+03
-9.872076953984148986e+02
6.646498874566979111e+02
1.707388087496574826e+03
1.636113346071290380e+03
3.608150180638299958e+02
-5.424717814586936129e+02
1.013598618790347530e+02
2.166373658248815900e+03
2.863519739490878692e+03
2.925897858844040911e+03
2.753474336342870629e+03
2.048309032087523974e+03
7.493766364490314800e+02
-8.694365498042837999e+02
-2.159051729473964315e+03
-2.720457464627280842e+03
-2.786644555088965717e+03
-2.135574544044791764e+03
-9.772722031977426695e+02
6.253266407316091957e+00
1.078092731606568577e+03
1.855270573545900334e+03
2.666677046481167508e+03
3.417037550851908691e+03
3.536036723604736380e+03
4.308683860707367785e+03
4.928230760675172860e+03
5.111720287534336421e+03
4.460932806784182503e+03
3.041836980016017151e+03
2.137447152455114065e+03
1.482585983139159907e+03
1.351000952418707357e+03
9.333291152203254342e+02
-9.864642279910998468e+01
-8.621326721979880858e+02
-1.180085180149314965e+03
-1.013786190711876429e+03
-2.494701481104569609e+02
3.179821301170158563e+02
1.682669596005058793e+03
3.081479288036891376e+03
2.759227889134922407e+03
2.851443176749738086e+03
4.333820643599921823e+03
5.535157574908709648e+03
6.015259524792772027e+03
6.154894190862180039e+03
5.458757313580392292e+03
4.795390623942215825e+03
4.298443647861894533e+03
3.162685800422449574e+03
1.455908014094768532e+03
-9.232604499573142220e+02
-2.651163736854544368e+03
-3.323054100494739032e+03
-4.113114933973620282e+03
-3.584534038446686282e+03
-1.534710952406976048e+03
1.137135848299405552e+03
2.810709333241651620e+03
3.949555662568454409e+03
7.240221743563417476e+03
1.278545485222106072e+04
1.578403996140506570e+04
1.700673134678061979e+04
1.707817698314596419e+04
1.680000057195757108e+04
1.690291717613062792e+04
1.799274783100484638e+04
1.951216831906969674e+04
2.009184177916510816e+04
1.948947444738205741e+04
1.817873722406804518e+04
1.614526549043981322e+04
1.585870756967599664e+04
1.636874404089609925e+04
1.519604761952076296e+04
1.391134460248311007e+04
1.275537922716314461e+04
1.032981903737079119e+04
7.735482578049566655e+03
4.008127928510046786e+03
3.953928701902230358e+01
-2.257522213823569928e+03
-3.587410903858855818e+03
-2.827386981102250957e+03
1.962361410281589770e+03
6.710610698345156379e+03
6.619212224316762331e+03
1.869068990456873394e+02
-6.802538478757386656e+03
-1.123822454359196672e+04
-1.227240497278324438e+04
-1.131025437592137314e+04
-9.173954451677971520e+03
-8.478812746432908170e+03
-9.431164107523112762e+03
-7.757071853178887068e+03
-1.101692755091549770e+03
3.933832517006609578e+03
2.729440717952245905e+03
-2.367932217115143430e+03
-4.707423239966425172e+03
-5.278127289920013027e+03
-1.518207875438797964e+04
-2.840030127146033919e+04
-3.453085279823304154e+04
-2.950977353987775859e+04
-2.394814319697555402e+04
-1.847015772300568642e+04
-9.419316876848706670e+03
-8.004657181634051994e+03
-1.294597261112570050e+04
-2.036130747731232259e+04
-2.270375528563067201e+04
-2.163229436609918412e+04
-2.150223042202307988e+04
-2.250535067024449745e+04
-2.244037435468284093e+04
-2.406916984373972082e+04
-1.497001215979301014e+04
3.691529008357797920e+03
1.622241704275112534e+04
1.063594165870637153e+04
5.859413203216751754e+03
7.716846264148818591e+03
6.950012409115694027e+03
-7.592883083764329967e+03
-1.291959569686757095e+04
6.393528245548754967e+02
3.073470173473481282e+03
1.063021763973826182e+03
4.205601612517949434e+03
9.025432834808780171e+03
6.473479859271451460e+03
5.216635709380235539e+02
-5.459953553197324254e+03
-1.142682771941273313e+04
-2.026704157096351992e+04
-2.198508336081392190e+04
-1.560238826479277486e+04
3.640969013721426677e+02
1.021678179676961190e+04
1.009189001084090887e+04
1.940503078493167550e+03
-1.987862084326276454e+04
-3.579601798039635469e+04
-3.876627413915760553e+04
-3.509051991215885209e+04
-2.328428274325222446e+04
-2.266005857100964022e+03
2.262871847470632201e+04
4.795620800594819593e+04
6.233483898753939866e+04
5.921402192910960730e+04
5.729597372507430555e+04
5.000504777945696696e+04
2.472873188148930785e+04
7.519380413108039647e+03
4.457291522986377458e+03
-1.569076226052419543e+03
-8.132244663556833075e+03
-6.431777407032828705e+03
-1.079922175451388830e+04
-2.176821424659363402e+04
-2.570639703944093344e+04
-2.590642161128609587e+04
-2.736278342001556666e+04
-3.577208513058016979e+04
-4.096191110467971885e+04
-3.392380501402875962e+04
-2.084536592779654893e+04
-1.720291510311282082e+03
1.017980264182116298e+04
1.049247097419316742e+04
5.441927211171225281e+03
7.280630310639910022e+03
1.287768941534167789e+04
9.604532952113100691e+03
3.772391490032513502e+03
9.644524013360642130e+03
1.459232439954343681e+04
2.096623001856476185e+04
3.271755888850710471e+04
3.360856519346712594e+04
3.265861075245298343e+04
3.066405303422232464e+04
2.099620028805219772e+04
1.273233567633921666e+04
6.922692077113749292e+03
7.027494296126713380e+03
8.294958500820928748e+03
4.160218397699053639e+03
3.194512769697787007e+03
8.470080497744611421e+03
3.367024386770779984e+03
-2.356476202855517840e+03
-4.917203286190040671e+03
-2.885900046774910606e+03
-2.863248315439615226e+02
-1.352307224874195981e+03
1.025226426028260448e+03
1.286390418602306227e+03
-2.066596660687374083e+02
-1.775828382595306948e+03
-2.179009016986435199e+03
-1.402059948359878263e+03
-9.880033809386341090e+02
-1.675817361702832159e+03
-3.065484427790248446e+03
-4.861013237969335023e+03
-7.801312245575652923e+03
-1.107130900648609895e+04
-1.367610602940674835e+04
-1.427570573436334053e+04
-1.349503717585514460e+04
-1.121222816448720732e+04
-6.030518029500958619e+03
-1.444052200426074933e+03
1.690118932704448753e+03
2.961930524993644667e+03
1.421267171348199781e+03
-1.663095300023026311e+03
-3.718323099184851799e+03
-3.850429099687883081e+03
-2.032476986350870902e+03
-1.917044260987360076e+02
1.339584819444205323e+03
4.908471222038988344e+03
8.936396262652067890e+03
1.089862802704593378e+04
1.126265505668607148e+04
1.047425040119691948e+04
9.855170645499547391e+03
9.094239056428044933e+03
8.373209386595850447e+03
7.776925109812933442e+03
7.355861136902667567e+03
7.221258800446526948e+03
7.483669190210441229e+03
8.386610195612334792e+03
8.869056988129404999e+03
8.632808145113602222e+03
8.236588135028252509e+03
7.573768465980495421e+03
6.826261643627613012e+03
6.629835091860903958e+03
6.170210999547208303e+03
5.309977887688596638e+03
4.525791886758922374e+03
3.848545522307636020e+03
3.452740479516193318e+03
2.928787085168868543e+03
2.366195204835120876e+03
1.401694699521186976e+03
1.049018719347681952e+02
-4.046402964303972567e+02
-4.463324040232602670e+02
-6.605326988221323745e+02
-6.975197706168688683e+02
-4.154878517579705886e+02
5.042586391140480373e+02
9.773010159299858515e+02
8.682053506239224134e+02
1.447775579028036191e+03
9.448019879166494093e+02
9.239561630180338625e+02
4.448682019991572361e+02
-8.097297858011339713e+02
-1.806078970474597782e+03
-2.677438685649945000e+03
-4.638256779979762541e+03
-7.811973990794569545e+03
-9.926920197438208561e+03
-1.032244288801599032e+04
-9.617793383859761889e+03
-9.089294865783453133e+03
-9.174259305454217611e+03
-1.061600208299158294e+04
-1.309774767813299877e+04
-1.472371890125290520e+04
-1.464619608079525278e+04
-1.333641517317754733e+04
-1.213457757174450308e+04
-1.047781987290161851e+04
-7.730256522953995045e+03
-5.356095121959566313e+03
-3.697550320232404374e+03
-4.509859606385426559e+03
-7.308217542746756408e+03
-1.204073085665773215e+04
-1.373256537828136243e+04
-1.395088851895995140e+04
-1.533989832601375929e+04
-1.586583766937830114e+04
-1.477081150343348781e+04
-1.407394524639456540e+04
-1.351544854922668492e+04
-1.349134551892881063e+04
-1.277277147461785717e+04
-1.232991353783528211e+04
-9.898773308645042562e+03
-5.804370361152025907e+03
-3.182733177708455059e+03
-2.780797101079438107e+03
-2.694604633394424127e+03
-2.486162336379329645e+03
-1.488400106510683145e+03
-9.313000927899782937e+02
-6.967805125206346020e+02
-7.248383726846873287e+02
-7.295499816429578459e+02
-7.189174869062200912e+01
2.540367653166851198e+02
7.130976069559917505e+02
1.088238720987298620e+03
1.293607189514648098e+03
1.344326171897878339e+03
1.850273453304579107e+03
2.550345576465581871e+03
3.318722486851948361e+03
3.831546134050539877e+03
4.351056399037726806e+03
4.998369087077668155e+03
5.786518807633542565e+03
6.371590667186344945e+03
6.700729049056561962e+03
6.954038794197201241e+03
7.670731354015802026e+03
8.218093113532044299e+03
8.635348508745124491e+03
8.587549631405106993e+03
8.202734287135726845e+03
7.841268945096422613e+03
7.363384590129900062e+03
6.516212518140488100e+03
6.493081103729618007e+03
6.414202577183928952e+03
6.383823733535119572e+03
6.499278087887532820e+03
6.427669177337618748e+03
7.000155677447644848e+03
7.272831360889439566e+03
6.280572016437498860e+03
5.840570714307471462e+03
6.133385074617304781e+03
6.598643176670593675e+03
7.960741045879360172e+03
8.732776831318184122e+03
8.758701023423738661e+03
8.643583218814752399e+03
8.253530884737434462e+03
7.461813178998214426e+03
6.834668050099571701e+03
6.103160561152876653e+03
5.295996521818909059e+03
4.730289423839052688e+03
4.459719903838136815e+03
4.212811942541479766e+03
3.832605281485044998e+03
3.932246963288685492e+03
4.920732609228182810e+03
4.964760507225482797e+03
4.876182872220663739e+03
3.874344807796842360e+03
7.722328435595908331e+02
2.585985272083451491e+03
2.967386452478366664e+03
4.145965724088378920e+03
3.437370097155769599e+03
3.648109129513393782e+03
4.440035593338474428e+03
4.129854461979385860e+02
-9.618546306554796956e+02
3.128239477306921685e+02
2.170092627318881568e+03
-6.349041784693181398e+02
-6.960304348435757902e+02
-2.385173155065410356e+03
-3.317044587680562017e+03
-9.941606584533735713e+02
5.577000448110412663e+02
5.932383682040917847e+02
2.207684980343950372e+02
-2.200366551381998761e+03
-3.514597415592797461e+03
-3.182454952997481087e+03
7.918987742844122977e+02
3.609188305592854817e+02
-3.526798997034345575e+03
-1.191437506493754199e+03
-5.963769204704847198e+02
-2.838217964100457266e+03
-1.358772405443577327e+03
-4.924904710157793488e+03
-6.680205342211615971e+03
-4.450124920055985058e+03
-5.011211499412211197e+03
-5.238361764723422311e+03
-5.245376048406651535e+03
-6.378587372073222468e+03
-6.974237373411890076e+03
-7.427878567242095414e+03
-6.029576576277546337e+03
-7.335286927158353137e+03
-5.515653725912774462e+03
-3.961425058482429449e+03
-2.821535061598836364e+03
-1.920792159594557916e+03
-1.447821107896513695e+03
-4.032737868093587394e+02
-1.880086945188335505e+02
-4.171210332053552747e+02
-5.230533875088061677e+02
-7.000623666223656301e+02
-1.410389572821515003e+03
-1.996917841882604989e+03
-2.004461158057357352e+03
-1.740012771839933521e+03
-1.867773552643314588e+03
-2.185205741933760692e+03
-2.355065549151050163e+03
-2.684723472921491066e+03
-1.880633593727814969e+03
-6.957991371909505460e+02
3.614876422789682806e+02
1.365073966359012047e+03
2.346853891434378056e+03
2.664060250859144617e+03
2.286494736311623456e+03
1.483502194878623641e+03
1.481660407469232496e+03
1.380604258282544833e+03
1.349380599676087741e+03
8.136638204862480279e+02
8.399788269611086378e+01
-2.875392657834709098e+02
-6.789703504842143502e+02
-5.735376352704447527e+02
-5.751732932926706781e+02
-5.947168980309282915e+02
-3.374959934382040956e+02
-6.729567043265028303e+01
-8.328226070491908217e+00
1.731184136063621679e+02
4.500085488439102051e+02
1.093107985077716648e+03
1.820823163056939620e+03
2.253978366061971428e+03
2.269077987083352582e+03
2.058953241909319331e+03
1.554948461667573611e+03
8.134058647686732684e+02
-2.947955535895602566e+02
-1.090710041890417870e+03
-1.317819772331390823e+03
-1.336131642835186312e+03
-8.402338320989997555e+02
-3.699655952076837480e+02
-8.930579036564840578e+01
7.280986099512211922e+02
1.690164856822894308e+03
2.081667564238449359e+03
1.852364394285930985e+03
1.727169987158710683e+03
1.880114219062870234e+03
1.757263055937752824e+03
1.511641153734340605e+03
1.711202163881159095e+03
1.818812810747634558e+03
2.213445220907616658e+03
3.147935592610284857e+03
3.072039272282383081e+03
1.967454762939148850e+03
1.377790498825769191e+03
1.072028998765984625e+03
5.781959023949024186e+02
5.112873762419900459e+02
5.714629311730022891e+02
4.837840486308075469e+02
4.681352550192263493e+02
1.643845429693814140e+02
-1.542642368456606846e+03
-4.462999486713072656e+03
-5.500720825579526718e+03
-1.539188401203444130e+02
1.062248783440147690e+03
1.586802749459482584e+03
2.222758207753391616e+03
2.772466958894605682e+02
-3.281411304654526617e+01
-1.514704037279010720e+02
-1.933701568931555812e+03
-3.710617848700172090e+03
-7.962670613910484008e+02
-2.524387993948231724e+03
-7.020957300313440101e+03
-7.493042549238800348e+03
-6.456737041729586053e+03
-5.111044420351789995e+03
-7.066962910847542844e+03
-6.943467118703165397e+03
-6.547479737905489856e+03
-6.447987757410438462e+03
-6.218944910994610836e+03
-5.419241246106826111e+03
-3.143792414682162416e+03
6.894110892261022627e+02
2.005342055682622686e+03
2.014038156821764687e+03
2.423499226102710963e+03
2.757834016486965993e+03
2.756218445262358273e+03
2.518650593554143143e+03
1.665056515844514934e+03
3.214912882570552597e+02
-8.900127356010651738e+02
-1.891537155956904826e+03
-2.690098457150174454e+03
-3.180556117647985957e+03
-2.997820803106631502e+03
-1.640854282187342278e+03
-2.154683419586457376e+02
1.893764835468598164e+02
4.916740639820116598e+02
1.190530222608760596e+03
2.846132365783083969e+03
3.533485552225845368e+03
2.921836551946854797e+03
2.622502903677333052e+03
2.327397673319203932e+03
2.634320998317306476e+03
2.857179867939287760e+03
2.565029423044981286e+03
1.785000585793608252e+03
1.491255517702947145e+03
9.829835534773491190e+02
7.141605268840240797e+02
4.447362307357568056e+02
1.516631082505511188e+02
1.805450489724621121e+01
1.399701316388399448e+02
5.463297199948054867e+02
9.200454047638789916e+02
1.231172596076802165e+03
1.079954897086597384e+03
9.886485980565165619e+02
9.424862638461186179e+02
1.120340928838942318e+03
1.195164276019818544e+03
6.331243469110895603e+02
2.862095081014019797e+02
1.010324296990185303e+03
9.875838818455180217e+02
3.137878913838701465e+02
-7.389451735346895020e+02
-1.802396301941275397e+03
-2.042500886987033482e+03
-2.285401535125989994e+03
-2.530999070063145155e+03
-2.288186361328590465e+03
-2.248024445633483538e+03
-1.883509236383525376e+03
-1.084617342788137876e+03
-7.173409841457194034e+02
-3.846589416754777062e+02
1.494191494499279997e+02
3.879087623202264581e+02
3.949075809586609580e+02
-6.548069637403918897e+00
-9.744334886100097037e+02
-2.262844976006415891e+03
-3.091820102652630794e+03
-3.514280228903912757e+03
-3.833164699017113435e+03
-3.091518299023927739e+03
-2.490327528645128950e+03
-2.538473361100647708e+03
-1.825952300028712443e+03
-1.366807498368282040e+03
-1.692053179045186198e+03
-1.486743323224113055e+03
-2.377843860341189099e+02
3.584470981273567247e+01
-7.589110038944809844e+01
5.980547879307553103e+02
1.078719290854440487e+03
1.696158731442951876e+03
1.507398593105701593e+03
2.076460484801265011e+03
3.109457580234221950e+03
3.506334848008589688e+03
4.168100900156202442e+03
4.473675571801485603e+03
3.493085203459173954e+03
2.918390794224098499e+03
1.872542549462585157e+03
5.975268645713777005e+02
-2.086592618727099762e+02
-5.080066747186344287e+02
4.135092330721777785e+02
2.010873364247149766e+03
2.096106596092443851e+03
2.419210553262305439e+03
2.576071851786879506e+03
2.246724047118607814e+03
2.262239227717221183e+03
2.822597953651313219e+03
3.432828714508712437e+03
2.944986614914279926e+03
3.550036927438386556e+03
4.131030677291189932e+03
3.602057548049815068e+03
3.488994666490762484e+03
2.782726251392473387e+03
1.670246431845738016e+03
1.211551347219271520e+03
2.855856492553303951e+02
-5.417405228114641886e+02
-1.083381797364351542e+03
-1.214441786108126280e+03
-1.726825535060113907e+03
-1.133395444388646183e+03
4.066148009527875615e+02
6.885518957762216132e+02
4.572198928912388851e+02
7.376913183296600209e+02
1.156871271761944854e+03
9.757030924993646295e+02
6.275631069133687561e+02
1.393274408942867922e+03
2.700624391436923361e+03
2.596492586763967211e+03
1.460148169930157337e+03
3.673108565063617448e+02
-8.988451718916472828e+02
-2.206090557682846338e+03
-3.035924991091632364e+03
-3.020391544284661904e+03
-2.803351949743902878e+03
-2.331280812475929906e+03
-1.847019436345093254e+03
-2.118355824710162779e+03
-1.664693542321985888e+03
-5.682430483290570464e+02
-1.155032473618371682e+02
-1.290185344289316163e+02
-1.077431961682591748e+02
-2.845583610394393759e+02
-3.671534967929271147e+02
-9.337722310879008774e+02
-1.705003100525214904e+03
-3.192912905562882770e+03
-3.528820565809098753e+03
-3.104791009888381723e+03
-3.035820103663771988e+03
-3.414899449498799640e+03
-3.453290606610883060e+03
-2.490937197229393405e+03
-1.041814409450715175e+03
-9.420547270743624040e+02
-2.146264444030146024e+03
-2.593991200287968695e+03
-9.533552159113426114e+02
1.028619312652511098e+03
2.733852148791804211e+03
3.643378891722443313e+03
3.327118524958749731e+03
2.189039362548441659e+03
1.499124068804679382e+03
9.963529379359234781e+02
4.874722600125973315e+01
-4.056691745539227441e+02
-2.288910746003471104e+03
-6.343046223508189541e+03
-4.911175527803113255e+03
-1.484339402782826937e+03
-2.244556901370664946e+03
-1.667878971044408445e+03
-2.645306064950843393e+03
-4.290863075524144733e+03
-4.024512664621059685e+03
-2.756332105653834333e+03
-1.483356911886630996e+03
4.773935677900753376e+02
-1.267026740812362959e+03
-5.645507480653520815e+02
-1.180097707668672683e+03
1.933294504916827918e+03
7.875223181382675648e+02
1.407552255472378874e+03
1.877394229795694855e+03
8.101215502242433786e+02
-7.112373350358855078e+02
-4.202758864666005138e+03
-2.940451893207325156e+03
-3.387279639253834375e+03
-3.276257371531622084e+03
-7.794119380924269080e+02
-1.005691995008803360e+03
-2.509908148069163047e+01
1.024350277181083811e+03
1.093699462787621087e+03
-1.370977779752372498e+02
-1.274016393801933418e+03
-4.319880739170504853e+02
2.576124377292097051e+03
6.188424096375822955e+03
5.588905184574652594e+03
2.210548561011860784e+03
9.524355139698038784e+02
-1.060351625401069214e+03
-9.019320389582854887e+02
2.916638102264723329e+03
1.126395364874730376e+03
-1.474586071868401859e+03
-4.263019183931128282e+02
5.712251016348723169e+02
9.819795492132170693e+02
7.319789452966425642e+02
2.613310054592410552e+02
1.030553028509092712e+02
1.050181498115427303e+03
2.989851951417702367e+03
4.084102693096603161e+03
3.501978916479282361e+03
3.485642608606693557e+03
4.132163975695938461e+03
4.217417641087257834e+03
3.266422841092166436e+03
1.844423769544075867e+03
1.590494996118601875e+03
2.119561780943857684e+03
2.190563794523665365e+03
2.226538273794364613e+03
1.529462561776446137e+03
1.132954027141751965e+02
-1.042905528198044294e+03
-1.916091430024272540e+03
-2.620060990781907094e+03
-3.297726910124522419e+03
-2.199017004988767894e+03
-9.582710170198004107e+02
-1.083412044561422931e+02
7.260119828440664946e+01
1.153905968759985626e+03
1.578920862215936495e+03
1.291608042617105639e+03
1.218086124129379186e+03
-4.356344962105535501e+02
-3.174336069526708343e+03
-2.607508518239874320e+03
-1.060793350435495540e+03
