2.781009366467443215e+03
2.633944096642367640e+03
2.472044849647892534e+03
2.044269785327919635e+03
1.452546670553520016e+03
2.578643579970592441e+02
-1.307724177183939219e+03
-2.024387536324270059e+03
-2.712253604929763696e+03
-3.086417410875624682e+03
-3.147132080736193075e+03
-2.959488986710310655e+03
-2.087306115298628811e+03
-1.059157117014458890e+03
4.938996946992689914e+02
1.798452092758327581e+03
2.109337654909161301e+03
1.115680817615529349e+03
-1.598512948710827459e+03
-5.839301473097847520e+03
-5.778717471838659549e+03
-4.469773123096767449e+03
-4.692430119184955402e+03
-5.720671494173940118e+03
-6.317452044366271366e+03
-7.231783172506946357e+03
-8.399761494586928166e+03
-9.248432521434955561e+03
-9.460823135626429575e+03
-6.211264995865217315e+03
-2.037310944892598627e+03
-1.117607754886286330e+03
-2.200046346511019522e+02
-2.117501543415539345e+03
-4.116255810202124849e+03
-4.682251050246462910e+03
-3.903361750741585183e+03
-8.166186942211265887e+02
-1.739192149529197422e+03
-4.393075152295094085e+03
-2.442134646768091443e+03
2.342667632592935206e+03
4.766339420620758574e+03
5.131834916351791435e+03
4.746188844867609987e+03
3.914269506675630510e+03
2.399089999530656769e+03
1.554643955335121063e+03
7.507504771506510224e+02
5.785024975965205840e+02
3.448499516797384672e+02
1.275577930949628040e+02
9.016244815692415386e+02
2.425116313328429442e+03
3.313950948097912260e+03
4.102098448571644440e+03
4.264696285169596194e+03
4.944915397856691015e+03
5.212634759969831975e+03
5.495881298823010184e+03
5.135685092067972619e+03
5.021078886459446039e+03
4.685111890832425161e+03
4.349827672502811765e+03
3.565256389252185272e+03
2.607440750871724049e+03
1.391363605181716821e+03
9.149637164438522632e+02
-1.089067397847768746e+02
-8.702828377412647569e+02
-1.121210405354969907e+03
-8.756929178419339905e+02
-2.756680799425982968e+02
6.599946841833866529e+02
1.964354677781898090e+03
2.805345239159396442e+03
3.218036929934185082e+03
3.654464976080715587e+03
3.709573667202962952e+03
3.072418487036403803e+03
3.030015245226178649e+03
2.910407303515677086e+03
3.080653075094111045e+03
3.142832758771770841e+03
2.368132397731740184e+03
1.425658716859034030e+03
2.593268816668587533e+02
-1.048247732939398247e+03
-2.174081877544094368e+03
-2.310572180236705663e+03
-3.054503550907912086e+03
-3.452474107384351555e+03
-2.393538481903286083e+03
-1.033642102829518308e+03
5.630382595074764822e+02
1.399468017199866608e+03
2.113638728614016600e+03
2.590670528621295034e+03
3.388547822710172568e+03
3.554236119974915255e+03
3.458773773493121553e+03
3.137272243170188176e+03
3.134735201636731290e+03
2.571156859267120126e+03
1.760565565630000719e+03
7.729320227647572210e+02
-4.947276517314774082e+02
-1.571422966251603384e+03
-3.009233742360037468e+03
-3.748327098333216782e+03
-2.892798199453075995e+03
-1.909594710426842767e+03
-9.976655202068067183e+02
-1.279611117689382240e+02
7.555655543555189979e+02
1.496847102269513016e+03
1.978998246809625698e+03
1.711023754253058542e+03
1.698016173592120367e+03
1.239948469272157809e+03
5.207216520639614146e+02
8.893574889878713066e+02
6.769766857530764810e+02
-1.044810516629603399e+02
-8.340001444696048338e+02
-1.275554675543679195e+03
-1.928202034881699319e+03
-3.243968294762051755e+03
-4.116932836536247123e+03
-4.734295896938108854e+03
-5.421183911139547490e+03
-4.132601819836432696e+03
-1.431475520026674531e+03
5.721989074384985088e+02
1.484295871426193571e+03
2.176741219659163107e+03
2.088590747058961369e+03
1.544935268024191373e+03
1.955754757833981103e+03
2.235003247428870964e+03
1.754470299405224978e+03
1.374987154213447411e+03
1.475693032102806001e+03
1.292655356590718839e+03
1.039689233790488288e+03
3.706497636104097069e+02
-4.265210436071300251e+02
-1.798913141514084828e+03
-3.259635090386067077e+03
-3.195908165778072544e+03
-2.061883280546672722e+03
-1.913576375609588240e+03
-1.341967833568003016e+03
-1.037165961336404507e+03
-5.661831850628097982e+02
9.440656366055515036e+02
1.506493954949920635e+03
1.190048359219969825e+03
8.987612775959353257e+02
1.069796075580561592e+03
6.730511756328191950e+02
4.111078694317261579e+02
1.660659276300458941e+03
1.897013062128002048e+03
1.015064908386278603e+03
9.003224238429015713e+01
-5.697695900023385462e+01
-2.842566497640517582e+02
-1.180104873902106277e+02
-2.602540511674989716e+02
-4.810536862666854745e+02
-9.075249865881321512e+02
-6.553745023028839114e+02
-6.068754769521610797e+02
2.856583287300870779e+02
1.683239162950974105e+03
2.078990556213146647e+03
1.327137769077577786e+03
5.857070776411591169e+02
1.078407008457200163e+03
1.299069010279726854e+03
2.346367872836170136e+03
3.841266536588307645e+03
3.523431389828235297e+03
3.176878504406957745e+03
1.480612840470940455e+03
-1.883776689809993968e+03
-2.794650003854001625e+03
-2.000913319327241652e+03
-1.172372731861346665e+03
-2.121181792244311737e+02
-8.353408321332236710e+02
-1.189101185244383714e+03
-1.431317541051885655e+03
-6.388097243286682669e+02
1.355613973553563028e+03
2.522225969893625006e+03
1.967345625469456763e+03
1.715905343194642001e+03
2.762741903120891493e+03
3.364811189584719614e+03
3.880286333734712571e+03
3.049345487666985264e+03
2.786792295873907278e+03
2.670418846076970112e+03
2.088354534832222271e+03
1.210619719044880185e+03
4.373811871778607383e+02
-2.741194240878397892e+01
-4.960211810328024171e+02
-1.009679268907009146e+03
-1.189523214091615955e+03
-6.534636087891442457e+02
4.725785239612263808e+02
1.464581995951486761e+03
2.225547561933037287e+03
2.127442174404349771e+03
8.633219175445137807e+02
-1.750795076171478968e+03
-5.368859611808939917e+03
-5.453763937031773821e+03
-4.095582995646099334e+03
-4.521151543968341684e+03
-5.907390657448540878e+03
-6.166349623285952475e+03
-5.748867955774150687e+03
-7.033956755622435594e+03
-7.875746063074126141e+03
-7.533496286139428776e+03
-4.884347518425624912e+03
-1.627266312337199679e+03
-1.969200481915052023e+03
-1.357085477485252568e+03
7.534573999470416084e+01
2.228154588583430723e+03
3.271421009258577669e+03
2.951976712102181864e+03
2.967573754270403242e+03
4.753404015917104743e+02
-4.254216684559881287e+03
-4.415877050157469057e+03
-3.827906263429917544e+03
-1.081331036338070135e+03
-3.135000966242047070e+03
-5.255683509802558547e+03
-2.408271038157397470e+03
2.950523433517932972e+02
4.683761212195871622e+02
7.232825016790739880e+01
-2.121400683350366592e+02
-1.079065091119376120e+03
-1.234826937266830555e+03
-2.002998817127035807e+02
7.108384287129300674e+02
9.927382549008884780e+02
1.777547391233315921e+03
2.597592139979384683e+03
3.015510976725530782e+03
3.431595604464695953e+03
3.200671847704541506e+03
2.851385080204050155e+03
2.446315064583114236e+03
2.546770591840295765e+03
2.863418334734831660e+03
2.905226384023713763e+03
2.342817520902601700e+03
7.992537585252448480e+02
-8.014312130141878470e+02
-1.797767922920189221e+03
-1.438602626936855813e+03
-9.671470379885863622e+02
-9.691849502194294246e+02
-1.090724970867293450e+03
-3.676468203880803571e+02
8.217686848784592257e+02
2.396854057458926945e+03
2.340792238002889007e+03
1.880655858810072914e+03
2.089696988170878285e+03
1.600774513341577176e+03
1.567993605384238208e+03
1.934336327602710526e+03
1.958780300473660873e+03
1.964440921003996664e+03
1.612390353703990741e+03
1.047513622558239831e+03
-2.909743264887563782e+03
-3.090547601096232938e+03
-2.347948764295417277e+03
-1.853820040125708829e+03
-1.800423337155863919e+03
-1.880465670743015608e+03
-1.351892697100217674e+03
-5.171953985183043869e+02
4.702932735763457828e+01
5.113816461036561805e+02
1.334646457176060494e+03
2.175642800877396894e+03
2.172938153183964459e+03
1.918284538666045592e+03
1.860877405589221325e+03
1.934302951625272044e+03
1.794608473883027727e+03
2.126127110993701990e+03
1.816089841806947106e+03
1.954227080235054700e+03
1.651381546257131049e+03
-2.117227553313879582e+02
-1.525485290844136898e+03
-1.615828311065823982e+03
-1.657986991695632014e+03
-1.827471127769475743e+03
-1.511049880506328009e+03
-5.117994818625977587e+02
-4.986178889878412406e+02
3.826379933597892773e+02
1.356024282049444082e+03
1.945002639830091539e+03
2.303410610077713500e+03
2.275694399014932060e+03
2.135890416390008340e+03
2.081470034269493226e+03
2.084340707817596467e+03
2.097635358769770846e+03
1.934906208916740525e+03
1.502514060496614320e+03
6.403589888553378842e+02
-1.619726337789620345e+02
-1.076319491832581889e+03
-1.402748888195068503e+03
-1.482161319632798950e+03
-1.645404966140659326e+03
-9.400534097113611551e+02
-1.574194779785106562e+02
2.162369992767863778e+02
8.646318789883882800e+02
1.221133309951794217e+03
1.307921361915230591e+03
1.280528381994654865e+03
1.398966924364786564e+03
1.679464586331323517e+03
1.606526115754198145e+03
9.023526115779308157e+02
-1.483959109923372807e+03
-4.310690650222476506e+03
-7.256836079893121678e+03
-8.264922173198656310e+03
-8.920973125592423457e+03
-5.183369882536077057e+03
-2.388815739280234084e+03
-2.219203745653798705e+03
-2.102986675932811522e+03
-2.258830789304391146e+03
-1.324768421150337872e+03
-4.195336213419377600e+02
-8.578379770867093157e+01
2.733673469745033344e+02
1.170394204826598752e+03
1.277454082700643085e+03
8.484894784114810591e+02
1.096647290361400337e+03
1.096220244194836823e+03
1.349437484720376915e+03
1.183346774337324860e+03
7.628922159652504433e+02
7.686626784755509334e+02
-2.046892657290555064e+02
-1.083006042265989208e+03
-1.690931377627146730e+03
-1.904296092713449525e+03
-1.959639011264472401e+03
-2.440201084390817414e+03
-2.666431352766829150e+03
-2.213250970336217506e+03
-8.519627831535162841e+02
-8.089986603544852528e+01
-2.065710648159441973e+02
-4.223614879098219603e+02
4.925498804932598773e+01
-1.740330444435619768e+02
1.211602445498689491e+02
7.915117324242801544e+01
-2.848818743140543575e+02
-4.530991355024829659e+02
-5.492906765210149160e+02
-6.534558411288273874e+02
-1.089008000511515320e+03
-2.055250363866564385e+03
-2.680921719372117877e+03
-3.327625762259203839e+03
-4.006900954499460568e+03
-4.532311330417759564e+03
-4.198848420195494327e+03
-3.246749524096077494e+03
-2.396864281409006708e+03
-1.220988162082200461e+03
-6.663654438694171631e+02
-8.066672690270025896e+02
-6.277954947889336381e+02
-3.981941691303509288e+02
-1.766243418479925538e+02
-3.076900614376631324e+02
-4.547202967201362753e+02
-6.405419062559952863e+02
-3.608632415675533593e+02
-3.574118802445229335e+02
-1.390085986503994036e+03
-2.578235684819077960e+03
-3.474608075715324503e+03
-4.373190570440323427e+03
-5.342445002348529670e+03
-4.632607695226671240e+03
-3.607203139933248167e+03
-2.577583868818411247e+03
-1.916018147428719885e+03
-7.796978764429846933e+02
3.614720360063938074e+02
-3.278124065485267806e+02
-2.291146936862534403e+03
-6.051059268686415635e+03
-8.125019898380254745e+03
-7.561206230576010967e+03
-7.198184400080823252e+03
-7.708910328672812284e+03
-7.560204951672591960e+03
-7.561375280934998045e+03
-7.501302302130563476e+03
-8.051972969872198519e+03
-3.699400497203092073e+03
-1.663961662698297687e+03
-2.825548842538576537e+03
-7.105850029602302129e+03
-6.859544659471658633e+03
-4.925772792042487708e+03
-2.707798098041084813e+02
1.828300189512843190e+03
3.294676027665152560e+03
-1.023556811219441101e+03
-6.748751641842271056e+03
-6.117320860060970517e+03
-1.152338395794089138e+03
2.611325258772810898e+01
-3.729981411727888826e+03
-5.591630978725771456e+03
-6.179181606806099808e+03
-5.081850392692163041e+03
-3.517735838708316351e+03
-3.886865965153676370e+03
-4.292269084609470156e+03
-3.913244194362385315e+03
-2.121908087436035203e+03
1.054332720999551611e+03
4.541724496668608708e+02
2.999650416411802325e+03
4.400854648882863330e+03
3.886667200152749956e+03
2.845780634213821486e+03
4.140002100817520841e+03
6.557114795713777312e+03
6.997023439213407073e+03
5.288493626318196220e+03
4.264170220397545563e+03
4.267789861956508503e+03
6.762081782756302346e+03
1.038075511064337479e+04
1.274160644150996450e+04
1.310940368961827880e+04
1.235385721832344461e+04
1.226663869213724502e+04
1.281636094905732534e+04
1.269060543812077412e+04
1.228909000472908883e+04
1.136245018545550374e+04
1.119776448540159799e+04
1.115109340374729436e+04
1.069369662280939519e+04
1.163629902056123683e+04
1.109014987685366941e+04
1.074081807553796534e+04
1.068316291549762354e+04
1.096589716641718405e+04
1.377833397963839707e+04
1.660538420928183405e+04
1.867102224580636903e+04
1.819806136778057771e+04
1.580910231026796646e+04
1.406653575609554537e+04
1.205901210177313624e+04
1.022653411035763020e+04
1.068081714580913103e+04
1.183257206135615343e+04
1.431156525651588890e+04
1.437653028059719327e+04
1.043002143315567810e+04
6.135090242413683882e+03
7.697058197019559884e+03
1.233508198527076820e+04
1.282931163632890821e+04
1.129342547624065628e+04
1.017605337709890955e+04
1.272504683022749850e+04
1.697850035697811109e+04
1.993802178780372924e+04
2.397652660295124952e+04
2.379775203785201666e+04
2.363143474327084186e+04
2.266739471179763132e+04
1.612858622958187334e+04
8.373864729458551665e+03
2.151986518653960957e+03
-3.782292962403691035e+03
-9.872101291919076175e+03
-1.450153229927693064e+04
-1.213673162511279224e+04
-5.677679978627182209e+03
-6.842629537694235751e+02
-5.653938095136905986e+02
-7.721123294474530667e+03
-1.422237575683607429e+04
-1.447318736861890648e+04
-1.543163712593190212e+04
-2.323777493021883129e+04
-3.312459884315517411e+04
-3.126808385641967470e+04
-2.240713442999646577e+04
-2.319075054192425159e+04
-2.761601720192668290e+04
-2.993489566684290185e+04
-3.369626214432858251e+04
-3.849002098075456888e+04
-3.646316888182640105e+04
-3.215573827335691021e+04
-2.726967220882188849e+04
-1.601163490470162469e+04
3.684661525498301671e+03
1.065435285940611539e+04
5.235706560444649767e+03
-1.980099066906388316e+03
-1.248284355782361126e+04
-1.045220709485302177e+04
-6.818054940019003880e+03
-1.813126758865224110e+04
-3.680663412194229750e+04
-4.691265329455189203e+04
-4.933729599324757874e+04
-5.072640916780952830e+04
-4.529080614312746911e+04
-3.478416145467396564e+04
-3.392317679149837204e+04
-3.852661545619058597e+04
-3.532722141186233785e+04
-2.651576522224247674e+04
-5.763947211896736007e+03
9.370549146696504977e+03
1.267611067574316985e+04
1.222224254476336318e+04
1.311636980419376232e+04
7.829965732406937605e+03
1.468377662108243385e+03
-2.525061235968740220e+03
-3.384034294228234103e+03
-8.177173328426049011e+03
-1.566622170764344628e+04
5.001974424365218397e+02
1.626760027709014139e+04
1.034037605189405258e+04
1.592381137281986594e+04
3.092227965175488862e+04
4.014513724998036196e+04
3.662676319756701560e+04
2.038950074717424286e+04
1.799780646172020397e+03
-6.037103342993580554e+03
-9.585777203233266846e+03
-1.018735076354486864e+03
1.709351531293938751e+04
1.226939752755628069e+04
-1.826643472715856888e+03
8.236802349927123942e+03
3.825912501439703192e+04
5.750075383261090610e+04
4.367496999719459563e+04
1.028807160753547032e+04
6.187450381428719993e+03
1.924349402860605187e+04
2.166453612981198967e+04
2.759487802882469259e+04
3.903878729734447552e+04
3.114462626842420650e+04
1.669670034714474241e+03
-2.533274423840263989e+04
-3.541132327584757149e+04
-2.919584404422118678e+04
-1.784595262668271971e+04
-1.003525022369936778e+04
-1.406845940025320670e+04
-1.182369489370879137e+03
7.303514209132838005e+03
6.195968600951226108e+03
3.538097525028141536e+04
6.905264004125505744e+04
6.893717666968057165e+04
4.755527946451677417e+04
3.353403123707617488e+04
2.470858022913097375e+04
4.460902986150077595e+03
-1.997091372799251258e+04
-2.874756299417879927e+04
-2.162310721012566137e+04
-1.341251168725522621e+04
4.722374178474195787e+02
2.362016609457812228e+04
3.623040062208804011e+04
2.930704600677675262e+04
2.171117239989263908e+04
2.540996838014891182e+04
3.095955045398619768e+04
2.647294487703586856e+04
2.270722621944028651e+04
1.691536370543507655e+04
7.370372434498450275e+03
1.705222842034351743e+03
3.232852962828662385e+03
8.151308854929426161e+03
1.899949645532573413e+04
1.977632844960705552e+04
1.170173533183070504e+04
-3.574431943088106891e+03
-1.688228461564605459e+04
-2.014490717829984715e+04
-3.159648927704908783e+04
-3.838930709465181280e+04
-4.263346777153577568e+04
-4.166700568352689879e+04
-1.869906762546887330e+04
-1.080781224314201609e+04
-2.720528455531881264e+04
-4.616663813280812610e+04
-5.552207773848104989e+04
-4.316575830796271475e+04
-1.236286466557939457e+04
1.123631554376853637e+04
1.937944580363063506e+04
8.702285522689497157e+03
-7.633968529072402589e+02
-6.868885725921620178e+03
-1.001646593205647878e+04
-1.044839250705583436e+04
-1.287888670724974145e+04
-7.536322229639786201e+03
-8.900743388166991963e+02
-4.802519110164575977e+03
-1.545902504958645477e+04
-2.733981289416938307e+04
-2.857405543727875920e+04
-2.340507372055460291e+04
-1.535115221960280542e+04
-8.965791166149518858e+02
1.084638780570911877e+04
1.205541651788048875e+04
1.555418922975391615e+04
7.458278583777143467e+03
-1.390723557835233123e+03
-3.238006854368141376e+03
-4.163962128773632685e+03
-5.864971529104058391e+03
-1.503347323280708451e+03
-1.404560722532473562e+02
-5.703812035444564572e+03
-5.177795756560698464e+03
4.421062554424733207e+03
1.322359547857632606e+04
1.113354586955925879e+04
2.598570375160093135e+03
-3.081601214477607300e+03
-2.149946576148365693e+03
5.510381702582000798e+03
1.116408536297867067e+04
9.632350421395698504e+03
8.921243768027852639e+03
1.048729728113858073e+04
8.510970235784132456e+03
7.512807110749206004e+03
6.511647988254715528e+03
5.016317033473976153e+03
-1.342104009991043085e+03
-7.758717776319031145e+03
-9.864624635582289557e+03
-6.322825944263884594e+03
-3.936773755055275160e+03
-4.998275926988701030e+03
-7.644538480378545501e+03
-5.578859873876519487e+03
-5.145784355151896534e+02
3.300745255330260079e+03
4.494289644384508392e+03
4.574250675876319292e+03
4.952962158171398187e+03
5.090515833002822546e+03
4.305057792257781330e+03
2.297288014630464204e+03
4.717812378951578012e+02
-9.379407980822177251e+02
-5.419385636716199315e+02
1.009495773558736857e+02
-9.104441506751121551e+02
-1.412604765505472869e+03
-4.221740137644143942e+03
-7.953036877665253996e+03
-1.000674885895594707e+04
-1.050698999083464696e+04
-9.832886377597695173e+03
-8.955480151918476622e+03
-7.910823183886689549e+03
-6.590189598842120176e+03
-4.694710473722665483e+03
-1.930324189141348143e+03
-1.069265865439273000e+02
1.177433540329231391e+03
1.804670604684957880e+03
1.777525339043841313e+03
2.552781194617504752e+03
3.697365914240239363e+03
4.475277057426177635e+03
4.734591000934745352e+03
4.086284484181592234e+03
1.865285572128420881e+03
-1.147372523214754665e+03
-6.590656266571458218e+03
-9.551480210957493910e+03
-1.020687855861840944e+04
-5.470864295340307763e+03
-1.521424570607027135e+03
2.933927954411635852e+01
1.560682507541795758e+03
3.604749353136893660e+03
4.685590129740449811e+03
1.017188979898858065e+03
-2.695670595218504673e+02
-4.395640303741272419e+02
7.212637817947592112e+02
1.553153668447648670e+03
6.333054036600105974e+02
-3.032548205114957227e+02
-1.419398126686917522e+03
-2.250004538868962300e+03
-2.727137719405671760e+03
-1.875808161404672092e+03
-2.024038651534753853e+03
-6.887621676422641031e+03
-8.838103748428178733e+03
-6.682244305846687894e+03
-2.068390895684005500e+03
-9.957223761556406316e+02
-3.718044308994320772e+02
9.207232779812673016e+02
-2.161028065502272511e+03
-2.745232330165926214e+03
-8.359009238062466238e+02
3.620107453210366657e+03
5.494750670663917845e+03
5.672429978378821033e+03
5.467173151285034692e+03
5.756162955251443236e+03
6.613021901035202063e+03
7.456144146536796143e+03
6.776660015805876355e+03
4.992676939323932856e+03
3.391431104064374267e+03
6.350529532193146451e+02
-1.921920346818194048e+03
-2.583776264089789038e+03
-2.186459696162254204e+03
-2.102553385254652767e+03
-6.562747620845568690e+02
1.482723361293178414e+03
3.524073579002728820e+03
5.148889169902820868e+03
6.337878904146198693e+03
6.475512515550692115e+03
7.042042410001597091e+03
7.448879389923728013e+03
7.398658666271306174e+03
7.211717681734927282e+03
7.206994759626248197e+03
7.174680055860579159e+03
6.792874095924875292e+03
5.013084156388693373e+03
2.582277707297829238e+03
7.285250509127790792e+02
-1.567998955876005311e+02
-9.225760766301615377e+02
-1.321101322847090159e+03
-1.422360900854321699e+03
-5.979604716940982598e+02
1.917576631710040374e+03
4.080624464773256477e+03
4.980172520743379209e+03
5.535103709421506210e+03
5.603275956251683056e+03
6.243195344615419344e+03
6.767328241563915981e+03
6.256892291084559474e+03
5.989351432572188060e+03
5.772168968852922262e+03
5.512152804289052256e+03
5.149396058585089122e+03
3.472275047871919014e+03
1.131406838060365544e+03
-1.389336124289043482e+03
-3.564926698326870337e+03
-4.770517681796929537e+03
-5.483717040731525231e+03
-4.417953219456710030e+03
-2.994711173832121858e+03
-1.786729505272934603e+03
-3.350538322255198409e+02
8.351158440498498976e+02
1.162235568210994188e+03
1.097680439653118583e+03
9.424881902704839831e+02
1.034380732006546623e+03
9.519848553458332390e+02
7.373683466584989219e+02
-1.454056905489354961e+02
-8.261273126961788194e+02
-1.387826619099806976e+03
-2.483273831803058783e+03
-4.199858607799286801e+03
-6.303132959042586663e+03
-7.564305588853457266e+03
-7.845369856021985470e+03
-8.124334618765814412e+03
-7.811535801280282612e+03
-6.979963075127217962e+03
-5.734374355547864070e+03
-3.354601586905355362e+03
-1.858230320682394449e+03
-1.361682319203526959e+03
-9.968707181058084643e+02
-2.816028297159322165e+02
-3.432182382167904677e+01
9.464262622378956280e+01
-6.090137106612410207e+02
-1.264851862384154856e+03
-1.840336578334295837e+03
-2.063347646535779404e+03
-2.992449309594418992e+03
-5.022536115430649261e+03
-7.113825437574501848e+03
-8.580863464868763913e+03
-1.080144012817732983e+04
-1.457864009565971173e+04
-1.600687114226632912e+04
-1.067698021313323261e+04
-8.610192329688838072e+03
-1.035600067780797326e+04
-1.421427771003829730e+04
-1.325659427285016682e+04
-1.224189257390673811e+04
-1.147930923797749347e+04
-8.032944789857876458e+03
-4.903562433263567073e+03
-1.230344786220097149e+03
4.228677606874193771e+02
7.599443435696967981e+02
9.407465285896784053e+02
1.366201483048184002e+02
-1.022509103515855827e+03
-2.190124601747777888e+03
-3.040594206368439700e+03
-3.123598530167496392e+03
-3.007977700107767760e+03
-2.367891116968457482e+03
-1.141339618890196107e+03
5.787926248435960730e+01
1.290147338613868442e+03
2.181954814636535957e+03
3.148266384635278428e+03
4.295725919492478170e+03
4.897160181434711376e+03
5.331127543373796470e+03
6.240293853463077539e+03
6.584388574756082562e+03
6.214243188839304821e+03
6.235157711842299250e+03
6.004528231243284608e+03
4.826197057188634062e+03
3.380111285028488055e+03
2.223265933792504256e+03
7.003664624133012921e+02
-3.504937186159742168e+02
-5.524661580692001053e+02
2.664762449873161927e+02
8.490077024006075135e+02
1.923778285119328530e+03
3.920168843417229255e+03
5.639364799867234979e+03
6.334483530233586862e+03
6.826526149413275562e+03
6.958031438504127436e+03
6.935181004920521445e+03
6.452932362049001313e+03
5.900120419810801650e+03
6.093582964479448492e+03
6.070575206837538644e+03
5.779621186054370810e+03
4.452629776583627063e+03
2.480381133686302292e+03
7.755807041330523361e+02
-9.936402555945741710e+01
-9.190971867163918887e+02
-1.322141764032323636e+03
-1.243896814075318844e+03
-4.859829229024419419e+02
4.466740181527226810e+02
1.839860252040912428e+03
2.906404826249692178e+03
3.048339486516403213e+03
4.179983952328210762e+03
4.490983996156040121e+03
4.426348202801246771e+03
4.634159374935002234e+03
4.317894229814574828e+03
3.396756257450490466e+03
2.389280561142049010e+03
-1.287846198680842690e+03
-3.602356067523352976e+03
-4.523368858611253927e+03
-5.409047503338033493e+03
-7.597772351098865329e+03
-7.019544460430887739e+03
-6.508865731635726661e+03
-4.252324555686526764e+03
-5.617880213534363065e+03
-1.594907651024294637e+03
5.626213794033449176e+02
9.105009335690398302e+02
-7.499216206643976648e+02
-4.905761586671059149e+02
1.115615385275586959e+03
4.186707895277570515e+02
7.779435832357972913e+02
6.006376036536460106e+02
2.444989391111498662e+02
1.940008813441537768e+03
-1.366800286326181094e+03
-5.396821910558835498e+02
-1.872491922821326170e+03
-5.013577189140831251e+03
-6.027240213139397383e+03
-4.261460741091354066e+03
-3.784153706468485780e+03
-3.746264162033495268e+03
-2.454780193458493159e+03
-1.481648857121741457e+03
-2.077579443142552691e+02
-7.149839352201244083e+02
-3.519233845563035175e+03
-4.341614095668222944e+03
-2.404359775556978093e+03
3.656129636781156478e+01
-6.046733993202781221e+02
-2.211758820493478481e+02
2.082150616276227993e+03
-5.465892041358614506e+02
2.105152499188091042e+02
4.322615278509012455e+02
-2.834638870730679514e+02
-1.259633511199244367e+03
-2.417318486723243041e+03
-2.695741621301160194e+03
-2.809024421453632840e+03
-3.022293372958637519e+03
-2.695573463163626911e+03
-1.652891558408954552e+03
-1.322213352514500286e+02
1.505390208706451631e+03
2.544911710923583541e+03
2.376438045002773833e+03
2.215994033981184202e+03
2.482432157999348419e+03
2.646742178992560639e+03
2.615941703582074297e+03
2.553112024041020504e+03
2.716498948008746538e+03
2.833948558424797284e+03
2.509199369559580646e+03
1.244780420490856386e+03
-7.954513534249233544e+02
-2.005727298920194016e+03
-2.118661523731211219e+03
-2.083120758560734430e+03
-2.755405468537845991e+03
-2.908227150693196563e+03
-1.617923522219943152e+03
-2.460770411754733402e+02
1.157862913174544929e+03
2.041026783067542965e+03
2.399433957693943285e+03
2.569887182222981664e+03
2.825758010864236439e+03
3.248703221428679171e+03
3.259841798620133886e+03
3.535640162551280810e+03
3.041288603288032846e+03
2.332141846164310209e+03
1.734958679878094927e+03
5.514342909089867817e+02
-7.825230027353721880e+02
-1.767177093285306455e+03
-1.930235656870764842e+03
-2.145858394975071860e+03
-2.297739855291310960e+03
-1.429143866699386308e+03
-3.911335314905684299e+02
8.248320954394354203e+02
2.242778428288206214e+03
2.626159077655419878e+03
2.910884287218131703e+03
3.128870857112518479e+03
3.921955098303620161e+03
4.850033025905395334e+03
4.533186089590175470e+03
4.078470681763139055e+03
4.005907960949599783e+03
3.358583472459492896e+03
2.914533608451390137e+03
1.780636468168114106e+03
1.987906822399346254e+02
-1.153043035420575961e+03
-4.589560362526447648e+02
-1.031324691536849656e+02
-1.876248895873669085e+02
-1.943921806908455778e+02
5.886093812296694523e+02
1.873433178068493817e+03
3.600011058438329201e+03
4.463437587001035354e+03
4.723746260299807545e+03
4.741955081514683116e+03
4.252055450530319831e+03
1.930975036009838050e+03
-1.589285682840545178e+03
-3.693607299192123719e+03
-3.962896465103230639e+03
-4.441146408737829006e+03
-4.368410879139493773e+03
-5.293702684783018412e+03
-6.365982952074573404e+03
-6.732308914547731547e+03
-7.360796880742545909e+03
-4.936598562507128008e+03
2.022043202358729559e+02
1.074701395575912102e+03
1.478976534177578969e+03
-5.185988236278542729e+01
-3.132798100948026331e+03
-3.384844613635413680e+03
-3.214972570564239959e+03
-2.722155714762529897e+03
4.326522855602077016e+02
-9.905204263243844025e+02
-3.329719242739571200e+03
-3.793868502778307629e+03
-2.950884694849870812e+03
-2.691662685613703616e+03
-9.651966219103877620e+02
2.830466954980450282e+03
2.703315643208147321e+03
2.035257406301111814e+03
1.711309874995082282e+03
1.496340581746734188e+03
8.871788750336401108e+02
1.233866937905934492e+03
2.085544752621219686e+03
2.544301163894030196e+03
3.175154847110174614e+03
4.249125215427214243e+03
4.683281033602428579e+03
4.933619351139594983e+03
4.870238500256514271e+03
4.722098553147082384e+03
4.467169340677264699e+03
4.643437985014264086e+03
4.661948126400949150e+03
4.469888605573190944e+03
3.898181703961440235e+03
2.851772475208239484e+03
1.196597342804325990e+03
-1.164165512036436780e+02
-1.176192011416080277e+03
-1.225753995575537374e+03
-9.242884668447256900e+02
-6.197796447099337911e+02
1.975625624099133049e+01
1.346348481864447194e+03
2.108969429658582158e+03
2.342676105360638758e+03
2.592545854332723593e+03
2.664670938803746139e+03
2.741034494555425681e+03
2.715583327287778047e+03
2.591244122696817612e+03
2.424033704436012613e+03
1.828061731823718219e+03
9.743187990773623142e+02
1.137754000000563565e+03
1.095432564915880675e+03
2.457908413630876794e+02
-1.289312713081715856e+03
-2.718472997501698501e+03
-3.413476909267049450e+03
-3.811059345499152187e+03
-3.726031430150924734e+03
-2.531770449752978038e+03
-1.429274433009392169e+03
-3.875318325268959825e+02
3.821971292831221376e+02
6.940636418046409517e+02
6.189118867533255752e+02
8.945352496204874342e+02
1.810955394282621683e+03
2.157202980505807318e+03
1.811282556686923272e+03
9.411365564883051320e+02
8.497280574058536331e+02
9.820593692639683923e+02
-3.418446005665595067e+02
-2.400081938539648490e+03
-3.250797294004921696e+03
-3.357074685251428491e+03
-3.174907205257462010e+03
-3.837419153277126497e+03
-4.514621727822176581e+03
-4.423550587644462212e+03
-3.394220581795755606e+03
-8.085739552761677942e+02
1.099406383217328539e+03
1.591635144190985557e+03
1.274167005524323258e+03
1.913149665388833228e+03
1.653453670818811133e+03
9.910636497310343884e+02
8.909918083653457188e+02
9.781914900851592165e+02
1.319642507323851532e+03
1.584438307201345651e+03
7.845441152037876691e+02
-5.991308483876979381e+02
-1.742749036890478465e+03
-2.501339081130879549e+03
-2.766974847944252815e+03
-3.009724370877179354e+03
-2.643568374616894289e+03
-1.524544775502311495e+03
-6.056541430407223743e+02
4.141650555301586678e+02
1.513944175506269858e+03
1.473719461262386176e+03
6.165138475871406172e+02
-4.227178164862327776e+02
-3.790317949043188150e+02
6.915205954336345258e+02
9.189937244947274166e+02
7.454740388961500912e+02
8.809484056167457311e+02
1.056366686760018638e+03
8.306838397716934423e+02
-7.381425939832632821e+02
-1.938137265668197188e+03
-2.398408742541766514e+03
-2.447006398083126896e+03
-2.638033391800535810e+03
-2.600488005356385202e+03
-2.133296235662543950e+03
-1.115558485306288048e+03
2.557765263424797695e+02
1.301866817113889510e+03
1.663639325018273212e+03
1.934062962886564264e+03
9.812434879557135901e+02
7.771379190529920606e+02
1.108866794886402886e+03
1.061292555158549703e+03
1.248379577054269248e+03
1.037353810666628760e+03
1.360337231940490483e+03
7.991316529901139347e+02
-1.405739135665641548e+01
-1.212007595429490948e+03
-1.642186843622926745e+03
-1.637948478388711465e+03
-2.358264763693211080e+03
-2.704012690172428847e+03
-1.815038709168478363e+03
-1.341876369856990721e+02
1.094341900242391148e+03
9.150936551832193118e+02
1.546129465199418746e+03
