2.663464270754682366e+05
2.857943732907503145e+05
3.074715844635128742e+05
3.216276651024899911e+05
3.231606389176176745e+05
3.186102984096905566e+05
3.131696387908399338e+05
3.049184203893463127e+05
2.926159927024500794e+05
2.744385523094341625e+05
2.566923369278980535e+05
2.372834562071850232e+05
2.166209210853359546e+05
1.963665396064983215e+05
1.777059168706641067e+05
1.616914789772056101e+05
1.490255477359807701e+05
1.368203022766561771e+05
1.250125922719435330e+05
1.157002562108154380e+05
1.079919065243009391e+05
1.006020530251599121e+05
9.185909205232249224e+04
8.176312613349326421e+04
6.885430904079653556e+04
5.581248151765823422e+04
4.219340943415015499e+04
2.917881953403057923e+04
1.643135302562998913e+04
5.327587949053236116e+03
-5.922190351245690181e+03
-1.966752083578779275e+04
-3.459511453121391969e+04
-4.859178960224764887e+04
-6.154966742868081928e+04
-7.420279508976370562e+04
-8.512217787473057979e+04
-9.217610422909884073e+04
-9.795490392644907115e+04
-1.054878305906761088e+05
-1.121163742751487443e+05
-1.166241378622644261e+05
-1.208047639046444820e+05
-1.260067648163775448e+05
-1.322125789794405282e+05
-1.373316818602585990e+05
-1.416009423670062679e+05
-1.451323622304851597e+05
-1.490776478546635190e+05
-1.522893567532182205e+05
-1.541021947880578518e+05
-1.563470631103953347e+05
-1.581706633032055106e+05
-1.593920080331844511e+05
-1.603902858869342599e+05
-1.605651694453270466e+05
-1.598169508528456499e+05
-1.590173101290368941e+05
-1.571419969522826723e+05
-1.549546877497879614e+05
-1.532091468254745996e+05
-1.511689947571104858e+05
-1.492650639829648135e+05
-1.482310064245042158e+05
-1.462816690031054022e+05
-1.434986136646513478e+05
-1.416191966857589723e+05
-1.386988161502474395e+05
-1.367087254052478238e+05
-1.352721236070949526e+05
-1.333721638444327982e+05
-1.321708161339132348e+05
-1.295679482383695140e+05
-1.246284422760760062e+05
-1.205220325774568046e+05
-1.173094048582027026e+05
-1.132952568251760968e+05
-1.091030128463839355e+05
-1.030559238779955340e+05
-9.703923276345797058e+04
-9.060117425217563869e+04
-8.207599124055317952e+04
-7.362077189994680521e+04
-6.385143508218167699e+04
-5.438871593577394378e+04
-4.296120206878706813e+04
-2.963754303902393804e+04
-2.209621463343689902e+04
-1.750750148824925782e+04
-1.000370358547110845e+04
-4.481839187766277973e+03
-1.864819355772580366e+03
5.893568985624509651e+02
4.737226782322488361e+03
1.063732207365334762e+04
1.668600181342353972e+04
2.163085522301674064e+04
2.748482281000608418e+04
3.397280055326828733e+04
4.067998696730152733e+04
4.671254283873293025e+04
5.197159898563227034e+04
5.680048143117380096e+04
5.881255914947202837e+04
5.831740249450245756e+04
5.903478013373124850e+04
6.059162404103768495e+04
6.199407998380178469e+04
6.137101759737215616e+04
5.994452805480961979e+04
5.860802149811926938e+04
6.063291352149680461e+04
6.337178086873688881e+04
6.924636037842041696e+04
7.297568692340710550e+04
7.319858698227834248e+04
7.410472474099801912e+04
7.682129516932999832e+04
7.745351198157064209e+04
7.755762717204056389e+04
7.578133412799857615e+04
6.977179970843723277e+04
6.260137310216177866e+04
5.916161792927859642e+04
5.886512374458231352e+04
5.891960459806235303e+04
6.005179269602886779e+04
6.153443316018318001e+04
6.237144635826932790e+04
6.324676265262510424e+04
6.416930008885602001e+04
6.448917352512195794e+04
6.412056236091101164e+04
6.381066196274469257e+04
6.424276018888760882e+04
6.444320264371769736e+04
6.397851440241251112e+04
6.369528554324192373e+04
6.308729327253816155e+04
6.147699130900823366e+04
5.999059723295032745e+04
5.913975032246230694e+04
5.903600454386497586e+04
5.927424041787521855e+04
5.827095688697246078e+04
5.632110058098368609e+04
5.369679799928991270e+04
4.976115159075991687e+04
4.629843371971628221e+04
4.471564236247271765e+04
4.431501800096458464e+04
4.275898284155738656e+04
4.045671956852661242e+04
3.828358949243517418e+04
3.574293291880927427e+04
3.375900882008290500e+04
3.202010614514862027e+04
2.965003092602389734e+04
2.687762728625169984e+04
2.444380231739500960e+04
2.188751534319514030e+04
1.956080485853910795e+04
1.687596936591738267e+04
1.338101848344156497e+04
9.178744912956573899e+03
5.637890713344684627e+03
3.080081527435376756e+03
1.820708871890809860e+03
-4.969111441507160265e+01
-3.454778094982812036e+03
-4.784382108440327102e+03
-5.688811150857991379e+03
-5.606464442642665745e+03
-5.909877385296448665e+03
-7.827663432325522081e+03
-8.302293300745826855e+03
-7.711303737635444122e+03
-7.915513493034902240e+03
-9.526894778501386099e+03
-1.037568391593042725e+04
-1.028203850309764130e+04
-1.131699635589891659e+04
-1.292097967303801124e+04
-1.578819200708333847e+04
-2.028502060971346509e+04
-2.301462428176075991e+04
-2.329634251039945229e+04
-2.359037861964037074e+04
-2.441162045060033415e+04
-2.385090042903510766e+04
-2.249451045706135483e+04
-2.083005228321520917e+04
-2.044954540919441570e+04
-1.985523473555616511e+04
-1.924292943503557763e+04
-1.974240612335291007e+04
-1.998044996839306987e+04
-1.919245304920134367e+04
-1.651321552723963032e+04
-1.615366142079486053e+04
-1.998582423209394619e+04
-2.152471897527004694e+04
-2.281282449987411019e+04
-2.458360840287667816e+04
-2.481427136496048115e+04
-2.447537380555368145e+04
-2.328613695014555924e+04
-1.897984907839300649e+04
-2.000475414431094759e+04
-2.623657177234158735e+04
-2.887074070205087264e+04
-2.850414760520317213e+04
-2.691248875697399853e+04
-2.580084869159947266e+04
-2.464301164488321592e+04
-2.029888604510041114e+04
-1.761234305100176425e+04
-1.781770020384130839e+04
-1.799247600218496154e+04
-1.761183428010386342e+04
-1.774393683620788943e+04
-1.751107367454953783e+04
-1.766766216774424902e+04
-1.827912870439670587e+04
-1.902763428375652074e+04
-1.962624080258100366e+04
-1.948095085263843430e+04
-1.975071994287234338e+04
-1.929210043929950916e+04
-1.851026403389164261e+04
-1.777984574237417110e+04
-1.764480920167352087e+04
-1.762558648798520153e+04
-1.757259735593178266e+04
-1.576771034788286670e+04
-1.313391938699582533e+04
-1.112486458109263003e+04
-9.692472316525529095e+03
-9.548440197107038330e+03
-9.626561875261311798e+03
-9.951210719371785672e+03
-9.972965281105751274e+03
-1.013711948895976639e+04
-1.063451085817679632e+04
-1.049002333912621361e+04
-1.032468995881656519e+04
-1.055899246107590443e+04
-1.232779346797691869e+04
-1.091276410588769613e+04
-9.650839697163864912e+03
-8.803348356372978742e+03
-8.646570006189336709e+03
-7.626664545090660795e+03
-6.788939216195248264e+03
-6.328128847560188660e+03
-5.370277639413031466e+03
-4.204121833144358789e+03
-3.461981862606595314e+03
-3.300098663385517284e+03
-2.453626540260354886e+03
-1.765762431904256118e+03
-1.437573182241490031e+03
-1.067304660912206828e+03
-8.217658296844811048e+02
-1.105409982260988500e+03
-1.614536440991089876e+03
-1.864109466749950343e+03
-2.206922794160152534e+03
-2.318598400494379803e+03
-1.982535419693380845e+03
-1.905948708790915134e+03
-1.362408820839338887e+03
-4.285924288099079149e+02
7.757203946029854968e+00
-1.549200623828588164e+02
-3.271928123343276980e+02
-5.417414275618173178e+02
-3.812327884468906518e+02
3.247803335245433232e+02
6.928682564008129248e+02
1.299571522524726106e+03
1.235549061399765151e+03
8.483395202630632639e+02
2.245955305081797633e+02
-2.882661090646791990e+02
-5.517906620136825495e+02
-1.611577571457262820e+03
-2.130018113273693416e+03
-2.215288872732193340e+03
-1.823748000328563876e+03
-1.070022888688855573e+03
-5.317295792613257390e+02
-6.033675023499791905e+02
-3.505534622228768740e+02
-8.510214658132181853e+01
1.572866114733508311e+02
5.050612834927677000e+02
7.094355098958333201e+02
4.025576794694042064e+02
2.996677764797273653e+02
2.212115991096245011e+02
1.095647728252221782e+02
-2.007134845116337374e+03
-5.089684358393741604e+03
-8.343969100621443431e+03
-9.387806794752365022e+03
-9.813007342556598815e+03
-1.057449677933675957e+04
-9.308096108730756896e+03
-4.579589656485702108e+03
-4.495874414811733914e+03
-9.315812709129728319e+03
-1.125519970853051927e+04
-1.118582893370718375e+04
-1.012358177631681792e+04
-8.473389814247228060e+03
-7.503992668342673824e+03
-4.653459983744209239e+03
7.902299591318119099e+01
1.339533054091137501e+03
1.990299759023372417e+03
1.650340793000341819e+03
9.906168806741688968e+02
1.262860132311967334e+02
-5.416216590424952528e+02
-1.584005951715794026e+03
-2.644708103408879651e+03
-2.856728210066996326e+03
-2.007107383243054755e+03
-1.911977790098310606e+03
-1.964406667491408598e+03
-1.886235967422197746e+03
-2.119225760680280473e+03
-2.373336866216863655e+03
-2.024567638047175478e+03
-1.444059213207048288e+03
-1.574771000788467518e+03
-1.592710131634792788e+03
-1.438059666179761734e+03
-1.521881498080647589e+03
-1.536298453390301347e+03
-1.181279897172829124e+03
-1.485005609421351892e+03
-2.642760812964305842e+03
-3.812208422303690440e+03
-4.300192582993778160e+03
-4.183964763918046629e+03
-4.492247231032519267e+03
-5.377690447262867565e+03
-4.959057693573397955e+03
-4.488269757556116019e+03
-4.525216539815421129e+03
-4.902526173958502113e+03
-4.136872925177267462e+03
-3.505054230241207733e+03
-2.860854394665143900e+03
-2.362073974026940505e+03
-2.331450431373816173e+03
-2.314695411548780157e+03
-2.381483807798672387e+03
-2.845202677039067567e+03
-2.978319225464579631e+03
-3.176695060324989754e+03
-3.597113987210145751e+03
-4.110057431464631009e+03
-4.507916717551897818e+03
-4.703075732977091320e+03
-5.426848521511484250e+03
-5.488124818076231350e+03
-5.989523323356690526e+03
-6.346832946773379263e+03
-5.650756753439450222e+03
-5.859871260644373251e+03
-6.154850561420619670e+03
-6.360495427990624194e+03
-7.283268244153161504e+03
-6.353737079243911467e+03
-5.374400047328518667e+03
-5.721499973010394569e+03
-6.611545220022389003e+03
-6.980403141636765213e+03
-6.904954188864247953e+03
-6.318936644813466955e+03
-6.049112078496454160e+03
-5.801265218425763123e+03
-5.825148347337133600e+03
-6.489550314766363954e+03
-7.301218424513568607e+03
-7.742889044463733626e+03
-7.462220592138155553e+03
-6.893938399400048183e+03
-6.839835575760426764e+03
-6.685601565633587597e+03
-6.318950534154440902e+03
-5.471757416641429700e+03
-4.586863690489981309e+03
-4.458006889300715557e+03
-4.073011683137147884e+03
-4.043754434296813088e+03
-4.343112212317229023e+03
-4.009967353369245302e+03
-3.338143433803593325e+03
-3.034565297992302021e+03
-3.509074359469539559e+03
-4.418446709773010298e+03
-5.039641638204740957e+03
-4.755792921436581310e+03
-3.360995843055998648e+03
-3.017154057835805361e+03
-3.225227876863477832e+03
-3.300270314083080393e+03
-3.737274838985788392e+03
-3.633315814320478239e+03
-3.098521268403376325e+03
-2.590942396396936601e+03
-1.805681178134025686e+03
-1.111935436168103479e+03
-1.898860921032441240e+02
1.451801857877701707e+02
1.830815550820120450e+02
2.085828298920838506e+02
3.875026491055296560e+02
1.055505932050331694e+03
1.805204872304704395e+03
1.745145518848418078e+03
3.153960713363977902e+03
3.602455070676171999e+03
3.539137419470548593e+03
3.707488110375786619e+03
4.212979235732478628e+03
4.596187897091210289e+03
5.039714217688703684e+03
5.831981915334517907e+03
6.738361982883254313e+03
7.884318616010946243e+03
9.092386103582610303e+03
9.653915921380814325e+03
9.684055563220992553e+03
9.831097235572957288e+03
1.078944470870513032e+04
1.077753615863229061e+04
1.119977891765408640e+04
1.206254965171947697e+04
1.255627482305789636e+04
1.323319622811673071e+04
1.367163914793486583e+04
1.379386907175923807e+04
1.382099049794291750e+04
1.360310503504013650e+04
1.353840787383892166e+04
1.395017836861261276e+04
1.439961652737855366e+04
1.524501681910692059e+04
1.556043213961551737e+04
1.588099125953658404e+04
1.636899724516163042e+04
1.724572865497235034e+04
1.808438001467349750e+04
1.884325507770585682e+04
1.916165989629119940e+04
1.954090359941321003e+04
2.019213998310454554e+04
2.067957705064484253e+04
2.122544062950400621e+04
2.153469505020634460e+04
2.168114483934939926e+04
2.133252164852610076e+04
2.040631004116732220e+04
2.020677305274192622e+04
2.110621333526788294e+04
2.185887539031103370e+04
2.223913225399720613e+04
2.182435948151368939e+04
2.219696257743998285e+04
2.346648904527265404e+04
2.403235193884477121e+04
2.382700699502894713e+04
2.407399865682096788e+04
2.476774813935435668e+04
2.553774177187301757e+04
2.570549808781854153e+04
2.546052415549337456e+04
2.450225420063397905e+04
2.313225010876042143e+04
2.211128107451879623e+04
2.103687761114493696e+04
1.970574916226710775e+04
1.861660539008488558e+04
1.705126431716303341e+04
1.479246590104195457e+04
1.189397137785885388e+04
7.312464313489826054e+03
5.240541753743103982e+03
5.019033501024364341e+03
4.800936872352594037e+03
4.651346411369120688e+03
4.299372174780329260e+03
3.762016917728134104e+03
2.268252776589740733e+03
9.792402288249454614e+02
-2.279033525368768665e+02
-2.666162144942953091e+03
-4.923347720915971877e+03
-6.503321543454590937e+03
-8.013701230991795455e+03
-6.707407546384721172e+03
-8.850161170138449961e+03
-1.295258002638020298e+04
-1.384614326459667609e+04
-1.492755893071969876e+04
-1.677425880043574944e+04
-1.801767980637160144e+04
-1.883439706644821854e+04
-1.824185291927755679e+04
-1.300940355230218483e+04
-1.276433711950802899e+04
-1.748401545039891062e+04
-2.146069905455858679e+04
-2.291854834179800673e+04
-2.492080843621732856e+04
-2.551478007533194977e+04
-2.479770085403411213e+04
-2.129070706367314051e+04
-2.020786361127542841e+04
-2.254323056244623513e+04
-2.620884659267039387e+04
-2.727663142013919060e+04
-2.871448840589270549e+04
-3.050543711945689211e+04
-3.218738489770338128e+04
-3.393624750173293432e+04
-3.601086166719756147e+04
-3.747506752664312808e+04
-3.851167223106035090e+04
-3.865063876601024094e+04
-3.802483158485058084e+04
-3.737502791055673151e+04
-3.735108761654103728e+04
-3.735471609020284086e+04
-3.637370747167660011e+04
-3.626682947382408747e+04
-3.701891530573903583e+04
-3.784076960085143946e+04
-3.752288507846833090e+04
-3.564484124616241752e+04
-3.343037740783711342e+04
-3.230941192834175672e+04
-3.196167096583640887e+04
-3.147786901794614460e+04
-3.053680214522491224e+04
-2.856219230870446700e+04
-2.568867434708058863e+04
-2.295600355303471588e+04
-2.088904904464316496e+04
-1.873341882308674394e+04
-1.674569330680117127e+04
-1.353174418069084822e+04
-9.973358417587232907e+03
-6.982596766751175892e+03
-3.664127861612473680e+03
-1.034618504487645851e+03
4.911508716252683939e+02
2.130496946656099681e+03
3.350339950224624317e+03
3.669662168344682868e+03
4.388647600015647186e+03
4.372018796557524183e+03
3.640235957751728620e+03
3.857469602771511290e+03
5.753985818188657504e+03
7.724559169757998461e+03
1.044241840135285929e+04
1.635555058556881886e+04
2.071390975558349237e+04
2.220298315833965898e+04
2.338539037201645260e+04
2.545522505552302027e+04
2.763497185137691849e+04
2.930938794999044330e+04
3.124892681500796243e+04
3.391717345747465879e+04
3.633372103134112695e+04
3.951511187623472506e+04
4.251976041470569180e+04
4.332602927238561824e+04
4.244026044435844960e+04
4.193082810383017932e+04
4.178619531181234197e+04
4.296074889361578244e+04
4.479480720070002280e+04
4.633641794379679050e+04
4.758571728110872937e+04
4.920061548935904284e+04
5.110918038395483018e+04
5.303277134517846571e+04
5.451446806380776252e+04
5.621138140309030132e+04
5.865051338140168809e+04
6.170864879300474422e+04
6.440670379516436515e+04
6.629141836801907630e+04
6.625432092943599855e+04
6.432913953952796874e+04
6.215950063224610494e+04
5.880785245950220269e+04
5.482765015079041041e+04
4.995615522092114406e+04
4.484700180183470366e+04
4.161351793237582751e+04
3.842899924852678669e+04
3.565662302045107208e+04
3.341970100382468809e+04
3.117756895552367132e+04
2.865056566207010474e+04
2.569069424604805681e+04
2.281957344522054336e+04
2.099539287300507567e+04
1.883432851800467324e+04
1.443409380119181333e+04
8.090818350277839272e+03
2.582433269350379305e+03
-3.048806017500402504e+03
-7.790896742547161921e+03
-9.431344338664212046e+03
-1.125463099094589961e+04
-1.172991259486294985e+04
-9.589148240647262355e+03
-8.691495287285357335e+03
-9.953855941894275020e+03
-1.105152336476008168e+04
-1.209850404558648916e+04
-1.255980391815621078e+04
-1.237379422894374875e+04
-1.215839505928513427e+04
-1.166308007432405793e+04
-1.188228917397138684e+04
-1.217651473732290106e+04
-1.225884517909136775e+04
-1.252589343320663647e+04
-1.220811888972546149e+04
-1.197275700016732299e+04
-1.243635871704531928e+04
-1.353338515517033920e+04
-1.469013725800864086e+04
-1.646435763174690510e+04
-1.804485330685443478e+04
-1.944659367210580240e+04
-2.054982202614744165e+04
-2.060527908015688445e+04
-2.011587579491798169e+04
-2.020204766205843407e+04
-2.095091217845417123e+04
-2.180449790494664194e+04
-2.270793411395776275e+04
-2.351793396105500506e+04
-2.365613611800481885e+04
-2.307071499140595552e+04
-2.239702112611129996e+04
-2.285448265192992403e+04
-2.322970798823939549e+04
-2.329930716397532524e+04
-2.347544377323835215e+04
-2.411356054631578445e+04
-2.485045227515529768e+04
-2.530056893304481491e+04
-2.575832914253366107e+04
-2.639986168568374342e+04
-2.671796643608227896e+04
-2.642334491437474935e+04
-2.606308335423929020e+04
-2.524561714502990435e+04
-2.416801779300924318e+04
-2.301120031506589294e+04
-2.168222579960284929e+04
-2.095719171375618316e+04
-1.984939488837897443e+04
-1.941524551245114708e+04
-1.885667322392708957e+04
-1.852213538763531687e+04
-1.832583424467287841e+04
-1.827561903662588884e+04
-1.893396596202231740e+04
-1.907368276760530352e+04
-1.838198984772348558e+04
-1.826271013174116888e+04
-1.787698584464508531e+04
-1.681301069277598435e+04
-1.597744986384016556e+04
-1.428916126602373333e+04
-1.206414532679497279e+04
-9.610865334149939372e+03
-6.612829664547825814e+03
-2.957090347118901718e+03
-7.538221890677414194e+02
-4.932572693412666354e+02
-5.220757203731773188e+02
-1.301058971424013407e+03
-4.187585039066223544e+03
-6.162465140006986076e+03
-4.614334722575720662e+03
-3.507227592428591379e+03
-2.262151432987613134e+03
7.505710298272571208e+02
3.473535492438141318e+03
5.495543330543139746e+03
6.102336349890807469e+03
7.754435755077186514e+03
9.475709269647946712e+03
1.128004200001696699e+04
1.111672574886855182e+04
1.061406527680920226e+04
1.369775999908216545e+04
1.617821364973736308e+04
1.347032316544734022e+04
1.277274802155136240e+04
1.272964007034502174e+04
1.265757466617396676e+04
1.267667591493569125e+04
1.273919900865810632e+04
1.356249624460871928e+04
1.459997993785726976e+04
1.815878737170892782e+04
2.235907795063624508e+04
1.872114346027746797e+04
1.654855396089046553e+04
1.526977893293634042e+04
1.222231346660858253e+04
9.069781599832531356e+03
9.671047390712667038e+03
9.998284307006075323e+03
9.686972910068307101e+03
9.212391179549231310e+03
9.571643620744060172e+03
1.081921303723053279e+04
1.209320718881019093e+04
1.318697369634713323e+04
1.400143709202805803e+04
1.422823982325752513e+04
1.259501264772411923e+04
1.087753975620302481e+04
1.045153140396362141e+04
9.147526662510546885e+03
8.636500801542446425e+03
8.357727102261025721e+03
8.843144373502207600e+03
9.191730689868023546e+03
9.407204832953419100e+03
1.010974712117210402e+04
9.036831292865606883e+03
6.968360663792477681e+03
5.461280988945541139e+03
4.530467274968561469e+03
5.094159515604419539e+03
5.439179445991305329e+03
5.204590850006595247e+03
6.027276431461210450e+03
6.809802411221769034e+03
6.714274756916272054e+03
6.914393430681216159e+03
5.712437077010267785e+03
4.181413558848102184e+03
2.905008305248837132e+03
1.015924228549980739e+03
-1.069653812133080464e+03
-2.371519924407242797e+03
-4.750277415967758316e+03
-6.068022166796547936e+03
-6.906534444229205292e+03
-8.654191541619335112e+03
-1.036100167348693140e+04
-1.201250482918444141e+04
-1.342134139901283015e+04
-1.462421641789842761e+04
-1.543636388837951199e+04
-1.504473533571513508e+04
-1.438486071953690589e+04
-1.485491724162281571e+04
-1.687936506216934504e+04
-1.964512113857457371e+04
-2.220028029418216465e+04
-2.522326660351596729e+04
-2.856970263776541833e+04
-3.063767435146525895e+04
-3.197940880913168075e+04
-3.360556826939495659e+04
-3.426382874124294904e+04
-3.517406107141669054e+04
-3.585923509729719080e+04
-3.602742587535962230e+04
-3.536970981062344799e+04
-3.568526132081680407e+04
-3.573742211052103085e+04
-3.538946589965102612e+04
-3.532563822062392865e+04
-3.467047293763566267e+04
-3.450064542699657613e+04
-3.472994825117533765e+04
-3.622578751584424026e+04
-3.888393466878940671e+04
-3.985810457541734650e+04
-3.851898846123401017e+04
-3.657362493467470631e+04
-3.635003086366647767e+04
-3.556824845872565493e+04
-3.455051260653293139e+04
-3.501497826639773120e+04
-3.526684671952491772e+04
-3.422258138955815230e+04
-3.325266731956473086e+04
-3.382449307025726739e+04
-3.273445963666919124e+04
-2.946298597332363715e+04
-2.672069061965729998e+04
-2.340136755250801434e+04
-2.325398876289459440e+04
-2.381033669937381273e+04
-2.428219440390231466e+04
-2.532737362005807881e+04
-2.234366497492619601e+04
-2.107517666352208107e+04
-2.186897555155642476e+04
-1.905992203361438078e+04
-1.555835840372635721e+04
-9.386631278060505792e+03
-5.364657300677482453e+03
-8.449936364010509351e+03
-1.313022814222417583e+04
-1.348319602480021240e+04
-1.157449563663035588e+04
-8.225087248031693889e+03
-6.298257247849994201e+03
-3.213407595144544302e+03
2.487688184700516103e+03
5.785299101309140497e+03
9.850695095092227348e+03
1.155298226345856347e+04
1.273988759772913545e+04
1.440906237172166584e+04
1.585532507965255172e+04
1.606144620941945141e+04
1.560546622021366056e+04
1.511256694386766503e+04
1.359877951917295468e+04
1.323576761819662352e+04
1.418209959903184426e+04
1.592229967866086008e+04
1.561879374703619942e+04
1.541099839974261886e+04
1.231838497079985427e+04
7.260454421864364122e+03
5.439609612485718571e+03
4.452182641570380838e+03
5.187520156967119874e+03
7.559963961166366062e+03
9.946717314360632372e+03
1.375894539422990420e+04
1.706399095452324400e+04
1.810925644128798376e+04
2.075220393944220268e+04
2.476728814415441229e+04
2.745984242434866974e+04
2.887634093685081825e+04
2.869818043614790804e+04
3.136861320128851003e+04
3.315107323314336827e+04
3.399797261785540468e+04
3.432671391689249140e+04
3.526249250814460538e+04
3.809847259193714854e+04
4.386500003763502173e+04
4.863048778080545162e+04
4.743847510725972097e+04
4.739038808168454125e+04
4.873761815552023472e+04
4.640973550339596841e+04
4.554145751355310495e+04
4.390053102667679923e+04
4.664052080187322281e+04
5.208806118049785437e+04
5.417778843107231660e+04
5.179139326171125140e+04
5.020373288267692988e+04
5.173119817696149403e+04
5.541159682298210100e+04
5.247651328353658027e+04
4.802771819598390721e+04
4.694417366055854654e+04
5.076801437524060020e+04
5.487418459096730658e+04
5.464973272465902119e+04
5.385087240961391944e+04
5.123494633612196776e+04
4.627444262076289306e+04
4.562697093119484634e+04
4.304823185987404577e+04
4.057497802677293657e+04
4.074093560741555120e+04
4.006103030250942538e+04
3.935426600687697646e+04
4.048276737616219907e+04
3.795581293385993195e+04
3.033684545841559157e+04
2.901628890723876611e+04
3.146971418906038889e+04
3.048079229379862954e+04
2.304320354041361134e+04
1.427370792254059961e+04
8.719224641496135519e+03
8.072902241793258327e+03
1.115802769759304465e+04
1.139888850916953561e+04
8.126778996357355936e+03
6.855155950075984947e+03
6.502557722653744349e+03
5.758738801354752468e+03
7.347162415446166506e+02
-1.087356350452351035e+04
-2.463109019112447277e+04
-3.010369410522893668e+04
-2.946196622117188963e+04
-3.035849517452502550e+04
-3.565881518495462660e+04
-4.249730091478789109e+04
-4.618120040132392023e+04
-4.532664717450307944e+04
-4.359664264087362244e+04
-4.630317256224033918e+04
-5.033922114531497937e+04
-5.389568268640848692e+04
-5.989922387530600099e+04
-6.978620268828865665e+04
-7.443610047485557152e+04
-7.427752757465212198e+04
-7.578173392077308381e+04
-7.276693442887820129e+04
-7.493126574653906573e+04
-7.956178367541322950e+04
-8.360542680574300175e+04
-8.966488174063892802e+04
-9.298297325917732087e+04
-1.019714893025737401e+05
-1.080879304760187952e+05
-1.116367784400212113e+05
-1.050954682859363238e+05
-8.857035379050616757e+04
-7.602683986743485730e+04
-6.140034350687646656e+04
-5.985326239202352735e+04
-6.936570887256250717e+04
-8.189777750496954832e+04
-8.514245103905680298e+04
-8.286377411808937904e+04
-8.936677113055514928e+04
-1.040881208410622639e+05
-1.203103086022118805e+05
-1.364760848311478039e+05
-1.452905306847052416e+05
-1.441703874347996025e+05
-1.506655631547880475e+05
-1.691109795114515873e+05
-2.006242952039866359e+05
-2.214282647373239161e+05
-2.317865015583402128e+05
-2.383438314066310122e+05
-2.406710739649151510e+05
-2.314759714979798009e+05
-2.085469976502830395e+05
-1.764236824793297565e+05
-1.366783931188105198e+05
-9.430724320228763099e+04
-5.259441872038279689e+04
-4.630824604644095416e+03
4.235562095506834885e+04
8.179403911663303734e+04
1.134555062624194252e+05
1.356840526821530075e+05
1.464126139617473236e+05
1.521090345897269144e+05
1.511361496665979212e+05
1.424366188227933308e+05
1.269693705394215649e+05
1.021049169323864771e+05
8.023812166816575336e+04
6.227168185835995973e+04
5.203429220318663283e+04
5.531106445863522822e+04
6.739813524844071071e+04
8.807264038455062837e+04
1.153496018562376121e+05
1.415639116543048585e+05
1.620373545969407132e+05
1.785116327483303612e+05
1.977525076854165527e+05
2.153537220169979846e+05
2.304997712897746533e+05
2.439842725921654492e+05
2.541606203530512284e+05
2.581099628532769857e+05
2.597053887754605385e+05
2.620787740929987922e+05
2.608040267302881402e+05
2.541938536846057686e+05
2.360209346615281829e+05
2.090677395438712556e+05
1.878495475556253223e+05
1.702477786726822669e+05
1.575717097295412095e+05
1.481442171698092716e+05
1.333791222123592161e+05
1.196851211893742584e+05
1.107098508440183796e+05
1.039729285887266160e+05
9.656066220506501850e+04
8.122712295619984798e+04
6.252648066047111934e+04
4.933788328121310769e+04
3.994731769920187799e+04
3.011156643028403414e+04
2.355041200060717165e+04
2.111452358968578847e+04
1.052540218784301214e+04
-1.652722390861739768e+03
-1.176961057988418543e+04
-1.522132287705902854e+04
-1.709398877743858247e+04
-2.609667451202892698e+04
-3.586370301775856205e+04
-4.328640712046872795e+04
-4.472518095293252554e+04
-4.739167069086842093e+04
-5.601467874949468387e+04
-6.328017236208589020e+04
-6.642110412365882075e+04
-6.558537493129659561e+04
-6.558111771888706426e+04
-6.651244612673012307e+04
-6.421367525562243100e+04
-6.216404133134414587e+04
-6.506884782182850904e+04
-7.125576321865791397e+04
-7.589259235579540837e+04
-7.822993056603865989e+04
-7.934668547259017942e+04
-7.988874904714313743e+04
-8.092715553699797601e+04
-8.081801570811065903e+04
-8.000043032173960819e+04
-7.925746427095965191e+04
-7.675241566527227405e+04
-7.148658058013745176e+04
-6.692224494675245660e+04
-6.395383045786029834e+04
-6.266277630082741234e+04
-5.912532689585577464e+04
-5.745967206891877140e+04
-5.575837568704871228e+04
-5.121713194169705821e+04
-4.631672579994741682e+04
-4.083284256453577837e+04
-3.580186009471229772e+04
-3.319832090129792778e+04
-3.069187637201972029e+04
-2.759798423718658887e+04
-2.578728454632400098e+04
-2.489651487961151724e+04
-2.393022710747552992e+04
-2.284395900879780311e+04
-2.014140892385571351e+04
-1.763841662651274964e+04
-1.526760981415904644e+04
-1.553466382486384464e+04
-1.658660996194055770e+04
-1.674885685411513259e+04
-1.647077545036535957e+04
-1.511566557277547145e+04
-1.486023872199932703e+04
-1.514366133166446161e+04
-1.288197817820946511e+04
-1.206581351134725446e+04
-1.361742934193228939e+04
-1.115321115895979892e+04
-9.195179720886757423e+03
-9.574752990855071403e+03
-1.226738621885217071e+04
-1.610329332724506639e+04
-2.169794988109620317e+04
-2.403130043184374517e+04
-2.520575395928252692e+04
-2.708619293701616334e+04
-2.698198144419263554e+04
-2.421363468870696306e+04
-2.036197228748350972e+04
-1.906918223775053048e+04
-2.079547725961707329e+04
-2.433107843798573958e+04
-2.901801112896067207e+04
-3.156013339023980006e+04
-3.126317756181464210e+04
-2.885390475474841514e+04
-2.629693111833280273e+04
-2.422785409199031346e+04
-2.149334457412312622e+04
-1.924092759590133937e+04
-1.826787544554819033e+04
-1.775047476464495412e+04
-1.615870154124823966e+04
-1.416838135253399196e+04
-1.257976625772646730e+04
-1.152489559289929093e+04
-1.018367887966755370e+04
-9.472999574902494714e+03
-9.832604378276033458e+03
-9.840212732074307496e+03
-9.031322176707108156e+03
-7.816239047209120145e+03
-6.590437620293474538e+03
-5.470280502342946420e+03
-3.619889721096558333e+03
-1.548297753371936778e+03
-1.842321584040804964e+03
-1.972039437436683784e+03
4.127469641253104555e+02
4.032355889319078415e+03
6.553113262064272021e+03
7.285309313241745258e+03
7.598378716676324984e+03
7.709492242304743741e+03
8.829133552311996027e+03
9.782425971096707144e+03
1.088707827104100033e+04
1.291086237897471437e+04
1.525894001075976121e+04
1.767503490060813419e+04
1.999119169443366627e+04
2.164619029165061511e+04
2.313682459733705764e+04
2.771844684222526485e+04
3.476269242698183371e+04
3.931780686965426139e+04
4.807782541327307263e+04
5.394587102767299803e+04
5.634289776729754522e+04
5.848955110530160164e+04
6.179204089471857151e+04
6.347944523008861870e+04
6.379718898452804569e+04
6.305002886965029757e+04
6.199755986479608691e+04
6.028547066769634694e+04
5.889258584742225503e+04
5.834624741180394631e+04
5.792727197705928120e+04
5.690432266606863413e+04
5.599590707642179768e+04
5.417474940076393978e+04
5.140453611710041150e+04
4.878378089169980376e+04
4.657745791009534878e+04
4.401677858984350314e+04
4.169996463640711590e+04
3.986431740902175079e+04
3.831484071499813581e+04
3.641176572363746527e+04
3.351584360271671903e+04
3.082151177289075349e+04
2.934805397350761268e+04
2.789268475767509881e+04
2.510307676983906640e+04
2.211601288248178753e+04
1.868882998718918316e+04
1.560692109823261853e+04
1.362774649493910692e+04
1.161600638970170439e+04
9.162737440982386033e+03
6.387672516263783109e+03
4.580670787486488734e+03
2.755592623151994303e+03
5.477919324509244916e+02
-1.724134168137896950e+03
-4.058823612206406324e+03
-5.783379739768475702e+03
-5.871146519244194678e+03
-5.689197675977398831e+03
-6.153156165807148682e+03
-7.786976759187539756e+03
-9.261774362802236283e+03
-7.313441331691214145e+03
-5.149808303007805080e+03
-4.947455379194466332e+03
-4.642012330938229752e+03
-4.234820527200914512e+03
-4.309750795860231847e+03
-5.098855831608806511e+03
-6.433336486024941223e+03
-6.787780299285198453e+03
-7.746502623779055284e+03
-9.571248777848348254e+03
-1.100423621272045602e+04
-1.184134760541861942e+04
-1.166256001805828964e+04
