3.927208807367775989e+03
3.475002691057736683e+03
2.578129060751190991e+03
2.133503875326270645e+03
1.331942302966952866e+03
-1.031682606022822483e+03
-3.988425709136125079e+03
-6.966374300452371244e+03
-7.682559572206297162e+03
-7.365018742409958577e+03
-6.766784853238890719e+03
-6.489918449909667288e+03
-6.439456797797505715e+03
-5.567416534450127074e+03
-4.576818330879040332e+03
-4.296593689703895507e+03
-4.162706083194379062e+03
-5.032015450472458724e+03
-5.175017991747008637e+03
-5.693679548383011024e+03
-3.608698772769575498e+03
-2.066533386038871868e+03
-6.350152596351097600e+03
-7.145637456152910090e+03
-7.927962338512847964e+03
-8.566169719554814947e+03
-8.241350585807591415e+03
-8.024479383740695084e+03
-7.529610580829479659e+03
-7.114741144696030460e+03
-7.163923728416431004e+03
-6.351106167081260537e+03
-5.073252598192888399e+03
-4.456366852549160285e+03
-8.264320528335772451e+02
1.360487084794450311e+03
-3.144567215681055131e+03
1.124495128375006061e+03
1.670722467222733030e+03
1.959072497279526488e+03
2.886503337451048083e+03
1.936947782680925002e+03
1.238351169153114597e+03
9.787220530975380370e+02
1.194093554510322292e+03
1.455495080387650432e+03
2.117934045030195648e+03
2.611440950275235537e+03
2.690094467221065315e+03
2.824940336383143858e+03
2.684020789447945845e+03
3.053326563031554542e+03
3.007899809844390347e+03
2.950864022516189834e+03
3.070307824790141694e+03
2.851265313835773668e+03
3.311720765773058247e+03
3.529757860253867420e+03
3.183458019002537185e+03
2.685839245492854388e+03
2.496918868047730939e+03
2.445733037815325133e+03
2.600290375875736117e+03
2.028551475154653644e+03
1.566588101127971868e+03
1.346428065045602352e+03
7.441302323927557154e+02
4.227535262334419031e+02
9.253792950453005233e+02
1.773118636594988175e+03
2.614992741151269456e+03
2.702064886348955497e+03
2.766314379783801542e+03
2.792203939648801224e+03
2.913854629060123898e+03
2.857355474736338238e+03
2.817956604777618395e+03
2.462905793673425705e+03
2.680223608941935254e+03
2.013809211691779637e+03
1.049660271225546921e+03
1.177764680685898838e+03
5.501713449494094448e+02
6.286413063489212760e+01
1.308838127378703291e+02
-4.018352691944249386e+02
-4.871801876200204333e+02
-2.362215354455465501e+02
5.469345001718776302e+02
8.076313265571865259e+02
3.017324515547796864e+02
-3.818065201965011397e+02
-8.008285878400351976e+02
-1.074273135974928437e+03
-7.240967716267740570e+02
-2.802434126351756731e+02
-6.279035819236776916e+01
-2.585836578544136728e+02
-1.325231509675558925e+02
2.393525302859169646e+00
-4.058258881235382773e+02
-1.531217836277321339e+03
-2.570779826767353825e+03
-2.650463327476424183e+03
-2.451307129036222250e+03
-2.370260127153657777e+03
-2.753310719662347310e+03
-2.775442152919760701e+03
-2.542620449253123297e+03
-2.579773347953661869e+03
-2.141891899929771171e+03
-1.386008473851882854e+03
-1.314142694666198167e+03
-8.663381337370791471e+02
-7.934818662811973127e+02
-9.215059463809408271e+02
-6.144095025128644920e+02
-6.611471161138514390e+02
-4.095731897973881246e+02
-2.566852260431817854e+02
-1.775836356455863267e+02
-1.883511350994006079e+02
-7.929882635548908638e+02
-1.745539699607170405e+03
-2.536065256464100912e+03
-2.531572278813414869e+03
-2.333136259654252171e+03
-2.205801498644865660e+03
-1.484558550937833616e+03
-7.743752421415781555e+02
-5.912572319527374702e+02
-2.051596546104117067e+02
4.729468786074224909e+02
7.111173906608698871e+02
4.933567807620549956e+02
9.556284888310494807e+02
1.139816082137130252e+03
-3.560980955201426355e+02
-5.431397463635362328e+02
4.026582315441516471e+02
1.529253582223460626e+03
1.787533788317950211e+03
8.484550745660097846e+02
-1.151751386328440958e+02
2.595954943016948278e+02
3.228544622662929555e+02
5.793830738904341615e+02
5.911666464668442131e+02
6.272011747630176615e+02
1.093476455824207051e+03
1.198314087927087030e+03
1.445580776669609122e+03
1.433890786156022386e+03
1.629415273764666154e+03
1.694136825427066924e+03
1.733752622423457069e+03
2.139505981148548926e+03
2.701128366357317191e+03
2.826881616615794883e+03
2.813242778946463204e+03
2.245602787578026891e+03
1.240934284871232194e+03
8.639875896727494364e+02
3.976883218646143519e+02
2.840405943632749768e+02
2.762853582371265588e+02
7.476902457745576385e+02
9.497712114698773576e+02
1.507350868892903236e+03
1.755048453582528282e+03
1.822020169061906699e+03
1.871436015165386152e+03
2.493175236313897585e+03
3.013057430180698248e+03
3.222217144160249518e+03
3.148445624158923238e+03
3.232313818059558798e+03
3.175261234351730764e+03
2.949288904023014766e+03
2.494727079826055160e+03
2.319647016758349309e+03
1.814255796282475558e+03
1.092260003875399661e+03
3.139866311174270095e+02
1.173064231353713325e+02
4.350108872602609722e+02
6.286822801322875875e+02
9.709192224762044816e+02
1.131091756545695716e+03
1.245964378158187628e+03
2.010997973160625179e+03
2.562492664458774470e+03
2.978449062989000595e+03
3.403843602345811178e+03
3.781894869731866493e+03
3.845840927559177544e+03
3.826604735014511334e+03
3.839096588138809238e+03
3.671478085212227597e+03
3.395898452515442386e+03
2.712075578817527003e+03
1.914708655071479598e+03
1.101860812800018039e+03
1.012526059389449188e+03
1.364955097015789988e+03
1.492265599832446014e+03
6.461297376403462067e+02
4.767018406884483852e+02
-1.259199138453554951e+02
-2.362771786105658975e+03
-6.017609154152769406e+03
-8.791300396436954543e+03
-9.108680801832155339e+03
-9.180670097326777977e+03
-8.257295544636228442e+03
-8.070457427093570004e+03
-7.305746589936898999e+03
-6.852089136225291440e+03
-6.838802991347234638e+03
-4.012261732645567463e+03
-4.884867496782244416e+03
-8.087465401673099223e+03
-1.030379459834244881e+04
-1.203387097705006090e+04
-1.021042685844241350e+04
-3.677358658220789493e+03
-3.692810777231387419e+03
-7.670643551986358034e+03
-7.900810488838115816e+03
-7.284386315411536998e+03
-7.359429480784263433e+03
-7.051090025514850822e+03
-6.906241564918829681e+03
-6.266459662482982822e+03
-6.014739025308048440e+03
-6.687141387727398978e+03
-6.439323639092413941e+03
-5.591143732655847998e+03
-4.268732036927945046e+03
8.637366675786749965e+02
7.320737678151336922e+02
4.094311600327725955e+02
2.213436704320758054e+03
2.472381838613599939e+03
1.673226663668050833e+03
1.684719172649795610e+03
1.576721572319593633e+03
1.274748843935676177e+03
8.325758075037069830e+02
1.139688002666258171e+03
1.458585395438420392e+03
1.910050575585358956e+03
2.025876862031816927e+03
2.211831342082476567e+03
2.036963345767877172e+03
1.608674609178931405e+03
2.173398949990749315e+03
3.616208829878959477e+03
5.003810685603221827e+03
6.341485677138593928e+03
6.808525626601460317e+03
6.348606658924712065e+03
5.730970529742228791e+03
5.399899808562697217e+03
5.004922941349244866e+03
4.457067856200043934e+03
4.074027862277608165e+03
3.447435107745057394e+03
2.967239661098223223e+03
2.509463006013900667e+03
2.374211256952452459e+03
2.997632697968174398e+03
4.050642214729201442e+03
4.334425693782884082e+03
4.737999205500367680e+03
4.744592723529377508e+03
4.997241476730351678e+03
5.513449994327877903e+03
5.717531736789900606e+03
5.531162189192184087e+03
5.683884906939203574e+03
5.282669724277072419e+03
4.677570471964169883e+03
4.654351615815460718e+03
3.947983308976669377e+03
3.634520450059767882e+03
3.068038594801566887e+03
2.759814850377468247e+03
2.848034210649732813e+03
2.981600277576729695e+03
3.020515934176898099e+03
2.512000307531170620e+03
2.294104445824974391e+03
3.059426976600185753e+03
4.208895630498709579e+03
5.279862075155308958e+03
5.727270771987955413e+03
5.595117499738433253e+03
5.116601618446216889e+03
4.739776300942384296e+03
4.142688057557463253e+03
3.470259381475344071e+03
2.270373279779157656e+03
1.081901215818965511e+03
6.258269447395871339e+02
2.822098012415132189e+02
4.006731724386521165e+01
-6.996086093009349725e+02
-1.671882614837749770e+03
-1.716667795367834060e+03
-1.121920630554356876e+03
-4.146076327182904038e+02
-6.169959961960919514e+01
1.816879271826645095e+02
5.863474495886009663e+02
1.333444215970559981e+03
1.716219702455075094e+03
2.125741925131596417e+03
2.122050963273104571e+03
1.418966623269885986e+03
1.077473453536420720e+03
3.337119876281898883e+02
-1.046284284911586155e+03
-2.526484026488300060e+03
-3.871013954951307824e+03
-4.168135965654497340e+03
-5.711002909804316914e+03
-7.784825829188207535e+03
-1.206275195190628619e+04
-1.202283590191167968e+04
-1.103720391605457189e+04
-1.053691235896661055e+04
-1.034493426896371420e+04
-1.070818132646804770e+04
-1.013461114780082607e+04
-9.020389517828947646e+03
-8.060463763809954798e+03
-8.374751903802569359e+03
-8.805280195733706933e+03
-9.811918000458501410e+03
-1.073774666838831581e+04
-1.070286992141208975e+04
-6.740270068082257239e+03
-5.227063003203160406e+03
-6.154402656020504764e+03
-3.436386966996074079e+03
-3.289125117389487059e+03
-4.544546856699953423e+03
-4.579477032116993541e+03
-4.117842739781159253e+03
-3.285658337405222937e+03
-2.388985093181656794e+03
-2.557876318046378856e+03
-1.870245870344745981e+03
-9.679344766989382833e+02
-2.719559797673139769e+02
5.407194411628427133e+02
1.148152745351815156e+03
1.345426592712575484e+03
1.568603477653519349e+03
1.119648643232153290e+03
6.935932823698004768e+02
1.804512116211310513e+02
-5.328328067716757914e+02
-1.128334320752003805e+03
-1.381028081962473834e+03
-1.268803875883199908e+03
-1.156656202739531636e+03
-1.454524272373396116e+03
-1.379208401659875108e+03
-1.052705160452045220e+03
-6.399173350920475514e+02
-7.036990783842708197e+02
-7.670909377720442990e+02
4.749210171024346891e+02
8.833155068332781639e+02
1.050203082781802777e+03
8.956636323046175221e+02
9.516820952964017124e+02
9.832715270535838954e+02
7.465424032415012334e+02
1.428584024725247446e+03
1.083348450317210109e+03
3.347634616242496008e+02
-3.391814729164237860e+02
-1.154488572650132937e+03
-1.989093644643626249e+03
-2.681969343862111145e+03
-2.746163271753599474e+03
-2.356749864450212954e+03
-1.398728317751071017e+03
6.293829513123711195e+01
1.262618058023324693e+03
2.392365860511602932e+03
3.114331425487092474e+03
3.799503367341132162e+03
4.472854732148561197e+03
5.966144374945673007e+03
7.454435347224566613e+03
7.418678672483700211e+03
6.207949644590198659e+03
5.952862817835176429e+03
4.950176699672337236e+03
3.793790546511757384e+03
3.124667535892604974e+03
2.389747062409770024e+03
2.017891701288668401e+03
1.508034346952220858e+03
1.249160232078201489e+03
2.257284184975605967e+03
2.560379821187810194e+03
1.691399636390986643e+03
1.473265321397122079e+03
2.054875595500308464e+03
1.325135041645168030e+03
5.800301769413772490e+02
8.114133496416950493e+02
2.148146881387139274e+03
3.227188315989279999e+03
2.095401333271641306e+03
1.953705756528472648e+03
2.287969384235767848e+03
1.933115502241623517e+03
1.464965551815154640e+03
1.259328683331915727e+03
-1.903841013773175561e+01
-1.373227505302413419e+03
-1.803336077870501185e+03
-1.752519163140557339e+03
-2.103951939408271755e+03
-2.200709372304537283e+03
-3.390057939546060197e+02
2.663002102602367813e+03
5.608182019246104574e+03
8.318419776872913644e+03
1.021355534268353586e+04
9.494428266920218448e+03
8.224836513235706661e+03
7.237690127367081004e+03
5.649868952023742168e+03
4.069186725179837595e+03
3.274406413953220635e+03
3.403282091907343784e+03
3.118565620581530311e+03
3.608009267884987366e+03
2.785415355790067679e+03
1.752616091265457499e+03
4.503888829117595378e+02
-1.120426329513423980e+03
-3.774029196552352460e+03
-4.575617336721869833e+03
-2.569291069500238791e+03
-2.013158404653407160e+03
-3.218525232840363969e+03
-2.229629328066336257e+03
1.825849770170633519e+03
4.011481604912011335e+03
3.505073498645349446e+03
2.987496789545268257e+03
1.033637007058323661e+03
-3.696711708446409261e+02
-1.150679707417498093e+03
-4.667597327730855795e+03
-6.836538685254274242e+03
-8.781784312639285417e+03
-1.184816998801837326e+04
-1.319972968987835156e+04
-1.391135130424145063e+04
-1.276335358167024242e+04
-1.175363340347382837e+04
-1.197178277413050455e+04
-1.080280573719480890e+04
-4.172610672378330491e+03
4.235151153249265917e+03
1.053495716165472368e+04
1.289981389239654709e+04
9.305911537519081321e+03
5.506673422354794639e+03
4.047119573096899330e+03
2.012188716559766135e+03
3.187963542316477742e+03
5.011751789229418137e+03
4.768370488166650830e+03
5.692962965109693869e+03
7.498228339339149898e+03
8.408382929945366413e+03
7.276515786109963301e+03
3.191569651689742386e+03
-2.041571122793951076e+02
5.841540541212808648e+02
6.214806360262426779e+02
-9.018938538365705426e+02
9.902457710529502037e+02
3.886568069019905579e+03
4.882039005976365843e+03
3.450136734741328382e+03
-2.140227632518873179e+03
-8.662458867188854128e+03
-7.945151697180134761e+03
-1.184824945020547148e+03
6.950942965736013321e+03
1.249147038004431488e+04
1.710667715290761771e+04
1.523457305970179368e+04
8.323324651295475633e+03
6.243054681640536728e+03
1.053884183658434449e+04
1.316187361735428749e+04
1.285429257925455022e+04
7.356321366044589922e+03
6.041248263410590198e+02
-2.945001020983863327e+03
-1.978837737823966108e+03
-2.082572241217015119e+02
-3.478130100809155465e+03
-4.947273785350997969e+03
-2.862423231698737709e+03
-6.158307172829365300e+03
-9.767620793679890994e+03
-1.238408178953094284e+04
-9.465451923238944801e+03
-3.705438717358693339e+03
-3.874755851253701877e+01
-6.301193149783847502e+02
-2.750221206055489802e+03
-5.779734154839469738e+03
-7.446397735469154213e+03
-7.374985379884002214e+03
-9.531120380844809915e+03
-1.005150413917826882e+04
-1.210377098053079135e+04
-1.101562480263227735e+04
-9.901705510453179159e+03
-1.282065439103027893e+04
-1.232713748515311636e+04
-9.052775657240188593e+03
-8.484138474138217134e+03
-8.555871012046722171e+03
-8.012688373935768141e+03
-9.816192730896718786e+03
-1.272908606620242062e+04
-1.536500227507463751e+04
-1.771857467596981223e+04
-1.723737641427298149e+04
-1.280607367877049728e+04
-7.597339145503120562e+03
-1.173848633941098342e+03
-1.372344264939815730e+02
1.313908984263505545e+03
4.149918293989388985e+03
2.211056867163534207e+03
1.501681359904861665e+03
-2.608644350920912984e+02
-1.551178232821893289e+03
-2.300856370299366972e+03
-2.298513694733341254e+03
-1.075814800266854263e+03
1.015439588602777974e+02
2.349000174396188640e+02
-6.823672043118510828e+02
-1.932908539958035362e+03
-2.878501250285363767e+03
-3.561856840459105115e+03
-4.701694046467277076e+03
-6.338700149435064304e+03
-7.439541264922069786e+03
-8.090022402244838304e+03
-8.060971495657992818e+03
-7.824168460115666676e+03
-8.232329972346800787e+03
-1.184818250383838495e+04
-1.464250055134894501e+04
-1.488405244118096198e+04
-1.380861445905795517e+04
-1.154401499901411989e+04
-1.084405054911197476e+04
-1.088849179353776890e+04
-8.714218954178488275e+03
-5.004032544804696954e+03
-2.876235500426549407e+01
5.045639809637589678e+03
9.079259707896104374e+03
1.302335253189865762e+04
1.565234251295644208e+04
1.653740177810741079e+04
1.724080833861195788e+04
1.660840184672102987e+04
1.541299932293826896e+04
1.436569304210164046e+04
1.459958962388518194e+04
1.538181001824313716e+04
1.484632698240048376e+04
1.408498396826969838e+04
1.394180235916531456e+04
1.471291833418465103e+04
1.691642819946121017e+04
1.878819710392025809e+04
2.048072022900211596e+04
2.239718510266402882e+04
2.380822328414341973e+04
2.397918279646003793e+04
2.369853359037600603e+04
2.141608741496634684e+04
1.866276034659152720e+04
1.734635533440805375e+04
1.688463567907228207e+04
1.614836666100969887e+04
1.500232390722801210e+04
1.290628151537715712e+04
1.121110538028665906e+04
1.077751357573527093e+04
1.023526966174843801e+04
9.867104901420756505e+03
9.450801060091911495e+03
8.886129443532619916e+03
8.648848127640922030e+03
8.556681171721236751e+03
9.025392159280276246e+03
9.526672807362210733e+03
8.551232097944153793e+03
6.267778270577137846e+03
3.718011373078745237e+03
1.444566937911811237e+03
-1.155907418980441662e+03
-3.450738936576821743e+03
-4.522229233155557267e+03
-5.743766278443494230e+03
-6.645732849279492257e+03
-6.299499969629800034e+03
-6.311379709140598607e+03
-6.873704365648632120e+03
-7.928939842595549635e+03
-8.097390942909436490e+03
-7.550390368933214631e+03
-7.503287607644058880e+03
-8.359469975636049639e+03
-8.792307125945470034e+03
-8.402199289444068199e+03
-8.066619982801481456e+03
-8.676852877243200055e+03
-9.873222366305833930e+03
-1.084814551641632897e+04
-1.114101637135529199e+04
-1.174416696826562293e+04
-1.304600544308262215e+04
-1.545893508214477333e+04
-1.906039408038440524e+04
-2.382481325655510227e+04
-2.384366114523660144e+04
-2.331831923981700311e+04
-2.253916355484517044e+04
-2.036251104526994823e+04
-1.635171848623763071e+04
-1.394517945408612650e+04
-1.036826500191985906e+04
-7.540421293711266117e+03
-2.594868106987322335e+03
1.513014684465930770e+02
4.916367051754426143e+02
4.008152364413845703e+02
2.345696966213429562e+02
-5.344262088451221615e+01
-1.050502235682436094e+03
-2.787927038391632777e+03
-4.126051813984071487e+03
-4.939158786082453844e+03
-5.097669216654637239e+03
-5.036802829978904811e+03
-4.988732262402625565e+03
-4.735715140537418847e+03
-4.232052542909186741e+03
-2.850834402745036186e+03
-1.991234744321725657e+03
-2.182503845465987069e+03
-2.286958967192751061e+03
-2.348818796729497535e+03
-2.205138259224466765e+03
-1.953112659177520754e+03
-8.910121768731806924e+02
3.020654422792480887e+02
7.130001761983833148e+02
1.126642436014145261e+02
-2.759871993401246186e+02
-3.540684865849202652e+02
-6.757821486724158149e+02
-8.052260580066287048e+02
1.385476030345980689e+02
1.584258921808681748e+02
-1.898340446674139912e+02
-1.304129060583357500e+02
4.276370846126148990e+02
9.182493397365134342e+02
1.225438589331319690e+03
1.309409151139234609e+03
2.087217982399454741e+03
3.408942469669890215e+03
4.644694380895940412e+03
5.869472989917828272e+03
7.069249250158522045e+03
7.549968289109615398e+03
7.431735744150723804e+03
6.893520405089778251e+03
6.374487546104201101e+03
5.959777219052917644e+03
5.670525736659664290e+03
4.983917504803752308e+03
3.941148261810588792e+03
3.784206748781263741e+03
4.289010169016760301e+03
2.913750995454731310e+03
1.897244753877997994e+02
3.678998925163981767e+03
4.176458102847282134e+03
3.851342696985775092e+03
3.633999646607564500e+03
3.830652123665817271e+03
4.742643917829102065e+03
5.121132209313037492e+03
4.663240088287259823e+03
3.410455888894561667e+03
4.579489994009229008e+02
5.669126872839957514e+02
-2.230394016050824391e+01
3.815134472390695350e+02
-1.775547310054523905e+03
1.250535920370801932e+03
-1.452984074393335959e+03
-1.948800894368812578e+03
-1.878040071698568170e+02
-5.084283691236339109e+03
-3.031286370484648160e+03
7.685455488479761925e+02
-1.212306425092788686e+03
-2.081005654216171195e+02
-7.154429696113703585e+02
-8.602479348548533835e+02
1.171850901693450851e+03
-1.376160079701639006e+03
1.089012761150521840e+02
-1.706536771842178041e+03
1.669689021216147466e+03
-1.384280415256581591e+03
-2.658122903414463963e+03
-5.661431609559796925e+03
-4.593673282627648405e+03
-6.043591675851830587e+03
-7.746265123746504287e+03
-6.379382396630064250e+03
-2.951552744599517155e+03
-2.912796550244018817e+03
-3.147997779391565473e+03
3.744198181015708087e+03
1.096270554056957735e+03
1.158950094413495151e+02
3.367492500468888466e+03
1.288782474194420047e+03
1.900485540455620594e+03
4.524572011458431007e+03
5.872286768332047359e+03
5.799785191291145566e+03
5.934729299843497756e+03
5.572805676844187474e+03
4.893894854325084452e+03
4.541679306809817717e+03
3.974380821998186093e+03
3.607422300088442626e+03
2.940466550863609427e+03
3.154887363542467028e+03
3.276662841898486477e+03
3.367568035387327200e+03
3.465686729843365811e+03
3.283593909992057888e+03
3.819375592039421008e+03
4.175774952107391073e+03
4.344311912450110867e+03
4.550184352014154683e+03
4.582819441391627151e+03
4.722960370457957652e+03
4.803386526851832059e+03
4.556266115610986162e+03
4.401001783372052159e+03
4.511754936408922731e+03
3.901707363593016908e+03
2.163903917892938807e+03
1.759263467271302261e+03
1.655905262006898965e+03
1.428786458409700799e+03
8.640596627937497942e+02
1.015883330117758589e+02
-2.833950948513343064e+02
-5.009005325410774390e+02
-5.532572264989037194e+02
1.295422353810191112e+02
1.455644407815947034e+03
1.498063668330914652e+03
1.805724617888439980e+03
1.927807379111253795e+03
1.329444378956785158e+03
9.845431689282804655e+02
1.134105181158000050e+03
1.142859053279879845e+03
1.137375105076957880e+03
7.383953831468127191e+02
3.137483603243671269e+02
-1.851731975737641847e+02
-8.500690614192698149e+02
-1.799869966357096018e+03
-2.193903045692439719e+03
-2.511751711755816814e+03
-2.561455942317544213e+03
-2.325128410494231503e+03
-1.801885592508859418e+03
-1.091885249229789679e+03
-9.213130553599538644e+02
-7.512634066471227925e+02
-4.857555859626647248e+02
9.419503520557751131e+01
2.565203302285750624e+02
3.630951841849225730e+02
4.117882999270410664e+02
2.065689412381863406e+02
2.904577210279484234e+02
2.542488646971908679e+02
-2.552333032749568815e+02
-1.051214863070852289e+03
-1.745853318145346066e+03
-2.122138583084095899e+03
-2.347918919713684318e+03
-1.869366567015596274e+03
-1.270857283126659013e+03
-7.456415061936330630e+02
-2.618908823068423430e+02
2.044220625783041214e+02
3.552251078509050330e+02
5.492576366882158254e+02
1.022138804798936320e+02
-2.319195589114514860e+03
-6.327200739297222754e+03
-8.514978635890180158e+03
-8.336719270990375662e+03
-8.071460978510083805e+03
-8.271253522935514411e+03
-7.532268106712438566e+03
-8.801421157352917362e+03
-1.002371591834401443e+04
-1.072225489057703817e+04
-1.076622058949854727e+04
-1.019172574942420579e+04
-1.077668549370379696e+04
-1.080710753865772676e+04
-9.744094724965685600e+03
-6.528763675045309355e+03
-4.358366612812720632e+03
-8.154073015539463086e+03
-8.130973230882444113e+03
-7.030047365315471325e+03
-8.583112991489539354e+02
-1.622759369629543016e+03
1.005617098371869133e+03
2.779905679806126500e+03
2.681135619150166804e+03
2.719319872016887985e+03
2.556470261198371645e+03
2.426580321692563302e+03
2.179718576205752470e+03
1.831907162897596663e+03
1.491028068414420204e+03
1.396917974256855132e+03
7.975276887551308391e+02
7.768351524937049817e+02
1.101884377645683344e+03
1.482797416881404388e+03
2.006553568085671259e+03
2.528235474404682918e+03
2.811849700225136985e+03
3.027334661093819705e+03
3.087783085325005686e+03
3.293330965799445949e+03
3.171035230617032539e+03
3.033881496804490780e+03
2.977952207510730204e+03
2.961239534024079603e+03
2.697673835960306405e+03
2.220427728896847839e+03
1.567532709808230948e+03
9.118347824057233311e+02
4.884191763217061748e+02
1.443994757325021396e+02
-5.819386102310542697e+01
7.055358109607144002e+01
2.466140301391548064e+02
5.590557523876656205e+02
1.103020375435460210e+03
1.199475484065795172e+03
1.114397416776592308e+03
1.358845960976128708e+03
1.943953292456893905e+03
2.113826315904418607e+03
1.829497583790138378e+03
1.985954494462969706e+03
1.788238833943996724e+03
1.865340840580009854e+03
1.724450421181296406e+03
1.663727502847823416e+03
1.193726747381670748e+03
5.781195005204431254e+02
-3.711774008908955835e+01
-3.039104153844710936e+02
-4.121294457201994987e+02
-9.069906040221159174e+02
-5.668872855817174923e+02
-1.159947631105178971e+03
-1.689120744822657343e+03
-3.494952847642183542e+02
4.800273936226226965e+02
5.376592371698220632e+02
8.664065433838669605e+02
1.135295821716524642e+03
1.582401657071187174e+03
2.151887972219179574e+03
1.985807854429113604e+03
1.995126069137897503e+03
1.457841218396413069e+03
8.779416732168156159e+02
-1.459015249929078983e+01
-6.816799612261341963e+02
-1.439261341886844320e+03
-1.835360876495894445e+03
-1.848025663959456779e+03
-1.332237349742048309e+03
-7.909191858023834811e+02
-3.429830742076875936e+02
-3.633814046736571868e+02
2.878559025603129271e+02
1.947274121530215609e+02
1.612224678403119356e+02
2.683695363062817592e+02
7.532122597303590510e+02
1.152829921362281766e+03
1.244278606587804916e+03
7.645303479650044665e+02
6.415618150721013535e+02
5.004345641353328347e+02
1.508283382891228719e+01
-7.044421039234753152e+02
-1.454131576189437055e+03
-1.738041200756842954e+03
-2.060207673289110971e+03
-2.235620580229861844e+03
-2.175285337373393759e+03
-2.246179057214412296e+03
-1.408345482101673497e+03
-7.586726045793729156e+01
7.182126087637138880e+02
1.280875428140380109e+03
1.444118939559089540e+03
1.861987446016240256e+03
1.869532001254067382e+03
1.627786663686205429e+03
1.591743178588073533e+03
1.501451026009485304e+03
1.851897378130142897e+03
1.689035706106134967e+03
1.179745740287047965e+03
8.499567675348262128e+02
6.899733785189455793e-01
-9.778553100210600633e+02
-9.786413525835139353e+02
-7.531667512305818946e+02
-5.803037775937874585e+02
-6.640574051903488453e+02
-3.394585963421968700e+02
3.554760291759414486e+02
8.487214338780321441e+02
7.623123473891830599e+02
1.069223259325866366e+03
1.603288493011790024e+03
1.680901563006174683e+03
1.734890110991374740e+03
3.077613530729438480e+03
3.305791274863642229e+03
2.841399870177858247e+03
2.788246424528313582e+03
2.544391527222011973e+03
2.135927161042326588e+03
1.247368707369891808e+03
1.082177744346491721e+02
-1.000508904272416544e+01
-7.442264150917110044e+01
-9.963263523999854954e+01
4.568194959049215527e+02
4.732072193306095755e+02
8.566038220198040563e+02
8.535378228194601888e+02
8.716331457269443490e+02
1.205325344671224457e+03
1.614902886774082617e+03
1.772871655920665035e+03
2.239935695486290115e+03
2.604604833426126334e+03
2.929130146515860361e+03
3.000313805921034145e+03
2.602424002983595528e+03
2.229932298327217268e+03
1.814738710627146247e+03
1.307143825308254009e+03
6.197118513778648321e+02
-2.321543042415772788e+02
-6.862908414850245435e+02
-6.442073086202765353e+02
-6.896178283798717530e+02
-7.664136793667847769e+02
-1.597831657390234454e+02
8.099956304407897960e+02
1.570591515811966701e+03
2.143103855787191605e+03
2.481697289986325359e+03
2.878321261078082898e+03
2.866957112298499851e+03
2.969580208305816086e+03
2.710151634685714271e+03
2.866685028725990378e+03
3.369138060180675438e+03
3.722561856842034558e+03
3.591939313109775412e+03
2.626263469696080392e+03
1.764459091700501176e+03
1.017439608718314730e+03
6.701955423758312236e+02
-1.299323352095536848e+03
-4.370057820636903671e+03
-8.584977027639028165e+03
-9.183048567022451607e+03
-8.859238925379446300e+03
-8.538570118738716701e+03
-7.967035834421118125e+03
-6.976603061336915744e+03
-6.642245329139867863e+03
-6.396952523089970782e+03
-5.481645554330932100e+03
-4.531190252074718956e+03
-5.096711032972825706e+03
-5.569201643248708933e+03
-6.552615756687930116e+03
-6.753911580526031685e+03
-3.475070793999719172e+03
-4.424092083024968815e+03
-7.030953546544169512e+03
-6.517614633521782707e+03
-6.108113765721539494e+03
-5.835590892698014613e+03
-5.537919918055191374e+03
-5.006022853896377455e+03
-3.870821881334096361e+03
-3.695183509226785191e+03
-3.179087760788710511e+03
-2.743514783829120006e+03
-2.362419566177195065e+03
-2.396806567571695723e+03
-8.545994553661071222e+02
2.902218675180217360e+03
-6.522664909555447821e+02
-9.229950447224804293e+02
4.467181052404788716e+03
5.096265972423142557e+03
5.037184377662199040e+03
4.734934016584444180e+03
4.348498230493907613e+03
3.728883364854402316e+03
3.269160474147654440e+03
3.119415882059354317e+03
3.197733274387806887e+03
3.338125826816391054e+03
3.432640194174268800e+03
3.393352039723313283e+03
3.159299279421998563e+03
3.333556029882011444e+03
4.643205708372642221e+03
5.315320324319218344e+03
5.684962292220675408e+03
5.370192565263860160e+03
4.779048442570964653e+03
5.265575123628665096e+03
5.731738416722681905e+03
5.679603591267404227e+03
4.464130464544344250e+03
2.746365742463742663e+03
1.749304495279797038e+03
1.381979721261242048e+03
9.304548325953913945e+02
1.196732618092768462e+03
1.483844096818984326e+03
2.107858254369696169e+03
2.858893658985010916e+03
3.040117293331594738e+03
3.146629479707121391e+03
3.713593854250278582e+03
3.697173545553670920e+03
2.577370478242440640e+03
2.182052336839948111e+03
2.006418177790486652e+03
1.367520176258352421e+03
4.214426846324413418e+02
-5.088886249347642661e+02
-8.124935899759653921e+02
-6.923502516979511938e+02
-4.365113966463284214e+02
3.239737065752802323e+02
6.381511976864510416e+02
-3.322214149895391984e+02
-1.779981076064435229e+03
-1.820033447207654717e+03
-1.504458684550339740e+03
-1.579666647801557474e+03
-1.521941536499622316e+03
-2.329547938222452103e+03
-3.783566631550671445e+03
-4.015256999090247973e+03
-3.028726153401150441e+03
-1.971851000516353452e+03
-2.615937602884931490e+00
1.617980513834195335e+03
2.160909890498682216e+03
1.843178712077863338e+03
6.477994224406693320e+02
-1.005195332802754592e+03
-2.566754929374220410e+03
-3.048900600727708024e+03
-3.706755410698542619e+03
-3.242385866288323086e+03
-1.890913985562633343e+03
-9.433809393500337137e+02
-2.277886706301329127e+02
5.728964687426628188e+02
1.260676312184505605e+03
1.361567404760577801e+03
1.416597118030502315e+03
7.877536468646998173e+02
-3.769559970731218641e+02
-9.460339589042678199e+01
5.337634758149973777e+02
1.561361245354485447e+02
2.685189128693621115e+02
1.056864601586717981e+03
1.388080825085576407e+03
1.039171657817359574e+03
6.841457001160479194e+02
3.500305135628475455e+02
4.297142871336779422e+02
-8.897580054285587892e+01
-6.260999645609307436e+02
-8.667176954594874587e+02
-8.458474468426385329e+02
-6.865081976783737900e+02
-5.756913522890482682e+02
-5.313347122570880856e+02
-8.604188681083966230e+02
-3.050016478952654325e+03
-5.470261640855080259e+03
-9.081128138616528304e+03
-8.717659466897799575e+03
-8.875969158533833252e+03
-9.219206712289915231e+03
-8.564416240603455662e+03
-4.223598158185159264e+03
8.292180239876106498e+02
2.590066053504941124e+02
-6.043808853607428091e+02
-1.375863512462044810e+03
-6.134346059287214530e+02
-9.037950976515514867e+01
8.452981477023773778e+02
1.118614199192589012e+03
1.167517902664773374e+03
1.561050606578200586e+03
2.939144004181136097e+03
3.727729083935101244e+03
3.727805949065842469e+03
3.508319529820534171e+03
3.196234150300648253e+03
2.317621785364377956e+03
1.832494451507706117e+03
2.033724598221926726e+03
1.887289128306934572e+03
1.887200190125172867e+03
1.495438726839868650e+03
6.149061628815602489e+02
4.405952073494439674e+02
5.735628308901279979e+02
2.027352068047332239e+02
-4.521320593443607549e+02
-6.531870824100193431e+02
-3.104660547260212979e+02
-1.709673888641118538e+02
-2.867330371052537430e+02
2.332427122366303252e+02
5.590240255726481564e+02
9.766302574816769777e+01
3.850951668879934573e+02
9.952596198015589835e+02
