-2.390276386742935756e+03
2.341498297978766004e+03
5.451512644241953240e+03
5.581632153351865782e+03
2.553709022962571453e+03
3.664398611409985307e+01
-1.035669630712585104e+03
7.306182400568676485e+02
1.823580707867939168e+02
3.744726083824406260e+02
8.078777134578162986e+02
-1.047611601016805253e+03
-4.556023491065664530e+03
-8.514501612625064809e+03
-9.456236805994300084e+03
-8.726310971797935053e+03
-9.580799659378053548e+03
-2.205806800700872827e+03
5.735621982431775905e+03
5.745427797406820901e+03
2.416609803457625276e+03
-1.007788986667172367e+03
-4.920771266975677463e+03
-4.026261316559477564e+03
-3.769270446253696264e+03
-3.087804344230786683e+03
-6.609218853079560176e+02
1.094486323853533349e+03
4.502782331066176084e+03
6.850961553783472482e+03
5.896367223413135434e+03
4.272094732588834631e+03
8.580216018796430717e+02
-5.776831666493500052e+03
-1.109656541012713933e+04
-1.145412842256947624e+04
-9.228563734166509676e+03
-5.927805514728883281e+03
-2.134832465522520579e+03
-1.294660390862326949e+03
3.579601637661453992e+02
-3.470975995507262724e+02
-3.847722784467312522e+03
-3.739018821722984740e+03
7.470340010455411175e+02
7.386818268868899395e+03
1.020102119328304070e+04
7.439426616261712297e+03
5.954153739366674927e+03
6.361356657293635180e+03
5.127102106645291315e+03
2.862392809556178690e+03
1.603308663820838547e+03
-9.390636352281992458e+02
-5.945634976275304325e+03
-6.662314907259878964e+03
-1.550281153223820922e+02
4.947273516174375800e+03
4.211709998850999000e+03
2.182449842989841272e+03
9.625950079391643612e+02
9.522708860369988315e+02
1.667658183502101565e+03
2.084882099236966951e+03
2.740114984906289010e+03
2.150451581707423884e+03
1.920006747337827619e+03
9.268307197792317993e+02
3.040066334265012756e+03
5.414844461327878889e+03
4.782098893719871739e+03
3.981861331930027518e+03
5.504239506442133461e+03
2.871418178285488466e+03
-1.648415424126571907e+03
-1.813123112035108761e+03
-5.175815958332336777e+02
-2.398736335182419680e+03
-4.707452863038141004e+03
-5.000552684812776533e+03
-5.644804164864900486e+03
-2.175944564387727041e+03
3.639101880834409258e+03
6.624313134016242657e+03
7.271795553929951893e+03
6.061744408636665867e+03
1.175241431808987500e+03
-6.940725450818315039e+03
-1.102995613701058392e+04
-9.290281452857392651e+03
-4.940517289116069151e+03
-1.617460443737170408e+03
-5.619487535542459682e+02
-4.336961783263547659e+03
-8.862566080499240343e+03
-7.336429622610358820e+03
-1.374612692702161439e+03
3.912561890871409560e+03
8.951337060265352193e+03
9.531935795542431151e+03
9.805453850360430806e+03
1.028130290983170926e+04
8.919302938848904887e+03
7.019339822625281158e+03
6.247439850007730456e+03
4.506501353704523353e+03
1.835682473597598801e+03
1.345402338670455038e+03
2.180159639329427591e+03
2.606248673398221854e+03
4.519328038736935014e+03
4.598013471291355017e+03
2.784190250221245606e+03
-5.867437263753616890e+02
-3.745628387317579381e+03
-5.384828278021583174e+03
-7.378327069641261915e+03
-6.866998606747879421e+03
-3.172372439736339857e+03
1.379596781377334992e+03
4.416873486448209405e+03
5.285436813008797799e+03
4.556635020995787272e+03
3.216547675523039743e+03
1.927571282394558239e+03
1.444372800386412337e+03
6.712380317111022805e+02
-4.014399841886056208e+01
3.666276997985929711e+02
1.759550889348824057e+03
3.003784975956220023e+03
2.037674844691746557e+03
8.318648731113850090e+02
6.115742733558812461e+02
3.171938076270235456e+02
-3.869429130480248347e+01
9.066708037828261695e+02
1.085208867934044065e+03
1.354520778987229278e+03
9.013466555652008765e+02
8.522906859447155057e+02
8.713347579595576917e+02
2.267725920782786943e+03
3.468171937751167206e+03
3.904717685905008238e+03
3.234716149256326844e+03
1.493294078351711278e+03
-6.395826129714722583e+02
-3.722160867804796908e+03
-3.830580508214124166e+03
-4.352511568487570003e+03
-4.950300053274257152e+03
-3.927272020343098120e+03
-1.300134766984553380e+03
-7.866374956837238130e+01
6.408864703706855153e+02
5.513555268453736744e+02
-1.637769895076770808e+03
-7.177340509534388957e+02
1.648252436773894033e+03
1.706121163863625270e+03
2.798970917021300465e+03
1.734493293614325012e+03
-1.682545379752654526e+03
-3.258508281115495265e+03
-3.568357001259320214e+02
2.697678325920021962e+03
-1.944618358048432356e+03
-5.685918421064055110e+03
-7.049897725506206370e+03
-1.004838646822633200e+04
-7.875619375297394072e+03
-5.159865711912669212e+03
-5.868292261038332072e+03
-7.336889023595559593e+03
-7.396038876475916368e+03
-6.587785586410596807e+03
-7.164505848940889337e+03
-7.068361571755449404e+03
-3.151372946678961853e+03
-8.061636625044116045e+02
-3.693970119789267756e+03
-3.344015608764284934e+03
-1.364347097434919306e+03
-2.108182567661301619e+03
-2.817700182188266353e+03
-3.148940479041732488e+03
-3.868319558410095851e+03
-5.526574012540198964e+03
-7.150693522559106896e+03
-8.656609006283650160e+03
-9.250681685367082537e+03
-8.147934171523372243e+03
-6.800290200131846177e+03
-4.507341791118055880e+03
-1.563879116584653502e+03
1.238143709696497353e+03
-2.437533822046883358e+01
1.034877011492055345e+02
2.186309490265717614e+03
2.453843112633717737e+03
3.019884506529085229e+03
5.195529311861773749e+03
6.218167562423139316e+03
6.075589518008826417e+03
5.593210014996474456e+03
5.054006770728182346e+03
4.458868448067414647e+03
4.753339109917750648e+03
5.230537705950820055e+03
4.838594801660503435e+03
3.758145331385973350e+03
2.781830066550265656e+03
2.069791829114168195e+03
1.349287977019593200e+03
1.021393947204663164e+03
1.127663510457744451e+03
1.438466112736245123e+03
1.622752310675545459e+03
1.600693829597333206e+03
2.933182868875431268e+03
4.540980405708138278e+03
4.234288783979341133e+03
2.554296529894091236e+03
1.359010485618025086e+03
2.142661549266234942e+03
2.657304473474849146e+03
3.396693900428664620e+03
3.804581597836784567e+03
2.733618800446070509e+03
1.303723677737418939e+03
1.636406391066476544e+03
1.944336096653595860e+03
4.480824991149063976e+02
-2.826454938028215338e+02
-5.493588000422282676e+02
-1.372998922904738947e+03
-2.751656359488447379e+03
-3.289132881835523222e+03
-2.862057657293109060e+03
-6.296433779326074500e+02
1.984697987387291278e+03
3.106483851972909633e+03
3.594309293174534105e+03
2.893448444719757845e+03
2.283629676019175804e+03
2.774334871614134045e+03
2.380134463812089052e+03
1.304061095719924651e+03
1.072004407725438568e+03
1.680703778696873087e+03
2.517451984443068795e+03
2.449270177841862278e+03
1.672004424319865393e+03
1.093038900532033495e+03
5.790400268882474393e+02
5.011965444429433205e+02
8.755715209171062270e+02
1.259899851495197481e+03
1.610211772823646925e+03
1.678732042514022623e+03
1.776778973074574878e+03
1.799359544362548831e+03
1.723386788280027076e+03
1.311660614743572751e+03
1.647387428185999852e+03
2.295507646999074950e+03
1.962982618566377369e+03
2.352014982386539941e+03
2.873781172469836747e+03
2.006401005975338421e+03
1.366696739298611419e+03
8.215076427039286955e+02
-7.016391351161698431e+00
-6.995859244187350896e+02
-1.532433483012975330e+03
-1.890026484260802590e+03
-2.273021621114256050e+03
-3.769322804920148428e+03
-5.960826832418750200e+03
-6.601807507476848514e+03
-5.640150172862454383e+03
-4.161882357626333032e+03
4.308317811218017255e+02
1.619981439078843096e+03
-2.806534150197587110e+02
-3.659042742705229557e+03
-4.433929904528638872e+03
-4.789268191334943367e+03
-4.161862301166291218e+03
-4.837319292662105909e+03
-5.341608824411751812e+03
-6.267046090703919617e+03
-7.096853797263162960e+03
-7.336182087633445917e+03
-5.657094236744899717e+03
-4.131392767690565961e+03
-6.787126640662962927e+03
-7.191123354854094032e+03
-6.978054452257825687e+03
-4.425091465899431569e+03
7.403800448551705813e+02
2.608016236696034866e+03
2.743097534075868225e+03
2.946073773629004791e+03
3.470945810604620874e+03
3.627606172838517523e+03
3.639184251093425701e+03
3.333805104353418301e+03
3.246430070333163258e+03
2.683255556456697377e+03
2.087547894588350118e+03
1.586026226832372686e+03
1.118096064879325240e+03
3.127712038498941070e+02
-3.448831839930337395e+01
-5.175373938300308509e+02
-7.844026005999241988e+02
-3.701608923612045032e+02
-2.348461011895855677e+02
1.626266228620952461e+02
3.502769073063436736e+02
8.462033084903692952e+02
1.723441814807193396e+03
2.155072555310060125e+03
2.199899421294033345e+03
2.188851176560519434e+03
2.223142907444928369e+03
2.084848447375545220e+03
1.511804067844316251e+03
1.770375212534743468e+03
2.002818436465293416e+03
1.977881838676405096e+03
8.874465026664651077e+02
-3.942368294519957885e+02
-1.075040587354346144e+03
-1.102094991640127319e+03
-1.038330973818931398e+03
-9.400563129980005215e+02
-9.444746740449700155e+02
-1.104435229542952129e+03
-1.266744989733237844e+03
-1.061323761207210964e+03
-8.177966250088489915e+02
-8.096654152761617524e+02
-8.768847653765838004e+02
-6.758545644275932318e+02
-4.338145782523407661e+02
1.391384716249529845e+02
1.750752961837598036e+02
4.648738020301454554e+01
4.625270736363276001e+02
1.253813286469489867e+03
5.630765494317506636e+02
4.861455510422184148e+02
1.369836864491973529e+03
6.083470758976986872e+02
1.004693972871084043e+03
1.886922495583818090e+03
2.123190800427137674e+03
2.653610065881805440e+03
2.844174182540367838e+03
2.711004321195548528e+03
2.698205644968293655e+03
2.322623901557581121e+03
1.950195390546031604e+03
1.954930534204690048e+03
2.387688459619527293e+03
2.325594029679055438e+03
1.863843629930707266e+03
1.755630400940358868e+03
1.307973746015773486e+03
1.051825748792297418e+03
1.822471602058556073e+02
-1.839340579431723484e+02
-4.510159933921780748e+02
-5.511707204022261521e+02
-9.383939810988977115e+02
-6.535728147042611909e+02
-5.775554281989027459e+02
-7.222102000298420990e+02
-7.489874142059095519e+00
4.665655872967689675e+02
3.889664443219853638e+02
7.757175980315710149e+02
1.136721083431173156e+03
8.028731939000424518e+02
4.691348995754753446e+02
5.555985814173884592e+02
7.272501798927751224e+02
2.930191553633845842e+02
1.489017383771051470e+02
-2.920795208134824748e+02
-7.430779183784467250e+02
-1.293094608889661004e+03
-1.379134230704806669e+03
-1.376154936413869336e+03
-1.203255179859745112e+03
-1.168450496939562527e+03
-9.398536890222136435e+02
-5.864293456973105094e+02
-2.714811360205561996e+01
-1.459796475431336660e+02
-5.208447395409698402e+02
-6.916635493120379579e+02
-5.763249769370848981e+02
1.559479118878122392e+02
5.031234860441671799e+02
3.371379881229613034e+02
4.378627682721019028e+02
4.671160924670263057e+02
5.629227015441538242e+02
5.652421384127624151e+02
2.821196894532487249e+02
-6.213020721534735458e+02
-1.132290496006556850e+03
-1.839095681065907002e+03
-2.068740595455950825e+03
-1.793996235011377848e+03
-1.463606871620557513e+03
-1.102398534486530934e+03
-7.375964403020033160e+02
5.233288508360394076e+01
4.331680067394707407e+02
4.587413948005469706e+02
7.129710287254434888e+02
9.767600750993774454e+02
1.222913791139893874e+03
1.072236805187448681e+03
1.062564719007597432e+03
8.730420925613589134e+02
7.769318253168031561e+02
3.098845022387800441e+02
-3.622181709055303713e+02
-1.144197772603941985e+03
-1.573033186118801041e+03
-1.817391177456815967e+03
-1.975136721220355412e+03
-1.872870010438232157e+03
-1.261957185976424171e+03
-8.815116165662602725e+02
2.476252070693216467e+02
1.330446882565468513e+03
2.114969701561597049e+03
2.139223620992304859e+03
2.237251061164704879e+03
1.855058469158674370e+03
1.308587527950542380e+03
9.467747340563897751e+02
8.004634418604803159e+02
8.325919478354893499e+02
5.019956882643636504e+02
-2.047279370028742917e+01
-5.318967605513710168e+02
-1.068974668102586747e+03
-1.158859831857776499e+03
-1.030735511582613981e+03
-7.425498282459328721e+02
-4.904711124519075724e+02
-4.844460732943592802e+02
-3.064042393717692221e+02
9.038998197622320276e+02
1.527306044796832566e+03
9.768140503753706980e+02
1.074479851652869229e+03
1.304283151794799551e+03
5.901429812185058381e+02
-1.379933868032997452e+03
-3.902887451752352717e+03
-1.550670274434001840e+03
-5.623075451248229228e+02
6.782016472429294254e+02
-1.977155134645229509e+03
-6.614063147258269737e+02
-2.055555313169340025e+03
-2.422606750949048546e+03
-1.959575619990029509e+03
-3.243511886182668604e+03
-2.861469883255902005e+03
-1.857324443691986517e+03
6.250656620582999494e+02
-1.031211690712360905e+03
-8.002561840387626262e+02
1.721951419774577744e+03
5.024329015556489821e+02
6.092152356987327266e+02
-6.655959851083867989e+02
-1.018911122425953181e+03
7.191298252386005743e+02
2.586497867546785528e+03
2.630331960852431166e+03
1.020672019693808011e+03
-3.374848801258861499e+02
-2.529072637308890535e+03
-2.024997923347861160e+03
6.086515094102938974e+02
-1.208157819145484609e+03
-5.155670531600320601e+02
-1.320623924797394238e+03
-1.463237447870547612e+03
-1.584336101768918979e+03
9.212489065883030435e+02
9.456986059603804051e+01
-1.858456386623757680e+03
-1.717019443507231529e+02
-1.627059447246207810e+03
-3.905552171887202348e+02
1.974702715581869825e+03
2.535691480851397955e+03
2.393518685219801228e+03
2.316273687704359872e+03
1.762014389310313845e+03
1.281739858675779487e+03
5.214496258350831113e+02
4.081562629492545966e+02
-3.112140242417095237e+01
-3.133770605020582707e+02
-1.545899749262186731e+02
-1.957292274862955139e+02
-5.017460689983232669e+02
-5.705898074637019590e+02
-1.761728754257953824e+02
1.584771290763595175e+02
2.963832990839379136e+02
5.226235603894332371e+02
6.191542878811249011e+02
7.979684389967339939e+02
1.087250999506634571e+03
9.460583250772644988e+02
1.103328929315217238e+03
1.209090153740832193e+03
7.863768081827587366e+02
3.322818375626798115e+01
-4.014284035647633004e+02
-8.585821949006532350e+02
-1.762045741930572831e+03
-2.059545889765889115e+03
-1.454150083592496685e+03
-5.909731345774110878e+02
4.309364384482908577e+02
1.296327623730011737e+03
1.667532930026467511e+03
2.035713706372660454e+03
2.486984233312591641e+03
2.362328350438091093e+03
2.029643661096620235e+03
1.963902177492694364e+03
1.852242149983912213e+03
1.753781225456348466e+03
1.453627958498494763e+03
7.613656510819046161e+02
3.749916813168997010e+02
-1.295668225000609937e+02
-4.513355421921622792e+02
-1.159996119381340350e+03
-1.356690018265252775e+03
-7.774876325077250385e+02
-2.595409420787221393e+02
-8.089380003448528669e+02
-7.007114812272543531e+02
-7.028451533852164630e+02
-2.563658785056332476e+02
3.706969332678336855e+02
7.093638007479438556e+02
9.106128962982290886e+02
8.604717261603187808e+02
1.295886414231596518e+03
1.490920654894295922e+03
1.354552214294831401e+03
1.271722590327848138e+03
1.170397235483132590e+03
1.404610602051660180e+03
1.554336328903979847e+03
1.409528431063998596e+03
9.071822398202842805e+02
3.082475928063098536e+02
2.157433073175544394e+02
4.176247347515420643e+02
3.058548137428698510e+02
5.714001841936809569e+02
6.322911616031950643e+02
1.150532242701385258e+03
1.339063072896707126e+03
1.139866409111619532e+03
1.128971831062312731e+03
1.042403557525446104e+03
9.511755206461533589e+02
9.511632682327474413e+02
1.134288427758075159e+03
1.086555306855125082e+03
6.090426567120122172e+02
3.757580832494136303e+02
-2.853447073666316101e+02
-1.019365634296893745e+03
-1.718292773417862463e+03
-1.907142657348744933e+03
-2.254960777454391518e+03
-2.430740045437059507e+03
-4.146543163164100406e+03
-6.438378061105046072e+03
-8.162253091728839536e+03
-7.316160176711317035e+03
-6.089096707133157906e+03
-4.402098886574012795e+03
-3.953164739556240875e+03
-4.582358113534673066e+03
-4.414699087688602958e+03
-4.345188262402518376e+03
-3.620850568997757819e+03
-6.407903002660747234e+02
1.411037512317506071e+03
2.403530937047991756e+03
2.056656402856166096e+03
1.364505656675590217e+03
1.194957519912853286e+03
7.899506853481575490e+02
5.335180714165577456e+02
7.646054323462694811e+02
1.148217483792282565e+03
1.278385175458982303e+03
1.039093095255163689e+03
1.225407257491963492e+03
1.216331993963226751e+03
1.065828685490776024e+03
7.898493640856527236e+02
7.864066378419702232e+02
9.795424883882368476e+02
7.291986027258127478e+02
7.134183651209837080e+02
6.651204249783960449e+02
7.763516063269856886e+02
8.880920490103068232e+02
7.923418090000752727e+02
1.841356354315967678e+02
-8.126075020286773452e+02
-1.658959645066538087e+03
-1.795888165211890964e+03
-1.555397407651271351e+03
-1.087598358015588474e+03
-7.383613658177346224e+02
-2.286439183959393802e+02
3.865231177102642164e+02
1.241133286304150943e+03
2.199267677154854937e+03
2.517951754309151511e+03
2.343129607494411630e+03
2.233813133269707123e+03
2.134016696305605365e+03
2.446667786058018919e+03
2.466764816384288679e+03
2.066391349850481220e+03
1.957583930286617260e+03
1.893260980200798713e+03
1.068415614857663059e+03
1.710848283655620037e+02
-5.306191477008857191e+02
-4.167620635496367640e+02
-1.283750789034924082e+02
-2.685628701283266082e+02
-5.192809618924907227e+02
-3.214991104565823434e+02
1.067465701227644388e+02
7.464949712023895927e+02
1.005763181347684053e+03
6.236573777803971552e+02
6.451925465783749587e+02
8.783247737434220426e+02
9.990363102419188408e+02
7.512849329121796700e+02
7.380705406379980786e+02
5.493943938407887799e+02
2.253636572007946484e+02
-1.249003545871235701e+03
-5.340662114900032066e+03
-5.480701005058443116e+03
-3.925049835351494949e+03
-2.257569701134043044e+03
-1.566350290436460000e+03
-1.705430350963300498e+03
-3.592866035998971711e+03
-2.359601085134465393e+03
-1.703578653382377070e+03
2.191567038996381314e+02
-2.140386385910616809e+03
-1.708039034758560774e+03
-1.648663185034673234e+03
-2.526305156156767225e+03
-4.420739045789993042e+02
-9.539827272430826497e+02
-1.706960234547726714e+03
-1.062071512928878519e+03
1.340737993558725293e+03
1.544888060784726065e+02
2.611960824053267061e+02
7.009868142034083576e+02
-3.151641816638823457e+02
-6.123945817211521216e+02
-1.150651344742909487e+03
-1.691938419104547393e+03
-1.450317144107139029e+03
-8.757473306291400377e+02
-5.171003366206064129e+02
1.769465732857967666e+01
-5.131435081837408774e+01
8.714342424053721459e+01
4.101130419107166745e+02
9.864999624898165393e+02
1.336253938167979186e+03
1.516453877168163899e+03
1.552277847548063164e+03
1.906758437179041948e+03
1.801547900206523082e+03
1.792357213116047433e+03
1.037067178047003836e+03
-1.783302937669530593e+03
-2.254421849959179781e+03
-2.558801690816581413e+03
-4.466328494312917883e+02
-4.784251211125830991e+02
-6.885616591042272603e+02
-3.249285110011724669e+02
8.628968502877172568e+02
1.564078445074846741e+03
1.598900961353655475e+03
1.507775967744119725e+03
1.880610638629002779e+03
2.012861440747000870e+03
1.933353555675396365e+03
1.887314317409265186e+03
1.808393557523260370e+03
1.871748933972438863e+03
1.714875589520815765e+03
9.540184534675828445e+02
8.375130821734624078e+02
4.731824278867955513e+02
-3.587225533071550103e+02
-1.461685802120666949e+03
-1.715505313705076333e+03
-1.552661827536876672e+03
-1.430670169794882440e+03
-7.794261508069350839e+02
-3.041409320398511440e+01
4.054573189083446891e+02
1.207867606688806518e+03
1.747937704129289386e+03
1.789615593022950634e+03
1.330753782422706990e+03
1.550011048583316779e+03
1.856445809897843901e+03
2.105650612954418193e+03
2.517749683492172153e+03
2.113905498404760237e+03
1.861509205512788867e+03
1.589482899576638829e+03
1.343670633388344640e+03
8.300189106030396715e+02
3.206388097547028337e+02
3.278040822085890227e+02
5.883458268307429080e+02
5.189076013813152031e+02
8.871112130935122195e+02
1.519273151778781994e+03
2.307968536634344218e+03
2.347001059007687672e+03
2.121308061192146852e+03
2.066925443796074433e+03
1.943476759340308263e+03
2.236689535833821537e+03
2.096092695150549844e+03
1.905101481800984629e+03
1.996730794678244592e+03
2.110558383595272971e+03
2.013439665962577919e+03
1.520754219870844963e+03
9.817271320078286863e+02
5.180124419656423242e+02
1.281931779672580660e+02
4.484425782460994725e+01
-2.789041882174124964e+01
3.287835757159454602e+02
4.718992468756492258e+02
4.657358631896067322e+02
2.629690833239529297e+02
7.089088674193839097e+02
1.798679214293795212e+03
1.899684465186970556e+03
1.578961072518032779e+03
1.294391777601994136e+03
8.190708214172623229e+02
-7.927817744738423471e+02
-3.156533966425658946e+03
-5.310936860269320277e+03
-5.706168763800066699e+03
-6.111647789430816374e+03
-6.674657111723773596e+03
-7.384244378509590206e+03
-7.744403624320369090e+03
-6.569636616181792306e+03
-6.545856568082667764e+03
-7.530372834078937558e+03
-6.853951138692024870e+03
-7.315448471855731441e+03
-7.277409526717505287e+03
-6.790853847108483023e+03
-4.471338455165827327e+03
-5.721855250769812073e+02
-1.802754755779842981e+03
-2.894472992626542236e+03
-2.925019240471183366e+03
-2.986466172298883066e+03
-3.282012999750210838e+03
-3.551551914938022492e+03
-4.161196808325942584e+03
-3.979113160095390867e+03
-7.485519614412614828e+02
3.647356478577256098e+02
4.830109972473149469e+02
4.953052147221188193e+02
6.936397009883039573e+02
1.082487186572637938e+03
1.283437726069608516e+03
1.714935032509411485e+03
1.856770392469402850e+03
2.537342846710811500e+03
3.098578160592665427e+03
3.140806578621530662e+03
2.825185573807007131e+03
2.602548793804673551e+03
2.546641686848316567e+03
1.792866459139011567e+03
1.165776251994423092e+03
7.066254464877183636e+02
4.459871905055296111e+02
1.272570708503021280e+02
-6.903676939375754955e+02
-1.494958034025136840e+03
-1.153925343956327197e+03
-6.640820091037214752e+02
-9.972098014075548917e+02
-1.448798012005862120e+03
-1.244419888935462950e+03
-5.292063675171046953e+02
3.162986442979299113e+02
8.123666123007349142e+02
6.740050746898511989e+02
6.231385856137737846e+02
6.585976055130776103e+02
5.764907293186228117e+02
5.267872751809056808e+02
-1.850995825118734572e+01
-9.043155802593369685e+01
-1.376067906049290634e+01
-3.424391761992390002e+02
-5.243245264954314280e+02
-1.400784398524705239e+03
-1.896680453530521618e+03
-2.228352800037108409e+03
-2.455452471477035942e+03
-2.496540402346312021e+03
-2.449206284314003824e+03
-1.939347506927427730e+03
-1.413625389132191458e+03
-1.254925617743190060e+03
-9.691155378904062445e+02
-5.458617866247208461e+00
6.077681352027558432e+02
6.596640263550907548e+02
8.022985170897034379e+01
3.193851265927273744e+02
3.652254861348516215e+02
1.525794177927350290e+02
-4.674372311076379560e+01
-1.779691259337192264e+02
-4.972932188254463881e+02
-9.417306982399843491e+02
-1.258235631621905668e+03
-1.626689178452451415e+03
-1.461177102486067952e+03
-1.153062920568288064e+03
-8.114499195440474750e+02
-3.902538316059747103e+02
-5.048813109387759823e+01
5.846996783452958653e+02
9.760536037201281943e+02
1.755743336824131802e+03
1.779736071474446362e+03
1.718980161843142014e+03
1.824246776991640900e+03
2.061427663987919004e+03
3.098468119227122315e+03
2.918215317070224955e+03
2.437345206944814890e+03
2.155734274059613199e+03
1.492371785682104701e+03
7.501292123268201806e+01
4.385257153823970100e+01
3.510026187790857932e+01
1.143576766390197719e+02
1.599265060619254655e+02
5.675425378850363813e+02
1.314574907639250341e+03
1.845416503022583584e+03
2.785886454931566277e+03
3.418712494941591103e+03
3.344213482182323787e+03
2.713140427825237566e+03
2.893570086393891415e+03
3.313797219525175478e+03
2.998835534189800001e+03
2.475561589378090957e+03
2.452563840459420135e+03
3.840322893400272278e+03
4.823609895591556779e+03
5.761088604449905688e+03
5.689858865089543542e+03
5.413057903333895410e+03
4.992633853012899635e+03
3.915506934147323591e+03
3.250393795026602220e+03
3.306779786448230425e+03
4.497864833625247229e+03
5.534930695504490359e+03
6.363995507367331811e+03
6.951772355459900609e+03
7.019938819964589129e+03
6.842367441515950304e+03
6.079895731350752612e+03
5.594325289785541827e+03
5.282528436401231374e+03
4.950712769816293985e+03
3.424234830947920727e+03
2.872911056498249309e+03
4.172406296700814892e+03
4.487426664012155925e+03
4.248072706381062744e+03
3.574448232761801592e+03
3.032464405679690572e+03
2.608854954895975879e+03
1.486606559409374313e+03
1.648254780877909553e+01
4.277892311972239554e+02
2.342503122754096239e+03
4.085637068939638993e+03
4.318201191761559130e+03
4.307928684147423155e+03
4.666062130642141710e+03
3.594703379788490565e+03
2.496746976390567397e+03
1.432988321001609847e+03
2.247493647834934336e+02
4.159689544891600690e+02
4.385340257073662542e+02
-1.016392619272144088e+03
-2.386524153605433639e+03
-3.289632821411428722e+03
-5.251697503668386162e+03
-7.447855552122188783e+03
-9.345449775992383366e+03
-1.085954654961402775e+04
-1.291317906678444706e+04
-1.209818465020645635e+04
-1.045741087309115937e+04
-9.681581375450603446e+03
-9.336514506563298710e+03
-8.269992974035634688e+03
-4.650089606982567602e+03
4.002285104598259977e+02
1.689240206852584151e+03
-4.208915874142877556e+02
-4.613306735274948551e+03
-9.499711694542012992e+03
-1.089561534234048304e+04
-5.694321864355647449e+03
-1.418424822877086172e+03
-1.866554480430776721e+03
-8.399801481137750670e+03
-1.648946315641661204e+04
-2.005854624749757568e+04
-2.205283512669581614e+04
-2.156391486201538646e+04
-1.661554686413379750e+04
-1.272082984474480691e+04
-9.901705212196946377e+03
-9.646831486826971741e+03
-1.991016375519105713e+04
-2.820553097383609929e+04
-3.218668631920193002e+04
-3.305845346467276249e+04
-2.950771843385415195e+04
-1.872634031279025294e+04
-9.117140460406744751e+03
-5.495931943727552607e+03
-6.566584467729215248e+03
-2.275782506221694348e+03
6.869686532673869806e+03
1.370600909087884793e+04
1.303926578024478476e+04
1.488442788899735206e+03
-1.033534146665986009e+04
-1.700882523443663013e+04
-2.270382583463417177e+04
-2.791498071357157460e+04
-2.103790035987953161e+04
-3.714590155811025397e+03
3.307873312758637894e+03
6.871743379084085973e+03
1.251614242811780787e+04
1.101725660944965966e+04
3.652249974553109496e+03
3.327255731078257668e+03
1.876745861248202709e+04
3.711716929093102954e+04
3.453232600134272070e+04
2.120794146233731954e+04
2.025920636621733865e+04
2.565737301809113342e+04
2.606966646611329270e+04
2.131801409551844699e+04
2.069041576668326161e+04
2.063491303220098780e+04
2.205661170231795040e+04
2.335168446776713245e+04
1.922517556176781363e+04
1.029017831449882397e+04
6.182794036034795681e+03
7.205474566684736601e+03
8.527291926087165848e+03
4.864077332539597592e+03
-2.316207905121853855e+03
-5.861574677737530692e+03
-6.592053201733276182e+03
1.982534220833793597e+03
6.704230418681943775e+03
6.862978009559932616e+03
9.848890659526749005e+03
1.078508683972229846e+04
1.236049401110545296e+04
1.871402792767159190e+04
2.210172964025339388e+04
1.641571290724796563e+04
1.094084284618118363e+04
9.141960943008392860e+03
7.448196527094722114e+03
3.190669935152009202e+03
-1.986667500036199726e+03
-6.476951191927728360e+03
-3.274126074090487236e+03
3.932891978500865207e+03
9.496029502393361327e+03
1.061021213015641479e+04
8.468510298391029210e+03
4.946840142004049085e+03
2.959777151740378827e+02
1.032961900456613876e+03
2.171630968213717097e+03
-1.581916222873637025e+03
-3.608180852571445939e+03
-5.621446714513409461e+03
-2.722529374821107467e+03
9.553998145384585428e+01
-5.500480798111180775e+03
-3.759805948160658772e+03
6.714412033752058960e+03
1.250567583131544598e+04
9.261482290316182116e+03
2.713463809706435313e+03
5.100649730525876294e+03
8.178066933524947672e+03
9.932534645712599740e+03
9.691824884847350404e+03
4.695722818308719070e+03
-4.841033173524645008e+02
-3.846563553528601460e+03
-9.097064222106977468e+03
-1.631380853898386340e+04
-1.968107963830983499e+04
-1.687501513512039674e+04
-8.052721491021968177e+03
-1.178358848903140142e+03
-1.724061385316282667e+03
-4.943165659228240656e+03
-5.865839991661307067e+03
-5.955081001804540392e+03
-9.832971427771179151e+03
-1.953065290944493609e+04
-2.759228463604395074e+04
-3.162908521569311051e+04
-3.502920613275334472e+04
-3.263278917171368448e+04
-2.449297666168644719e+04
-1.182191787928774102e+04
2.216246016254911410e+03
1.394034993734676573e+04
1.617126784784523625e+04
7.310956016864668527e+03
2.218182105989475531e+03
6.056683571254919798e+02
-4.087763680088132332e+03
-4.380256073530584217e+03
-1.562948714512730248e+03
1.584057502285130340e+03
4.144639483493120679e+03
4.119680611532818148e+03
4.560143857934025618e+03
4.340034694488814239e+03
2.996176145140398148e+03
6.249340853892250180e+01
-1.126147579726630511e+03
-1.716878282945787305e+03
-9.447403679403612387e+02
-5.521861807666356981e+03
-1.173626049841042368e+04
-1.154000001022169272e+04
-6.194176582537867034e+03
-4.726898214724520585e+03
-1.075723084277878843e+04
-1.608021470457607029e+04
-1.904988974546609461e+04
-2.241335627568466225e+04
-2.385862280443093914e+04
-1.470870491829350976e+04
-5.677699574039778781e+03
-3.635613490946845104e+03
-7.484515957559412982e+02
1.647877554731828695e+03
5.399317646689690264e+03
7.934960346873750495e+03
9.710759783397539650e+03
9.223709621887763205e+03
6.692833196346657132e+03
4.714161563037444466e+03
4.102701253408241428e+03
5.919462942015717090e+03
7.706614840373532388e+03
6.325190307590287375e+03
4.026060455879017354e+03
3.353240163364901491e+03
3.373793556309150063e+03
2.840782493826940026e+03
2.380393632175388796e-01
-2.897405470906475671e+02
5.368937596280291018e+02
2.314299810821411484e+03
2.999587780798015956e+03
3.933855539533695264e+03
5.760192412950973448e+03
6.883621675800019148e+03
4.600316834800573815e+03
1.451410151936177954e+03
-3.680165439559391984e+02
-4.129849710639729892e+03
-3.987895507099204224e+03
1.106842853757309513e+03
4.034456124211059887e+03
-3.029441727789234733e+02
-7.498252643916322995e+03
-9.180377037702215603e+03
-4.260275526872928822e+03
8.071742572675174188e+02
5.342031157774737949e+03
3.103473882442944159e+03
-1.049290468992011029e+03
-3.698084956398679424e+03
-1.428750402132834552e+03
3.907782711871826905e+03
1.101767500256132553e+04
1.517812777169642686e+04
1.458025559641325162e+04
1.239504363717618253e+04
7.378596465467164307e+03
4.485034734149673568e+03
4.131529061585973977e+03
4.542242807463883764e+03
6.208348752098801924e+03
6.324035238044485595e+03
9.903780303871509432e+02
-1.645503885169280693e+03
-6.552694316603803770e+01
4.248352686211305809e+03
7.468267115341165663e+03
8.353328391856139206e+03
8.672698647709072247e+03
8.360579419424893786e+03
6.170192456224731359e+03
2.502608562061614975e+03
4.308969481390741407e+02
3.233091272257987612e+02
2.512074723898191223e+03
3.668208220822256862e+03
2.471605836108602944e+03
2.582318724106795798e+03
4.267514972077009588e+03
3.642382489893792808e+03
3.128944368868438687e+03
2.554196102618005170e+03
7.302601915874997758e+02
-1.627736906290334673e+03
-1.727862737921935832e+03
-1.701161188207477608e+03
-2.476594142439884308e+03
