-1.607456532273857738e+05
-9.032031412055730470e+04
-4.777744167602252855e+04
-1.376567838316399320e+04
1.338253922249374045e+04
2.767243647105776108e+04
3.705112486861398065e+04
4.609488990006327367e+04
5.136603247405520960e+04
6.426813996120131924e+04
8.566546955125375825e+04
1.013754425199541001e+05
1.121326523855682026e+05
1.289892724035809952e+05
1.372801790973093593e+05
1.345739013995679852e+05
1.350797647924886842e+05
1.352179700023545884e+05
1.353955527595296735e+05
1.301156859558791766e+05
1.242735831407837977e+05
1.192522742301448889e+05
1.177589059296030173e+05
1.160106438089415897e+05
1.158946822893611825e+05
1.164778558503186941e+05
1.123407848270776449e+05
1.064914274898908188e+05
1.033467629771892680e+05
1.003455989062816225e+05
9.750474262113282748e+04
9.516213574277982116e+04
9.212369242463185219e+04
8.968132562707000761e+04
8.707589816935396811e+04
8.572309548361031921e+04
8.348450119295484910e+04
7.836368004303271300e+04
7.229017522385552002e+04
6.734670044484705431e+04
6.017900626551824098e+04
5.009450854931534559e+04
4.247932737188621832e+04
3.808305549337343109e+04
3.675596060137302266e+04
3.515121951200972399e+04
3.126410394500181428e+04
2.929388708821633918e+04
2.640981160592462038e+04
2.556369032398863419e+04
2.889516892884085246e+04
2.805117952671006060e+04
2.587089206540580926e+04
2.565544733906092733e+04
2.299155699722774079e+04
2.091919069345829485e+04
1.725232211944405572e+04
1.151072987916332931e+04
9.521150640671301517e+03
9.248128806874610746e+03
4.357260562845643108e+03
-6.147862322894820863e+03
-1.115583593118166027e+04
-1.025721176833802201e+04
-7.850429884011366994e+03
-1.335500715329397462e+04
-1.949063322414517461e+04
-2.514287547676122631e+04
-2.979332624485079214e+04
-3.168284256400493905e+04
-3.195569101804103411e+04
-2.951453094332583714e+04
-2.119506688135100194e+04
-1.301397932370370472e+04
-1.242202355804385115e+04
-1.505192320243610448e+04
-1.589936662213872842e+04
-1.759144436729194786e+04
-2.109043377633798445e+04
-2.621842231743540106e+04
-2.799314429337119509e+04
-3.018570562443068775e+04
-3.402309938069267810e+04
-3.695207772923049197e+04
-4.098484024140395195e+04
-4.129383341381573700e+04
-4.313431333624581021e+04
-4.602669450680273440e+04
-4.647559496433239838e+04
-4.639353471677811467e+04
-4.559247502960456768e+04
-4.454559598663767974e+04
-4.428107779106717499e+04
-4.644894777263241122e+04
-4.654631114649645315e+04
-3.960735985607100883e+04
-3.200141405025991844e+04
-2.481867442052841579e+04
-2.273920550523071870e+04
-2.346040868474224771e+04
-2.527642698056726294e+04
-2.697639088264944075e+04
-2.748479392562701105e+04
-2.855907910730294680e+04
-3.080561911621360923e+04
-3.179654069182530657e+04
-3.212708548085302391e+04
-3.035177763316437995e+04
-2.621976307913996425e+04
-2.440734001106768847e+04
-2.412577702891296576e+04
-2.235183229847399343e+04
-1.986862706206412986e+04
-1.986561285157375823e+04
-1.916384055526116208e+04
-1.356831599929130971e+04
-9.769207751327257938e+03
-9.018366124942083843e+03
-9.795865282479626330e+03
-1.036376492979077011e+04
-1.031912005723329275e+04
-7.390778556503027175e+03
-2.708537959313984629e+03
-2.091243373046003398e+03
-3.936839429012392429e+03
-9.587641154600556547e+03
-1.342386437853559073e+04
-9.370936579897628690e+03
-1.048763168718169936e+03
1.874025882910244263e+03
-9.050650593218626909e+02
-7.574861203421734501e+01
1.804133846695475313e+03
3.113986013725991597e+03
5.848599896032118522e+03
6.423534144330539675e+03
6.646071928387631488e+03
7.860853121361024932e+03
6.534575388751693026e+03
3.065708056252120514e+03
1.192325683814520062e+03
7.177587435006000760e+02
1.804620954005780277e+03
2.184586403505120416e+03
4.828102705857430010e+03
3.561976401464974060e+03
1.113299236793767022e+03
-1.887276723991640210e+02
-2.626447578441801852e+03
-5.187850684045326489e+03
-2.814704915325504771e+03
-1.285581692182957113e+03
5.578448787465241594e+02
4.473242147636330628e+03
6.585555698027228573e+03
7.371867438526983278e+03
8.005608492369477972e+03
1.020616633970992370e+04
1.516866823512386327e+04
1.808682134573509029e+04
1.641431201927722941e+04
1.332904583564302447e+04
9.175230453407653840e+03
6.644943144336909427e+03
8.223340111191715550e+03
1.066668942524871272e+04
1.143560477045239168e+04
1.141511982972799524e+04
1.120637458566126043e+04
1.085526302172689429e+04
1.025559916765177695e+04
1.232844674158512316e+04
1.559768962181219831e+04
1.630350727982842000e+04
1.561328785757120204e+04
1.502511146537788773e+04
1.654260635802464822e+04
1.775052714086001288e+04
1.827828887228152234e+04
2.031879691385963088e+04
2.204274281203627470e+04
2.049290175204286061e+04
1.801788356152604320e+04
1.661768260199728320e+04
1.591970166087598409e+04
1.623320592391439823e+04
1.496670235641848194e+04
1.336643602523382106e+04
1.338101143624308133e+04
1.281114389459941049e+04
1.234003120473166382e+04
1.230827151488701202e+04
1.166774191859825441e+04
1.144008816374156231e+04
1.254134070620171588e+04
1.274585654450674338e+04
1.208845581638654767e+04
1.024847997398523330e+04
9.154508130905633152e+03
8.040772673549449792e+03
8.360700338002025092e+03
9.299315270790531940e+03
8.945425668012318056e+03
7.202801473679051924e+03
4.901326370947784199e+03
5.090158430009878430e+03
2.989646396047307462e+03
-2.007102491263499815e+03
-5.425769421161619903e+03
-5.119058796381673346e+03
-5.209312984775830955e+03
-5.315992201068626855e+03
-4.916275900732788614e+03
-4.526586318998586648e+03
-4.272582988664001277e+03
-2.386505962851573713e+03
-1.733705030120232777e+03
-5.028167477602866711e+03
-5.693196746295746379e+03
-6.946028921274284585e+03
-6.477524353971544770e+03
-6.638333871141318923e+03
-7.094280673043198476e+03
-8.251719325331905566e+03
-1.004370935614267728e+04
-1.036594481384636492e+04
-9.314458235335361678e+03
-1.112667440496068957e+04
-1.332204525184728845e+04
-1.236684274357661525e+04
-9.247632298624370378e+03
-6.013783731748684659e+03
-4.385326903879771635e+03
-4.517772045856588193e+03
-5.193319303411490182e+03
-2.908834060640962434e+03
-3.327571024322796802e+02
1.778494638880013099e+02
5.202450999778806136e+02
-2.849455595827438401e+02
-1.709588922802256548e+03
-1.821355518622245199e+03
-3.238943228233467380e+03
-5.666154179638801907e+03
-6.033782602913588562e+03
-5.683910830125807479e+03
-6.944364189892593458e+03
-9.459104311345186943e+03
-1.013543033488373658e+04
-1.114836630075669564e+04
-1.299268155997902068e+04
-1.354089526368554834e+04
-1.146633095652837255e+04
-1.161021052481101469e+04
-1.110766099774242502e+04
-3.009918192781671678e+03
2.474692860869025935e+03
2.983719940665609556e+03
1.201775520345838459e+03
-5.063278611083406044e-01
3.983673698618059689e+02
-3.605642357243388574e+01
-2.752638409688862794e+03
-6.588762758436974764e+03
-1.057397411124011523e+04
-1.072147907284560824e+04
-1.153050589523735471e+04
-1.041259519104037827e+04
-5.995599095741325982e+03
-2.394888317192374416e+03
-3.050473116167059288e+03
-2.079468734416460848e+03
-4.891331261714648804e+02
2.645083730049034330e+03
3.926933258843140266e+03
4.260274977767696328e+03
4.424169444387969634e+03
4.672475027688446062e+03
4.583720926395035349e+03
4.663553766086624819e+03
6.564832099346650466e+03
7.515050503320027019e+03
5.358787882496774728e+03
2.967968353744768137e+03
1.401453129078529628e+03
-2.820275720029791700e+01
-2.314186960365194409e+03
-4.157790142850263692e+03
-5.296410477100514981e+03
-5.190213153603307546e+03
-4.441280349178740835e+03
-3.283880686645804417e+03
-2.443403170322950245e+03
-3.256843923381310560e+03
-5.002037304812021830e+03
-5.364002836810598637e+03
-2.880092246215600426e+03
-1.184261508228910998e+03
-3.438421720161390567e+03
-3.822959891954646082e+03
-3.851260974644741509e+03
-4.154726335246704366e+03
-3.352674382351540316e+03
-1.293294652361049202e+03
3.214891579792341417e+03
5.395675460318591831e+03
2.785640330173537222e+03
-1.707325995687920965e+02
1.017659694763658877e+03
3.812807008496728031e+03
2.440343753180842214e+03
2.392101392446030331e+03
4.353987444293186854e+03
6.455148465443303394e+03
9.292634989856662287e+03
1.118894802684786555e+04
1.219579638240409986e+04
1.236433832689633164e+04
1.128984146418410273e+04
9.588802171923125570e+03
8.354622534887774236e+03
7.601939993315746506e+03
6.359984547527581526e+03
4.809690382594152652e+03
2.844070507556298253e+03
-1.553054635490067540e+03
-9.022056341900539337e+03
-1.404312540940468716e+04
-1.077279941362535465e+04
-8.454892665548299192e+03
-8.946633490737569446e+03
-5.008728631522457363e+03
-1.008661165437536056e+03
1.084408433513828413e+03
1.466419584195946300e+02
-3.177846931105031672e+03
-4.602032566389897511e+03
-6.945175619049279703e+03
-8.540215757104393560e+03
-4.224816786530387617e+03
1.041992224388848626e+03
3.203049039999048091e+03
6.339859218307067749e+03
8.465367952600248827e+03
6.569580819314736800e+03
1.799182018998110834e+03
-6.099947733665165970e+02
-3.565004362291163488e+03
-6.682788379159674150e+03
-8.323181105681074769e+03
-8.610925614514651897e+03
-7.808029133920712411e+03
-7.679931077521480802e+03
-7.154662824483086297e+03
-4.395244004154789764e+03
-4.397401738606860818e+03
-4.064817234464478588e+03
-1.809234899636759110e+03
-7.154586546139011034e+02
-1.624653523305516046e+03
-3.255817539344042416e+03
-3.509731477435433135e+03
-3.083211998205347300e+03
-4.074144576365933062e+03
-5.293654907554121564e+03
-6.525859015173827174e+03
-9.751475456796979415e+03
-9.656213144429306340e+03
-7.162036492186364740e+03
-6.471738671972228076e+03
-5.032081807601866785e+03
-3.043950206961263575e+03
-2.944352551456246147e+03
-1.816058225107959288e+03
-1.029698013458222704e+03
-4.218847777853732168e+02
5.987908352783001646e+02
1.379706245111017097e+03
1.116832144694789577e+03
1.967275768372859375e+03
3.615697431041639902e+03
2.550458567847856557e+03
-1.553953198277924685e+03
-1.254350937925958988e+03
-2.906158937412139039e+03
-4.747676606784476462e+03
-4.522291329292465889e+03
-3.319138869452419840e+03
-2.985028486780099229e+03
-3.961765103639691006e+03
-1.292097813668893650e+03
6.752545505258411822e+02
-5.241139641292977558e+02
-9.048240300528657372e+02
1.204083275548854175e+02
-2.872575149711765619e+01
3.680394702560260157e+03
5.677088881541822047e+03
7.032676162533810384e+03
7.318355179352035520e+03
1.673405250663229936e+03
-1.088026698930427983e+03
-6.162387312218601210e+02
-1.858803686217010636e+03
-5.120467036870600168e+03
-4.529787018682804955e+03
-2.271331739215479502e+03
-5.311454793081361458e+02
-1.077933979350237450e+03
-6.293481893456740181e+03
-5.305568633839327958e+03
-2.387533160143815394e+02
2.165401307929398172e+03
7.842055949780248056e+02
2.051964162347029742e+03
5.182886010291076673e+03
6.689509814401586482e+03
8.617489254111789705e+03
8.425320545874228628e+03
1.028742181399268156e+04
9.964137721126115139e+03
6.343584580613310209e+03
4.077883237557669418e+03
2.338311196921030842e+03
-1.352826582071473922e+03
-4.590292738898280732e+03
-3.445834604450202278e+03
-2.871037590177494167e+03
-3.092758179968715922e+03
1.608184338912679323e+03
5.090167489579366702e+03
5.683583155505942159e+03
4.907760350999299590e+03
4.685818552449142771e+03
6.233109248455335546e+03
9.152021120813673406e+03
1.016255210579408595e+04
1.169195678434561341e+04
1.337671617486367177e+04
1.368804089913620010e+04
1.311006470290756806e+04
1.110300828925987116e+04
8.540861760893456449e+03
6.166681908100016699e+03
3.240020892084286970e+03
-1.320048340297586947e+03
-4.307458937983641590e+03
-5.090268513143569180e+03
-6.862957398567278688e+03
-8.419358319303784810e+03
-8.522470698560238816e+03
-9.430213487864839408e+03
-8.480448967574129711e+03
-5.941771390675060502e+03
-1.622170166998083459e+03
2.967453124637329438e+03
5.450329227177757275e+03
6.541510864517547816e+03
7.409617592158644584e+03
7.541185349163820320e+03
7.740155357480177372e+03
7.246880955351703960e+03
5.124019700049846506e+03
3.424870871883229484e+03
2.164379940210419591e+03
-9.526247202869213879e+02
-5.542536862523403215e+03
-1.037443122912894250e+04
-7.564994605934402898e+03
-6.456477916420240035e+03
-8.321738471820352061e+03
-1.070496709592156185e+04
-8.169170764019862872e+03
-3.216777904916631996e+03
6.185621620071526650e+02
2.942930841897391019e+03
3.975277135631778947e+03
5.525307878895109752e+03
5.531062317874002474e+03
3.855609591030895444e+03
2.742417076274203282e+03
2.154645926892417265e+03
2.121842517457954727e+03
3.338601780402995701e+03
1.726767399244169610e+03
-3.255780914152147716e+02
-2.550926978190036152e+03
-4.740658965819121477e+03
-5.849987927257212505e+03
-6.603193405466827244e+03
-7.886355289855965566e+03
-8.053504251521087099e+03
-6.038061436988749847e+03
-3.526354152787300791e+03
-2.773553159551936460e+03
-1.523980854826280847e+03
4.822580351467080106e+01
1.493041318703601064e+03
3.044102008288827619e+03
4.617210759243743269e+03
5.155213647550302994e+03
4.078582222653174540e+03
2.505984499850184420e+03
2.044272910357718729e+03
1.031270202371179266e+03
-1.356476688632561491e+03
-3.304297393180452673e+03
-3.847404707408210015e+03
-3.944249672974511213e+03
-4.985311183720902591e+03
-5.922694987444710023e+03
-5.357680568659412529e+03
-4.063190709911229987e+03
-3.199440016606115478e+03
-2.062323204716892633e+03
-3.569525716727528675e+02
1.687380422935484603e+03
4.391263185500180953e+03
6.719501536761005809e+03
7.219037731423669356e+03
7.422712243468122324e+03
7.658301790545522636e+03
6.516137298983405344e+03
2.324030084939661265e+03
3.113519247844754773e+03
1.828943066106998458e+03
1.173006900923206786e+03
-2.796244861248620509e+03
-4.256159736399260510e+03
-4.936212842991341859e+03
-5.316031340542697762e+03
-3.292783586309462862e+03
-2.307544818386799307e+03
-9.164833594505204246e+02
-2.203787138684657293e+03
-1.447671256899903483e+03
1.257767912792082143e+03
3.502095596298843702e+03
5.667020832100560256e+03
5.972516038739307987e+03
5.403349680126747444e+03
4.396263378347026446e+03
4.097220599562110692e+03
3.239121442935980212e+03
5.166381816183444471e+02
-2.638563353172737152e+03
-3.702842580764450304e+03
-5.653678504875118051e+03
-8.797364980163923974e+03
-1.014405088538444033e+04
-9.667845847757951560e+03
-7.930813411286147129e+03
-7.043135087496985761e+03
-5.433175971365505575e+03
-3.783058379896797305e+03
-2.965611720057511775e+03
-1.463071487791300797e+03
1.463360213141710574e+03
4.017559380572679856e+03
5.262389465428697804e+03
4.628619625078441459e+03
3.005872842030691572e+03
5.150268674484515259e+02
-1.302773979378865306e+03
-2.765594081956951413e+03
-3.104908702018236454e+03
-3.423019493172471357e+03
-6.037688085900424994e+03
-7.390160582281503594e+03
-6.304890526398488873e+03
-4.627944750433432091e+03
-3.393482755124195137e+03
-1.230551828527340149e+03
9.960514212862145769e+02
2.180414184725747873e+03
3.346391432669890492e+03
5.253933791663056581e+03
7.591115020875067785e+03
7.343818935029094973e+03
6.356876838187184148e+03
6.772222626276687151e+03
6.927156982358479581e+03
6.430062981026823763e+03
7.012276547203568953e+03
5.675637077679781214e+03
2.535653927346056662e+03
-5.357796611149964292e+02
-5.759842227291991549e+03
-7.262927648850572041e+03
-8.528650745392043973e+03
-7.712168357590080632e+03
-6.507091512478754339e+03
-6.502827858421871497e+03
-6.390657021191431340e+03
-5.378576130259388265e+03
-9.224558689524604915e+02
5.383271302281059434e+03
9.730532245612504994e+03
1.249963843275982799e+04
1.390951452703181167e+04
1.449824618815480790e+04
1.338632812782659312e+04
1.038692446521444253e+04
6.828819049465049829e+03
3.655272441217112828e+03
1.143459189725316946e+03
-1.697705075957685267e+03
-3.890353791984996860e+03
-4.684426290668598995e+03
-3.956759286883965160e+03
-2.477261777603424434e+03
-2.093941625627812300e+03
-1.159591214577954815e+03
8.089069557621568265e+02
4.390618500656953074e+03
6.071884730065089570e+03
5.710142672063215286e+03
4.819645667700924605e+03
5.401353247359086708e+03
6.377288230512125665e+03
6.277673958173678329e+03
5.748645260296776542e+03
5.012377370414088546e+03
4.327051812427668665e+03
3.265486642573139306e+03
3.545695362296025905e+03
1.956876203027740303e+03
-6.209928883671312860e+02
-7.866776199372616247e+02
-1.648787082122069705e+03
-3.693639834307133242e+03
-6.092087220852111386e+03
-6.935592353613553314e+03
-5.733849935203242239e+03
-4.833735445342892490e+03
-3.005086390187679626e+03
1.070274907311360494e+03
4.432565066777136053e+03
6.192053253508643138e+03
7.551139047954496164e+03
7.762684968300650326e+03
5.905040425919130939e+03
3.406550901900469853e+03
1.645222286337271271e+03
1.202127920656388824e+03
2.334559801219840551e+02
-2.470620752707297925e+03
-4.651278872682514702e+03
-5.841297638430781262e+03
-7.287365407742563548e+03
-8.892400539500560626e+03
-9.032265658836024159e+03
-8.579596452301600948e+03
-7.603559052519375655e+03
-5.709447767832283716e+03
-3.769339147821391180e+03
-3.063840391154329609e+03
-2.282441630546175020e+03
-5.545325080815957790e+02
7.157744118932622541e+02
1.535555742991939724e+03
1.939103216474008377e+03
2.658064720473182206e+03
3.324376564967166814e+03
2.911115567841477969e+03
1.174528189946679504e+03
1.715188070910602391e+02
-1.046012502238532306e+03
-2.526970069596299709e+03
-5.095068805333697128e+03
-6.959696971195023252e+03
-7.280929112881909532e+03
-6.125392974757801312e+03
-5.250081967636093395e+03
-4.258034186728573331e+03
-4.163924080748258348e+03
-3.047535890043000109e+03
-1.504028138879299661e+02
2.236762559115539716e+03
3.302179362500406114e+03
3.769484020481104380e+03
3.075362946358810404e+03
1.169847775589169487e+03
-2.762362588178221756e+01
-5.088501346253488009e+02
-5.475291955742311529e+02
-1.566499067229961611e+03
-2.832263699950917271e+03
-3.732603558604846512e+03
-4.522690140756231813e+03
-4.151170125610129617e+03
-2.191068811351266049e+03
-1.183818368157061059e+03
5.631916736988083585e+02
2.791004202081100175e+03
3.843576657068337681e+03
4.695403153145102806e+03
6.555155319088693432e+03
7.066706202115202359e+03
3.856906915252933231e+03
4.392053622105295290e+03
5.287195014977145547e+03
4.319064642502842617e+03
-9.108735114119753007e+01
1.447731120615981126e+02
1.139854224052106701e+02
-1.453247349666694618e+03
-2.386707553020021351e+03
-4.032675304140697790e+03
-2.738548101224389939e+03
-4.001750952099800088e+03
-5.001559679818115910e+03
-4.326179822729398438e+03
-2.058255748267299623e+03
-4.608768560756746410e+03
-2.041717540390043496e+03
-1.977749178015174266e+03
1.748541094885058783e+03
3.924609119729782378e+03
8.279572560357248221e+03
8.928988328646046284e+03
8.145048588793678391e+03
5.635692050912473860e+03
1.477972825892611127e+03
1.404415203772974792e+03
-9.009668090362172279e+02
-6.841901402374556938e+02
-2.161612172567234666e+03
-7.399197246514174822e+02
-4.908211939705017357e+03
-8.642377417557954686e+03
-8.304731793834138443e+03
-7.878207313577307104e+03
-7.955531579896017320e+03
-6.181862147308159365e+03
-1.167970791424142362e+03
-1.313365079080338774e+03
2.102120814302824783e+03
3.749613855984247039e+03
4.259950253237730976e+03
1.967808853739137248e+03
2.026266726854610852e+03
1.236802742374975196e+03
7.695257959334526277e+02
1.234781792458717064e+03
-2.009719023521710994e+02
-1.785849457722497164e+03
-1.707475969016771842e+03
-7.565238324754394625e+02
2.136683239532134166e+02
6.054304833986070662e+02
-9.284284745787709880e+01
-7.330163853140682022e+02
7.620090197807321601e+02
2.443250572715413909e+03
3.895776206605461539e+03
5.757283036124284990e+03
6.378597654824056917e+03
7.230988241883876981e+03
8.352661866735952572e+03
9.420602150791457461e+03
1.004675812931566907e+04
9.695780450163534624e+03
9.092105576320178443e+03
7.184099604517482476e+03
5.301096591861894922e+03
3.459574983209373841e+03
2.159633237743380960e+03
1.285801908038868078e+03
4.097804616382841232e+02
3.551893253255226455e+02
1.337389279457111115e+02
9.782826240781143667e+01
2.677474612675092303e+01
4.569294805470317442e+02
1.423188166782745157e+03
2.422811156543780726e+03
3.476475693315872832e+03
3.172538337879492701e+03
3.511313522585096507e+03
3.819467449272258364e+03
3.457681058315666633e+03
3.241499378848326160e+03
3.449103524437648502e+03
4.748987813810298576e+03
4.730238172061786827e+03
2.079110891572990568e+03
-1.247352421632758706e+03
-3.539546042299085912e+03
-5.201832775075241443e+03
-6.113360710880799161e+03
-7.028090171773215843e+03
-5.683390896636125944e+03
-4.243080439344455044e+03
-3.661028043589627487e+03
-3.450492275029149823e+03
-3.987651272301952304e+03
-4.629522892612540090e+03
-2.810231450314497124e+03
-4.918823252633044874e+00
2.122475236061641226e+03
3.719094697956678374e+03
5.127152835108332511e+03
4.052524358025167658e+03
2.292257694555284615e+03
8.725909247409475711e+02
-1.452550371448872966e+03
-3.923076644433099318e+03
-5.675782827778478350e+03
-6.969393382495071819e+03
-8.040832460603674008e+03
-8.940829666753719721e+03
-9.317915938268452010e+03
-9.996751430807129509e+03
-1.070713977954790062e+04
-1.000653873277849743e+04
-8.406496646390891328e+03
-5.945533214310318726e+03
-4.164084380330680688e+03
-3.324644393468534872e+03
-2.527639617302226725e+03
-2.180295556290795503e+03
-1.981954403089809830e+03
-1.116167486925264939e+03
-7.412543603944521919e+02
-2.869595991221037821e+03
-4.475684592339803203e+03
-6.073021134345704922e+03
-8.082969946999390231e+03
-7.251000060563756961e+03
-4.728485839402173951e+03
-4.298689366777044597e+03
-4.829947288566722818e+03
-3.628632134141870210e+03
-2.888952568306650392e+03
-4.724781725215411825e+03
-8.403367601985031797e+03
-9.379269740734445804e+03
-8.436664306847094849e+03
-7.302726828011075668e+03
-7.027870733269363882e+03
-4.430476263718815972e+03
-2.719888494344630089e+03
-6.030467046897218097e+03
-1.060191951690998212e+04
-9.754411586538190022e+03
-1.253542632187511663e+04
-1.411990391763165644e+04
-1.129024014548351261e+04
-1.079740937135096829e+04
-1.231855452816452271e+04
-1.276207692723479704e+04
-1.323377063708865353e+04
-1.318983088951920945e+04
-1.188458692514767426e+04
-1.037304489644526802e+04
-8.583601117489050011e+03
-4.671824872619165944e+03
-2.649025732916713878e+03
-2.791497957417885118e+03
-1.806661528446333477e+03
-3.271107947332376398e+02
1.944651162509073927e+01
-1.600666739501639995e+03
-2.910266588893404787e+03
-4.342069595341399690e+03
-5.886779961485672175e+03
-6.604337975383144112e+03
-8.970489386210132579e+03
-1.170495430590918477e+04
-1.359672440977887891e+04
-1.382481256767674859e+04
-1.197599922035513919e+04
-9.108990229312705196e+03
-6.765483422960078315e+03
-4.681367080857801739e+03
-2.523587619338245077e+03
-4.842064627241080643e+02
2.194865806570478071e+03
3.201858138037433037e+03
2.951527782301264779e+03
3.726756298866013822e+03
3.773356045831681968e+03
2.335211667222339202e+03
2.667070466892208060e+03
4.568630624946586977e+03
1.197749249617522537e+03
-3.668835055984604878e+03
-4.697584945355616583e+03
-3.481802932626744678e+03
-2.772934709780371577e+03
-3.312428475387926483e+03
-2.786976089239377416e+03
-3.922705056234136691e+02
8.664929558840617574e+02
1.323860894320142506e+03
1.571351016136967473e+03
1.805538338486874864e+03
3.671059001467483540e+03
5.532831914296102696e+03
7.602903286645987464e+03
9.535218999300401265e+03
1.022304065782347607e+04
1.017887469309510925e+04
1.048598749239803146e+04
9.151430590119538465e+03
6.492355094351690241e+03
3.929948751172816628e+03
1.896567292424309016e+03
-1.119954759504716549e+03
1.379450207466208894e+03
3.577690620140804754e+02
9.442569735257638968e+02
-1.285976980072180368e+03
4.041022176935748575e+03
9.928101213025885954e+03
1.395230077675988832e+04
1.788568840553754853e+04
1.927736469575068259e+04
1.999033755724492221e+04
1.957363358683565821e+04
1.774428687294557676e+04
2.005034945549946497e+04
2.571069143911247374e+04
2.300418912957510838e+04
1.944686238189155119e+04
1.733584690568772930e+04
1.420196105047325364e+04
1.615289577944645680e+04
1.536339282773779996e+04
1.253364234192763615e+04
9.256786187734467603e+03
8.591721575054862114e+03
1.018611198605257232e+04
1.001995437661582582e+04
1.169561675432541415e+04
2.139524402602377086e+04
2.455187077690899605e+04
2.695667637165778797e+04
2.494357425466676432e+04
2.340551435330157256e+04
2.357165121299350722e+04
3.116498282162792020e+04
3.214955870650003999e+04
3.274052430151775843e+04
2.818085270815833428e+04
2.681661991687017508e+04
2.581897034208846162e+04
1.933097909767887177e+04
1.728397044999369973e+04
1.524314229460314164e+04
1.167180674226268457e+04
1.215452818210979240e+04
2.085762386272340154e+04
2.761917845154433235e+04
3.237967697197183224e+04
2.723304217010648426e+04
1.947169379285515606e+04
1.692512653966931612e+04
1.779894479686078921e+04
2.135613301906591005e+04
2.957514081680875825e+04
2.845559731543989255e+04
1.713325359539793499e+04
1.227961357694679282e+04
1.741162358479740942e+04
2.066632356632031224e+04
2.451383839976446689e+04
1.398562462457827496e+04
4.800401063873415296e+03
7.488274904828051149e+03
1.175957519455786314e+04
2.270711682107577872e+04
2.928044780105398604e+04
3.006436678810370722e+04
3.176629196897678048e+04
2.863059935581862737e+04
2.881874205003739917e+04
2.680509144314978403e+04
2.364499633991012524e+04
2.720826539033371955e+04
2.748613753170521886e+04
2.804555729078596414e+04
2.179804994867405185e+04
1.894309799012327494e+04
2.139297108831399964e+04
1.734555204586263426e+04
9.427257127415254217e+03
1.246251839789734277e+03
-4.450598585631555579e+03
-1.132234462149812862e+04
-1.655336482002410776e+04
-1.636295386398772280e+04
-1.145945093916274891e+04
-1.560037274478283507e+04
-2.080103381301467380e+04
-2.864135703129334433e+04
-3.898803129496022302e+04
-4.441611638362945814e+04
-4.868135642530116456e+04
-6.250324170875352866e+04
-8.581967360059815110e+04
-1.159203979792454629e+05
-1.488550518709645257e+05
-1.695623723324926686e+05
-1.825650617894429015e+05
-1.920118525709805544e+05
-1.986693980692625337e+05
-2.031032870862938289e+05
-2.052071406113386911e+05
-2.059176366216617753e+05
-2.037193567442471685e+05
-2.032117798753003008e+05
-2.042834288858307409e+05
-2.018596537433998310e+05
-1.946957931515321543e+05
-1.825553262463246356e+05
-1.660728300835826376e+05
-1.493677608564978291e+05
-1.333674802262678859e+05
-1.177194751813470793e+05
-1.036319183160447283e+05
-9.094437904399898252e+04
-8.448458808325526479e+04
-7.778225529740449565e+04
-6.872179828660051862e+04
-5.895762276207054674e+04
-4.605949426614864205e+04
-3.311695296465025604e+04
-2.135829982609924264e+04
-1.005130960609146859e+04
7.652054989379447761e+03
2.236105803813017701e+04
4.087033558205174631e+04
6.001779712842849403e+04
7.763704199297647574e+04
9.595967659127801016e+04
1.102268552868941333e+05
1.243477319257187628e+05
1.357835656000644667e+05
1.433824074079415586e+05
1.464562085708278173e+05
1.445481263684743899e+05
1.472354602970932901e+05
1.521432542472193891e+05
1.565023278869515925e+05
1.647375962793278159e+05
1.767738450098798785e+05
1.780958212003462540e+05
1.739101498319564271e+05
1.737684012194314564e+05
1.732215055018613930e+05
1.707182624169117189e+05
1.684761392770031234e+05
1.650186208225452283e+05
1.607841848948657862e+05
1.567883467715403822e+05
1.521645239377411490e+05
1.487479352285540954e+05
1.447529793527704896e+05
1.390171652228465246e+05
1.328266464411141933e+05
1.246194704857882170e+05
1.164397189992743661e+05
1.094604094374051201e+05
1.023505892496887536e+05
9.353012171445421700e+04
8.430573530713001674e+04
7.598418175955573679e+04
6.827518736132846971e+04
6.003650372055019398e+04
5.394382490038465039e+04
4.760765840308221232e+04
3.988641749381419504e+04
3.184749958534470716e+04
2.205556681549724453e+04
1.240011481048502174e+04
5.368471439257228667e+03
8.430233239179037810e+02
-4.889908220760672521e+03
-1.205914958004663276e+04
-1.833553295368334511e+04
-2.343570724724733736e+04
-2.905567615905031198e+04
-3.475441225257267070e+04
-4.070187868034082203e+04
-4.666040208794810314e+04
-5.262630234058803035e+04
-5.890460371088827378e+04
-6.534137151612938032e+04
-6.993308318187225086e+04
-7.111295549211700563e+04
-7.189398973224722431e+04
-7.429498903273728502e+04
-7.496133098753810918e+04
-7.401338973337812058e+04
-7.246455104221381771e+04
-7.324818529337120708e+04
-7.700381031876995985e+04
-8.297056000230842619e+04
-8.503479830086334550e+04
-8.173829682720295386e+04
-7.948062153234632569e+04
-8.279278470980322163e+04
-8.682947307417589764e+04
-8.746785375085385749e+04
-8.472947049482500006e+04
-8.020780138453529798e+04
-7.542745319421224121e+04
-7.714193395365790639e+04
-7.879191537419574161e+04
-7.553916800989100011e+04
-7.168027042127125605e+04
-6.908572740928616258e+04
-6.545118461950145866e+04
-6.072300099329326622e+04
-5.496361015381388279e+04
-4.904756038453901419e+04
-4.378149098147513723e+04
-3.965005343002210429e+04
-3.752863085197011242e+04
-3.503061428221443202e+04
-3.092042415987202185e+04
-2.838944752945688379e+04
-2.686318777275428511e+04
-2.408999992077197021e+04
-2.254327350287758600e+04
-2.147248592888181156e+04
-2.130812709763433668e+04
-2.161069656510016284e+04
-2.065259466710926426e+04
-1.800312082190419096e+04
-1.453437931552244663e+04
-1.305951604065061110e+04
-1.099271784567834584e+04
-5.468158772553312701e+03
-1.666770432905201233e+03
1.669460439305379623e+03
5.982408486176675069e+03
9.345277565234058784e+03
1.050130673472715171e+04
1.267038689431917919e+04
1.567445470080113046e+04
1.765210130765248323e+04
1.651476721053619622e+04
1.653850665591681900e+04
1.753037625229287733e+04
1.776263553862992194e+04
1.534677346726109499e+04
1.187507208524438829e+04
1.161588751246822540e+04
1.075089318513809667e+04
1.016072643556560615e+04
1.009807270002348741e+04
1.050166123372240872e+04
1.738319853306287405e+04
2.186262313096995058e+04
2.315888739398149846e+04
2.339274700287667292e+04
2.453109765815842184e+04
2.611597194699438114e+04
2.626327537406118427e+04
2.505512488259836391e+04
2.301805923246510429e+04
2.479397012775806797e+04
2.345592746981309028e+04
2.189731531405814530e+04
1.979891594026738676e+04
2.036753150212360561e+04
2.084440031435837591e+04
2.049501140780775313e+04
1.884311680031052310e+04
1.701416519675724339e+04
1.539780154659032451e+04
1.462062299990295105e+04
1.454946550554238092e+04
1.543708203361534288e+04
1.646536288019911444e+04
1.742215553769701000e+04
1.798288523822639036e+04
1.719502835732302265e+04
1.671226090630684484e+04
1.723936114747066313e+04
1.642486729879428458e+04
1.328955188393811295e+04
8.219873452862982958e+03
5.349119223281228187e+03
4.976528870010261016e+03
2.856345459707003556e+03
-2.897588390305169924e+03
-7.317500104343522253e+03
-7.132147508015479616e+03
-5.636544050296412934e+03
-3.700288565783763261e+03
-1.398299301233481913e+02
9.939672384304249135e+02
1.428523195301480200e+03
3.973003207156643839e+03
6.559635287615526977e+03
7.970697297835450627e+03
