-2.476817984283905389e+03
-3.033937958213151887e+03
-5.603541817243357400e+03
-4.574667978722121006e+03
-4.007419432197502374e+03
-2.036990192389193453e+03
-3.915516611908631148e+03
-4.055004403383663885e+03
-2.752342532715284051e+03
-2.090585806164227961e+03
-8.498100806929480768e+02
-1.358003818144860361e+03
-1.603264072079711013e+03
-1.744580779576801660e+03
2.670771833234094288e+02
1.314712893112347274e+03
-7.307620565779507160e+02
3.914926161914352178e+02
-2.078567716300761276e+03
-2.606907627964736548e+03
-2.997510584404615201e+03
2.295699627424856430e+02
1.098365380950261169e+03
1.291896992634630124e+03
2.279106067067187269e+03
2.626004238071663167e+03
2.923624696507296903e+03
9.489413272302781479e+02
5.540242388370292019e+02
8.878616278850208801e+02
9.484588990432137052e+02
1.397802616132007415e+03
-2.791545322062590344e+02
-1.146393444035037419e+03
-5.338774488907625937e+02
2.463593943639993427e+02
1.004347276576583567e+03
1.152168303337157340e+03
8.278531232559909085e+02
9.293336309705870235e+02
1.638613579181977684e+03
2.051670000661893027e+03
2.304584092327069811e+03
2.841393040492538148e+03
2.675199243705091249e+03
2.008997931088606492e+03
2.510837797138698988e+03
2.109736094649151710e+03
1.664711387282349051e+03
3.018896794647941533e+03
4.771290464946942848e+03
5.784867527835413966e+03
5.778602381093084659e+03
4.344635989478098054e+03
2.168982147823040577e+03
4.685097611360031351e+02
3.643050538578574447e+02
1.514747353177125660e+03
1.428022718079750803e+03
1.391040933989046380e+03
1.170756616018542900e+03
1.021147092476815715e+03
-9.596368047433890069e+01
1.497925475798653849e+02
1.710379586959392327e+03
1.314885740210873792e+03
1.255167815255852474e+03
2.390330666725036281e+03
3.558498645452796154e+03
3.908737686550139188e+03
4.041038781816913797e+03
3.632548774603946185e+03
3.757257073145051891e+03
3.423881255596347728e+03
1.377421139115552251e+03
-1.786071497947887465e+01
5.891895447295034955e+02
1.538531417893861772e+03
2.034185627348351318e+03
1.697000991588533680e+03
9.438819660707865751e+02
8.149914831790414382e+02
1.417349600413089320e+03
1.143824037722241201e+03
7.533469734090820680e+01
4.234010288120251175e+02
1.304158396488713379e+03
8.689474636758553743e+02
-3.560557110675266017e+02
-1.417867952999571060e+02
9.546914047088266670e+02
2.341325869073761623e+03
3.460165462758201102e+03
3.800217369426729874e+03
2.692498953900045763e+03
-3.199549309579905980e+02
-1.164121920730983447e+03
-9.570529384373243147e+02
-1.335847302943918066e+03
-2.000412751829178205e+03
-5.547707976626288655e+02
1.348979961299752858e+03
2.532831432552568003e+03
2.504784668627255542e+03
1.466887943568312721e+03
1.983218770971847789e+03
2.392764467675492142e+03
1.367447486450950009e+03
4.032432537551464975e+02
-1.028629699906907149e+02
-8.288725311306728827e+02
-6.287295175173871939e+02
4.055693189115245900e+02
-5.040328097607853692e+02
-1.273627684438965161e+03
3.957262167372318231e+02
2.033032065678913568e+03
1.335358379326199383e+03
-1.190348035178889404e+03
-3.527073895137207728e+03
-3.648823095943725093e+03
-3.177685287769319984e+03
-3.334799799870577772e+03
-4.368036080239105104e+03
-5.128326376407235330e+03
-4.264779466108325323e+03
-3.481434403197601569e+03
-3.244307243974013090e+03
-3.258402262521698503e+03
-4.377710816626899032e+03
-4.523267952359607989e+03
-3.539949794957668473e+03
-2.829981000552089881e+03
-2.555306307116406970e+03
-5.068973641738041806e+03
-5.444925549603703075e+03
-5.768045044530819723e+03
-2.694429985538248275e+03
-2.531964178884229568e+02
-1.847392086581680587e+03
3.130064196832124708e+02
6.348343257419298880e+02
-1.009593644365050409e+02
1.456071529646138174e+02
7.044843066290267188e+02
1.613587880374588394e+03
1.960895544359470932e+03
2.564476160116278606e+03
1.998359715212870697e+03
1.235609352207033453e+03
1.247120204966506435e+03
1.045882430083456484e+03
1.883737334212220560e+00
4.070687150266194863e+02
6.363797701247133318e+02
-5.851748583184571544e+02
-1.845591704041848971e+03
-1.500903126168732797e+03
-9.550788080180652742e+02
-1.777118292085820485e+03
-1.708032133334703303e+03
-1.199804650605017287e+03
-2.385390499785645488e+02
-2.062820267252243411e+02
-1.259988866341512619e+02
1.851347961657711494e+03
3.540811127372586725e+03
2.886392231693598205e+03
1.038200070488592701e+03
1.227160819617701691e+03
1.848207174090279977e+03
1.965387418601623722e+03
1.881730915198323828e+03
1.616233164753566598e+03
6.179533287363533418e+02
-8.808744075223593484e+01
-2.098733586219440284e+01
-9.807568560131799131e+02
-1.941326746031083985e+03
-2.059570275118445807e+03
-3.835531080638357935e+02
4.625768059537917907e+02
1.296822242312965727e+03
1.765154266565647276e+03
1.188745111512262838e+03
4.595223265407331041e+02
8.702677624032377253e+02
1.325206430212992700e+03
1.114549345267448416e+03
1.221393517010533060e+03
1.101803873907670322e+03
2.727003044602968771e+02
1.371018030029037789e+02
-6.189067983317012249e+02
-6.199250173962766439e+02
-4.000129607612029758e+02
7.644364933616232349e+01
4.172931842618102678e+02
-1.084125525879876335e+02
-8.977277084664056019e+02
-9.885646984413564269e+02
-9.027576046144107522e+02
-7.652322556331739634e+02
-1.106030700033956691e+03
-1.078197259218755335e+03
2.226772120128600463e+01
5.284207413971016649e+02
3.383745297186080165e+02
6.442617986285580400e+02
6.780782237305360240e+02
3.657988207195238033e+02
-5.535530525009005487e+02
3.119878727904547873e+02
-3.905365060447524002e+02
-1.560026085643474744e+03
-1.561443052621392098e+03
-1.050727797476374462e+03
-9.968479367114381375e+02
-2.537931422159851707e+02
5.371273847867463758e+00
-5.484264757541884592e+02
-9.451827339078164414e+02
-1.107875445591922016e+03
-9.222946817791425929e+02
-7.282827814958126282e+02
-7.028587021224869886e+02
-6.699185161633608914e+02
-6.614460142173272743e+02
-1.044381572352766199e+02
1.143146588405703596e+03
9.792814242301009244e+02
1.209624671346042959e+02
-6.247179432482206494e+02
-6.705635135041264903e+02
-1.024399659488690304e+03
-1.731306073987105037e+03
-1.539542237046081709e+03
-6.102217191239071781e+02
-2.805136973176657875e+02
-1.733416095279436888e+02
3.134175253041383939e+02
-6.549159612525220098e+01
-4.875765952707561723e+02
-7.217779634853221751e+02
-6.585197437589957872e+02
-2.382119395187746136e+02
1.858584657048051270e+01
-2.941414973405815090e+02
2.295516731420733834e+02
8.919651633604279368e+02
1.694915692400407352e+03
1.648079397849929592e+03
6.714025547086826009e+02
1.016251674579983302e+02
1.235813916526140730e+02
1.150479076864085499e+02
-2.372562090513710302e+02
-2.155194368114932786e+02
-4.374886076726424733e+01
1.713245665647200155e+02
6.316321961741380164e+02
7.574587841014335936e+02
8.122134369282339321e+02
6.461444014075144651e+02
1.028012012354517765e+03
1.148813581554497887e+03
9.740235373136436010e+02
1.131778671415627514e+03
3.517907895593813237e+02
-5.584189762689620551e+01
2.733466401859889743e+02
1.481172120457711799e+03
2.371115499610869847e+03
1.888312263974544976e+03
5.028455103658405392e+02
2.372477894184335980e+02
5.249588457632808058e+02
5.722350355752263340e+02
1.034435768589238933e+03
1.136056922350793911e+03
5.021298877714002629e+02
5.100876461172811105e+02
1.080256707295432989e+03
9.607175910902067244e+02
1.691584243773393837e+03
2.194826849029685036e+03
2.747756594000662062e+03
3.120512745112868743e+03
2.655921162860209279e+03
2.527101775769195228e+03
2.562972380009910921e+03
1.987294221585365904e+03
1.766433804322696915e+03
2.020005118687456616e+03
2.460350692610954866e+03
2.474500481319180381e+03
2.308266355668903998e+03
1.773728699680605359e+03
1.369100081670728969e+03
1.054099778601123262e+03
1.178017775840753075e+03
1.025362002297466688e+03
1.098355455877072927e+03
1.245400080563761549e+03
1.448367347576296197e+03
2.482858204095239671e+03
3.276939608928176312e+03
2.965388026840399107e+03
2.063546221687448451e+03
3.031022199426605766e+03
3.256972632678171067e+03
6.942068413531166016e+02
-3.213395465831492857e+03
-4.602723118332635750e+03
-3.738875327751557052e+03
-3.288380680774803750e+03
-2.949738898922264525e+03
-2.358133516759000941e+03
-1.786692976174927480e+03
9.958303962612468467e+02
3.363107832472613268e+02
-1.188103557052461611e+03
-2.030393223326636644e+03
-2.717871514054742420e+03
-3.144326171193404207e+03
-2.878382411847137064e+03
-3.172971394922071795e+03
-1.758975519210868470e+03
-3.615755923958352582e+02
-2.284175179588297397e+03
-3.316179434625331396e+03
-2.959737043393711247e+03
-2.279050460504798139e+03
-1.455470904177472221e+03
-5.505466293581546324e+02
-7.260532865160095071e+02
-2.327241403142084891e+03
-3.004788025275890504e+03
-3.196265615097095178e+03
-3.522713847390790306e+03
-3.614239985992015136e+03
-9.400162455063380094e+02
9.451891178991053266e+02
-5.579677247947749947e+02
8.996463784431380191e+02
2.052564895981156496e+03
2.317474894227153527e+03
1.997966761514206155e+03
1.800042137796304132e+03
1.439377006107165244e+03
1.117440357764486407e+03
1.185457726231210700e+03
1.311450215919832999e+03
1.302034156955716981e+03
4.918306268012734108e+02
3.076258044370293305e+02
3.678980225537104616e+02
1.884820935476293968e+01
-1.414892117684493940e+02
-2.845571061641771848e+02
-5.347718723532151444e+02
-1.162878358794555709e+02
2.910527000626902350e+02
3.627681686733330935e+02
-6.949976929759196764e+01
-7.219584134082535911e+02
-7.940467471742874750e+02
-5.504228112047411514e+02
-2.591557911840563406e+02
-4.639584240541486224e+02
-9.012773200339386221e+02
-2.071988183717414813e+03
-3.130031060085733316e+03
-3.258262309965288296e+03
-3.404274598172681181e+03
-2.930595137136340327e+03
-2.302196628939530910e+03
-2.645716643404332899e+03
-4.132558272171882891e+03
-4.526272936887927244e+03
-3.679919369983339948e+03
-3.269586351545257457e+03
-3.138164134333642323e+03
-3.448311032441323277e+03
-3.535745936253420496e+03
-3.321200826186744507e+03
-3.757497939301271799e+03
-3.926509986106737870e+03
-4.461790596476101200e+03
-4.589782594912533568e+03
-5.799988236480033265e+03
-6.654732459983300032e+03
-5.542736564250928495e+03
-5.612286895417262713e+03
-6.985265764923450661e+03
-7.183871885806046521e+03
-5.375591200322658551e+03
-3.904952993662852350e+03
-3.330748742205907092e+03
-3.635471088251711990e+03
-4.087997288320103962e+03
-4.571559136965260222e+03
-5.041665679835799892e+03
-4.953184312093372682e+03
-4.190200414315348098e+03
-3.166313908210460795e+03
-3.377297990249865052e+03
-3.220900452841658080e+03
-2.685954006197887793e+03
-2.365397308946637622e+03
-2.715894935527458983e+03
-3.009033764982777029e+03
-3.566980259300525177e+03
-4.343884110737691117e+03
-4.408689323666384553e+03
-4.273355922664912214e+03
-4.052746136016738092e+03
-3.080846391686273364e+03
-2.847811434989651843e+03
-3.718674234341006468e+03
-4.445351756067375391e+03
-4.961874864568606426e+03
-5.227230701271513681e+03
-4.923321360556647051e+03
-3.039880115416462559e+03
-2.240019107270501081e+03
-2.589286512397607112e+03
-2.457467603665973002e+03
-2.330112029596824868e+03
-2.300310691328249504e+03
-1.813387632625158403e+03
-1.166253881046695369e+03
-1.291034973184934415e+03
-1.715525752229714954e+03
-1.718837653960009447e+03
-9.905775991432689409e+01
2.029062919534844923e+03
2.515343996754519139e+03
2.666224951163066180e+03
2.038271866620254741e+03
3.566227249173382006e+03
4.181808683108049081e+03
8.787099161706221366e+02
-3.010301042896137005e+03
-3.648615202807865899e+03
-2.608707809970140715e+03
-1.082778920358239020e+03
-1.064725428015306079e+03
-9.122990860092278353e+02
-3.705955228971841109e+01
5.094197700001307567e+03
1.007995492868228575e+04
1.157387571229477180e+04
1.164862767062468811e+04
1.093094248432717177e+04
9.726528850041806436e+03
8.261220559366574889e+03
8.512702828355641032e+03
1.064631317046316508e+04
1.214654237150073095e+04
1.210080469389531390e+04
1.115855840027929662e+04
1.053927378208222217e+04
1.034965792805947422e+04
1.103533222411790848e+04
1.175089868807460698e+04
1.140790909298886436e+04
1.207363158861667762e+04
1.221160912491976524e+04
1.175249476367735042e+04
1.229806507738943765e+04
1.254382619509970027e+04
1.293214043303349172e+04
1.347847612553000363e+04
1.362341177159263498e+04
1.315946869584992783e+04
1.277719054764907378e+04
1.210509493422202468e+04
1.052463938966059141e+04
9.908339068125922495e+03
1.038068096665509438e+04
1.146922204546904140e+04
1.318759732150461059e+04
1.338132815867743739e+04
1.385192919268414698e+04
1.501095294607895084e+04
1.606391299045060805e+04
1.583243021470769781e+04
1.510810599802266916e+04
1.556349529976565464e+04
1.626738793166307551e+04
1.535006527545793142e+04
1.338738432169882799e+04
1.212231209282499003e+04
1.066586260105836300e+04
9.150595631635382233e+03
7.024316746917901582e+03
3.400778273156351133e+03
-2.125242380439359295e+03
-9.670037894978328040e+03
-1.745394252233985026e+04
-2.011027616137214136e+04
-1.728736935464310955e+04
-1.465845152848242469e+04
-1.250574619585893743e+04
-5.521508398492772358e+03
1.519056057437896698e+03
7.194765318698248848e+03
1.342055675974627411e+04
1.582724166199259162e+04
1.782266389623156283e+04
1.843377525842763862e+04
1.525358940788391919e+04
9.244234411791156163e+03
4.915861398716872941e+02
-9.398817874056378059e+03
-1.911001589326929752e+04
-2.760102952767466559e+04
-3.040180315310537844e+04
-3.459332426025084715e+04
-4.170448677128944109e+04
-4.898422257321390498e+04
-5.171041787786682107e+04
-5.209197091715610441e+04
-4.370776490882938378e+04
-3.077661832417113328e+04
-3.611043932228296762e+04
-5.739100064878855483e+04
-6.349008274169253127e+04
-5.798752876507351903e+04
-6.046509020262124977e+04
-5.968153461266581871e+04
-4.981467421825489146e+04
-3.243816612608110154e+04
-1.379269956091881068e+04
2.008930433211781065e+03
8.840069034820569868e+03
1.171807516299966846e+04
2.110934846299913261e+04
3.602321277373010525e+04
4.102017612614449899e+04
3.534168820501460141e+04
3.496721018116986670e+04
3.787718939157971909e+04
4.122891765603700333e+04
3.153795030351043897e+04
1.977771539935944384e+04
1.886272412810407695e+04
2.496755921392890741e+04
2.890774298362718764e+04
2.523581008983970241e+04
2.178031883313749859e+04
1.635684234479449697e+04
1.265500702848317269e+04
1.211345468020120279e+04
8.434777119940856210e+03
-5.234434966483986500e+03
-1.520856977096502123e+04
-9.797983038985339590e+03
-9.281108495535198017e+03
-1.055133408184330619e+04
-1.735601949307835093e+04
-2.215465136392060231e+04
-1.516038326701792539e+04
-5.564293192777897730e+02
-2.278997311674054345e+03
-3.219825515544993323e+03
6.972977971097940099e+03
4.482302129733247057e+03
-9.569904169650353651e+03
-2.711426992695306035e+04
-4.381713401277205412e+04
-4.302700814102451841e+04
-2.987193785726447459e+04
-1.425246842274789560e+04
8.923921258851232778e+03
2.447888490810477015e+04
1.973636653387320985e+04
1.229006517527449796e+04
-1.353409395810237811e+03
-1.423947392825770476e+04
-2.505634562328241009e+04
-2.413173652690458403e+04
-6.676763946240391306e+03
1.267998502243441544e+04
1.770704714108467670e+04
1.768930690084675371e+04
2.788736184842753210e+04
3.836788175292161031e+04
3.414721162406093208e+04
2.097566782898343808e+04
6.450881735225148987e+03
-2.887412720243466538e+03
-1.165156367608029723e+04
-1.702743675585675010e+04
-2.470334788676645985e+04
-3.840095264406264323e+04
-4.642282004491885164e+04
-5.336379581188855809e+04
-6.828152360654964286e+04
-7.412722476328318589e+04
-4.715877633547252481e+04
-1.909692262321420912e+03
2.127030287700609915e+04
2.136350509468344535e+04
1.545022192687148345e+04
1.258479104853899662e+04
8.872467354636159143e+03
-1.115269929101220043e+02
-2.524963254367290574e+03
2.834373371668085838e+03
1.895473409325145985e+04
2.999626787892064385e+04
3.336307097138211975e+04
3.751927176925604726e+04
4.901597687310240872e+04
5.479727684449429216e+04
5.687822889310058235e+04
6.175178853393206373e+04
5.905097298713076452e+04
4.642682733840787841e+04
3.928136054435780534e+04
3.626656530862515501e+04
3.456333775744460581e+04
2.983057912286705687e+04
2.649916918296991935e+04
2.548603206953051631e+04
2.320608347791893539e+04
2.130222374977625077e+04
1.857729481939708785e+04
1.560201494837256178e+04
1.316516147760145031e+04
6.862481076541519542e+03
3.130683949017287887e+03
4.742515616194060385e+03
9.707770849902273767e+03
1.103409974499842792e+04
8.406066322813205261e+03
5.387347393110013400e+03
3.537590635001059127e+03
1.661420650411825591e+03
-2.365798012490018323e+02
-4.698854190681311593e+03
-1.089271560006418076e+04
-1.413959626512788600e+04
-1.338798271189406660e+04
-8.560369553373402596e+03
1.091858969463804669e+03
2.037258051795940446e+03
-3.939822653194474697e+03
-8.573801525393171687e+03
-5.541107250526100870e+03
-1.336361002109840683e+03
-2.041280863805644003e+03
-4.315419934109323549e+03
-3.695282716582074499e+03
-2.579409283273952042e+03
-6.566324734301015269e+03
-6.294588449038229555e+03
-6.782795201171734334e+03
-1.051559495327405784e+04
-1.299861144136725488e+04
-1.542145612111580886e+04
-1.608567711745549423e+04
-1.665790767805492578e+04
-1.945375248322391781e+04
-1.823979054528315828e+04
-1.218155467937392496e+04
-9.939653653006434979e+03
-1.086568047477965047e+04
-1.059819982736230122e+04
-1.021183660756457357e+04
-1.006122462615382028e+04
-9.373943096859497018e+03
-1.064566694087815449e+04
-1.237493372989975796e+04
-1.451023448060444025e+04
-1.773213480819555116e+04
-1.915921001277493633e+04
-1.911605924633764880e+04
-1.726427986520432751e+04
-1.769756753187011782e+04
-2.354737592465857597e+04
-2.649116678515311651e+04
-2.308547716884261899e+04
-1.897585606550429293e+04
-1.722776831284800210e+04
-1.300775495064083952e+04
-7.405317275608778800e+03
-8.981844167789680796e+03
-1.173178815514397502e+04
-1.446060830983677988e+04
-1.090688275524481469e+04
-3.814101541880538207e+03
-3.966332650960466140e+02
1.115091967023563711e+03
2.471717194395601837e+03
2.436820902579291214e+03
1.251235975538161711e+03
1.471042220841037988e+03
2.462039675281053519e+02
-4.879989885098698323e+03
-9.815290804995891449e+03
-1.049772335651358844e+04
-4.021494997866411268e+03
1.636893952443274884e+03
1.422093862175548338e+03
-5.823069625682115884e+02
-2.574548287133043686e+03
-4.258648309110869377e+03
-4.908739857554506671e+03
-5.425932867331066518e+03
-3.266306623019951076e+03
1.501047221655762314e+03
4.196888593110310467e+03
6.482981995732405267e+03
6.540240819692948207e+03
5.397715417077450184e+03
3.976458538408652203e+03
3.917400549782417329e+03
4.119523799526547009e+03
5.789759224500006894e+03
7.852114761561188971e+03
6.107716376857385512e+03
3.061503101212548700e+03
2.909590636046240434e+03
4.562121901724972304e+03
5.560113562502612695e+03
5.597688657183152827e+03
5.466926706126915633e+03
5.640942490516270482e+03
6.716881941829009520e+03
7.970958025867965262e+03
8.481378897656230038e+03
8.127350349214158086e+03
7.612125963655214946e+03
6.640838758354652782e+03
5.712622706610201931e+03
5.700616130776059435e+03
5.306990210512477461e+03
4.196072005797786915e+03
3.358071243321355723e+03
2.547199471665983310e+03
7.146982469985497346e+02
-2.357082100156274009e+03
-7.026817723461924288e+03
-9.649266144289918884e+03
-3.553173044191330064e+03
7.391824652031933510e+03
1.293819541914729962e+04
1.209223785016807597e+04
9.307300809114660296e+03
7.753749906901202849e+03
7.545998783832073059e+03
7.770556047491988465e+03
8.145958435822549291e+03
8.201829155063622238e+03
8.054681928479659291e+03
7.442502755895918199e+03
6.930186580867892189e+03
5.829962413090230257e+03
4.924203897568153479e+03
4.104818128533935123e+03
3.550954120915355816e+03
3.612872022988459321e+03
1.999760469619165860e+03
-1.078630581758927320e+02
-1.157637433701419923e+03
-8.031662083338926550e+02
2.410180875852968256e+03
6.213023642000195650e+03
5.352019239955257945e+03
4.328740969845541258e+03
3.335644887489314897e+03
2.560265348684622495e+03
1.386559369855148816e+03
5.769882529778545859e+02
3.321619979037781150e+02
3.294450293479533229e+02
5.787613941790245065e+01
1.065894587000287856e+02
-3.049985422335807925e+02
-1.502262519212604275e+03
-1.407610906663452624e+03
3.927405551095095007e+02
1.920037584470748243e+03
2.704643857071318507e+03
2.213396888489877711e+03
1.491957910721455391e+03
2.099661689527697035e+03
2.833005453320502966e+03
2.683671228060988597e+03
2.312682323603196892e+03
9.976335071800341439e+02
3.709103840465450048e+02
-6.449358813023081893e+02
-1.154433549299857987e+03
-3.088587887099168938e+02
1.098742362707198936e+03
3.106132742974547455e+03
3.092151415293425089e+03
3.217929093396672670e+03
2.708812492589782778e+03
2.276104252474171062e+03
1.838097273789076780e+03
1.380293953378162996e+03
1.159037596036877176e+03
1.188096050328663296e+03
8.483712528424478023e+02
8.450399264729804827e+02
1.057151195878323051e+03
1.207710333149235112e+03
1.116914768847115283e+03
1.383686990954493922e+03
1.679995072460535994e+03
1.318667866045266237e+03
5.450082679303909572e+02
-4.488123134085330435e+02
-2.677346160504926956e+03
-2.820662522326587805e+03
-2.417760459242789693e+03
-9.225187205693415535e+02
-2.866822381577696888e+03
-2.843772997389809916e+03
-3.223344842095258628e+03
-2.199684238948667826e+03
-3.249822648148301141e+03
-2.267224217635380228e+03
-3.972719721432501046e+03
-1.995632914810854345e+03
-2.140168929207579822e+03
-4.309871127884818634e+03
-4.217864653848063426e+03
-3.525100452350811338e+03
-3.281186594685771070e+03
-3.092854085255405153e+03
-3.746466037788135964e+03
-2.246925877678891538e+03
-4.510329907163325515e+03
-4.182704020350129213e+03
-4.521664887937199637e+03
-5.496786415765293896e+03
-6.325370036098882338e+03
-6.570265934489491883e+03
-3.886473864143605624e+03
-2.969374012183243394e+03
-4.732003561248623555e+03
-5.181586452196183018e+03
-3.697846571820854479e+03
-1.469095041441333706e+03
-3.071308592295435574e+03
-1.590711845063600094e+03
-1.547165812825139710e+03
-1.414158179218422674e+03
-1.655068094313590564e+03
-2.959005254569811314e+03
-2.789289095272590203e+03
-2.906542277596003714e+03
-1.123781912150076778e+03
-5.723408826611821496e+02
-9.183040287122876180e+02
-1.240233261562581674e+03
-1.135783019566404391e+03
-1.201260751187624464e+03
-1.212607482449994677e+03
-1.077375562138435271e+03
-8.981495086778234054e+02
-7.326531831642760153e+02
-1.780220503675896282e+02
1.047429569792595316e+02
3.900103633609896292e+01
1.584846472816498704e+02
4.234036279129792320e+02
5.379644305638493051e+02
2.382633846744177504e+02
-6.793826750950329085e+01
-9.313848864203454525e+01
-3.025192088476370031e+02
-4.703435045431588719e+02
-7.319313155559087818e+02
-9.073689270564274238e+02
-1.244403043404016216e+03
-1.536113031017025151e+03
-1.406671868170439666e+03
-1.381942169600676380e+03
-1.179942926051769746e+03
-1.183561736160290820e+03
-1.247812791286558195e+03
-7.407641707069711856e+02
-1.720527107077569156e+02
-1.536043142612534780e+02
-3.767861422668284490e+02
-2.238693345395195706e+02
-7.368357802104418397e+01
1.800104134999619987e+02
4.482904607149762910e+02
3.311258630067219997e+02
5.153211578209879207e+01
-4.385929790109709643e+02
-2.108824696157293772e+02
3.979513879126265010e+02
1.588279544828551764e+02
-2.155722019282891040e+02
-7.665244455156191634e+02
-7.195753572976794885e+02
-5.533382027928030311e+02
-1.432766053590059698e+02
6.857928513104556600e+01
1.569267095903359461e+02
2.279026327809442876e+02
3.896516815739088884e+02
6.641602038819330573e+02
4.112315391886838825e+02
4.768820467808218950e+02
6.515423020560982650e+02
5.769647021059748795e+02
1.482468462799790530e+02
2.671467877279743774e+01
1.993362115545030520e+02
-1.407896067038837771e+02
-6.667039443109292733e+02
-8.653627149759701069e+02
-9.045798223609252773e+02
-7.086291163564887938e+02
-5.858549947737005823e+02
-7.350396652924364389e+02
-8.559274116962232029e+02
-7.085381129912336746e+02
-8.298304128310762735e+02
-6.287054725812140532e+02
-5.871750496518388900e+02
-5.020026726263581622e+02
-4.441087022176562868e+02
-3.093349112932705225e+02
-1.685111298839869960e+02
-3.466966803191030522e+02
-5.259162480606029249e+02
-7.892621616969274783e+02
-7.016084508338909700e+02
-8.234646849112264135e+02
-6.918414427920773733e+02
-1.035141354649077584e+03
-1.023415514729723327e+03
-1.138570432160818882e+03
-1.242864408300478772e+03
-1.004466520164551298e+03
-1.049811839246388899e+03
-8.866918389045254116e+02
-7.020041152767532822e+02
-3.421561274821854681e+02
-8.103581777145162732e+02
-2.273408236120812489e+03
-4.845214523568462027e+03
-6.450790619328051434e+03
-6.600022015109524546e+03
-5.602618753085502249e+03
-1.845584515999762516e+03
1.662339657484795623e+02
-1.954829520749084850e+03
2.731004852205891353e+01
1.975416776966218322e+03
1.004022697535360294e+03
-9.699388541904072554e+02
-5.939672380641442260e+02
6.841794026867271441e+02
1.751563868641133467e+03
2.243321778733975862e+03
2.476466004935431101e+03
2.757047887856293073e+03
2.839869404148446392e+03
2.742664354156838726e+03
2.983504600116508300e+03
2.919513957145139102e+03
2.862961386378699899e+03
2.998965551544608843e+03
2.670564660264860322e+03
2.523627708945711220e+03
2.342237965049043396e+03
2.196417545746794531e+03
2.214101593797174701e+03
1.836523444595126421e+03
1.649972574675778560e+03
1.656354644046787826e+03
1.750544406092344389e+03
1.940502442149757599e+03
1.901284473724886993e+03
1.956904550144454333e+03
1.727328579059834738e+03
1.543626179100947411e+03
1.890844176784884439e+03
2.272105118334940471e+03
2.355474119987321046e+03
2.281928284831245037e+03
2.325591786083245097e+03
2.150591613699040863e+03
2.229771623720876505e+03
2.183210090433368350e+03
1.983154443204159861e+03
2.099609366354230588e+03
2.118448384371187331e+03
1.930847095553496729e+03
1.613957304318980960e+03
1.854962981931533932e+03
2.046826110987402217e+03
1.328778423047079741e+03
1.162295535893764281e+03
1.090773797674514981e+03
8.847159546234049685e+02
8.152405622707610746e+02
8.551959495090961809e+02
1.074598593743661468e+03
9.515317716876942313e+02
9.449838686454113486e+02
1.210948233729249978e+03
9.825386676242211479e+02
7.918982637574249566e+02
-1.540819699901048523e+02
-3.974813341713781369e+02
1.177536127565386721e+02
4.096930028259739629e+02
1.762999390986792037e+02
2.434427431733735148e+02
1.626715813063907135e+01
3.679624535824182203e+02
6.185118923115857115e+02
6.737566739970606022e+02
4.844106383870189347e+02
-1.256965706912854870e+02
-1.147147355067888611e+03
-2.936837033559898828e+03
-3.016810334287428759e+03
-3.080135328360361200e+03
-3.036698270960779610e+03
-2.944506109335520705e+03
-3.581561774245794368e+03
-3.738867898060841526e+03
-3.225396255504354031e+03
-3.281209185866019197e+03
-3.778392479570843534e+03
-4.063881763176586446e+03
-3.613780673029736136e+03
-3.825152183883857106e+03
-3.019928102502108231e+03
-9.500615654835600026e+02
-2.295599987899721782e+03
-4.248589186935751059e+03
-3.846063949893815334e+03
-3.508136169930628057e+03
-3.213698140201539445e+03
-3.382611650936377373e+03
-3.403813640072458838e+03
-3.082338665695013333e+03
-2.769192211515526651e+03
-2.369456374746752317e+03
-2.395214723484380102e+03
-2.906603250105124516e+03
-3.832740759513627381e+03
-3.604485070355540302e+03
-1.204801317557210496e+03
-9.146351344769312846e+02
-1.925925147507030260e+03
-3.095772328338006901e+03
-1.784219818972855592e+03
1.386775019182533697e+03
2.196186137773320752e+03
1.364923764388888003e+03
8.649901248930640349e+02
2.690434847341968180e+03
3.281183929290791639e+03
3.268307614897544227e+03
3.343750130441785132e+03
3.210512199371351016e+03
2.978575493537338389e+03
3.330979491612193669e+03
3.232745411338935355e+03
3.189928465197765490e+03
2.950403802748402086e+03
2.420199628026188748e+03
2.151180914231575116e+03
1.618473227938070067e+03
1.630711436309286455e+03
1.798125799991335725e+03
1.570825553853749398e+03
1.609938752986437066e+03
1.379193038054391309e+03
8.528076051451927242e+02
4.194938099123419875e+02
7.442965058365648474e+02
7.614295847213829802e+02
1.637591672898622335e+02
-2.618388104785940413e+02
-2.784227597002621337e+02
4.251106833251965895e+02
1.403828592274269795e+03
1.987466651570409795e+03
1.658173720539480428e+03
1.235661938127960639e+03
2.007110068961879279e+03
2.489587900508388429e+03
2.177054633684727833e+03
2.157394347217276390e+03
1.795408133436985281e+03
1.366104456153224874e+03
1.132704643126626024e+03
1.034217614296987676e+03
6.474259236676381306e+02
4.940917810597137532e+02
8.954548330030513625e+02
1.082299366500857786e+03
1.042843636630849460e+03
1.025974101004099793e+03
8.454924868359729544e+02
7.495546439103295597e+02
1.365129927582764367e+03
1.181254131402184157e+03
9.167136293959035811e+02
1.262582706196659046e+03
1.872685054874010120e+03
1.821872743762729669e+03
1.209133629735609020e+03
1.126458940279393346e+03
1.459779319025184350e+03
8.999997993382953609e+02
6.542115619366298915e+02
8.884926083868008391e+02
1.013712907787334075e+03
1.254729824266137712e+03
9.635983621593616135e+02
9.133097446221629525e+02
1.007807277114143744e+03
4.270274427310750411e+02
1.245934202583635170e+03
2.105496715950831003e+03
2.292703796064209655e+03
2.671600016749898714e+03
2.370139615165034229e+03
2.191310711464315318e+03
1.899094032427544107e+03
1.357473405295182602e+03
6.904111922950303324e+02
4.397875718098852644e+02
1.295834236412156883e+02
2.017314264798968679e+02
-6.427478425687183972e+02
-2.565825728587936737e+03
-5.127596030246456394e+03
-5.610095847318636515e+03
-5.544320892510397243e+03
-4.364271720101803112e+03
-3.359937675464330368e+03
-3.134361717714444239e+03
-2.900570785739756957e+03
-2.368527598812659107e+03
-1.989252573466741296e+03
-3.582795290889667740e+03
-4.152133601995438767e+03
-4.263333716502183961e+03
-3.652355519024169553e+03
-3.374094707502286838e+03
-1.593697816774626972e+03
2.808609856336867665e+02
-1.614784532630882836e+02
-1.785754775538951662e+03
-4.685965018632635292e+03
-4.653105562129811005e+03
-4.590628585269025734e+02
1.667113380733183931e+03
1.597306127808418069e+03
1.278486370200975216e+03
1.510657944879351589e+03
1.416868082499989669e+03
1.497207937963693439e+03
1.649624253885148846e+03
1.790120929186045942e+03
1.486684014048085146e+03
1.372335163477698188e+03
1.659176131107057699e+03
2.085144648587982829e+03
1.796245851884633112e+03
1.208451135878668538e+03
1.464741862801678508e+03
1.276189187449884002e+03
7.137756438203888365e+02
2.855036027760535831e+02
-1.175523965282160503e+02
-8.139314914358249098e+01
-1.910382624413427664e+02
8.153426089495367535e+01
-1.106158310342398465e+02
1.885274184214615047e+02
3.069094163112237652e+02
2.345299940603145785e+02
5.584656213982536883e+02
1.284753634347633124e+03
9.724598566810479952e+02
-7.234198477664229188e+01
-2.605773704051331379e+02
2.556850932514511214e+02
1.455418078928108116e+03
1.882719441105574106e+03
