8.394399425930794678e+03
1.764076914824331834e+04
2.209925567264367055e+04
1.888659582819323987e+04
1.876332570177509842e+04
2.100797336739594903e+04
2.507133183982812989e+04
3.164685729960674871e+04
3.438408798686473165e+04
2.934272818554242986e+04
2.370432661449162333e+04
1.827130543782439054e+04
1.477213309546118035e+04
1.771752020524294130e+04
1.816109698935792403e+04
1.879628146835535881e+04
7.604497991641193948e+03
-5.563605123986527360e+03
-2.349240443291754218e+03
1.333714078743903337e+04
2.983126328160199773e+04
2.889091313729232206e+04
1.548680031976160717e+04
1.064771483914625060e+04
7.466331012369370001e+03
3.333394554246496227e+03
4.387344376887481303e+02
-6.258659328241041067e+02
-9.612533166276860356e+03
-1.518251449002403751e+04
-2.835825481470740488e+04
-4.717020740738288441e+04
-5.680692087146761332e+04
-4.334921853454250959e+04
-4.620650913015371771e+04
-5.227913924183329073e+04
-4.776153056400585774e+04
-3.409643739975397330e+04
-1.327530878539102559e+04
6.634878333925913466e+03
2.027052181384347205e+04
2.502435187298155142e+04
2.594826895349408733e+04
3.482818072822020622e+04
4.076843414905940881e+04
3.949851781007146928e+04
2.744640206073240915e+04
1.077064718834824998e+04
-6.216865347456649715e+02
7.213677406120962587e+03
1.443572192801681012e+04
4.130563270493557866e+03
-1.383796248220673442e+04
-1.142830273660381317e+04
2.186333197045409179e+03
8.409548871497137952e+03
4.863466769427572217e+03
-5.497051171986598092e+03
-1.203880679106492062e+04
-1.290682328541649986e+04
-1.859304922850255025e+04
-4.707625258796878916e+04
-8.063516904787141539e+04
-9.291657768080344249e+04
-9.303813913543589297e+04
-9.409284656345796247e+04
-9.659666891088960983e+04
-9.992136502471439599e+04
-1.006532968599622254e+05
-9.517681480701586406e+04
-8.842065526388357102e+04
-8.278025133703244501e+04
-8.418576713134843158e+04
-8.436170698210268165e+04
-8.283764882671163650e+04
-8.108131886057170050e+04
-6.964939459730188537e+04
-5.573964658006904938e+04
-5.169565760791592766e+04
-4.753429787377624598e+04
-4.384134908491277747e+04
-3.680049712445134355e+04
-2.390940599840086725e+04
-1.103159612995723546e+04
4.964458199576713014e+03
2.527921166729680408e+04
4.119715146289843688e+04
5.041181984073213243e+04
5.721061325358963950e+04
5.863984122393147118e+04
5.663277685499027575e+04
5.449457724220409727e+04
4.672542096471926197e+04
4.019443704355409136e+04
3.949618624801975238e+04
3.913695376179846789e+04
3.302885694536101073e+04
2.448799518031491971e+04
1.904902457432335723e+04
2.420027440768851011e+04
3.153531289771848969e+04
4.021025636701071198e+04
5.312448633030846395e+04
6.639144364103156840e+04
7.488260355226372485e+04
7.752735495241190074e+04
8.201187696665982367e+04
8.882734066659268865e+04
8.651017176732486405e+04
8.451173340163135435e+04
8.335922088945953874e+04
7.858674125147427549e+04
7.018148092377941066e+04
6.194661415213218424e+04
5.577635916843995801e+04
4.942986636229965370e+04
4.303629988231008610e+04
3.724977668386045843e+04
3.132251400959229431e+04
2.817776137010766615e+04
2.785374416934510009e+04
2.782673705438883553e+04
2.735199407826584866e+04
2.716777244929721928e+04
2.705039672198849075e+04
2.696206330560179413e+04
2.571806486126926757e+04
2.385257643406186253e+04
2.096160046573005457e+04
1.907623418809050781e+04
1.568951232700820219e+04
1.049136809575212465e+04
5.764617104203925010e+03
1.671436086635065521e+03
-1.540053677857938055e+03
-4.691120326806752018e+03
-8.536690981739868221e+03
-1.178492195211135731e+04
-1.369063802564410253e+04
-1.539600145267804146e+04
-1.603417024153863167e+04
-1.784191779488803877e+04
-1.871716020675492473e+04
-1.971502300376029962e+04
-2.101033155157279180e+04
-2.275805098445323529e+04
-2.516319088308674691e+04
-2.832276493204725193e+04
-3.073188655719235612e+04
-3.146350537049014019e+04
-3.355755423823996534e+04
-3.681425004369676753e+04
-4.216494621366835054e+04
-4.521571198486835056e+04
-4.550831394526182703e+04
-4.540213231389340217e+04
-4.404111817559688643e+04
-4.074058408964430419e+04
-3.891801513388322928e+04
-3.699204845720484445e+04
-3.498596600898054021e+04
-3.374415014265205537e+04
-3.185968417978687648e+04
-2.826862747641121314e+04
-2.638227998943129933e+04
-2.454369647512134179e+04
-2.077494393569382737e+04
-1.825803222812186505e+04
-1.722810030272280710e+04
-1.576248087046456567e+04
-1.486130119192677739e+04
-1.491793385089475123e+04
-1.483287781196432115e+04
-1.727234829167912903e+04
-1.926936488606162311e+04
-1.857517167758022333e+04
-1.225716966768638304e+04
-9.317466985659792044e+03
-9.487948580208050771e+03
-8.028764265090791014e+03
-6.185399253554979623e+03
-3.795017317521688710e+03
-2.495844313301455259e+03
-1.117839822189501092e+03
1.301055887248586714e+03
4.087719063919326800e+03
4.801095225702673815e+03
3.063000234417011598e+03
1.558239823342313912e+03
-1.072488273991236127e+02
-2.260453531267317430e+03
-2.787441638997457176e+03
-1.305328420838552802e+03
2.885336204911362756e+02
7.556511943132155693e+02
3.534722295518940427e+03
4.064504916817874800e+03
1.674804529561736217e+03
4.475847535975453297e+02
6.949632959032219333e+02
2.820933257805544599e+03
6.149379715494241282e+03
7.327253571742324311e+03
7.305427952837652811e+03
7.586811408475619828e+03
8.246599634608332053e+03
8.985977500193483138e+03
1.056906369550907402e+04
1.125379432718937278e+04
1.070008404418979080e+04
1.186493825347300663e+04
9.835209843779175571e+03
6.788711641980894456e+03
5.067573927794117481e+03
4.094047458360367727e+03
3.716972219400716313e+03
3.645165118106950104e+03
3.286463014794525407e+03
9.131054910602068730e+02
5.842943482312904280e+02
-4.509445066922403953e+02
-3.862329588669718419e+02
3.244621349525974438e+03
5.221549883567286088e+03
5.350560112903839581e+03
7.283224607050853592e+03
9.911565915218539885e+03
9.796959221868286477e+03
8.460686483594590754e+03
8.009797256461939469e+03
7.215350615481436762e+03
5.548257930703577586e+03
3.925299011198138487e+03
1.483526199115525060e+03
2.732351524128966958e+02
-4.527323878354314388e+02
-1.866024980412669493e+03
-3.624573913278154578e+03
-4.955359607719085943e+03
-3.509421031619252972e+03
3.860679762316530628e+02
1.252656750901767055e+03
2.963860114066216738e+03
5.387808146523909272e+03
8.112296649344576508e+03
1.009940804718352956e+04
1.006814639224612256e+04
9.077923377367309513e+03
7.611844141887232581e+03
7.503121624571376742e+03
8.514616075933556203e+03
9.268392594684644791e+03
6.694061337143729361e+03
2.870472142328549126e+03
-1.311418472964561772e+02
-1.420889963065875236e+03
-2.489819074466983473e+00
1.450626980715928994e+03
1.294297887462408653e+03
2.794222515948418732e+03
3.621688303173826171e+03
3.627258552419139505e+03
5.079650674070409877e+03
6.196797688085730442e+03
6.296841494994548157e+03
6.731093755378155947e+03
8.300332273302383328e+03
8.770803828590869671e+03
8.203738327872375521e+03
8.580193479149029372e+03
9.754809019609898314e+03
8.844737698427776195e+03
5.643850245462922430e+03
1.655251866187250016e+03
-1.348427456831116615e+03
-5.198216837129112719e+03
-6.545271798009707709e+03
-6.822025408592661734e+03
-6.902157330462057871e+03
-6.424376547199039123e+03
-6.213061935364689816e+03
-5.860161363927154525e+03
-4.671402319979410095e+03
-3.291822938591225011e+03
-1.099469622482447676e+03
-9.521284576515531626e+02
-4.729572866437180778e+02
4.715359565737107346e+02
5.859035846026838499e+02
5.417089257347158309e+03
6.705180017932890223e+03
1.651173004739823000e+03
-6.011595720005139810e+03
-1.048193795787040108e+04
-1.336281830670844283e+04
-1.500017488655247143e+04
-1.533656728101652516e+04
-1.498496266325562465e+04
-1.308989351079534936e+04
-1.101115157780148729e+04
-8.076419707317892971e+03
-4.743596686353861514e+03
-3.227145009766467410e+03
-5.296098766536590119e+03
-7.149848650034730781e+03
-5.441568752959868107e+03
-1.011659061329419728e+03
1.522860280886019837e+03
6.761477698359016358e+03
4.699057248066707871e+03
-3.139010600859252008e+03
-6.084135214029955932e+03
-5.768117360079771061e+03
-4.939266821137760417e+03
-3.215045838253939564e+03
-3.323755083792731511e+03
-3.896713009190539651e+03
-4.329537651038717740e+03
-4.250126061657947503e+03
-3.524446454819235896e+03
-2.427997294760823479e+02
2.409564323892626021e+02
-2.149100783224687348e+03
-5.429962696490195412e+03
-4.997684694493625102e+03
3.914566980492356834e+02
7.804739784233792307e+03
8.724818175383532434e+03
4.303399528214159545e+03
2.250791794138607202e+03
1.445821818945045607e+03
8.660715908885466661e+02
7.853012805782022951e+02
-9.105334788992756785e+02
-4.729996348263209711e+02
-1.268651193259466027e+03
-2.627660132129328304e+03
-4.128156843401015067e+03
-6.146730556040311967e+03
-8.174146975897254379e+03
-9.800735297064458791e+03
-9.716834190284220313e+03
-9.035237256886013711e+03
-6.635191070802782633e+03
-2.116583874750523137e+03
1.781928465693541511e+03
4.425698493646512361e+03
6.011846660266897743e+03
5.492332142193784421e+03
2.398674288666418761e+03
3.663908270909930707e+03
3.703617931799289636e+03
1.832604378253288814e+03
-3.061783700806449815e+03
-4.963404725608646004e+03
-6.837372373205967961e+03
-4.884641744926045249e+03
-5.894570674141449672e+03
-7.774324938603662304e+03
-8.490783776001579099e+03
-5.936088703648737464e+03
-1.996837346448053495e+03
1.132151041336034268e+03
2.211141318439357747e+03
3.497759249832717614e+03
5.858386687220284330e+03
7.167776708595270065e+03
6.756518981347874615e+03
6.568845864289555720e+03
6.485137374145409012e+03
5.436500671513072120e+03
3.662790634588208832e+03
2.328061773489237567e+03
7.375060473738600422e+02
-9.648374503304272594e+02
-2.255105346012193877e+03
-3.706654492882895283e+03
-5.360805267874943638e+03
-7.487674307306111587e+03
-9.367242087173799518e+03
-9.525536580818212315e+03
-8.342657574592589299e+03
-5.015634851546393293e+03
-1.500457625076930526e+03
8.018279920414753406e+02
3.844189545230402473e+03
6.825382585759824906e+03
8.901461268226783432e+03
9.858564871152106207e+03
1.145752374466220135e+04
1.277518102866410118e+04
1.081839503338617942e+04
8.779006261130638450e+03
6.409884450798945181e+03
6.248840265197265580e+03
5.505569437377618669e+03
3.349927287155055183e+03
1.714699944027446463e+03
1.544797473049720566e+03
1.789921776762970694e+03
3.884951048754739077e+03
5.407807812147671029e+03
6.033444577559606842e+03
6.534697459743195395e+03
8.021411526685255922e+03
9.602357813592001548e+03
9.472266067246993771e+03
8.183068195761841707e+03
4.813663460658834083e+03
3.288964886163395477e+03
6.952554427304261480e+03
9.265994144419229997e+03
3.369921777163896877e+03
-2.887974414401025115e+03
-5.759230643072023668e+03
-5.024051448122275360e+03
-2.722732784454441116e+03
-4.575515762327980156e+03
-3.580492374942474726e+03
-2.475833517689891778e+03
-1.186011292943213675e+03
1.577465137335964016e+02
2.410266762067702984e+03
6.452239705374674486e+03
1.024664697309290932e+04
1.179449739880331435e+04
1.344649359079612259e+04
1.394836088222578110e+04
1.253897495303247706e+04
1.052219904395357116e+04
9.578995873749610837e+03
9.629138270507133711e+03
7.925265602621484504e+03
5.146651555651360468e+03
3.918268837233738850e+03
4.091184830997028712e+03
2.014074799799640459e+03
-1.561260742877834673e+02
-2.542433734697590353e+03
-1.896824243191873393e+03
2.359826300651709019e+01
5.935698327334281430e+02
1.978912918075598327e+03
3.962741278057767431e+03
5.386298747847488812e+03
6.302637658464110245e+03
7.345785542492302739e+03
8.972674345619616361e+03
1.276904214799192232e+04
1.563673758084436849e+04
1.509479485550217032e+04
1.282830774808700153e+04
9.803095801819332337e+03
6.208428535510154688e+03
3.097599476863023483e+03
1.498645730481433247e+03
-1.243210481390754722e+02
-1.497366501405765121e+03
-1.546631603785879861e+03
-1.828924792598863405e+03
-2.802102023618032035e+03
-2.751974071218439803e+03
-2.528313425427792936e+03
-1.306910718724953995e+03
-4.263389143266046233e+01
3.617367083072298897e+02
2.523501438443334791e+03
4.211202022027136081e+03
2.593540898835638473e+03
1.458477823679451603e+03
1.995174031754109365e+03
1.198919658915959417e+03
2.938688637232591532e+02
-1.887774902656556833e+03
-4.185725233688756816e+03
-6.000506309006558695e+03
-8.249877276107788930e+03
-8.382343818732011641e+03
-7.252600737386047513e+03
-8.058549404014644097e+03
-1.278779314706185687e+04
-1.168587759490981807e+04
-1.285954714729340594e+04
-1.252839766722278000e+04
-1.159180601062816459e+04
-1.049124467063922748e+04
-7.900349676040822487e+03
-5.038540495341080714e+03
-6.224196698587222272e+03
-6.016965793074309659e+03
-4.510406575441510540e+03
-1.007413068615934208e+04
-1.378369700529779948e+04
-1.509351007765588292e+04
-1.714090145461466454e+04
-1.508038806464047411e+04
-1.462472331933123860e+04
-1.700764886922097867e+04
-1.999935408447654481e+04
-1.732635286774828273e+04
-1.608518161899096958e+04
-1.544043710029213071e+04
-1.422457349763264574e+04
-1.130785209788304383e+04
-1.249068647210966446e+04
-9.321520995803344704e+03
-5.996873323675253232e+03
-6.559230764935482512e+03
-4.503034457769301298e+03
-9.250626732786076900e+03
-1.094338441861339379e+04
-7.407739633654193312e+03
-9.833376013367875203e+03
-8.727155448362274910e+03
-1.302866014579557668e+04
-1.431529923000424606e+04
-8.182696278616119343e+03
-6.139249723490142060e+03
-7.087387053814839419e+03
-8.720656851290381383e+03
-6.692514043248006601e+03
-4.881444508442662482e+03
-2.710999870931959776e+03
-8.439297429984590053e+02
1.359253088134590598e+03
3.886070932006681687e+03
7.219772431287648942e+03
9.575725560939497882e+03
9.299532308733148966e+03
8.338749627094963216e+03
8.831740017586387694e+03
1.014276361016555893e+04
1.059933314890848851e+04
9.187866587165972305e+03
7.715620472955461082e+03
6.958006915332126482e+03
6.168252036535822299e+03
5.442588725691810396e+03
5.270221030049488945e+03
3.889478503146551702e+03
2.052437750518259691e+03
6.232217318026903740e+03
1.048140973191643934e+04
1.129226137575157554e+04
8.963926786769156024e+03
1.134681522612255139e+04
1.348274442891709623e+04
1.409562701999750243e+04
1.514203800776587741e+04
1.690031066773774000e+04
1.872727752974259420e+04
2.120611206420047529e+04
2.172211183876152063e+04
2.108530523578338762e+04
2.001043689323687795e+04
1.839946783307945225e+04
1.710440906206667205e+04
1.602705383260818235e+04
1.522427418733156082e+04
1.432418811778951022e+04
1.289298357522440165e+04
1.083961737691720191e+04
9.722826526190687218e+03
1.025735020258477380e+04
1.306747648747849234e+04
1.726364894620995256e+04
2.105297562183353148e+04
2.158969189962610108e+04
2.083542811014899416e+04
2.030206174036196535e+04
1.873013139975112790e+04
1.526747107404774579e+04
1.272358083970696316e+04
9.836166509544207656e+03
7.169925823614332330e+03
5.326482424569844625e+03
3.099526030232231278e+03
1.683572070677410011e+03
1.866521928208764621e+03
2.221301140007229151e+03
2.297755364894579998e+03
3.005366553588748047e+03
3.491391749306198562e+03
4.714162082680042658e+03
4.949759077533982236e+03
4.707100132775559359e+03
5.381617639433987279e+03
4.634835318337861281e+03
3.278402910583464291e+03
1.567888869959185286e+03
-6.212886650329041771e+01
-2.035322675901707498e+03
-3.661025372374447670e+03
-4.995662929145333692e+03
-7.969699959378956919e+03
-1.150667651589408160e+04
-1.531609000899493185e+04
-1.569349289445070099e+04
-1.598131741255979978e+04
-1.828703827615716727e+04
-2.244135938756591349e+04
-2.214992028614457013e+04
-2.060526433608050502e+04
-2.001000456448220939e+04
-1.978352637883625721e+04
-1.894203999649530670e+04
-1.718088692751486815e+04
-1.448697861582269434e+04
-1.272283122184997228e+04
-1.187784957557300368e+04
-1.268019369663965699e+04
-1.287756478287812752e+04
-1.400859555773431930e+04
-1.528432034206355820e+04
-1.440308963838073942e+04
-1.716724498056868470e+04
-1.765040763502637856e+04
-1.378636387790016488e+04
-1.043264174003976223e+04
-1.308568439570230657e+04
-1.707787177012087704e+04
-1.109063884173525548e+04
-6.628817181488851020e+03
-5.734007647530502254e+03
-5.496469987766720806e+03
-4.988632353191522270e+03
-4.226933002801918519e+03
-4.252704744011795810e+03
-4.556386778343492551e+03
-2.983530123861649372e+03
-2.865637253174657531e+02
5.900243176292339058e+02
-3.062832517584027414e+02
-2.013002767707582052e+03
-4.152686704690196166e+03
-5.688740952577403732e+03
-6.275552884690012434e+03
-6.846577658114610131e+03
-6.340251644036060497e+03
-5.307077773824405085e+03
-4.015502296735727668e+03
-2.821858470759853390e+03
-2.477618717102240680e+03
-1.703209138641718482e+03
1.222218554802792738e+02
1.274452588451275915e+03
2.197029859962641240e+03
3.658607157358268978e+03
4.850114071688842159e+03
5.245221739007046381e+03
5.285669692390698401e+03
4.390026714109881141e+03
3.618019261432372787e+03
3.228527823770334635e+03
2.631278090948097542e+03
1.112924611732658377e+03
-4.772949459556641472e+01
-3.119589394689417645e+02
7.910694322103863669e+02
1.603281402538574184e+03
1.899593023061612030e+03
2.214814850712748012e+03
3.428755405496325693e+03
5.398631401744459254e+03
7.767625748017450860e+03
9.352839093081171086e+03
1.016528098199287888e+04
1.101190465106389638e+04
1.079946036381663725e+04
1.118805709397551618e+04
1.028878990327473912e+04
8.711738512111507589e+03
6.455745979256177634e+03
4.067133533866322523e+03
2.574363060907390718e+03
2.624064618983167293e+03
1.745244210321162427e+03
-7.339705853216494233e+02
-2.936486548925729949e+03
-4.328178010351047305e+03
-4.005144309207954848e+03
-1.813353715692134301e+03
2.675565508171011402e+02
1.297762226790463728e+03
2.422461784018070830e+03
4.552868713243969978e+03
5.962177465727235358e+03
6.650372623825224764e+03
7.409461456768005519e+03
7.378744944001446129e+03
6.495523792648587005e+03
5.074894973934288828e+03
2.238970261517446033e+03
1.261077917190652755e+02
-1.484982489031146429e+02
4.434771964237312432e+02
1.318025898015213670e+03
1.325189496646457883e+03
7.583064977631555621e+02
5.165514614644266658e+02
1.345121480978186582e+03
3.353218998711941822e+03
5.964193867648309606e+03
7.345286160025754725e+03
6.722713942588663485e+03
5.957525884202514135e+03
5.713085059662435015e+03
5.267016708077391741e+03
4.453761412668621233e+03
4.389610286484175049e+03
3.918891765935599778e+03
3.388908663410991267e+03
4.479870227579192033e+03
5.862080621387496649e+03
6.011817211762328952e+03
5.271242453961324827e+03
3.049688652790584001e+03
9.603687933670283883e+02
-3.995960704166056416e+02
-1.549794012395619802e+03
-2.748928204052752335e+03
-4.931732209983782013e+03
-8.121759009380750285e+03
-5.761844899257700490e+03
1.743294017859970495e+02
1.515263663154247979e+03
2.459179357399628316e+03
4.299265098371200111e+03
5.175903292020459958e+03
5.171316713810423607e+03
4.402953564845201981e+03
2.939265441494853803e+03
1.610550869724736003e+03
1.088127524765554654e+03
8.028425034938898079e+02
1.161722151094403898e+03
8.851870158662800350e+02
-2.861267054448430258e+02
-1.527372428168315309e+03
-1.714880742820365867e+03
-1.710195926981914681e+03
-1.854914642026805495e+03
-2.360037045818435217e+03
-1.575777553032670994e+03
5.871315311638318235e+02
1.425906350299529322e+03
6.567613022120734740e+02
-6.539261565993547265e+02
-2.580582732078278696e+03
-4.498926751957596935e+03
-5.171216962798893292e+03
-6.129457823476481281e+03
-7.839968145712910882e+03
-1.002475043455256491e+04
-1.113940052331522384e+04
-1.160742707180593970e+04
-1.154238827220197709e+04
-1.205501702491180367e+04
-1.252585422833645680e+04
-1.202124567340728208e+04
-1.175004555192295084e+04
-1.190163110328208313e+04
-1.143720093981198988e+04
-9.603394702780629814e+03
-6.734602370394000900e+03
-5.100307287941415780e+03
-3.830484535983329351e+03
-1.460702804462001268e+03
1.088362462013977421e+02
-1.185047016675019620e+02
-1.165076510878247518e+03
-2.807520401770531407e+03
-4.587142417431641661e+03
-5.694176738206834671e+03
-6.690403579516645550e+03
-6.549433323003286205e+03
-5.335432265563195870e+03
-4.071675577448911554e+03
-2.148847999040135619e+03
-1.032748002064821094e+03
9.057653345335967288e+01
1.617993849158655621e+03
2.027670014514800641e+03
2.984426671870645805e+03
4.748985797440343958e+03
6.164602684507451158e+03
5.692518259711682731e+03
3.498635024091000105e+03
8.918165022414282248e+02
6.372445770283339925e+02
1.408629617843123469e+02
1.005258286541142070e+03
1.611872005358284468e+03
1.271794728729034205e+03
-8.772732607676218208e+01
2.211123945004846121e+02
-1.435623247129307174e+03
-3.981675114981407205e+03
-3.964769753814143314e+03
-3.045912116482184501e+03
-1.814302304866778513e+03
2.281274727255050493e+03
8.577952438228536266e+03
1.005337196386202595e+04
1.055883498211835649e+04
9.421391562038297707e+03
5.769166766966521209e+03
3.020613434576339387e+03
3.568597465217663739e+03
5.139336537554899223e+03
3.688795484802779811e+03
3.060136239518393722e+03
3.163730104946288975e+03
2.151101483084192296e+03
7.220538897087526493e+02
-1.700837754780862952e+02
-1.968273302484555643e+03
-4.272539673244708865e+03
-5.829867730997388207e+03
-6.176628814800416876e+03
-1.793640945415982742e+03
1.900923744049307061e+03
2.542405033134447876e+03
1.104843761274435337e+03
4.198745989260823421e+02
3.996690833599446705e+03
5.766324808828252571e+03
1.044558376988318196e+04
1.092016326714530805e+04
1.040520747737856800e+04
9.334861908132079407e+03
7.164377304285655555e+03
5.050745086606752920e+03
3.289621263220741639e+03
1.660762650263526893e+03
-2.182444811678886651e+02
-1.708182869669205729e+03
-2.155186174132568340e+03
-1.651551188260094705e+03
-9.900914067393151754e+02
6.254422064750017398e+02
7.376031476510841003e+02
3.145848231642742121e+02
-2.736506178567606540e+01
8.027605639665606532e+02
2.533630830512516695e+03
3.123662188231478467e+03
3.055965875629071888e+03
3.544819245439951374e+03
4.002978112571490783e+03
4.352632496075584640e+03
3.026080164802835952e+03
7.546916625883036431e+02
-2.944485146703552800e+03
-4.821784412465490277e+03
-5.816864751240217629e+03
-7.356440142474765707e+03
-7.569575773906680297e+03
-7.531621372960759800e+03
-9.196667222321812005e+03
-9.821727881550792517e+03
-8.159608997820831974e+03
-6.665034880135069216e+03
-5.519851048115798221e+03
-4.903136985021453256e+03
-4.576299155221013280e+03
-3.007325291626145827e+03
-8.665021712776494951e+02
1.085357571726709267e+02
-1.418854014192726027e+03
-3.805688566768242254e+03
-5.392463005782899018e+03
-7.727107295929510656e+03
-1.043179654997377838e+04
-1.133898189388352694e+04
-1.117444059107260910e+04
-1.061776436540559371e+04
-8.111321113546416200e+03
-7.814411324376607809e+03
-9.516771706460573114e+03
-1.006635028423992480e+04
-9.686714404202573860e+03
-8.419203969656278787e+03
-5.876520051032616720e+03
-3.301567601133268909e+03
-1.116055355442143536e+03
1.518826801892974800e+03
3.891412143774018659e+03
6.052027100570203402e+03
7.231679669428429406e+03
6.384525933031411114e+03
4.526225773276783002e+03
2.283436443203368526e+03
3.890926905455620499e+02
-8.999202378908527180e+02
-1.097214530792395635e+03
-1.106893020796833298e+03
-1.149797534526220261e+03
-1.301145374405389020e+03
-1.914655351959971767e+03
-3.258415122528145389e+02
2.322176339126724542e+03
4.715967238654436187e+03
7.185163972028210082e+03
9.691357465488172238e+03
1.143523504635421887e+04
1.270358271301901368e+04
1.387823415469396241e+04
1.413259814463664407e+04
1.403579210504540424e+04
1.310802088670043668e+04
1.125393856113913716e+04
9.273609233428856896e+03
7.768322635849272956e+03
5.671791245525500926e+03
3.363887958864379016e+03
1.161804833718696273e+03
-1.263333544182316700e+03
-5.087322453406000022e+03
-7.232037376395715000e+03
-7.684242493106566144e+03
-8.873657675459249731e+03
-8.045042736795765450e+03
-6.422013753543105850e+02
5.238882756936023725e+03
4.951280465670347439e+03
4.020358582325090083e+03
6.683388290255509673e+03
1.172858273698481025e+04
1.044901906577576847e+04
1.066492772529677495e+04
8.214334373956824493e+03
4.972255190097977902e+03
2.442970578080948599e+03
3.605502058165846080e+01
-7.773692442495162140e+02
-1.595291983032294411e+03
-2.770400220729467947e+03
-2.365444403770123699e+03
-4.391286324867992334e+02
2.073033651047736384e+03
4.113569656855308494e+03
6.274804036298285610e+03
7.397020396141469064e+03
7.618653942209116394e+03
7.625095446760630693e+03
7.598846100197103624e+03
7.517279838993416888e+03
7.765704039795033168e+03
7.662599686871670201e+03
6.714332210115311682e+03
6.333195366242885029e+03
5.846399974713217489e+03
4.499199232037163711e+03
3.288959381914006372e+03
2.146067377906384536e+03
1.295888084099551861e+03
-5.172026693470436385e+02
-1.594677488665581222e+03
-2.748150016508680892e+03
-3.769207795720256399e+03
-4.960315526520652384e+03
-5.181214699717730582e+03
-3.839551038849181623e+03
-2.067982612965836324e+03
-1.224286464113273951e+03
-1.024121978420024107e+03
-8.410650225640570170e+02
-5.770202084430006835e+02
-3.468866435996405926e+02
-2.093157074730517593e+02
-4.199532356674635594e+02
-2.024721495865798886e+02
-1.867342688953979632e+03
-5.335381660369929705e+03
-7.664383767082950726e+03
-9.101984234614636080e+03
-1.078189543139445414e+04
-1.127484652831630046e+04
-1.126156074220552546e+04
-1.065385865703734817e+04
-1.041976437238100880e+04
-1.082793468644177483e+04
-1.082816251535644551e+04
-1.080432644616420293e+04
-1.188625714667613101e+04
-1.258666842851887486e+04
-1.156021717819931473e+04
-9.732644501545202729e+03
-7.547728394800356000e+03
-8.597453232814978037e+03
-1.163484968896303326e+04
-1.518603469110219703e+04
-1.935897020104713738e+04
-2.446441775931730081e+04
-2.736320208901145088e+04
-2.626156516853764333e+04
-2.135458033401126522e+04
-1.775710838545152365e+04
-1.717592571088901968e+04
-1.445897288469471277e+04
-1.520459650092844458e+04
-1.455485091467172788e+04
-9.283654857281144359e+03
-5.496015232056779496e+03
1.670330611861866373e+03
6.669321907218657543e+03
9.377492551853238183e+03
1.064156708351143607e+04
8.578492034467637495e+03
6.159200680548546188e+03
6.684610407219298395e+03
3.580676810630453019e+03
4.798475204237807361e+02
9.225821259146332523e+02
-4.543418591074743745e+03
-8.759415206685498561e+03
-1.130262612183195051e+04
-1.401133458889466783e+04
-1.276298447907703485e+04
-7.816035838110936311e+03
-6.845949305636445388e+03
-1.148308959678981580e+02
1.441062075501580011e+03
5.557079184345359863e+03
8.455870741377908416e+03
9.858219249362347909e+03
9.318771024556919656e+03
5.816263007800032028e+03
6.228251658041702285e+03
5.746156894580482913e+03
6.842567145409690966e+03
3.922667742691311105e+03
-3.422507236856583859e+02
-1.536696608069536978e+03
3.088402166288059334e+02
1.721216753696887736e+03
2.117723942721024287e+03
5.734656271861809728e+03
9.234670934298426801e+03
9.071220138371289067e+03
9.610698092586902931e+03
1.264657389191830771e+04
1.657943570276309038e+04
2.079197813372030942e+04
2.822761591183051496e+04
3.484855212716583628e+04
3.699836428290782351e+04
3.221448019892677985e+04
2.725730141882309181e+04
2.449613640207349818e+04
1.874833433490705647e+04
1.076139170021062819e+04
3.355896037539756890e+03
-9.623457720473288646e+03
-1.035959860974260118e+04
-2.574125281568835362e+03
7.089634209320988703e+03
1.257376728427820490e+04
1.516142594149680372e+04
2.206434921994900651e+04
3.303218651407769357e+04
3.617699278396388399e+04
3.338309187269042741e+04
2.972661576365652581e+04
2.691412824029769035e+04
2.189399469680886614e+04
1.747711195641776067e+04
1.668102843747429506e+04
2.385465927541308338e+04
3.078688502548128599e+04
3.058144886147493889e+04
3.120276833126704878e+04
3.139238744503257840e+04
3.135697971214485005e+04
2.716216957991514209e+04
2.695348226952976256e+04
2.801205673247109007e+04
2.300681501138806925e+04
1.850335443091644265e+04
1.956506814824437970e+04
2.291705638854077915e+04
2.848814500600938118e+04
3.209332833831593234e+04
3.008978725155646680e+04
3.052833531628623678e+04
3.283384085823762143e+04
2.497191214659657635e+04
1.564378457679034727e+04
1.288330850013224335e+04
6.791518591873875266e+03
9.906183666130549682e+03
1.821706027464766157e+04
1.279494937165206466e+04
2.928568453498743565e+03
-6.570289896282983136e+03
-1.355561685495004167e+04
-1.482748679808169800e+04
-1.362676804189076029e+04
-6.694341720262023046e+03
1.438012721680554250e+03
6.828275067906418371e+03
5.098411648062932727e+03
-9.992332840789049442e+03
-2.584974293622199912e+04
-3.491665131671882409e+04
-2.869084184467392333e+04
-1.809813716584608119e+04
-1.453324315005135941e+04
-9.805912492327737709e+03
-4.393730699233119594e+03
-6.158433362676450088e+03
-2.083880171461028658e+04
-4.323562233644382650e+04
-7.241475699388583598e+04
-9.478796403643353551e+04
-1.098166784081537189e+05
-1.266276411884994159e+05
-1.434865905943288526e+05
-1.468779719279465789e+05
-1.358532256786028156e+05
-1.277279297708299564e+05
-1.321765547478938824e+05
-1.438548269640019571e+05
-1.528845438445962500e+05
-1.455692122358509805e+05
-1.364400107321599789e+05
-1.289251582789650711e+05
-1.219242258404424210e+05
-1.124645723486406932e+05
-1.003535710790718731e+05
-9.450894144055644574e+04
-8.650124835218586668e+04
-6.794701582406161469e+04
-4.970905141716360959e+04
-3.533955540216866211e+04
-1.732479596962402502e+04
-8.642715593950368884e+02
1.811063726648791999e+04
3.523547561056516861e+04
4.577855419324299874e+04
5.115241818336974393e+04
6.024464443853684497e+04
6.674878164891431516e+04
6.628049187605116458e+04
6.629239474819650059e+04
6.981710922448177007e+04
7.081232457026322663e+04
6.967078646379914426e+04
7.045017533999515581e+04
7.203312862684269203e+04
6.863318797740901937e+04
6.580579143339373695e+04
6.731252127970356378e+04
6.844883759833949443e+04
7.541512177649734076e+04
7.957398504124848114e+04
8.680382220996264368e+04
9.144596643902838696e+04
9.395998013287820504e+04
9.391534952518361388e+04
9.094561106845265022e+04
8.470125720863192691e+04
7.504781792097304424e+04
6.840984958353427646e+04
6.230889885600985144e+04
5.841245054435056227e+04
6.325198889534387126e+04
6.966009559504230856e+04
6.794324024744221242e+04
6.256657502108797780e+04
5.549944545492878387e+04
4.900637048294879787e+04
4.167488825155182712e+04
3.477235874231637717e+04
2.819022726619151581e+04
2.355767497519843164e+04
2.169386745058306769e+04
2.125013102642249942e+04
2.162251544487487990e+04
2.105781550437683836e+04
1.850523335820802822e+04
1.943085598472943093e+04
2.105505099775957569e+04
2.301019127599939384e+04
2.305639940653925441e+04
2.327023894289403688e+04
2.184428038498941169e+04
1.911562847452877031e+04
1.569251615891355323e+04
1.441030952813994918e+04
1.104785808076981630e+04
3.948913658647350530e+03
-2.280597648119546648e+03
-7.769690923313535677e+03
-1.380167404552431799e+04
-1.915573594405471522e+04
-2.201118659462336291e+04
-2.353207324650878945e+04
-2.599846327571665825e+04
