-5.507124263612012146e+04
-4.143457911266753217e+04
-3.585833460579539678e+04
-3.404540244161238661e+04
-3.907074380443250993e+04
-3.362540692579035385e+04
-9.671414926565495989e+03
1.325320795468817778e+04
1.608539359171021897e+04
1.243495758507182472e+04
9.059735998701280550e+03
1.280567742625909432e+03
-1.676721030186480448e+03
-2.879423363054972015e+03
1.022191069617082121e+03
3.334805923014720975e+03
1.496315790801209687e+03
-7.539819940478700119e+03
-1.170644215085140240e+04
6.482116374991151133e+03
3.275990595873360871e+04
5.310838035996348481e+04
6.596181933178377221e+04
6.943088815376954153e+04
7.306195094529975904e+04
7.368391166749905096e+04
7.765439902942115441e+04
7.913465190331530175e+04
7.830782324614796380e+04
7.366209721873314993e+04
7.095741004803987744e+04
7.842818825421752990e+04
8.295869845805864315e+04
8.763639325955189997e+04
9.343695224054271239e+04
8.912793340351960796e+04
8.378711933157009480e+04
8.436312770941293275e+04
8.950871912677100045e+04
8.815384652174242365e+04
8.063387246298966056e+04
7.034089858131011715e+04
5.786950521387566550e+04
5.338393932388791291e+04
5.330284219143646624e+04
5.961698807093116193e+04
6.089692610768339364e+04
5.137187504650394112e+04
4.126361169874022016e+04
3.704086682216896588e+04
3.985905849312432838e+04
3.661451670404465403e+04
3.213690923499182827e+04
3.276760927304761935e+04
3.624650275949476782e+04
3.790050972910699784e+04
2.943890519940682861e+04
2.035073073517300509e+04
1.714294912640290204e+04
1.040170311715627940e+04
-5.637007377159675343e+03
-2.654319237101105682e+04
-4.209869165505623823e+04
-4.240269638866025343e+04
-4.101255794798430725e+04
-3.918838642453672219e+04
-3.702422362323006382e+04
-3.944914277291274630e+04
-4.703427241386420792e+04
-5.137481987106962333e+04
-4.970205657887055713e+04
-4.334112236437787215e+04
-3.865617120978038292e+04
-4.226255348592490191e+04
-4.565560363480276283e+04
-4.100962003155637649e+04
-3.559077911762567965e+04
-3.906639336479360645e+04
-4.541494038248587458e+04
-4.533685371543571091e+04
-4.732547888631520618e+04
-4.974831027980095678e+04
-5.235768430551521305e+04
-5.197186208789796365e+04
-4.821915185725710762e+04
-4.268798540745156060e+04
-3.936778172737975547e+04
-4.009246327204695990e+04
-4.038115270757419057e+04
-3.921340953442140744e+04
-3.870864932797788060e+04
-3.810314903535255871e+04
-3.352496831690632098e+04
-2.802677815648837714e+04
-3.017281566784364622e+04
-3.483023218668629124e+04
-3.177241757644466270e+04
-3.090171026242797598e+04
-3.371920260687283735e+04
-3.346304900984290725e+04
-3.177143264838130563e+04
-3.074036652180465171e+04
-2.875414200109724698e+04
-2.424598908233976908e+04
-1.892203230078159322e+04
-1.665227277367817078e+04
-1.447853674923745348e+04
-1.385284972835891313e+04
-1.331423940316258449e+04
-1.190197775023103713e+04
-1.051034514751783354e+04
-9.817378426257084357e+03
-8.525040750652768111e+03
-8.450945981953809678e+03
-8.924701958505293078e+03
-8.604305048710139090e+03
-6.356536037083229530e+03
-4.421033033500374586e+03
-3.941568915056124752e+03
-3.398718284383151513e+03
-1.659974400229095863e+03
-1.087273503123706405e+03
-1.874695754988368208e+03
-1.986823009084241903e+03
-1.975905063978986846e+03
-2.136268623538593602e+03
-1.364330989781176640e+03
2.253384248865638256e+03
4.224651314118897972e+03
4.237275482943601673e+03
4.103554468150653520e+03
5.182775352174504405e+03
6.293580091638452359e+03
7.004729162029153485e+03
7.072429189890583075e+03
7.400766346602967133e+03
1.076161142004199246e+04
1.221169831944625548e+04
1.067163557428505919e+04
9.048612835384203208e+03
9.663875013547996787e+03
1.365863466871532182e+04
1.755913008846728553e+04
1.820728235961608516e+04
1.685379720911979530e+04
1.700097557642793254e+04
1.859903568328277470e+04
2.040072508809647115e+04
2.041337368813857393e+04
2.106858175013159780e+04
2.240374884939597177e+04
2.211412825353852168e+04
2.147696756851796090e+04
2.123898199867973017e+04
2.006464104135775415e+04
1.855543580986718734e+04
1.796758389014079512e+04
1.902933055333295488e+04
2.094300119459312555e+04
2.108799113376611058e+04
1.965497871973979636e+04
1.840065150235089823e+04
1.792086445935583833e+04
1.786066382036152936e+04
1.743649981957891214e+04
1.775720583265108144e+04
1.764546589894517456e+04
1.636336259072683606e+04
1.515475244480271249e+04
1.418749780999409813e+04
1.398434284037911129e+04
1.596764032413059067e+04
1.715197633937667342e+04
1.608870429194724420e+04
1.498284530943303616e+04
1.434991176967091633e+04
1.325731420535173129e+04
1.255717048038806934e+04
1.102234350090863336e+04
9.541703778719756883e+03
8.695637336180838247e+03
8.505418980681617541e+03
7.727370861107852761e+03
6.217288262168778601e+03
5.624573605841452263e+03
5.994008413543888310e+03
5.855351067492134462e+03
5.236007804543764905e+03
4.975900381157393895e+03
4.703093761185195035e+03
4.192502149768316485e+03
3.019417353927272870e+03
1.785666435122334406e+03
5.074417596940812132e+02
-1.400280608179350850e+02
-8.340413530869224701e+01
-1.346590974586589027e+03
-2.758409731826009192e+03
-3.782073882141289687e+03
-4.578144648549693557e+03
-5.570498337824448754e+03
-6.413479408288830200e+03
-7.466158306863044345e+03
-7.761438348536081321e+03
-8.289707833296370154e+03
-7.788928690797533818e+03
-8.443345743849080463e+03
-8.953996109934691049e+03
-9.015646491461855476e+03
-9.494870778738370063e+03
-8.716740468051486459e+03
-8.317170699431451794e+03
-8.238344067809532135e+03
-8.348032091217630295e+03
-8.727991538858083004e+03
-8.299074444297453738e+03
-8.575932810821934254e+03
-9.395719995594152351e+03
-1.024669944037695313e+04
-1.054279236683733507e+04
-1.092822830277150388e+04
-1.072007611361435738e+04
-1.066413853318759720e+04
-9.937292472368792005e+03
-9.277812175535411370e+03
-8.967659755860799123e+03
-8.801494955131729512e+03
-8.417792776345828315e+03
-7.742834774569962974e+03
-7.809788991172676106e+03
-7.735448102887593450e+03
-7.407759516214425275e+03
-6.939490664953358646e+03
-6.753160080056346487e+03
-7.108719623269428666e+03
-7.688668490916098563e+03
-7.753251933126175572e+03
-7.356959244951298388e+03
-7.047718135166013781e+03
-6.884044025767399035e+03
-6.453649175541539080e+03
-6.189465948466637201e+03
-6.032483483630127012e+03
-5.224015625724725396e+03
-3.944350911577921579e+03
-3.399940847083040353e+03
-1.899917755835618664e+03
-6.341465398919610834e+02
1.145132523024539353e+02
7.979780356327945583e+02
6.722413049335507367e+02
5.803856463425427137e+02
1.158447886947308916e+03
1.616077105779571411e+03
2.097059283176041845e+03
3.066476626815130203e+03
3.689832061441342375e+03
3.508244182806581193e+03
3.393398345790444637e+03
3.455057710012212738e+03
3.469120123188112302e+03
3.901043020596092902e+03
4.346984243911444537e+03
4.912233374093875682e+03
5.648328098295611198e+03
6.097426461331936480e+03
6.310964477649093169e+03
6.554985060522426465e+03
6.926850666460919456e+03
7.027224453995989279e+03
6.895905668534705910e+03
6.486396155510745302e+03
5.158640263766782482e+03
3.159809686366663755e+03
-1.081506556007536119e+03
-3.272637143441738317e+03
-3.855648254655558048e+03
-2.704770199245625008e+03
-1.842036164395540027e+03
-2.011257697505062197e+03
-2.312990877210883809e+03
-2.942452579285768934e+03
-2.491483730885440309e+03
-2.009384528848552918e+03
-2.327177570536389339e+03
-2.264745327038650885e+03
-1.808816868640013126e+03
-1.131561496575320916e+03
1.936111212569181362e+03
6.753229053986235613e+02
-1.902099680713002954e+03
-2.228587328281865211e+03
-2.451437408791709004e+03
-2.760589577026818915e+03
-2.561549923977961498e+03
-3.194826517326043358e+03
-3.626125225121564654e+03
-4.789541484540880560e+02
2.627987600102048873e+03
-1.529499718217085729e+02
-3.777251720760430089e+03
-4.394373435603948565e+03
-5.177996757924499434e+03
-5.278923276373639055e+03
-4.808310773431298912e+03
-1.311019136195791134e+03
-1.407481892656059699e+03
-3.916370949106849366e+03
-3.792377027335773164e+03
-5.454297489308151370e+01
2.900664430160222309e+03
2.931895226597579494e+03
2.491989175375645118e+03
1.863713298262728131e+03
1.295201576535823733e+03
1.206869607742256903e+03
7.418526720941924850e+02
-1.380269869742919866e+02
-6.311576632583495439e+02
-5.876687075318229745e+02
-1.027838119899792900e+03
-1.379026821042871006e+03
-1.349526825085149994e+03
-9.935666611342851411e+02
-7.969470540257285620e+02
-9.293306029873820080e+02
-9.190228555559788219e+02
-9.377796965053036047e+02
-8.534169667278498537e+02
-8.411304935001954846e+02
-8.734319824442254685e+02
-1.213531684945393181e+03
-8.633433166833737005e+02
-1.147300697767881957e+03
-1.914946659960556417e+03
-2.029250652340765100e+03
-1.848007101122440190e+03
-2.336289139050668837e+03
-2.465951965030042629e+03
-3.408054759366513736e+03
-3.584052431954977237e+03
-4.176448438533588160e+03
-5.723695102235521517e+03
-4.185046323620562362e+03
-4.113668237372259568e+02
4.032506246830037071e+02
-6.245972550614379770e+01
-4.568948530900935907e+02
7.876870991828828039e+01
3.509872310975223968e+02
5.173754707913452648e+02
6.474407141237805945e+02
1.887659773904971416e+02
-4.567453630354734173e+02
-5.618422849448156740e+02
-4.845505695689139998e+02
-3.761215025386493380e+02
-4.148269519872160913e+02
-1.034812197764272923e+03
-1.487393757339353442e+03
-1.632990918744766759e+03
-1.437771016167233256e+03
-1.269808144449872088e+03
-1.030537182427329753e+03
-2.480626806329263445e+02
2.452836487823414124e+00
4.438195839577061861e+02
5.308133531918296057e+02
8.572340452109135640e+02
1.431960668995034666e+03
1.479909251807052442e+03
1.685915315466653510e+03
1.349769120771670714e+03
1.161136389020021397e+03
1.109919892864809299e+03
8.330497535678163104e+02
1.008328692619045910e+03
1.087582360782164187e+03
9.718910441122288830e+02
8.762807236668505766e+02
9.724532570260739703e+02
9.763780368801143368e+02
1.172010778571798255e+03
1.637334075133220267e+03
2.121924579916151743e+03
2.613796521886199571e+03
2.849029711487849909e+03
2.893592317681669556e+03
3.417374648440996680e+03
3.520289228246685525e+03
3.666229513287616101e+03
3.945187747018268965e+03
3.423132717416327523e+03
2.788707625423839545e+03
2.516972448979867750e+03
1.826124795191246676e+03
1.850206419813306866e+03
2.346093194525206400e+03
1.719436362215270265e+03
-1.011798506625422760e+03
-4.758429755545505941e+03
-2.123203552599083650e+03
1.287848609819585135e+03
-1.343394781517111824e+03
-5.082019110625690701e+03
-4.934874860208859900e+03
-4.739904404177248580e+03
-4.583150575203111657e+03
-4.178529291135755557e+03
-4.053863358821769452e+03
-3.762153313887330569e+03
-2.127419467361906754e+03
2.260815575183898090e+03
3.897505886719323371e+03
4.198427619839273575e+03
4.122496858654567404e+03
3.941844259153816893e+03
3.487672134975990048e+03
2.757075878119144818e+03
2.676126551242350615e+03
2.429941738629683641e+03
2.618604212149831255e+03
3.854171097674229713e+03
3.728726496290496016e+03
3.674493956147670360e+03
4.161577183751156554e+03
5.160064196769254522e+03
5.519966113310203582e+03
5.664191030265685185e+03
6.175915024572044786e+03
6.896414322543092567e+03
5.835751191936018586e+03
4.227955431205916284e+03
3.866163996501325073e+03
3.754466643418515559e+03
3.516007450042185610e+03
2.798867149572337439e+03
2.299129309700320846e+03
2.135855780752093779e+03
1.678161323013001265e+03
1.610262960510121957e+03
1.512158461372833926e+03
2.308861556755896345e+03
2.541568165081220286e+03
2.360424124354695778e+03
3.022522906328016234e+03
3.555892320099942481e+03
4.039638701748718631e+03
4.326960900397289151e+03
4.401904002128362663e+03
4.686535895309392799e+03
4.118864332545730576e+03
4.155944751208072375e+03
3.766032289614694946e+03
2.256249826325805316e+03
4.485451293461320006e+02
-1.593052285007566070e+03
-1.384439124122041903e+03
8.244370182472306396e+02
1.872635113276132643e+03
2.107185782681035107e+03
2.562236802580498534e+03
2.686763155467156139e+03
2.903941972097468806e+03
2.605780867381182361e+03
2.613238460721707270e+03
2.783413396679648031e+03
2.317298616979423969e+03
1.928996310552298155e+03
2.397456653441924573e+03
3.394730128033563687e+03
3.625894568588884340e+03
2.817883666307824569e+03
1.400731826459557169e+03
-7.315110474104827745e+02
-3.397834002727893676e+03
-1.692182177317869446e+03
-2.037497702430077879e+03
-4.542866735441685705e+03
-4.732264690569447339e+03
-1.796744473339251726e+03
-2.597295742559057089e+03
-1.816918141467818486e+03
-2.676563986842249506e+03
-1.197251197409141469e+03
-1.995935425645071064e+03
1.422423699749108437e+03
1.036786480642346305e+03
-1.777924386194897579e+03
-2.676886417315216704e+02
2.345062442500347117e+02
1.699659903075530110e+03
-1.186245711972888103e+03
1.772726280745554959e+03
6.355526166828552732e+02
-2.598777057518562742e+03
-7.003246167601015486e+02
-1.139134695335878405e+03
-4.160235185811819974e+03
-3.344664058484587713e+03
-6.720409757377201458e+03
-4.565532308379451024e+03
-6.310219067931242307e+02
-1.554952420205762337e+03
-2.777445665893154455e+03
-2.763530769527504162e+03
1.089835643813750039e+03
-6.103262758612870584e+02
-6.800281779699092795e+02
-6.853435943325773678e+02
-1.505291810044212525e+03
-8.879485480339344576e+02
9.675860923889825926e+02
-1.973723556446645262e+03
-3.700825750040446110e+03
-4.737947272330618489e+02
-3.696839742527608905e+02
-1.091505159099876437e+03
-1.523378645277757414e+03
-7.153199909263290692e+02
2.906593201209382755e+02
3.154823261057146624e+02
3.415622599361662282e+01
4.706990620599843851e+02
6.760655295066932240e+02
1.043231263918494733e+03
1.214172056378139132e+03
1.706867620570536019e+03
2.049330202516126064e+03
1.788606010040702813e+03
1.766748673737423360e+03
2.125912078500265579e+03
1.597957078743235797e+03
4.148039190539921037e+02
1.262365955994953595e+02
3.001987341609257669e+02
3.573995850495492732e+01
-1.021228338873765665e+03
-1.638694389731447700e+03
-1.109762794851335684e+03
-1.572573969100124259e+03
-1.769131204581047768e+03
-1.995350629062347252e+03
-2.386107069091870471e+03
-2.601389489992221115e+03
-1.342417762314089714e+03
5.840264601350397697e+02
8.681266801831318389e+02
1.477694874831013522e+03
1.794688272259436644e+03
2.138078002875949551e+03
2.545775576691361493e+03
1.862848892074094692e+03
1.164208004263111434e+03
2.274649839747812905e+02
-2.632350774895343193e+02
1.625315707702985719e+02
4.453811549486321297e+01
-1.695982222156438866e+02
-4.449912793196643861e+02
-3.035146702406949544e+02
1.099551939385527248e+02
7.441313914805115246e+02
1.503243338906839881e+03
2.045492318386702664e+03
1.589669078789632977e+03
1.500454339079144574e+03
2.255043400300165104e+03
1.700512115204660631e+03
1.828673222362458318e+03
2.848580934581441397e+03
2.785176570536226336e+03
1.553342456829646608e+03
4.680571364291187706e+02
-4.466283380781870846e+02
-7.973945990027372943e+01
-3.573719641542708700e+02
-8.624802159483463129e+02
-1.747052766789669022e+03
-2.162109305330780899e+03
-1.932691177577408098e+03
-9.037212891740202849e+02
1.124767151276952518e+03
2.461723076441670855e+03
2.136209195712392102e+03
1.934289830296589798e+03
2.879928047749335747e+03
3.580117706929542692e+03
3.847916244743635161e+03
3.619261856353880830e+03
3.546243422146974808e+03
2.523912788546266711e+03
-6.707965069411109198e+02
-5.141946175426700393e+03
-6.561447428825324096e+03
-6.823315547739979593e+03
-7.330468979680716075e+03
-7.486907617405244309e+03
-7.508650394135452188e+03
-9.127603856809837453e+03
-1.017594837190181534e+04
-9.265932714872826182e+03
-6.905318196375561456e+03
-6.926918743622763941e+03
-6.014726602505794290e+03
-4.268717109359139613e+03
-1.901839576318344371e+03
3.570876183470145406e+03
3.777406761597881541e+03
-3.881607005750598205e+02
-9.227161197255969682e+02
-3.502235669219271131e+03
-4.433757584422814944e+03
-4.768322328745932282e+03
-4.799881012815922077e+03
-5.121308674428581980e+03
-5.073563913025262991e+03
-2.345677955348456635e+03
3.903484710352767593e+02
6.616080613302723350e+02
6.231350959106699747e+02
6.918700299897981267e+02
1.661923305116211623e+03
2.334372732013296172e+03
2.018264132112736206e+03
2.996558711011619835e+03
3.958382497469561258e+03
4.149824073183101063e+03
4.188893742245345493e+03
3.833593050183069408e+03
4.057904714769023940e+03
3.773975755604808455e+03
2.398899616107601560e+03
1.351645644660071412e+03
1.701252862116618189e+03
2.387755467193651839e+03
8.872574697829710431e+02
-9.317640996599838843e+01
-1.022604424135168074e+03
-1.740087333098740032e+02
-3.163961505853001768e+02
-3.537470514068159559e+02
-2.779061493013987274e+02
-1.284518628131264073e+01
1.007446446848967867e+03
2.101932635475750885e+03
2.387702762963130226e+03
2.570844704632326739e+03
3.187382461197908924e+03
3.168464681718438896e+03
2.883217284260084853e+03
2.218728995793871491e+03
1.568022852205217987e+03
1.420048054687694275e+03
6.957444147994873447e+02
2.782841034059910612e+02
-7.820269718594719279e+02
-1.047085578259975136e+03
-6.012601257690268994e+02
-2.277915482779659442e+02
-6.653843113842325465e+02
-1.289769009935970416e+03
-9.558465545501150018e+02
-6.746186271594222035e+02
-1.441036158527514544e+03
-1.077048511861050883e+03
-1.048518082749472569e+03
-3.418679500823001945e+03
-1.088655082535785823e+03
1.135404147162996878e+03
1.794862757112788131e+03
1.907656255474438467e+03
1.276609393974031946e+03
4.026799366607261277e+02
-5.951238221995193953e+02
-1.314690867267202293e+03
-1.241021602278638511e+03
-1.571064024238315142e+03
-1.497689436940124097e+03
-1.833860306164965095e+03
-1.755608731718268018e+03
-1.659047952237797062e+03
-1.538283517905943654e+03
-1.779385891350876591e+03
-1.947281421204639400e+03
-1.302913288765243806e+03
-2.643344286917151749e+02
3.114547302558792126e+02
4.665859832092377815e+02
5.900813756027830550e+02
9.479257631168279659e+02
9.411660681319431205e+02
4.357329943821306415e+02
1.046007448613176507e+02
-9.517400236028133520e+01
-7.585835749241223311e+02
-8.696164500002298610e+02
-1.565288275261914350e+03
-2.440503495813208701e+03
-2.471322881801162112e+03
-2.250580253097884452e+03
-1.509206581996982777e+03
-1.415240749081142212e+03
-1.278799652195840508e+03
-3.190460086563221012e+02
5.113774591593842445e+01
2.482634091611778615e+01
-5.142550671512416329e+02
-7.042956076727516574e+02
1.197853933543651266e+02
1.472239202518894672e+03
1.618110072561367588e+03
1.345329325634530505e+03
1.166927327177292227e+03
7.809057709813239398e+02
-1.697562360730165096e+02
-1.049837513136946654e+03
-1.137354435383056625e+03
-1.146613438406434852e+03
-5.651675892819915816e+02
-3.471703988914655952e+02
-8.511658280215420973e+02
-1.185940430408310931e+03
-7.787484615396567733e+02
4.954490978787410427e+02
6.428580435953379038e+02
9.142292110363567872e+02
1.624545456389609853e+03
2.134747054538344855e+03
2.178435082951122240e+03
1.871624684674067566e+03
1.065488008440560634e+03
1.046821790650122693e+03
1.460788025206663406e+03
1.203186532477340961e+03
9.488332495611824697e+02
6.032869125524682659e+02
3.378609702687602407e+02
-3.395887439720169141e+02
-6.722674151936364524e+02
-1.076933108828260401e+03
-4.694721554857515002e+02
1.674723401517115917e+02
6.127793646628726947e+02
4.696823090086796242e+02
9.584672781072857788e+02
1.672166471043783076e+03
2.089331841043288478e+03
2.135322428061835581e+03
1.953760124054936114e+03
2.172188932117282093e+03
2.550717677171105606e+03
2.292637822661181872e+03
1.968405824583426011e+03
1.336004060964164864e+03
1.904778009919986346e+02
7.705240190903420228e+01
2.245389288045171838e+02
3.238096302580150336e+02
1.111170325485335752e+03
8.338926678120726592e+02
1.039264549762521597e+02
2.887147665543521953e+02
3.368498048949048211e+02
6.016878697019200217e+02
1.087203635687181759e+03
1.848034315821949804e+03
2.292601590896510515e+03
2.586338575052176111e+03
2.702787232487091387e+03
3.186743566918661600e+03
3.187224306550126130e+03
3.035034618651640358e+03
3.070589797476242438e+03
2.336179929818230903e+03
1.749789960622421177e+03
1.556530757605928557e+03
1.005147412218279328e+03
6.817941033398942636e+02
7.928175645535850435e+02
8.065918571713026495e+02
1.139575467656378123e+03
1.410328831104974824e+03
1.629111129515679750e+03
2.135066560665210545e+03
2.606560966226079017e+03
3.201995460212686339e+03
3.215280276362113000e+03
3.075160809835344935e+03
3.685554509939192485e+03
3.921086569305869943e+03
3.918547463921297094e+03
4.110239731989301617e+03
3.362738317819892927e+03
2.577584234589922289e+03
1.748513841871675595e+03
-7.226742947526255421e+02
-4.403910676075171978e+03
-7.106615046297030858e+03
-7.811935507477484862e+03
-7.720361684020601388e+03
-7.123431469430339348e+03
-7.428105821170803210e+03
-6.813448307234700223e+03
-6.233075356122331868e+03
-5.653914141655709500e+03
-5.084555928216946086e+03
-4.657451422488516073e+03
-3.690854482696708601e+03
-3.262256284508296176e+03
-3.492552111910852091e+03
-3.405910284074469700e+02
3.708664705777869131e+03
4.108543421217701507e+03
2.223875562448620713e+03
-1.894251365153835422e+03
-4.342633983241968053e+03
-4.620209103911666716e+03
-4.794715985257628745e+03
-4.929477161503255047e+03
-4.996802403011148272e+03
-5.209712361304229489e+03
-5.173232868194634648e+03
-1.851875846335700317e+03
9.385510806257743752e+02
1.448549759069059064e+03
2.784016971284714145e+03
3.789002489514200533e+03
4.052781207592107421e+03
3.792710224329089669e+03
3.744767106021469317e+03
3.747462082452679624e+03
3.075296412542781582e+03
2.432036179394309784e+03
1.900972850475544419e+03
1.443500121496641214e+03
7.848221960373474531e+02
1.061717285392971007e+03
6.361338711700715294e+02
-4.748629052374855632e+02
-9.971076744463711066e+02
-5.822584838432337619e+02
-6.571610339837425272e+02
-9.180372805347784606e+02
-8.524056462786820703e+02
-9.324107167500801552e+02
-5.034961656484742889e+02
3.129507709056457188e+01
2.801408742889254313e+02
-5.247680586975718597e+01
-9.922047154608290498e+01
-1.917326752169117867e+02
-3.409574647379365047e+02
3.254216532188702615e+01
-5.125629604830048720e+02
-1.433469457105616812e+03
-1.937615397675422400e+03
-3.113861228870388913e+03
-4.085770023311647492e+03
-4.314436567616201501e+03
-4.858111592304401711e+03
-4.434679002595590646e+03
-3.651016119846704896e+03
-3.475310288411778856e+03
-3.954220157898149409e+03
-4.397626880341055767e+03
-4.121253446614015957e+03
-3.298596935691875842e+03
-2.990939756429602767e+03
-3.540871539928538368e+03
-4.124625619423476564e+03
-4.252102599281847688e+03
-4.231984509387591970e+03
-4.871237616731530579e+03
-5.795360027548290418e+03
-6.100541050655542676e+03
-6.358248775210543499e+03
-7.323142286742941906e+03
-7.950666477789953206e+03
-7.857803888383944468e+03
-7.963672777544391465e+03
-8.928360429485803252e+03
-8.500534828627340175e+03
-7.755437305592513439e+03
-7.026932052105633375e+03
-7.319250109981665446e+03
-8.496066938680261956e+03
-8.371002317295267858e+03
-7.777356804784196356e+03
-7.595311419073166689e+03
-7.498732841695265961e+03
-7.748874330596206164e+03
-7.199620986962838288e+03
-5.957451972331269644e+03
-5.941986733504423682e+03
-6.058700515857037317e+03
-6.559604900469234053e+03
-7.424482218139056386e+03
-6.774563297037813754e+03
-6.375826111709134238e+03
-6.558786939055290532e+03
-7.380915299193293322e+03
-8.215067834218009011e+03
-8.618361801306857160e+03
-9.280653361708722514e+03
-9.615884102704170800e+03
-9.203060262477456490e+03
-7.768220399218525927e+03
-6.866066908847346895e+03
-6.385469354632004979e+03
-6.685310814060346274e+03
-6.493606891602721589e+03
-5.287506611633378270e+03
-4.946594039611376502e+03
-3.348641407806993811e+03
-3.588796281582058327e+03
-6.952362230283068129e+03
-1.018253393453638091e+04
-9.573211419226085127e+03
-9.256399043172110396e+03
-8.653225723003166422e+03
-7.275871228380313369e+03
-4.190434775938833809e+03
-3.865615334954627542e+03
-3.879609334273376589e+03
-2.515187123588970280e+03
1.941264821905780082e+03
5.106468705358845000e+03
5.819217117909830449e+03
5.560387145464798778e+03
4.538942226328540528e+03
3.963635837368308330e+03
3.452196329356504066e+03
2.943010084470117363e+03
4.316428189768508673e+03
7.746952531054839710e+03
1.003520472448474720e+04
1.111275465539403922e+04
1.137902627326248148e+04
1.124141020615497109e+04
1.137138336183123829e+04
1.196620967046114311e+04
1.224794826944467241e+04
1.281406762279632312e+04
1.319009384392046013e+04
1.277926260885905685e+04
1.298475088102664813e+04
1.401400827886751722e+04
1.400035343721426034e+04
1.278814586948540091e+04
1.200765904935281469e+04
1.129704064525011381e+04
1.002452230564748425e+04
8.427258189291729650e+03
7.631457412846388252e+03
6.771307521627871211e+03
7.568997801778662506e+03
9.135697143299923482e+03
1.165231820286311813e+04
1.327389526837044650e+04
1.313856574718857519e+04
1.467648416847274893e+04
1.771077999022996300e+04
1.803851382835189725e+04
1.480185656649453631e+04
1.255490065167436114e+04
1.296979919830186554e+04
1.277862269087827190e+04
1.088337579588222070e+04
8.248174896349572009e+03
7.411243435287877219e+03
8.962807067729470873e+03
1.372903290668928457e+04
1.931884852464275900e+04
2.284726009981680181e+04
1.941932682512148676e+04
1.328420403348359832e+04
1.186599799667949992e+04
1.393176274042511432e+04
1.355074198192567019e+04
1.335511779137813937e+04
1.664091809653504606e+04
1.881343556164105757e+04
2.284789454746868068e+04
2.719946131076071106e+04
2.639532383173192284e+04
2.527166666595219795e+04
2.575992352877052326e+04
2.284048802274254194e+04
1.231065861917474467e+04
9.027781098580131584e+03
1.467424933310103370e+04
1.859145752148344400e+04
1.843180503172499084e+04
1.299579566793254708e+04
5.548962229250399105e+03
-1.654215153890478859e+03
-5.779167243215207236e+03
-7.609413463049781058e+03
-5.737431007281789789e+03
-2.940553520996380030e+03
2.533000060168389155e+03
1.057944246748347041e+03
7.429914840561234996e+03
2.351866236825413580e+04
3.485010659315679368e+04
3.608813484885459911e+04
2.134059201700310950e+04
4.536389085700298892e+03
-1.865043563574391737e+04
-3.589485045968912164e+04
-4.559980543560807564e+04
-5.007014877397828968e+04
-4.833281112143758219e+04
-4.093969237126566441e+04
-3.770156993678243452e+04
-3.364626906961110944e+04
-1.391747064378640789e+04
6.021121520781942309e+03
1.756781255212306496e+04
1.849302270295466587e+04
2.244620110034471509e+04
2.383683013607420071e+04
1.757135903735091051e+04
4.129337231698227697e+03
-1.700160647303641235e+04
-3.724278777200414333e+04
-4.680058403433554486e+04
-5.519627250968752196e+04
-6.213000395535741700e+04
-6.700994551359604520e+04
-5.770529313461603306e+04
-4.142914383190131048e+04
-3.716060871220257832e+04
-2.908875977649635752e+04
-1.253663885286493132e+04
2.035733270342992000e+03
1.437442018186484711e+04
2.584642505178868305e+04
3.137589752330269039e+04
2.808201937700618146e+04
1.141925763055200377e+03
-2.734627124065378302e+04
-3.479928597608727432e+04
-3.190681870561741380e+04
-2.933356149531439951e+04
-1.663123322062806983e+04
-1.178410644799483862e+03
1.043734916968191465e+04
2.011635233348105612e+04
2.621195189951320936e+04
1.706765019124982427e+04
4.733817642234276718e+03
4.503170205024935967e+03
-7.434474394421800980e+02
-8.904521018358918809e+03
-1.140067959800919016e+04
-6.896505688872164683e+03
-1.264452891389975593e+04
-3.401817176459963957e+04
-4.253005096191667690e+04
-5.177259548703450855e+04
-7.267130407920497237e+04
-6.207170685871252499e+04
-2.218526975664092606e+04
6.665520122074301071e+03
1.636644173219991171e+04
1.473891373462054844e+03
-1.689205491129452275e+04
-3.495925206413613341e+04
-4.704107411068542569e+04
-4.724855089015656267e+04
-4.513389115695888904e+04
-4.151465533443941968e+04
-3.310453888114976871e+04
-2.709017604148204919e+04
-3.894819158171656454e+04
-4.075114911486092751e+04
-1.584764358025734509e+04
8.622744839990980836e+03
1.414816224214483009e+04
1.177363408481550869e+04
7.035413917933602534e+03
1.822665090346073157e+03
-3.126339067153183805e+03
-7.093372591613938312e+03
-1.417426044538809037e+04
-1.748487137502330006e+04
-1.462111621836498307e+04
-1.963916775827683296e+03
1.679184003682838738e+04
2.997610854001855114e+04
3.408076541245960107e+04
3.515486468126027466e+04
3.509526727375410701e+04
3.567082699891344237e+04
3.653534142854285165e+04
3.880144734037795570e+04
4.184274794674343866e+04
4.159790992777912470e+04
4.591361546207900392e+04
6.132742660235410585e+04
7.173991106950829271e+04
6.739846793605329003e+04
6.036748361497254518e+04
5.228348310739090812e+04
4.102982163551060512e+04
3.102677224489723812e+04
1.646259366246303034e+04
1.474645012780480465e+04
3.387049938702584041e+04
5.237393131830105267e+04
4.948281682635553443e+04
4.432014015698193543e+04
4.246590125660647755e+04
3.686102663586979907e+04
3.417721423733910342e+04
2.940634043669403763e+04
2.204039048118076244e+04
2.135786667053120982e+04
2.574538942256418522e+04
2.339765346706757919e+04
1.408627804073588595e+04
8.055799480730708638e+03
3.104595398339589792e+03
-8.569070961820782486e+02
8.407528734916819531e+02
-1.839824721808641073e+02
-2.221828351269385166e+03
-9.051590400804081582e+03
-1.211597407525810377e+04
-8.392737394407342435e+03
-3.150812954670233921e+03
3.360866619129868468e+03
3.964219903231401645e+02
-6.999142246984829399e+03
-8.670910171738674762e+03
-1.821993477771281323e+04
-1.432617823700052395e+04
-2.621884911536889831e+03
9.205747277944121379e+03
1.649556764808426669e+04
1.104545402681282940e+04
5.831230214167389022e+03
4.469543964250792669e+03
9.090061435950956366e+03
1.302352332619002846e+04
1.197858781172680938e+04
9.056916230725280911e+03
6.622051521887959098e+03
5.739542895344656245e+03
8.721049480299278002e+03
1.124511374926197459e+04
1.368133891460854829e+04
1.066524657907939945e+04
4.479216971349618689e+03
1.273793092212022657e+03
3.612491439185895160e+03
6.993847238828187983e+03
6.962322825798163649e+03
7.234370612943399465e+03
7.520547310535426732e+03
5.822278125109190114e+03
1.555935847452360349e+03
-1.100071700754141830e+03
-3.513273454088296603e+03
-4.934207204937909410e+03
-8.038310730154390512e+03
-1.410315716201470059e+04
-1.657437910792980256e+04
-1.520642709097934858e+04
-1.397403802711178287e+04
-1.575063307671716211e+04
-2.055736967578418989e+04
-2.412512668900542485e+04
-2.591776589889658862e+04
-2.798897249622023810e+04
-3.221128408650533311e+04
-3.524625196269396110e+04
-3.207855842940353250e+04
-3.065544487290344114e+04
-3.114889980475878838e+04
-3.299407866207161715e+04
-3.664759556200577936e+04
-4.048698893835869239e+04
-4.345540229425420694e+04
-4.327996829797900864e+04
-4.170884250089021225e+04
-3.786221091977459582e+04
-3.500918200412295118e+04
-3.495988158301160729e+04
-3.508755301388670341e+04
-3.430046415977066499e+04
-3.182159456391418644e+04
-2.936890249054399101e+04
-2.711430789292600093e+04
-2.402367130349704894e+04
-2.223089069834796101e+04
-2.388788490586888656e+04
-2.401438944474317032e+04
