3.004514195715963979e+03
2.771621508953118337e+03
2.671148421712785421e+03
2.182105410240352285e+03
2.077882982742389686e+03
2.284711613021509038e+03
1.411592068839747526e+03
-1.311392024489872028e+03
-5.562346730897932503e+03
-6.892432942515231844e+03
-6.797547112653513068e+03
-7.208605657385853192e+03
-7.473601670949878098e+03
-7.302834087016981357e+03
-6.987276208222591777e+03
-5.622726935260507162e+03
-4.405200402804378427e+03
-4.284817513158842303e+03
-3.882377033972644767e+03
-2.142819798882031137e+03
-6.379402993422067993e+02
-3.987149187189506392e+03
-3.715511225674451453e+03
-6.328944842485208255e+02
-2.867183150678104994e+03
-4.379405532066281921e+03
-1.013206557704237639e+03
-2.495784796620010638e+03
-5.655472966824409013e+03
-6.034237648294727478e+03
-6.042892950291990928e+03
-1.200292338880534771e+03
7.037003586779683246e+02
-3.330991796731663726e+03
-5.417506806055313064e+03
-4.934646539860474149e+03
-4.081222601448989280e+03
-3.588305613269391870e+03
-6.202580951731326877e+02
3.023729277680813539e+03
4.032955390372248985e+03
3.799730921026648957e+03
3.867988110113290531e+03
3.351614680152561959e+03
3.104683596867923370e+03
2.961499237712440845e+03
2.609080446649229543e+03
2.337429892883517368e+03
2.589327755490963682e+03
2.461698127117593231e+03
2.157833966789719852e+03
1.609952604555616517e+03
1.316021664626463462e+03
1.127925546113213386e+03
9.304922343094324333e+02
9.967790142178025690e+02
1.038228832543683438e+03
1.509889186496406637e+03
1.944557451680630493e+03
2.229426715938520829e+03
2.173386924171444207e+03
1.994404078887529522e+03
1.644588363670757417e+03
1.737198900651017084e+03
2.170316540567876473e+03
1.589992796378424828e+03
1.284231746655077586e+03
1.073753780522366469e+03
5.135016330383723471e+02
8.356513178734272174e+01
9.820933204670743066e+01
2.804922709022860090e+02
9.332452178215238803e+01
2.176886864980117480e+02
8.166205740740982719e+02
9.894403694916453560e+02
1.341357714121082154e+03
1.116510586471837314e+03
1.286657731039006194e+03
1.596827837662599450e+03
2.144051028792405305e+03
2.222218427288038129e+03
1.475305226290893188e+03
1.281606544555978360e+02
-1.198098894391627027e+02
2.313328771274761948e+02
1.206555513052196460e+02
-4.134918380766802670e+02
-1.030028392150936270e+03
-1.263244189268705668e+03
-8.294604902606560017e+02
-2.535896166702233643e+02
3.323945738468748914e+02
1.085814147952637825e+02
-3.479565572641726590e+02
-5.762900939628727883e+02
-4.363860812122583184e+02
-9.626988716892915932e+01
1.115075892735452726e+03
1.294833896051109832e+03
1.038997065980904836e+03
6.266124262329549310e+02
9.256996153081047396e+01
-1.301886085321676205e+02
-7.470990959423974687e+01
-3.668905801626790435e+02
-4.546172824625205067e+02
-1.949594093021875665e+02
-5.869922972598687920e+02
-1.199720036646068593e+03
-1.320188540296963993e+03
-1.196288901613243752e+03
-1.285009069091467836e+03
-1.289392692039986514e+03
-1.305418477586698373e+03
-8.160707715234531179e+02
1.327115181587108168e+02
6.348600883316204317e+02
1.004431382583421396e+03
1.156425214386880043e+03
1.187770745551713617e+03
1.052484375582112079e+03
6.816924547497504818e+02
5.033160828174148946e+02
1.632735385114010285e+02
-2.525576127786555389e+02
-7.692950492492216199e+02
-1.199714243711803192e+03
-1.316766182558509399e+03
-1.774714845549822485e+03
-1.262711187900489449e+03
-7.777149321541122617e+02
-5.834877110822744726e+02
-4.181354837215948805e+02
7.723557699781001418e+01
3.505781780344061076e+02
8.638044863958347150e+02
7.519109758191060564e+02
9.089778644453464551e+01
-2.325870661246578663e+01
-1.105523909341917204e+02
-2.820066411181888952e+02
-5.946798163733917590e+02
-3.115989876435797896e+02
-6.598317504901181110e+02
-9.093512678360552854e+02
-1.595282798035520500e+03
-2.178679683492646291e+03
-2.318450290207628314e+03
-2.371739425689595009e+03
-2.325540632342983372e+03
-2.577903169286901630e+03
-4.409863924693126137e+03
-4.762430418958645532e+03
-1.408660297979301959e+03
-3.656304716270054769e+02
3.458814608242709454e+01
1.298926224665621021e+02
-7.992494287742071268e-01
6.904459971447822682e+02
1.576564721934361842e+03
1.689671724939846399e+03
1.144757356822857219e+03
4.418205808227971829e+02
-4.320395065603902651e+01
-3.743480863847175897e+02
-6.836509933652442896e+02
-5.272280521386104510e+02
-3.391692475597440648e+02
-7.705457015608737947e+02
-1.170483234270210232e+03
-1.013073650209359585e+03
-9.833824296207468763e+01
1.266778177648605208e+02
4.500115949527107659e+02
1.775669563291020040e+03
2.545641836987084844e+03
2.705944083036893062e+03
2.740524728274264817e+03
2.982353702222641459e+03
3.513379836596528548e+03
3.839508941711955686e+03
4.058707134335375031e+03
3.750869230242212325e+03
3.378019085454742253e+03
2.965197958162597843e+03
2.080326437408610218e+03
1.769333309326603285e+03
1.891270427598195511e+03
2.246078729370465226e+03
2.208652395494227676e+03
2.082003168581076807e+03
1.613176673473091114e+03
1.699191314526307679e+03
1.722039866661774795e+03
1.755632685681368685e+03
1.803975868178453084e+03
2.603043798029454592e+03
2.805784347691951552e+03
2.776162580955216981e+03
2.675165598992849482e+03
2.457794733508032550e+03
2.363099798401375210e+03
1.680876444257613457e+03
1.138318440134778484e+03
4.004927618252599473e+02
-7.316914883837412162e+02
5.186720035490185410e+02
9.415980629013774887e+02
-2.128801063753737139e+02
-4.848781955396891135e+03
-6.932065726713539334e+03
-4.481720620900140602e+03
-4.809815489986644025e+03
-5.760216551374573100e+03
-5.533937329664227036e+03
-5.973944680848077041e+03
-5.702178303231832615e+03
-4.546721028280219798e+03
-3.906597273458541167e+03
-3.494664243931023520e+03
2.471076710572277477e+02
4.137825982332502463e+03
2.434456592827336863e+03
-3.136019469164627935e+03
-4.229382604933130096e+03
-4.171541230435309444e+03
-1.618369398268448322e+03
-2.506801860001855857e+03
-4.706226443790905250e+03
-5.258821222754999326e+03
-5.572389725765002368e+03
-5.757934974209054417e+03
-5.800642905585978951e+03
-5.652417685388740210e+03
-5.344676151312130969e+03
-1.361143464937774525e+03
3.041918356522678550e+03
4.500631945289379701e+02
-3.680702255203239474e+03
-5.823323969187789544e+02
-2.598751033095374169e+03
-5.196800159852921752e+03
-4.526576790400251411e+03
-6.610854522161451996e+02
2.045952024058459983e+03
2.722579511473351431e+03
2.365028672323053797e+03
2.566487747811178451e+03
2.796541646670387763e+03
2.687113460282203505e+03
2.744752396564595983e+03
3.207619671847331574e+03
3.026575073589589920e+03
2.990405556699435692e+03
3.054687433277046239e+03
3.010395964379508769e+03
2.847887496513303176e+03
3.079327639563427056e+03
3.171658193415540154e+03
2.986808455921289351e+03
2.561826224924820508e+03
2.505635459474081927e+03
2.329371509890888774e+03
2.154123801254073442e+03
2.388876356009421215e+03
1.938623328317859205e+03
1.337719685599940021e+03
1.445605814101398209e+03
1.368122388351862355e+03
1.040944630125063895e+03
7.308777371994034411e+02
5.528586212082418569e+02
-1.399512629309812723e+02
-4.852129192678145841e+02
-1.799215521743483919e+02
9.065256996596119734e+02
1.516146223738877097e+03
1.588275218546767292e+03
1.226046958754712250e+03
5.678075650993019963e+02
-9.078260491942085082e+02
1.606753252443414340e+03
1.643566401155935637e+03
3.444489376090091923e+02
2.789427540047562957e+02
2.680552378059192620e+02
3.877774027708160816e+02
5.750515956188015707e+02
1.328683369161401515e+02
-2.458209248333243693e+02
-1.880733249013229340e+02
2.564577969715100494e+02
5.237995927736010344e+02
7.259888806762156719e+02
9.558222897685715225e+02
9.272156638487389273e+02
1.208185413161786755e+03
1.664628086728432663e+03
1.818213592892129100e+03
1.512006421571863029e+03
1.004421449943726316e+03
7.942790714447755818e+02
6.279798963779034011e+02
7.417348222710315895e+02
7.153166090750858075e+02
8.340047782313972675e+02
1.058724229073408424e+03
9.703679049968335448e+02
4.157801963440263648e+02
1.518707657368145760e+02
-2.434771272803259876e+02
-6.482040372647486492e+02
-8.927607829735703717e+02
-6.047069148190947772e+02
-5.174209254332092769e+02
-5.972586799883254116e+02
-4.822095796254285460e+02
-6.227921450281316851e+01
3.443627380101068525e+02
5.423674558513945385e+02
5.392521478509163444e+02
5.484136004359303342e+02
3.794886066978645545e+02
3.521273999701037951e+02
2.067703155608284646e+02
1.085776296137746755e+02
8.848230275802670519e+01
-1.857068567504856560e+02
-1.270523389231476443e+02
-1.011945322012171573e+02
-1.298973888207878815e+02
-1.139550736571799519e+02
-2.772675307677742396e+01
-1.851004958536617195e+01
-3.436040382655324947e+02
-1.011931959958692119e+03
-1.453394866135720804e+03
-4.695214824846023589e+02
-2.116412746931629556e+02
-3.371607810094120623e+02
-4.907733311164324732e+03
-7.688517681572936453e+03
-7.116063200815453456e+03
-1.732750290687618190e+03
2.785862794976270038e+02
-2.299989888985865946e+03
-4.527323482942490045e+03
-2.975648109705211937e+03
-1.845796186517597789e+03
-9.424094336654668496e+02
-1.663128912466377756e+02
4.854302952268092781e+02
4.182865854191090307e+02
-1.345898220878780904e+01
5.583071217568593738e+02
8.754135299224986966e+02
6.920310186322658410e+02
1.367469808812136307e+03
1.651013931588571950e+03
1.380821125017776467e+03
1.194796233872197490e+03
1.178898062333030339e+03
7.749123551976483668e+02
4.436746253581968062e+02
5.379056018542546980e+01
-3.888823408628781522e+02
-8.716702390219305698e+02
-1.023663843068352890e+03
-9.351251853260248481e+02
-8.872391726791606743e+02
-9.398024612105717779e+02
-5.040560491794765312e+02
-4.005998655406164062e+02
2.802651634771276790e+01
-4.010097280172978174e+01
-2.572812394354264711e+02
-7.285146034021012156e+02
-3.175455174534447451e+02
-6.247975910664255395e+01
4.216098572289331514e+02
4.842577169440825173e+02
1.741020271748009520e+02
2.950087013783511480e+01
-3.161577666088820706e+02
-3.022413109059745011e+02
-1.806217192398541442e+02
-3.709901418063158758e+02
-3.164464087072212237e+02
-5.668670869377649524e+02
-5.664153695654562171e+02
-2.024213336768695513e+02
-1.507643352944758703e+02
-1.249870103949187126e+02
-7.329223891330980223e+01
-2.826320827559861755e+02
-1.084797011872413641e+01
1.591379314820604236e+02
7.492111054691396532e+01
3.911311520960783241e+02
4.378059375653716074e+02
5.995162153191492962e+02
1.066577991562953116e+02
-5.615105395686465499e+02
-4.446692262097674302e+02
-4.817043863796694154e+02
-4.985012780230410385e+02
-6.808396861407110237e+02
-9.094390315055036353e+02
-8.022089378548056402e+02
-4.977592981611495020e+02
-3.903732532250334089e+02
-3.588350927289836818e+02
-3.203061054530093088e+02
-5.167525393561832061e+02
-4.648173157255727119e+02
-7.849815198793583022e+02
-5.597338638616693061e+02
-3.989555488096592057e+02
-3.282213499398907288e+02
-5.833501219340502075e+02
-4.178298800630386722e+02
4.401107648830183905e+00
3.614672944213014603e+02
5.130787262718289412e+02
5.222517023776267706e+02
2.244434620356925052e+02
7.867277936269466920e+01
4.324857099525286230e+02
1.834750985923381279e+02
8.190795282858171333e+01
-1.856545208443542094e+02
-3.002189992974061283e+02
-8.486144198977608255e+01
2.613069207061794259e+02
5.807493919533948201e+02
8.616687047891344946e+02
9.724037473959374438e+02
1.011974326699602329e+03
1.204160819281152953e+03
1.472903296423253096e+03
1.402242357848962229e+03
1.192127564992789075e+03
9.547478084977915387e+02
1.349451372676065603e+03
1.162081025326707731e+03
7.133255967843747385e+02
5.192516346073649629e+02
1.609552822080839860e+02
-7.238402795023712599e+01
2.580312625953363295e+02
1.951293048873311307e+02
4.041390949442351257e+02
8.951940096947356551e+02
1.238319021955685230e+03
9.487391381287089871e+02
7.430302911394360308e+02
4.608016350760947262e+02
5.843352700883011721e+02
-1.664599974803591749e+03
-1.498836417101244706e+03
5.817936619141282790e+02
1.468241717698069579e+03
1.160558515079847439e+03
1.050736564783195035e+03
7.845605366534837231e+02
7.524476736668157173e+02
5.905035863338202944e+02
-7.975131572915776701e+01
-4.540952367471946900e+02
2.252660427620131429e+02
2.689992454689505621e+02
3.418180924988651554e+02
1.288724687364657029e+03
8.155654606849423089e+02
-7.740275593584381113e+02
-1.502357432928568414e+03
-1.681248798139505652e+03
-1.015982779944278718e+03
-2.290028789607810722e+03
-5.358282452977007779e+03
-5.684245935763280613e+03
-4.790775939729665879e+03
-3.412010130319361906e+03
-1.768292221366683862e+03
-3.012702686758737400e+03
-5.286251141078151704e+03
-5.626141790189350104e+03
-6.491059240569827125e+03
-9.297900584033124687e+03
-1.053485835129405677e+04
-5.957098052651898797e+03
1.544426221089363253e+03
5.812986153583319719e+03
4.872041891257365023e+03
3.185182173658054580e+03
1.820826373415961825e+03
1.006701460326957658e+03
1.400818869130808253e+03
-6.537560527388164928e+02
-4.108462938709733862e+03
-5.426669896471368702e+03
-6.629146095471480294e+03
-5.336773247492691553e+03
-1.549631060207630981e+03
-2.791005122021097577e+03
-6.802891112574402541e+03
-3.983273972801169748e+03
2.704083758731491343e+03
8.404909488851342758e+03
1.239023815953450321e+04
1.055787658907013429e+04
7.065270699006830910e+03
7.366545276190103323e+03
9.537994440264415971e+03
1.117010736225532310e+04
1.128983923969282114e+04
1.209183702546769746e+04
1.197703275622572801e+04
1.208232754459846183e+04
1.046954259801221087e+04
4.918659626657890840e+03
-2.862382660237243499e+02
-7.692692616627190318e+02
4.098489268050319879e+03
7.799991081725324875e+03
7.989333978898199348e+03
5.285551802448631861e+03
1.967610902540857978e+03
-9.051746929677469211e+01
8.279807982041670584e+02
2.152965286962891241e+03
-4.764377808407609223e+02
-3.785218712599952141e+03
-9.394468088551897381e+03
-1.141516362940958788e+04
-5.564406376398495013e+03
4.866834270879842734e+03
1.266774315280227711e+04
1.406801216786610348e+04
7.989895385045386320e+03
5.264797700080957839e+03
4.302807043339781558e+03
3.106595300573432269e+03
6.844603509327786014e+03
9.051956265926997730e+03
3.880058421367800293e+03
-2.569890197464497760e+03
-3.314760646948093381e+03
-3.439682099459067558e+03
-3.449031752071397477e+03
-3.272774925550454100e+03
-2.688782473491056408e+03
-4.210313569583583558e+03
-9.257250637192559225e+03
-5.819300736714566483e+03
-1.316334823879393980e+03
-4.075400657736052381e+03
-1.043867900433890645e+04
-1.331098932316524952e+04
-1.413516986673034444e+04
-1.817632312399436341e+04
-1.993347370495800715e+04
-2.382050303512319078e+04
-3.111629779790081739e+04
-2.819977456727110985e+04
-1.105087497468534093e+04
9.489338047094866852e+03
2.277280303916002958e+04
1.883557232847814885e+04
6.209712060310026573e+03
-8.077283340481940286e+02
-3.805374841735002178e+02
7.755571541982058648e+01
5.316320199827262059e+02
-1.539530153177084003e+03
-8.821919904414375196e+03
-1.010037279965625930e+04
-6.994890091715195922e+03
-8.032497263890372778e+03
-1.442198915218856200e+04
-1.666021360465349426e+04
-1.711713075820282029e+04
-1.815842960252502235e+04
-2.202518004380792263e+04
-1.349438581140637143e+04
3.506360516334497333e+03
1.534807118112708304e+04
1.907844718185577221e+04
1.937128301535044375e+04
1.515970505603911624e+04
6.106984899945347024e+03
-3.974790876499507704e+03
-1.498544622634045299e+04
-2.262297603099768457e+04
-2.356421000999121679e+04
-1.685775941962830984e+04
-1.718685194586959824e+03
1.674513652491975881e+04
3.270645011289855756e+04
3.310634306863201346e+04
2.160971855645585674e+04
8.402837193389043023e+03
-5.302847210153836386e+03
-1.119290039314516616e+04
-1.110596933378904623e+03
1.681996041970586521e+04
2.808577260017350272e+04
2.773884137365825154e+04
2.033400534271472134e+04
1.568322552458377686e+04
1.296365637476223856e+04
6.272248012401420056e+03
-1.319158886679487352e+02
-3.922638255782789656e+03
-4.730925468714262024e+03
-3.003747393870675751e+03
-1.660975884027488291e+03
-7.494418677958578883e+02
-2.355174527931852936e+03
-6.282165529738698751e+03
-3.050142914242689130e+03
-1.194988016175530220e+03
-2.989703897539968693e+03
-6.252379318304262597e+03
3.077153338306966930e+02
6.358681971323345351e+03
2.603680515779738471e+03
-5.077284540761588687e+03
-8.355229018449024807e+03
-6.080131291222760410e+03
-1.986981141789311550e+03
-1.216735181032583341e+03
-2.992808262712033525e+02
4.505503032326807443e+03
8.907530179353487256e+03
1.378487317650905970e+04
1.307445117635448696e+04
6.653240402714282936e+03
3.339411082679820083e+03
4.698941287541192651e+03
1.267772571500878257e+03
-1.863137969330899296e+03
-3.477856887162740804e+02
1.558788756579614869e+02
2.286820181733237860e+03
2.543058373846566155e+03
-1.678432792410217189e+03
-5.727689180947953901e+03
-4.067662761319812034e+03
-5.813354090932160034e+03
-8.397792169338006715e+03
-9.197998104580290601e+03
-9.394080916546983644e+03
-1.263042752422127478e+03
3.362189864545466207e+03
1.042356853877188041e+04
1.235808818771516053e+04
5.771676791506184600e+03
1.393458556297616155e+02
-2.825867943575216486e+03
-4.914035522357175068e+03
-6.197161024292453476e+03
-4.835261090558789874e+03
3.936319819975149130e+02
6.126447328723827013e+03
5.693148556302078759e+03
5.414684533735210607e+03
5.984994188916785788e+03
3.530051853506382031e+03
2.377815646432071333e+02
6.301915350892496690e+02
-5.307778396313845406e+03
-2.024616921067606745e+04
-2.440706535709858144e+04
-1.006750636130687053e+04
-4.304505009553639866e+03
-4.322023437945855221e+03
-3.732159749941937662e+03
-1.530022178141287441e+03
-2.760606853927934480e+03
-4.354948100151636027e+03
-7.261389190810341461e+02
3.915805794916202558e+03
3.610784890295661626e+03
-2.021315449373852061e+03
-6.303543207819708186e+03
-3.665977512019092956e+03
8.163555992644212438e+02
4.989410138683415425e+03
8.035208662130576158e+03
3.774659126609376472e+03
1.323602971676391007e+03
3.415004926655714826e+03
6.168865636260952670e+03
6.332142547119660776e+03
4.915753389369043362e+03
3.375656819200176415e+03
3.397950617557078772e+02
-1.678892730448871589e+03
1.224580531913225514e+03
3.085174723633070244e+03
1.202831341122637468e+03
-7.044601638688801586e+02
-1.926730575341518033e+03
-1.366003343717937469e+03
-3.051414230006860180e+03
-6.362068745870288694e+03
-7.257994826985481268e+03
-6.398293080502718112e+03
-3.860999777705370434e+03
2.343904856580114938e+03
4.067453734437500771e+03
6.096017782457786325e+02
2.892692675702714382e+02
-3.257496388657731586e+03
-5.991515665241811803e+03
-6.888976620365457165e+03
-8.973173659491874787e+03
-1.143823403501064604e+04
-1.174601069218938028e+04
-1.577251888741722360e+04
-1.650577879933461736e+04
-5.657830711597112895e+03
3.749308096623824440e+03
1.033169425604860407e+04
1.362122478514554678e+04
1.273673004600204513e+04
9.279269690738587087e+03
4.684832836943414804e+03
-2.125669667039520391e+03
2.338581073977207154e+02
-8.435514497432204735e+02
9.159889994810318967e+02
4.206420842351986721e+03
3.576780562608117179e+03
-1.127860826176045975e+03
-4.776367194456552170e+03
-2.566942125361555554e+03
1.872572471664603029e+02
2.737171085871433206e+03
1.952774589269445414e+03
-3.887157089498257960e+02
-4.180249176146417994e+03
-3.502902408927763190e+03
-1.986507623230896797e+02
2.247655941339022320e+03
4.110947843458608986e+03
8.388763974674720885e+03
9.001708944771307870e+03
4.473865925711070304e+03
3.636652314185860178e+02
-7.417627390302855019e+02
2.798538261039860572e+03
2.723513748658756867e+03
3.100073394378393459e+03
1.441486508243689059e+03
-9.320656909553126752e+02
-1.136899238485910502e+02
1.686606509404112330e+03
2.511615167630250653e+03
7.720639833590524859e+02
-5.586066542281141665e+02
-1.691137912162388830e+03
1.272919343067928367e+03
2.387187851761048023e+03
4.398605065368762553e+03
5.032216114504726647e+03
-1.512519380641134148e+03
-7.664400577393371350e+03
-1.090371008956044534e+04
-6.854573778127200967e+03
-1.775961507551638533e+03
-1.257537313550018041e+02
1.242004407865189478e+03
2.499406897762809876e+03
1.891466653779006265e+03
1.327356172151376313e+03
2.834515492000227368e+03
2.741028041537268109e+03
1.630507313137885149e+03
7.004297224590554833e+02
1.159922959046213919e+03
2.323540225805423688e+03
3.663512744055761232e+03
5.448948840779283273e+03
4.667774926738115028e+03
2.149856673946207593e+03
1.777194897111124419e+03
2.810111452876393741e+03
2.755819200621872369e+03
2.696544863523189633e+03
7.380740135962524846e+02
-1.743060196859124062e+03
-3.435300064173461578e+03
-5.421224089844235095e+03
-6.736210270586404476e+03
-4.242265135535367335e+03
1.466452911505484280e+03
4.051718844794522738e+03
-7.606127311429899009e+02
-5.198999781478342811e+03
-5.947964416747843643e+03
-4.244221663378928497e+03
1.032156537061693200e+02
4.144616218187868071e+03
3.485712557772408218e+03
2.857313739194036771e+03
3.733643052082121358e+03
4.182557063839320790e+02
-2.172069641466917801e+03
-1.348127836305659912e+03
9.002953967681658014e+02
2.073952943836107352e+03
5.143294117934492249e+01
-2.318775840624760178e+02
1.205871647991043119e+03
1.274564615547490348e+03
2.214912218147617011e+02
1.225313571687904073e+02
1.155888041626612903e+03
2.689971934725263054e+03
4.196031304510138398e+03
4.699692264032144521e+03
3.435299817749288195e+03
1.641088164872010111e+03
-4.527018655954947803e+02
-2.686229100531772929e+03
-3.535717072777691101e+03
-1.737713838195919152e+03
1.109772872961333405e+03
1.047754277464638790e+03
2.954478646828812316e+02
6.363932827932600276e+02
-1.247637852622874703e+02
-2.489386601492876707e+03
-3.801156927130927215e+03
-4.183601815204422564e+03
-5.329961524202555665e+03
-3.287353422513528585e+03
-2.671727075275428888e+03
-3.347812543683213789e+03
1.069402239787433246e+03
5.922995221071373635e+03
6.724045152314398365e+03
3.739074950641963369e+03
7.563134698106699716e+02
-2.668206730051456930e+02
-1.846808054499656464e+03
-2.949386577023019072e+03
-5.328189517896236794e+03
-5.301349571093692248e+03
-1.269371096834829132e+03
1.577111416319799901e+03
2.301821297943846218e+02
-5.407716420885920343e+03
-8.979712405128415412e+03
-9.684680513311606774e+03
-1.058954957147285131e+04
-1.151695012303526892e+04
-7.685536071319004805e+03
-3.515655946669017794e+03
-6.465711986994074323e+02
2.219829636593129180e+03
5.189730715924091783e+03
5.874914193433827677e+03
4.599064759193117425e+03
3.884141048221726123e+03
2.558098670029185087e+03
1.084364738097001691e+03
7.071530286337778080e+02
3.813666072652101775e+02
-6.932045159907637526e+02
-1.610723334199873761e+03
-1.034188450654084363e+03
-1.281596330637314168e+03
-2.700694856229089055e+03
-1.235210450012570846e+03
1.611320756841901130e+03
4.497994248888968286e+03
6.221079585816188228e+03
4.246755356330786526e+03
2.965287849086054848e+03
3.171580561474478600e+03
2.953380714681534755e+03
2.645174368242300716e+03
1.874735895083298146e+03
1.108629037649451675e+03
-1.143157736711242904e+02
-5.838854244992633085e+02
-9.807460599223797715e+01
7.892685530601891708e-01
8.936415099698684799e+02
1.036417030901936869e+03
2.965208914621633198e+02
1.243475007472286507e+03
2.169198905218002892e+03
2.135379826227691865e+03
1.783415944438524775e+03
1.529349101141160645e+03
1.578921648599129639e+03
1.426172973799228657e+03
1.219975898421961347e+03
9.175383376553298831e+02
5.972978083725479337e+02
7.502768993873260115e+02
1.106018092005238941e+03
1.394708521599167398e+03
1.375444279037537171e+03
5.660683457214128111e+02
-2.851783014410105466e+02
-2.829436831168809476e+02
-1.719507780452300665e+02
-5.263757162925280397e+00
-3.138978524200527431e+02
-9.512948994619716814e+02
-1.196362603092900372e+03
-1.300217357076718599e+03
-1.193918302496116667e+03
-7.954573387824021893e+02
-4.600539251013132116e+02
-6.500676431300789773e+02
-5.096130425410418638e+02
-2.142723966030837630e+02
-3.000265008076459026e+02
-2.439239974327922198e+02
-6.466822150425482505e+02
-7.002239978341950746e+02
-7.378534144513611182e+02
-1.188983948400900772e+03
-1.726656644568349975e+03
-2.335483859711675905e+03
-2.691108025809275205e+03
-2.290108285897230417e+03
-2.027112112136563837e+03
-2.169167008957428152e+03
-1.513399342110890530e+03
-5.745515241690525272e+02
-1.035693448141352349e+02
6.670887766373359682e+02
1.068261173223082324e+03
1.309304824289574526e+03
1.035707125511175491e+03
4.254342945743522932e+02
-2.040617196530808428e+02
-7.909488624142900335e+02
-3.030205814079753779e+01
6.337960545177295444e+02
2.189407673489446893e+01
-4.590928512418499849e+02
-4.295902822884016246e+02
-3.016749984399364735e+02
-3.671599704324339086e+02
-1.369056758601026615e+02
-2.899216133358674483e+02
-8.380696971750685407e+02
-1.096360917827029425e+03
-5.361702994958701538e+02
-5.785108199382184466e+02
-4.611054757275717293e+02
1.540896620391497436e+02
1.056051426392319854e+03
9.926462516490589678e+02
7.200115396827466157e+02
2.322647063858798049e+02
-8.827737986613032035e+02
-1.789241541255407355e+03
-2.091371353441922111e+03
-2.106583928880856547e+03
-2.172651216590964395e+03
-3.014175690085980477e+03
-2.393403591635581961e+03
-1.414095986674806454e+03
1.147368916118440296e+02
8.640004196228273941e+02
-4.232199878534555069e+02
-6.959086820171437466e+02
-6.172172793259712762e+02
-5.688346976861876101e+02
-4.109993358035621327e+02
-1.898397949126067772e+02
6.643929676038449088e+02
8.680325731341627034e+02
3.014356798497834689e+02
2.226845467610382627e+02
3.898948284720145239e+02
8.123494818941746871e+02
1.566445192986460370e+03
1.764133628550595176e+03
1.321904311494944295e+03
6.874352617811157415e+02
1.745183442375318918e+03
2.136732702694100226e+03
2.220629751181446409e+03
2.243441215013484452e+03
1.711739368088149831e+03
1.286816227694165946e+03
1.350261917027154368e+03
1.569531556910034396e+03
1.070555223851164101e+03
1.298488762161119439e+03
1.348345734415418065e+03
1.011419132328154774e+03
9.018122491061831170e+02
1.299597081029733090e+03
1.284272691029946827e+03
6.114638105712540437e+02
6.083921140193824613e+02
1.254025372109512091e+03
1.330993797969553498e+03
8.990093620538175401e+02
2.866582757820755774e+02
3.495152438039121421e+02
6.129486124749411147e+02
1.072903622900874325e+03
1.283224156946153016e+03
1.323895361043683351e+03
9.388509411571409373e+02
1.469228720620591503e+03
1.916043201831188298e+03
1.950335504448504025e+03
2.205778438894851206e+03
2.200437957786049083e+03
2.139151506187191899e+03
2.232021295169550285e+03
2.340665083058015625e+03
1.925163999184127761e+03
1.782366606020434119e+03
1.705635885326888001e+03
1.582794450141406742e+03
1.347036807764262676e+03
1.132388810311656243e+03
9.368206100463289658e+02
6.624858928888910441e+02
8.393753620913541909e+02
7.453281989007240327e+02
-8.195342966794734139e+02
-4.087102928303289445e+03
-6.853334873297078957e+03
-6.123328573959270216e+03
-5.869136198588145817e+03
-5.942748867999170216e+03
-6.856248953229844119e+03
-7.128497225811997851e+03
-7.009295549074325208e+03
-7.187663842605983518e+03
-6.278777522522690560e+03
-6.025622199379292397e+03
-6.134145614443888917e+03
-3.750153668769334217e+03
3.374434165878946601e+02
-3.436357392129200434e+03
-5.471475757183061432e+03
-3.110884508449448276e+03
-1.808411614438258255e+02
1.504315691192266968e+03
7.057154453490205697e+02
-1.290073684594265387e+03
2.067077354785997159e+03
1.460000310977605750e+03
-2.987538974020333626e+03
4.791541883435612590e+02
1.466134040517934864e+03
-9.827452194079758385e+01
1.276953567428220595e+03
-3.063235313162073453e+03
1.075789149180970128e+02
2.121390616550091636e+03
2.584873631406719596e+03
1.906923307636852087e+03
1.555641713494504302e+03
1.230313601040398453e+03
1.190852973634769796e+03
1.239111890151477382e+03
1.196208005223219971e+03
1.189228934545945322e+03
9.852176418461368712e+02
1.327151980656456089e+03
1.940987615444994617e+03
2.028729222812619810e+03
2.154451016149332190e+03
2.490284711257377239e+03
2.705255412580033862e+03
2.738434987906737206e+03
2.842907594945883829e+03
2.390656794359969808e+03
1.818481214875573414e+03
1.324274420469647566e+03
6.922342502409751432e+02
3.964630649273826748e+02
3.769112056999226752e+02
3.147103312065946739e+02
4.940043230332276494e+02
4.517754414167086452e+02
3.579879258964189148e+02
2.137434126014086360e+02
-4.730826243204387538e+01
-2.990909106603189684e+02
-1.714144585435876991e+02
1.352523553543391621e+01
-2.242887822913617413e+02
3.836980074301106924e+01
1.728098434797377934e+02
5.011716186225181673e+02
7.913636135839632288e+02
7.804747683501281017e+02
1.825515985857947044e+03
2.266642603608150239e+03
1.836565835992212897e+03
1.625952558901127986e+03
8.230245977693002715e+02
3.312692495196724849e+02
-1.463804859359652824e+02
3.478338801217750387e+01
2.871248709258013037e+02
-3.464090633132079233e+01
-2.944215361934893167e+02
2.361846569980577826e+01
6.265090788682588254e+02
1.322055185891954807e+03
1.357057029782799418e+03
8.044144389178419488e+02
4.232882862092285450e+02
1.897856347604973735e+02
-1.011453409663036638e+02
-5.704167105279135512e+02
-4.496815305158934706e+01
3.461341226897837373e+02
1.968862873130099445e+02
3.712821768685437860e+02
3.563948993957939706e+02
-6.584805415310752608e+01
-1.973920802660619529e+02
-1.321338090575285946e+02
-1.303419335004226980e+02
1.797784497578309697e+02
7.512514846779450295e+01
-1.732279402520142924e+02
1.649861882790939376e+02
1.867241887134634339e+02
-2.412992956455065396e+01
2.954662375493717832e+02
4.855400253872375629e+02
2.571213395784322415e+02
2.422266664998400074e+02
-2.079365563421971874e+00
-1.228592694831353924e+02
-1.022603888799017824e+02
-4.502978766793565342e+02
-3.030458148828266189e+02
-3.404731642276850607e+02
-7.455259075038244418e+02
-7.533956910181769899e+02
-6.670879846779171203e+02
-8.385075407717173448e+02
-1.420640250717945037e+03
-1.192532530441702647e+03
-1.469243332257678276e+03
-1.741747890354981337e+03
-1.123020089957013397e+03
1.069338040554556244e+02
7.321308490269124150e+02
7.695065465140185097e+02
-5.509643370368146407e+02
-2.671349879277165201e+03
-6.410707577481202861e+03
-7.363982805980683224e+03
-7.605119346961810152e+03
-6.148191214501162904e+03
-8.702152825999439756e+02
9.867091071851394872e+02
9.005572768892301383e+02
1.192418273826451014e+03
1.467206557723715150e+03
1.085927062386028865e+03
1.046582972445350606e+03
7.461269958542396807e+02
4.255733158945248533e+02
4.708891994837242123e+02
3.040567169690872333e+02
3.250954099818993654e+02
5.499586050642047894e+02
1.168596373919717507e+03
1.219989347340513405e+03
5.591211492958952931e+02
2.440039199595990453e+02
5.526184345055226004e+02
1.565968432365035142e+03
1.642069893880476229e+03
1.320940240029995721e+03
7.564790712588887800e+02
2.206137763362478097e+02
5.140627801902635952e+01
-4.120684800245500412e+01
-7.331910319197999115e+01
-4.289453468834421415e+02
-7.250877364241941905e+02
-7.466879685472015353e+02
-4.677626369187104842e+02
-3.822880675750356545e+02
