-8.448356410319536280e+02
-1.205933733985563322e+03
-1.149415897015704104e+03
-2.992006539791323689e+02
-4.121921326561609078e+01
-8.354589608282294932e+01
5.827428476641941870e+02
3.686537848243723943e+02
1.803854350863484513e+01
9.473882187740987604e+01
3.089419120049080902e+02
5.496815800604415472e+02
1.132001739160977195e+03
1.445892207494902323e+03
6.162552464554742073e+02
-7.919725213074791554e+02
-1.434887930457189668e+03
-2.424513998055954289e+03
-3.088787534197233526e+03
-2.011750625512887609e+03
-9.544964519535963063e+02
-1.913024058149061830e+03
-3.034258315209152897e+03
-1.870237592114865947e+03
4.529004010747925122e+02
1.331171222835298522e+03
-2.973255980636502045e+02
-5.606560785797107656e+02
-8.428876610157856248e+02
9.852884659293823510e-01
-2.880153084410213182e+02
2.609865489087677020e+02
7.953715398878208589e+02
-1.130699077438604263e+03
-1.507790156606909932e+03
-1.622272554342154763e+03
-2.128059413475606107e+03
-3.987685016527636435e+03
-3.988959899696071261e+03
-2.015490639615758482e+03
-8.260342328002072918e+02
-2.163299890625355602e+02
-2.173864880171915047e+03
-2.449322549305858047e+03
8.862800814138460055e+02
3.387739848471381720e+03
5.054322066215837367e+03
4.590907983619149491e+03
3.076426351696718029e+03
3.012352712604980297e+03
4.016324845411015758e+03
1.962297445888067614e+03
-4.041484816376840854e+02
-3.228315956158462541e+02
8.722498376483829361e+02
7.073317892306625936e+02
-5.267575478098219719e+02
4.206138168278628200e+02
1.012912868226199748e+03
1.277815708827760091e+03
1.788698617810723817e+03
1.043452452337793147e+03
1.795958235427569207e+03
3.486740920078036652e+03
3.804823542309492495e+03
1.666267606985985594e+03
-1.304633070192596733e+03
-1.663676834688402323e+03
-1.930759485410090122e+02
1.188130241156615057e+03
1.712701735861719499e+03
1.715632819229711004e+03
1.983912473544907243e+03
1.976470675372356027e+03
2.250329876601975229e+03
8.474036477424224358e+02
1.875032459996003098e+01
6.703006024916475099e+02
1.378104832953375990e+03
1.482164376402742391e+03
4.024474688533125573e+02
-1.358089071439788768e+03
-4.114796281905924502e+02
1.023269741350471350e+03
2.263267479262605775e+03
4.180561878045167759e+03
4.614102100278163562e+03
3.537823954021783720e+03
1.893752677796552234e+03
1.561930746808850017e+03
1.953363183453205011e+03
2.395893110852120117e+03
5.134506271640268551e+02
-2.227631621800731864e+03
-3.014459220368305523e+03
-4.125089241956929982e+03
-4.123470730770757655e+03
-1.565727365400623285e+03
5.816947292853271279e+01
-3.296720435103215095e+03
-2.499433734428361277e+03
4.605056381668186560e+01
-1.558321879561729247e+03
-2.708488150335520913e+03
4.916229282721353115e+02
2.034005958873628288e+03
2.049584574875422732e+03
-6.545852913291286086e+02
-2.688428497552794852e+03
-2.473991693411680899e+03
-2.065277445402722606e+03
7.797242656828653935e+02
-1.865960895154915988e+03
2.370026471086936937e+01
-1.329246960444960450e+03
-3.703789081445142983e+03
-1.844950003252693705e+03
-3.162742122918612040e+03
-2.272152645948434838e+03
-2.104184951072162676e+03
-1.328374651576357053e+02
1.564904930400281273e+03
-5.439305042559392405e+02
-2.842265885324930423e+03
-1.017132238936590170e+03
-1.846013538311980255e+02
6.963758793855993190e+02
2.154908833460051483e+03
2.648986840594048317e+03
1.727621306330355765e+03
1.765902800871754152e+03
2.018734503323509443e+03
1.947188891608945596e+03
1.609325036166444534e+03
8.251825704505924932e+02
5.447254710551159178e+02
1.137913534820396535e+03
6.677956526524704941e+02
-1.046012846754557160e+02
-2.243361201689821485e+02
-5.173919769403361215e+02
-2.547013018258959107e+02
-6.202355751171165821e+02
2.769758924162498488e+02
1.769012227923126090e+02
5.564602117415408777e+00
1.153896562110972809e+03
5.070491334985331378e+02
2.332262829852152777e+02
5.868738232706173221e+02
1.438908323586800179e+03
1.289257377928983942e+03
7.468566319388202146e+02
1.195794088071942269e+03
8.369957976181320873e+02
5.044612595228429086e+02
-1.857423506324399796e+02
-1.867736875873739791e+03
-1.472568424200016352e+03
-3.985487022186750892e+02
-2.734445502096176597e+02
-3.056273828491745803e+02
1.401336871891600993e+02
5.170798676150650408e+02
7.689943579164544190e+02
5.595068861869600596e+02
6.070894948799406166e+02
4.924635528298418876e+02
4.336685556504165788e+02
9.450182525308829327e+02
2.396567593403390674e+03
2.501146704410654820e+03
1.175722899589086182e+03
5.363274190960397618e+02
6.000382000486648622e+02
5.588923503354185414e+02
1.013814416525214938e+03
1.371754752303207397e+03
2.777691651741473038e+02
-5.311103906291107251e+02
2.840869171781121736e+02
6.274081792791697580e+02
2.798032607996813113e+02
2.682365746468352654e+02
4.947457512926897607e+02
6.203685021858620985e+02
-2.518542688436516812e+02
-2.019122495517840719e+02
6.592004459873738824e+02
6.404169704353990937e+02
1.197712487209030314e+03
1.364143830409093880e+03
1.367722684767993087e+03
1.304457975140869166e+03
1.490312487306817275e+03
9.563794305312922006e+02
4.755978994582147266e+02
2.630060602509571481e+02
4.715049521564624797e+02
2.280578233844162526e+02
-2.632816636462615634e+02
-4.454519060005011397e+02
-2.175153405166647076e+02
9.355053613854020966e+01
5.197539043454934244e+02
9.086498115966936240e+00
9.052446250834745456e+01
5.971180420810669602e+02
7.058612632683696120e+02
-2.692187068994480796e+02
-2.656128408582605516e+03
-6.544913439163159637e+03
-7.222536462431490691e+03
-6.352009091278209780e+03
-6.378392241031166122e+03
-6.841641742531678574e+03
-6.669851049523660549e+03
-6.345038563522588447e+03
-6.371166134156551379e+03
-6.341211988249672686e+03
-6.151335240129861631e+03
-4.748557950695378167e+03
-2.885576381140709600e+03
2.873201384183806795e+02
1.072130234177124976e+03
-6.810741286323016652e+01
-3.744246396845011873e+02
1.636129120091639606e+03
2.726531099500573418e+03
2.191663187813101558e+03
1.703676300651148495e+03
2.532690886797327494e+03
3.130715894478969403e+03
3.249654595907647035e+03
3.195349943494064519e+03
2.845843163074137465e+03
2.380284109649908260e+03
2.251799038644607208e+03
1.911470946673601247e+03
1.620063943004924113e+03
1.497565555861271150e+03
1.229958331541596635e+03
1.711280690139323042e+03
2.097536298689126852e+03
1.546543072710484012e+03
2.006302824454630581e+03
2.148969695737125676e+03
1.904394377887244218e+03
2.038274204792408682e+03
2.681495103926308275e+03
2.713948103090356199e+03
2.343698686680473656e+03
2.214112872602394418e+03
3.231496316924882194e+03
3.193909596971762312e+03
2.401199302102186721e+03
2.316379494069729844e+03
2.457348912424014543e+03
2.261951014492186005e+03
2.266992508435044783e+03
2.375277722642868866e+03
2.179913277962264601e+03
2.122055229217830856e+03
2.099499670331005291e+03
1.676325809175517179e+03
1.561816805858246198e+03
2.389942462328076999e+03
2.555141601494397946e+03
2.659163463756086003e+03
3.335581571896089827e+03
3.326774139641124748e+03
3.060014142931427614e+03
2.836539156091741461e+03
2.348218217478313818e+03
2.410941592301318451e+03
2.528897482447300263e+03
1.951832864988939946e+03
1.677209489936776208e+03
1.837816826377239977e+03
1.813364005735278852e+03
1.852493861221795214e+03
1.465278945417270506e+03
1.289961041785508314e+03
1.145037841512260457e+03
7.653312802763608715e+02
-1.941251446414281872e+03
-4.657395111225086112e+03
-6.436278594662009709e+03
-3.778663421203761573e+03
2.252473488438210552e+03
3.727033121468601166e+03
-6.046615611112870283e+02
-4.627602486259155739e+03
-4.825998882454860905e+03
-4.861246911197416921e+03
-5.319922624674283725e+03
-5.785466566159564536e+03
-5.161016962956118732e+03
-5.460424156334397594e+03
-6.104796014349444704e+03
-5.468883125606437716e+03
-6.012621373009948911e+03
-4.638705491246532802e+03
-7.763342129677031380e+02
-2.035508705108435606e+03
-5.104745555478873030e+03
-5.109959911617158468e+03
-4.778989824281879010e+03
-4.130547754150418768e+03
-3.751380841194852565e+03
-3.648529818531917044e+03
-3.645945932107568751e+03
-4.233267554229487359e+03
-4.669474728411032629e+03
-4.444006324252518425e+03
-4.303549342608518600e+03
-2.761105201320157903e+03
2.802367994744994576e+03
4.015559518302888591e+03
3.776805835784336978e+03
-2.829065163583219942e+02
-3.216150934715497442e+03
-1.476977728204802816e+03
-7.827255851140392906e+02
5.428224395326725471e+02
2.419009361413539409e+03
3.516180618319105633e+03
4.038518968712803144e+03
4.474779679816669159e+03
4.200261604025969064e+03
4.387662475016329154e+03
4.069088674212255683e+03
4.311538545706278455e+03
3.851819378545300424e+03
3.887649277936016915e+03
4.302201764436562371e+03
3.981341526015733052e+03
3.485662158625263601e+03
2.948838987040765460e+03
2.069748065878194211e+03
2.034408128130588921e+03
2.973207499708238629e+03
3.198409198633435608e+03
2.611334494027634264e+03
2.507480043696788471e+03
2.746337644293209451e+03
3.176881495385200651e+03
2.623271273939904859e+03
1.111952375866036391e+03
1.984872037181494079e+03
3.443557103007099158e+03
3.132425164558290362e+03
3.291571910681382633e+03
3.034703720849735419e+03
2.755411054605379832e+03
2.655134688816719517e+03
2.645946770201521758e+03
2.410619122868891736e+03
1.962836430194475270e+03
1.538975058061720119e+03
1.670281291970385382e+03
1.842179165289205457e+03
1.697390710901216835e+03
1.651772817404582383e+03
1.865671553512859418e+03
1.774934100566057850e+03
1.642424903123914874e+03
1.570501025861187145e+03
1.700097372555462698e+03
1.664447871507063155e+03
1.503098554123144822e+03
1.628470128981639618e+03
1.454202586074327655e+03
1.036725579108797774e+03
1.339267162681622040e+03
1.681333076054305366e+03
8.686086441761298147e+02
6.047687711504372743e+01
2.014935091595478696e+02
5.524200338070833141e+02
3.555296600983823510e+02
-3.950749261078252630e+02
-9.673002445630440889e+02
-7.979031543270701832e+02
-9.796176178531217147e+02
-1.087338202837525841e+03
-5.248821533650683477e+02
-8.663100013958958243e+02
-6.643838058510303881e+02
-3.304474145760790407e+02
8.799931137955792337e+02
1.158660819195202976e+03
5.041788289752859669e+02
1.385325859561156108e+02
6.852654323662139291e+01
-3.756714232190803955e+02
-6.645573429665193999e+02
-1.292481256048401974e+03
-1.777082350587077826e+03
-1.927878907962547373e+03
-1.898110936233078291e+03
-2.111697640641311864e+03
-4.400893704165292547e+03
-7.353650053594152268e+03
-1.047381164507350877e+04
-1.057131054752644195e+04
-9.589704566940201403e+03
-8.989890357723075795e+03
-8.860210018444133311e+03
-8.255310315151769828e+03
-7.861284648360971914e+03
-7.724254048547945786e+03
-7.953727627233562998e+03
-8.273081825448305608e+03
-8.525205945584564688e+03
-9.050850211410934207e+03
-8.875757729448274404e+03
-6.791712402934682359e+03
-1.906046993734285934e+03
-1.769577714647826269e+03
-4.011105860354529341e+03
-7.828163747522411541e+03
-9.929077180826776384e+03
-8.306900068623081097e+03
-3.140904516132035042e+03
-4.423590587109545595e+03
-2.486667358140110991e+03
-7.393005357701783851e+02
-1.184954230324424600e+02
5.670429932555130108e+02
1.076412658753309870e+03
1.345629735865235034e+03
1.407035690680143489e+03
1.111338754590234203e+03
9.092808802197191653e+02
6.912247981217012693e+02
1.283974500232960736e+02
4.919425783737629558e+02
5.200341835999510067e+02
1.473631147299204542e+02
-1.168389966845989036e+01
1.178331818002072708e+02
2.869729579576206788e+02
7.824725636652078720e+02
1.373558419536817382e+03
1.705009832146655754e+03
2.025812880160489840e+03
2.005351207116671958e+03
2.410576361818441455e+03
2.845114256647950242e+03
2.799190998830519675e+03
3.045436147904177233e+03
3.269007916269088582e+03
3.402987855525085251e+03
3.165049030467765988e+03
2.870128578298506454e+03
2.747432023323789053e+03
2.810257282057921202e+03
2.708324949805683445e+03
2.888319879396132819e+03
2.633166546184749677e+03
1.954634103230159326e+03
1.943454097269890099e+03
2.511870579318060209e+03
2.716076160722789609e+03
2.982845051784021052e+03
2.975446508885404455e+03
2.784984698792824929e+03
3.054719317278827930e+03
3.422156633009670259e+03
4.588403334205770989e+03
5.976244709104789763e+03
6.303287505002273065e+03
5.999417548274955152e+03
6.196415043755408988e+03
6.960855980345024363e+03
6.747696086821788413e+03
5.373642360481749165e+03
6.378191988588947424e+03
6.514005598194978120e+03
6.432955190642258458e+03
6.601132463101951544e+03
6.951617507886897329e+03
6.876847918287267930e+03
5.752042105842290766e+03
3.428163029997978356e+03
2.747944977392898181e+03
2.984061728621478778e+03
3.625341025539338261e+03
4.066495299900255304e+03
2.194302758101534437e+03
-3.434549924917442354e+02
-1.438784223368936409e+03
-7.099586762200673320e+02
1.385715998274202548e+03
2.091962200815768938e+03
2.441520799282920962e+03
2.724226524384255299e+03
4.615862205717174220e+03
7.628134514431314528e+03
8.531977575223911117e+03
8.855268353344923526e+03
1.158776957777840471e+04
1.373441598217124738e+04
1.253319514207965585e+04
9.587859228364432056e+03
4.422967476560875184e+03
-7.036039250796234228e+02
-2.356044216439188858e+03
-1.255552861402662757e+03
8.916802107407643234e+02
3.204489580218347783e+03
6.772849146806200224e+03
9.672602140748651436e+03
1.093061063110392570e+04
1.039066214400211175e+04
8.080688808102715484e+03
6.352719212269362288e+03
6.300764014713749020e+03
4.317662639074646904e+03
2.135075810596625615e+03
3.404855974355795297e+03
5.238274876628546735e+03
-3.078091497962631706e+02
-1.102994859946717952e+04
-1.594474445767007091e+04
-1.691389495152591917e+04
-1.552462732297278671e+04
-1.116899763787450502e+04
-6.779305326566988697e+03
-3.199476431268340548e+03
4.560707849251019979e+03
1.325035892845233320e+04
1.721742360321351225e+04
1.729618130449889941e+04
1.291556907205677999e+04
4.844442730715913058e+03
-2.518193025816831323e+03
-9.572326454009875306e+03
-1.431886881072879441e+04
-2.181859063860568858e+04
-3.309239007555269200e+04
-4.183203865814109304e+04
-4.242937924011235737e+04
-3.880878243095654034e+04
-3.369709980905211705e+04
-3.159674834411734264e+04
-3.747677285451602074e+04
-4.484183107481498882e+04
-4.334529872983016685e+04
-3.439827353368064360e+04
-1.450756306310266336e+04
7.739146593478822069e+03
1.988713200078240698e+04
2.324863252934431875e+04
2.341285692000351264e+04
1.463993015969588669e+04
9.250004525493519395e+03
7.078285839915125507e+03
1.326900570303516361e+03
-8.176546546016538741e+03
-1.470465794948457005e+04
-2.036154623046608685e+04
-2.383881049118539886e+04
-1.285741984392699487e+04
4.402666527066921844e+03
1.433064907821122870e+04
1.510164158654447965e+04
5.663964375284913331e+03
-7.449055067709296964e+03
-1.351614971221202904e+04
-1.677808003099406778e+04
-2.115261380610089327e+04
-2.572960381101840539e+04
-2.289097016414938116e+04
-1.236846062155354230e+04
-1.204594981472075960e+04
-2.125094036687389234e+04
-2.220323138588849179e+04
-4.435787406916857094e+02
3.396856610549773904e+04
4.229515675559189549e+04
2.954343633442614737e+04
1.537853244239329797e+04
7.895571556043732016e+03
3.143789747462477862e+03
-7.652461963019182804e+03
-1.973885414105995369e+04
-2.285897988431526755e+04
-1.471272870659234286e+04
-6.606941988332651817e+03
-7.996447847015814659e+03
-1.240001930933000403e+04
-1.091540639444789122e+04
-2.323828056610865076e+02
1.489425485321918495e+04
2.112272311812837870e+04
2.049322522006382496e+04
2.492790517963546154e+04
3.421196249179742154e+04
5.198162846348904714e+04
5.195611702070377942e+04
2.326959742613208073e+04
3.804177616996423694e+03
-2.469458653362869427e+02
5.269549497219521072e+03
3.423661911869794949e+03
-6.270580983162899429e+03
-3.784948115964638873e+03
1.059465707614176972e+04
1.140435303866660252e+04
-1.154671049913933348e+04
-1.741840633919202810e+04
4.891455059227490892e+03
3.128606004446420775e+04
3.659143733038595383e+04
1.719557181092034807e+04
-1.193544813158954639e+04
-2.649056163774893139e+04
-2.052281068777323162e+04
-1.219522826303534021e+04
-4.533769410730700656e+03
4.830682020820850084e+03
6.937123363832796713e+03
2.595652232727710361e+04
4.714388428887882765e+04
4.283326491219103627e+04
3.904466109445368784e+04
2.619101339480130264e+04
1.964128493775178504e+04
2.467948642491606734e+04
2.535149801233178732e+04
1.979724654074713544e+04
4.617754072626984453e+03
-8.060007179610001913e+03
-4.423203023090084571e+03
1.997041099951818296e+03
2.946577591344868097e+02
-2.778436133004621297e+03
-1.926534628071480256e+04
-3.754127503287258878e+04
-3.286829394259120454e+04
-1.279452010073989732e+04
-3.081147996585642886e+03
-3.070178584839045016e+03
-1.016878895437264509e+04
-1.420521514269489307e+04
-1.119875258994209071e+04
6.495579789298462856e+02
1.530958363275680495e+04
1.396221422722301213e+04
1.261430574849221375e+04
1.739960994167724493e+04
1.667385460968171537e+04
2.019991768770610361e+04
1.487863986753712925e+04
4.375759374269094224e+03
4.058990009615897179e+03
-1.873805948652803409e+03
-8.870672541738313157e+03
-4.555727488993819861e+03
7.307737052348934412e+02
-1.489654456883310104e+03
-3.671102139478654863e+03
6.234416823375727290e+02
-5.441230257258795064e+03
-1.514436292240461262e+04
-1.726105693748999693e+04
-1.437046418368209925e+04
-1.824278630933127351e+04
-2.463115685950937041e+04
-2.852820248426407488e+04
-3.024240461641113507e+04
-3.159804498972589863e+04
-2.499913080959993385e+04
-1.429517130112221275e+04
1.570898239428386887e+03
1.342205828223412391e+04
2.277830721367623482e+04
1.900456378429671167e+04
9.251077824194811910e+03
3.364204309969408769e+03
1.256839442224820829e+02
-5.743202624907814425e+03
-1.535576956684153447e+04
-2.592620547969500694e+04
-2.350366406024975004e+04
-4.996353417850365986e+03
9.045516187502598768e+03
8.809766251849339824e+03
4.730297218989466273e+03
3.089950590069137434e+03
4.516579064412946536e+03
1.064605439114594628e+04
6.405163477284950204e+03
-4.088198140351014899e+03
-1.128712765513290651e+04
-2.081678388754251500e+04
-3.199230627041165644e+04
-3.644882696829923225e+04
-3.744855173611432110e+04
-4.034656571979227010e+04
-2.970089722760656150e+04
-2.334066559584091738e+04
-2.992693766503060760e+04
-2.833980244261834378e+04
-2.183126116829331295e+04
-1.720832620890955877e+04
6.588921257450177109e+03
2.567643216709609987e+04
3.310115924847206043e+04
2.964802309432982656e+04
1.501401914740997381e+04
2.083194570948402088e+03
-1.726488039933801474e+03
6.113934806571592162e+03
1.771539470751763656e+04
1.731397194071795457e+04
1.425575937559684280e+04
1.709269094309267530e+04
1.206873445363804422e+04
4.488932721460457287e+03
-9.864759269547712961e+01
-3.958925810308893233e+03
-5.060879239463617523e+03
-7.968481181472449862e+03
-5.470643662755092919e+03
-3.336323574692753027e+03
-3.928496993951848253e+03
-2.622064651456358661e+03
-7.838688147239442969e+02
-1.837868279997180025e+03
-5.750229312288248593e+02
2.198311638196304898e+02
-1.249004655124008423e+03
-3.854697279285197510e+03
-3.569076636674344172e+03
-6.780600376176666941e+02
5.352457697526519041e+03
9.031631052814391296e+03
8.620607187795532809e+03
1.038763143338094960e+04
1.040698869712042870e+04
8.932730443948492393e+03
9.449022495310362501e+03
9.217938736231917574e+03
8.569600558331427237e+03
7.653358589287334325e+03
9.292466820960624318e+03
1.042901793473977705e+04
1.097301871397877221e+04
1.051544035734884164e+04
9.259535290579811772e+03
8.474524766331303908e+03
7.122605932398186269e+03
4.962827968266062271e+03
4.175181951294566716e+03
3.134943609550586189e+03
2.261336798271998759e+03
2.658380765292895830e+03
5.245215104528721895e+03
8.031175867598268269e+03
8.447619563887163167e+03
9.089120797106261307e+03
9.061047661860498920e+03
8.640324852412000837e+03
9.012855927483509731e+03
8.162713576623628796e+03
7.751949637428940150e+03
7.559613611396635861e+03
7.417800785198784070e+03
5.465779260204784805e+03
3.775950523459828219e+03
3.673671257715367119e+03
4.767024356494934182e+03
5.262124071720360917e+03
2.124377941559831925e+03
-3.609028723223449106e+03
-5.864275463263905294e+03
-8.928375954547111178e+03
-6.258577729271160024e+03
3.663918188550437662e+03
7.536994398707589426e+03
8.941534643208278794e+03
9.899491410220600301e+03
6.859662264600810886e+03
3.604140988640739579e+03
3.051049048247728933e+03
3.819974271117355329e+03
2.787797200881333538e+03
5.302908712394148097e+03
7.529664571207353220e+03
7.389461015660504017e+03
6.510843315479949524e+03
4.019098383922215362e+03
1.124488533374217013e+03
-5.270949510994050797e+02
-2.921283090446462666e+03
-7.344212366871764971e+03
-1.329184697670184505e+04
-1.312987250665698048e+04
-7.373625139320187373e+03
-2.824190900965325000e+03
-3.769419960669112697e+03
-9.291569111282040467e+03
-1.050834961088988894e+04
-1.221830734869338448e+04
-1.398910225894586620e+04
-1.486290816106639249e+04
-1.480041142267608666e+04
-1.271916181579012664e+04
-1.082349456022305640e+04
-1.000209567712152602e+04
-8.226341896572082987e+03
-7.296386294109172013e+03
-5.026272879796449160e+03
-7.482590973940440563e+03
-1.363386851154362921e+04
-1.468319769397535674e+04
-1.052551219309094813e+04
-7.706913111891907647e+03
-6.442647353087912961e+03
-5.549657593676140095e+03
-6.556666851168554786e+03
-6.878918315262922988e+03
-6.906451759064895668e+03
-6.684796525047080650e+03
-5.855349637154431548e+03
-5.131203787430369630e+03
-3.904241425519113818e+03
8.084824063369671876e+02
2.909366510399415802e+03
2.169681022089312137e+03
-2.988815462730273111e+02
-4.118463109904369958e+03
-4.090690045661153363e+03
-5.666820176276395387e+02
5.958995313425377844e+02
3.083678858012608544e+03
4.050334891069110199e+03
3.068150278734235599e+03
1.646820534028943257e+03
5.342565219079594954e+02
8.499537063456323267e+02
3.101230967716350733e+03
4.783483443675309900e+03
5.019778109202952692e+03
4.973890307895230762e+03
5.434382325798505917e+03
5.620444325002623373e+03
5.671558607550465240e+03
5.398873191005902299e+03
4.566617883216667906e+03
4.328371470430935005e+03
4.493581964517083179e+03
4.178601805639898885e+03
3.442534812481560948e+03
3.428691320368872766e+03
3.755507226010615796e+03
3.625447474336265714e+03
2.829191567368232427e+03
2.862695707753914121e+03
3.349101958286667468e+03
3.346929996806862619e+03
2.927024287135810937e+03
2.454371653922825317e+03
1.327666768606341293e+03
3.068845584229423480e+02
-5.410342084864572598e+02
-1.912054297843881159e+02
1.405030887299250708e+03
2.371676203826439632e+03
2.245709773010896697e+03
3.059341895002457932e+03
4.318842018604593250e+03
4.308479305702883721e+03
3.339625428393774200e+03
2.629720974485820534e+03
2.772596201825085245e+03
2.639898125451110445e+03
1.953016322660692822e+03
1.419337166668463396e+03
1.531205896839101570e+03
1.743405664792355537e+03
1.875211785343835345e+03
1.681069551524998133e+03
1.868196153492702706e+03
1.920174505622027255e+03
1.936265485959680973e+03
1.885732741899075336e+03
2.291449675328299236e+03
2.600354163331609016e+03
2.815175050020160597e+03
2.949514756011872578e+03
2.681868139695975970e+03
2.448298186807555339e+03
1.720914062724290261e+03
1.182081855665690000e+03
7.500745249800772854e+02
1.973388191721322471e+02
5.932915354286292313e+02
1.322490595003722092e+03
1.331473145380860160e+03
6.090164318715690115e+02
6.804827062629875627e+02
2.049659549444168647e+02
7.368829003657144767e+02
2.257254808577335552e+03
2.815033331662032197e+03
2.406655951207264025e+03
2.425464567243641341e+03
3.033940134087976276e+03
3.244727367033777682e+03
2.526340146820746213e+03
2.335021297903788309e+03
1.796169478118534698e+03
9.699092227831185937e+02
-1.783666437709698585e+03
-6.321796234009590989e+03
-8.945027194320595299e+03
-9.151460961126405891e+03
-9.663625313572358209e+03
-1.003178742637890173e+04
-8.815533833047013104e+03
-6.403439779392552737e+03
-3.369068644690673864e+03
1.765172613839433325e+03
2.538563799052421018e+03
-6.521507564931775960e+02
-4.903210535564507154e+03
-4.728674586630105296e+03
-4.521294699152547764e+03
-4.819634752993136317e+03
-5.418438264983537010e+03
-5.840716698099373389e+03
-3.405589730128514020e+03
-4.024140287402212380e+03
-6.225784775622783854e+03
-1.995685487458095622e+03
-3.960152223167041825e+02
2.604273258658478767e+02
2.010587751547550397e+02
8.681500791255632521e+02
1.312675779479226094e+03
1.225053397718200131e+03
8.093228758673013772e+02
8.034706878071516485e+02
8.638244313863616526e+02
9.852174011960256621e+02
9.564409992826659845e+02
9.469863156061633163e+02
1.124596689171065236e+03
1.381867250079055566e+03
1.423709991651335486e+03
1.546486891904563436e+03
1.553500578731828909e+03
6.063415286137872044e+02
-1.062312508143871241e+02
-2.110970979539990537e+02
-7.323445449019793614e+02
-1.557782726776047184e+03
-2.316571832130687653e+03
-2.184302224432109597e+03
-1.814381089778368050e+03
-1.390705484440079317e+03
-8.451090739139846164e+02
-3.057208597938903267e+02
-7.428247503336734781e+02
-1.146580989003012064e+03
-5.568967597400969680e+02
4.940210283832385585e+01
1.928371560977805359e+02
-3.084546656358215273e+02
-3.999894698925199350e+02
1.804416164201741424e+01
-5.104411091638104381e+01
-2.616344347472513050e+02
-6.990975867459854953e+02
-7.320889839257579297e+02
-5.456846385612548147e+02
-9.889287663352188247e+02
-1.503902100018541205e+03
-1.630041435658645469e+03
-1.061676395633596940e+03
-4.718542125877761464e+02
-4.322767282238285134e+02
-9.100226556991366067e+01
1.239612574927445365e+02
3.199528237095913710e+02
4.037625077774882243e+02
1.771563366382748654e+03
2.082817514656786898e+03
2.428332960684306727e+03
2.040928373889683144e+03
1.504399200013893733e+03
1.424422520050787170e+03
1.031129823684922712e+03
6.818519447614405635e+02
4.144628897067803450e+02
1.001724165618695395e+02
9.302389545646757369e+02
1.461588145990717976e+03
1.598338453422102248e+03
1.760646172422806103e+03
1.946629313663234598e+03
2.306113950852038215e+03
2.537232366920757613e+03
2.000117923691396754e+03
1.405879655283573811e+03
1.163688011671405320e+03
1.266593371025310489e+03
1.770721649043919570e+03
1.762260254523895583e+03
1.397219384370641592e+03
1.124720430719456317e+03
1.646822896431805702e+03
1.792493357681627685e+03
5.565766066842959390e+02
-1.109945810067680441e+03
-1.240835088995629803e+03
-1.141039651966461150e+02
6.323775193749603432e+02
7.217363757654303527e+02
1.084010730227093063e+03
6.643768401647683959e+02
6.578805563305197666e+02
-2.684397567679486656e+02
-1.315526812197836080e+03
-1.241124081007443692e+03
-8.491521022810627528e+02
-1.525710709195237996e+03
-1.485798698119168421e+03
-3.193320255838671642e+02
7.530107856793399606e+02
1.058594365745871755e+03
1.392454707745799283e+02
-1.184907179508343006e+03
-1.645254476599667669e+03
-1.690457512811710103e+03
-1.740209026412211188e+03
-1.581274300955675471e+03
-1.892557719130149962e+03
-1.327740661146392085e+03
-2.787089622416410180e+02
-2.215860502110853361e+02
-9.551352122747427131e+01
5.797401062463443395e+02
1.119007616566860634e+03
2.032531084933082184e+02
-6.753797722821398111e+02
-6.087999583157317147e+02
1.421592333926230083e+02
-8.904366630817454507e+02
-2.967542403446548633e+03
-1.129036174294240027e+03
7.952086029693454066e+02
3.774576633316785887e+02
-4.776658010105110179e+02
-4.327193442302589688e+02
-1.109742240583309240e+03
-1.284362953495501642e+03
-1.393164605005700878e+03
-6.263846808566963773e+02
5.130624960013108193e+02
1.340193159139899308e+03
1.019951417828449166e+03
3.922312094749233324e+02
1.112821224052677280e+03
3.018703213494674856e+03
2.650909634585761069e+03
1.258320566782609831e+03
1.042951865798425843e+03
1.284651746685950684e+03
1.814697530074739916e+03
2.114471335667963558e+03
2.734639238993477193e+03
3.363718376432818332e+03
3.773652853481467901e+03
2.106467037938677549e+03
-1.367636986455922568e+02
-6.959689822654381715e+02
-1.812174240080243806e+02
1.401042825740594022e+00
-1.041234020874504296e+02
6.391264249046254236e+02
1.429064600902572920e+03
6.516296971373759561e+02
-3.235342204297988360e+02
-8.453390828873262990e+02
-7.165976180224346308e+02
5.158566772201266986e+02
1.577129911263783470e+03
1.691934888257625971e+03
1.018913332403559252e+03
1.109024572363859306e+03
1.523251531525718292e+03
9.958605936485560051e+02
7.937610287790156463e+02
1.178863581257141732e+03
4.532263954380189830e+02
1.267326751801303004e+02
-2.708286257107384358e+02
1.574990272401425386e+02
8.187920772501153124e+02
1.070000901898409211e+03
8.571153154861162875e+02
2.861347647398234812e+02
4.050727009049962817e+02
-8.341181485921304102e+02
-8.380944670806160346e+00
1.480247337271959623e+03
1.064712162606734864e+03
-4.297050638423064811e+03
-6.943961239442824990e+03
-6.382074697661175378e+03
-5.966523041895071401e+03
-6.137283139498134005e+03
-6.734410093584210699e+03
-8.010771903890759859e+03
-8.945411323508418718e+03
-7.472289838508703724e+03
-6.573535243850797087e+03
-7.414131901741653564e+03
-6.400951865495757374e+03
-6.063007445062807165e+03
-5.712490601740028978e+03
-3.741418783050153706e+03
-2.753830643591250919e+03
-5.515538409518297158e+03
-6.117721748165215104e+03
-5.707302134870166810e+03
-4.642223278959370873e+03
-3.682538711085665000e+03
-4.462295514702538640e+03
-5.021486364374465666e+03
-5.183179394137309828e+03
-5.053358315203257007e+03
-4.955020175360249596e+03
-4.907160273500457151e+03
-4.370810897063297489e+03
6.370253990886109250e+02
1.721332212523192766e+03
-3.134891969357665403e+03
-1.479662740083784911e+03
1.423995045741500235e+03
2.257109170008827277e+03
3.156707981126285631e+03
3.287801224755578460e+03
3.378386418656255501e+03
3.678451175264792710e+03
4.065998680048168808e+03
4.512028777911102225e+03
4.459536396228702870e+03
3.951588520425382740e+03
3.684210969582522466e+03
3.431391829087133829e+03
3.348107979524138955e+03
3.193301643842472004e+03
3.055937296608055476e+03
2.826056146052636905e+03
2.477718567992528278e+03
2.459880602421139429e+03
2.385582500280387649e+03
2.213753513212401231e+03
2.042313018587572742e+03
2.243320962540283290e+03
2.976867302923184525e+03
2.684946635823793258e+03
2.481491908246949151e+03
2.564544881435772822e+03
2.709180084067023927e+03
2.566354310737831838e+03
2.244134933133032519e+03
2.251539594813520125e+03
2.516740648424043229e+03
2.559967126585183905e+03
1.643097319196888293e+03
1.556940013915854479e+03
1.216561056538650519e+03
1.446937989870437832e+03
1.356889830813205890e+03
-2.272385416051404050e+01
1.940743426443455064e+02
1.342919054817178676e+03
1.577909450320689530e+03
1.239832742119341674e+03
1.113884626048176870e+03
9.997607198693921191e+02
1.018230884060817516e+03
1.062342489418555488e+03
1.441040637603093501e+03
1.278294498418592184e+03
1.038105718221003372e+03
1.066563715725586690e+03
1.450785037745715499e+03
1.753147502058938471e+03
1.420172988017607622e+03
1.214541625634186403e+03
1.558587006997462368e+03
1.360024820086742011e+03
