2.959817879627952607e+03
2.440766139905343152e+03
1.917808276305486288e+03
1.484828951413885534e+03
1.452838575399576712e+03
1.329135924539068128e+03
1.402289626896344998e+03
1.798113599411131645e+03
1.852710962967960768e+03
1.910933658870491627e+03
2.008785571156423430e+03
2.309297187490449687e+03
2.891516353525063550e+03
2.689452975223833164e+03
2.251068947704610764e+03
2.461379007781258224e+03
2.590426101069443575e+03
2.250178529035914835e+03
2.186603570875325204e+03
2.105737749424187768e+03
1.051523726439753773e+03
-2.831077696584199543e+02
-9.892800218538965282e+02
-2.148993586420197516e+03
-2.568194314035512889e+03
-2.872914868345773812e+03
-2.394206616398100778e+03
-2.145844022453911748e+03
-2.149738662203590593e+03
-1.624957529095407381e+03
-7.625209373482113051e+02
8.264505305713296934e+01
5.425171999829655078e+02
7.121812392750665595e+02
1.000758313889091937e+03
1.532352854918226512e+03
1.996089471774710319e+03
1.894015138506870016e+03
1.359246227511325060e+03
9.878395496841174008e+02
3.569188698231278067e+02
-1.105483023306651376e+03
-4.231217219301309342e+03
-8.173321596095824134e+03
-1.054286322583401306e+04
-1.104921985831256097e+04
-9.834558116731950577e+03
-4.919861963734313576e+03
-5.867913712698686140e+03
-7.075616162988312681e+03
-6.779360346245352957e+03
-5.244142843708473265e+03
-4.604840211921846276e+03
-9.962971326094885853e+02
4.138515896330184660e+03
2.966600224001383594e+03
2.183056046221877295e+03
4.254089976416124045e+03
4.932792308522035455e+03
4.846294953014863495e+03
4.440935500154953843e+03
3.637933979541360713e+03
3.225448858530801317e+03
2.540560536108599990e+03
2.169331798303337564e+03
1.950948636405094476e+03
1.252544763197649445e+03
1.047184323902352617e+03
1.721073319009774877e+03
2.684531615022068308e+03
3.293598111410201454e+03
3.842287921464539522e+03
4.612806211826939034e+03
5.331368782299170562e+03
5.720181853615887121e+03
6.115206409866388640e+03
5.747625502370996401e+03
5.695680434377297388e+03
4.936502993877378685e+03
4.204100613803923807e+03
3.261432044832697102e+03
2.285546364636235012e+03
1.368573164342044720e+03
1.026564378115152749e+03
1.168664096645374684e+03
6.859552127254829657e+02
7.115073099936056451e+02
8.165140565705906965e+02
1.273999679628023387e+03
1.994097258040345196e+03
2.176994657614723110e+03
2.705818862644004639e+03
3.358795544121761850e+03
4.201038364857087799e+03
4.847794396094190233e+03
4.962273117243388697e+03
5.421423732911410298e+03
5.569228248472380074e+03
4.896894457031996353e+03
4.110815077657910479e+03
3.353041895015433511e+03
2.262920498661650981e+03
1.328655093181596840e+03
2.874987294234410911e+02
-1.775447917008250442e+02
-5.232742141677294967e+02
-1.306515764864662970e+03
-2.127231455240624200e+03
-4.623260820934076037e+03
-2.908152059301804456e+03
-1.398964447725623131e+03
9.435117668204279653e+02
1.593515550553754792e+03
2.099319446230045742e+03
2.461103333316028056e+03
2.711084948635227647e+03
2.857679926474746480e+03
2.804983115772668498e+03
2.491036873730833122e+03
1.972038446651061122e+03
1.251202707619937428e+03
2.605901662284770168e+02
-4.436664408993149209e+02
-1.359508042902521083e+03
-2.069894949553409333e+03
-2.146808228266403148e+03
-2.524003307459067400e+03
-2.756182512707752721e+03
-2.353146986106121403e+03
-2.164713505923781213e+03
-1.704621127963862136e+03
-1.041680778546829060e+03
-5.866707540059430812e+02
-8.341373077700261263e+01
5.003041769055681129e+02
7.517318299719179322e+02
4.951404031431100066e+02
1.407947299559414489e+02
-5.490585059114938531e+02
-1.189234947257317117e+03
-1.422642309117129798e+03
-2.061108651695977642e+03
-3.468457068625871671e+03
-4.962568882942732671e+03
-5.550412218315285827e+03
-5.977824341752660075e+03
-6.608699106442752964e+03
-6.850780301381663776e+03
-7.151764025721985490e+03
-7.536377065230339213e+03
-7.487385431450026772e+03
-7.746852804562276106e+03
-7.262613744542359200e+03
-7.537398373140043986e+03
-7.927047162997593659e+03
-8.392590021171065018e+03
-9.284047919032969730e+03
-1.060213623784430820e+04
-1.162558584462995714e+04
-1.226915110712708520e+04
-1.293486232305663179e+04
-1.365777072077518096e+04
-1.250971731023075517e+04
-1.226573400582677277e+04
-1.258369057264357434e+04
-1.256352364464425955e+04
-1.237721184018185704e+04
-1.237083512685276401e+04
-1.218728167013820530e+04
-1.186343005162888403e+04
-1.214014298907876218e+04
-1.320644151466378935e+04
-1.206005757550097223e+04
-1.076370914155333048e+04
-9.057660129749458065e+03
-6.557164237440481884e+03
-5.192803283443770852e+03
-4.989021186514401052e+03
-5.181633627711951704e+03
-5.656917526077434559e+03
-5.987841883795436843e+03
-6.621782703440334444e+03
-7.090021350011629693e+03
-7.636605054249675050e+03
-7.219828646533441315e+03
-6.686941593519407434e+03
-6.419472148374452445e+03
-6.255955790542401701e+03
-5.992581532960428376e+03
-5.711753600318284953e+03
-5.403219657418775569e+03
-5.180417376389790661e+03
-4.038211743285011835e+03
-3.744592730934789870e+03
-4.365005187942161683e+03
-4.876054335255649676e+03
-4.121683016504417537e+03
-2.390310451868922883e+03
-1.694103472619817694e+02
3.006581791423306186e+03
3.735063275196981976e+03
3.367161344507971535e+03
3.168340532295029334e+03
3.853992832226648716e+03
3.377985997167338155e+03
3.051180798822579618e+03
3.823709763203178682e+03
5.540289786355860087e+03
7.257139956453120249e+03
8.565254640904129701e+03
8.947786689558606668e+03
9.610426383939106017e+03
1.049789155761427901e+04
1.090984512085658207e+04
1.029183828236822046e+04
1.093945261738496993e+04
1.165325978913085237e+04
1.164875704652917193e+04
1.092948289195403231e+04
9.198973170033716087e+03
8.366837577562982915e+03
8.727613494728646401e+03
8.505781203405875203e+03
7.676821096429332101e+03
8.138248526495786791e+03
8.203579006199915966e+03
7.144241205896379142e+03
6.830739656943197588e+03
6.418567915354147772e+03
5.570202007822799715e+03
4.923146334533001209e+03
4.975877930092399765e+03
5.253941513296512312e+03
4.933855631516124049e+03
4.832038863744909577e+03
4.860045195509088444e+03
2.974637385966256716e+03
6.402278238554940799e+02
3.406018562263184776e+03
5.516848006780443939e+03
5.043620751919073882e+03
6.476014909970545887e+03
8.038628836687368675e+03
8.054635796442720675e+03
7.833885154382694054e+03
5.103103215200212617e+03
5.102873782848140763e+03
9.572551520401475500e+03
7.675771606579791296e+03
7.964063166438666485e+03
9.852692100263548127e+03
1.241405225992519081e+04
9.307728135103274326e+03
1.179020895076109628e+04
1.239812767978845295e+04
1.366809388723478332e+04
1.325351036575940270e+04
1.255788459763940591e+04
9.254863887089402851e+03
9.777978682661592757e+03
6.023502728177067183e+03
6.769740428838022126e+03
7.299090498811392536e+03
6.255775507734017083e+03
5.526276639034329492e+03
4.825406321123557973e+03
3.930940803891980067e+03
2.958461096439255016e+03
2.697629052568659063e+03
2.468672160422670004e+03
1.832017557665982849e+03
1.620913522739135942e+03
1.942155185675711209e+03
2.056381058979738555e+03
2.142363770092509640e+03
2.845484097135882166e+03
4.057280302816747735e+03
3.971333862535104345e+03
3.116699671016081993e+03
2.356954120878743197e+03
1.714097338100238630e+03
5.068925662007314941e+02
-1.587872669064988941e+03
-1.942908524471815554e+03
-1.358404795161090306e+03
-1.618861449369824868e+03
-2.364576938277151839e+03
-2.835565466611876673e+03
-3.439156948794239270e+03
-4.204534369508952295e+03
-4.692342242078420895e+03
-5.115988692318798712e+03
-5.174242605018118411e+03
-5.249060723900524863e+03
-5.312020964417091818e+03
-6.030623369447987898e+03
-6.805240098490880882e+03
-7.769242613560899372e+03
-8.321904161693115384e+03
-9.863860690966517723e+03
-1.352017581733354018e+04
-1.133929934491421591e+04
-1.194428111094833366e+04
-1.348405902067242096e+04
-1.109072150868078097e+04
-6.283729583317014658e+03
-6.724929309875455147e+03
-7.608985755379790135e+03
-8.615105086919731548e+03
-8.689785999894549605e+03
-8.920928687976364017e+03
-1.004614174048530731e+04
-1.051872958866223962e+04
-1.072510830965960304e+04
-1.209974395749687392e+04
-1.359002459976702448e+04
-1.293040961844813137e+04
-1.144965364295149266e+04
-9.666180838646734628e+03
-8.774175416998801666e+03
-9.300327089337817597e+03
-9.691099657452001338e+03
-9.812142041107646946e+03
-1.078487073062680611e+04
-1.095772787579344731e+04
-8.870058430345236047e+03
-7.731991842978359273e+03
-7.881582364685156790e+03
-7.565893201995055279e+03
-5.878994968780913041e+03
-3.179932670157329994e+03
-2.627788704883459104e+03
-1.308730614868044086e+03
4.931553543357867397e+02
3.218769763111252360e+03
5.279077378235366268e+03
5.729935248015150137e+03
5.649200716826640019e+03
5.994760072730765387e+03
5.992539861833430223e+03
7.104425385114881465e+03
7.789145817848763727e+03
7.406538567712629629e+03
6.663507876425440372e+03
5.518058585386863342e+03
4.419226198510144059e+03
3.565198602045379630e+03
2.784533921049582204e+03
3.269729042144266714e+03
4.304907403485232862e+03
6.662389215689840967e+03
9.790135121577512109e+03
1.093621872598271511e+04
9.424813635540664109e+03
7.735690661241193084e+03
8.276439681947209465e+03
7.301532120523387675e+03
5.508546288714092952e+03
1.921290940501604155e+03
-4.223946255019159821e+02
-2.467853984033545203e+03
-2.391536816728651957e+03
2.513028251863899186e+03
1.993537445063329415e+03
-6.302684208861907109e+02
9.062320629716828080e+02
8.882600101452775334e+02
-5.862209197939214533e+01
-3.917712166182004125e+02
1.995496928396263172e+02
7.099556749849143671e+02
1.440097929459396028e+03
5.244733039770774667e+03
8.537593820860505730e+03
1.033824172748666570e+04
1.260026106292368786e+04
1.583336891457029924e+04
1.803709484943463394e+04
2.024088682390833856e+04
2.143923711758535865e+04
2.133256554696202147e+04
1.929333786960135694e+04
1.715904727874571108e+04
1.551209080591422025e+04
1.425327936262348339e+04
1.276350303643371808e+04
1.159043789433554048e+04
1.026868175161837826e+04
9.522668879318496693e+03
8.975780881451872119e+03
8.292269398969763643e+03
7.415678867961555625e+03
6.596505056433495156e+03
6.584753329901285724e+03
7.088055314258428552e+03
7.681193886601119630e+03
7.712007460475741937e+03
7.435298282736922374e+03
7.017284892741395197e+03
6.884358583633279522e+03
6.089308245768812412e+03
4.555929765772961218e+03
2.140073681161613877e+03
3.755974678149542001e+02
-3.918040480086565935e+02
3.806755977897080356e+02
2.620160908807843498e+03
2.524498203134835421e+03
2.306550988807970953e+03
4.017195042257505975e+03
6.288549819134651443e+03
6.324572100108171071e+03
4.204192001416658059e+03
3.386388831368622050e+03
4.145327860462771241e+03
5.403004079449325218e+03
5.081391792818849353e+03
3.667293913847744534e+03
2.667557241646940838e+03
1.398874397952931076e+03
7.851409198430820879e+02
5.172002548422353811e+02
-2.551074014258350928e+02
-2.030915484637748932e+03
-3.649376848915191204e+03
-4.860617486695934531e+03
-5.578820018752317992e+03
-7.317052690801268000e+03
-7.191276795126566867e+03
-7.862938296295957116e+03
-1.099114311077545972e+04
-1.501027195713085712e+04
-1.388263365356904251e+04
-6.906401914507973743e+03
-4.980835198463566485e+03
-9.000162158563087360e+03
-1.358754983252725287e+04
-1.402515394558683693e+04
-1.446224691981187789e+04
-1.476220916156584826e+04
-1.530840338874910958e+04
-1.595253317653827071e+04
-1.707936264442438187e+04
-1.764042709272644424e+04
-1.705616821617766254e+04
-1.131503109209033028e+04
-9.436452438644066206e+03
-9.595801544534071581e+03
-9.228406014364163639e+03
-8.333876711397093459e+03
-8.068763665307793417e+03
-1.261136531532422123e+04
-1.503209094312849084e+04
-1.113463735485760662e+04
-5.873714118256842994e+03
-4.580885531936331063e+03
-4.019703464557057487e+03
-3.750518833353994523e+03
-5.333782763580229584e+03
-1.009618424939473698e+04
-1.526543387745829205e+04
-1.615693379348589224e+04
-1.521821460061663129e+04
-1.101583796980108855e+04
-9.366565042328351410e+03
-7.769147802247734035e+03
-8.381185552004115380e+03
-7.685274283119932988e+03
-6.445189316616221731e+03
-4.963712177229312147e+03
-3.512518759401239549e+03
-1.980198204051982430e+03
-1.186536960926169741e+03
-7.553399199722759931e+02
-9.263570987179275562e+02
-1.632297232866446620e+03
-1.032815028350860530e+03
-5.197423695962187367e+02
-9.170473146075270279e+02
-1.238546352318220670e+03
-1.500029341465840389e+03
-1.985400847388564671e+03
-2.792388904177377299e+03
-3.779711035540298326e+03
-4.752227118243838959e+03
-5.536790865358838346e+03
-6.331118096397260160e+03
-7.427968026030796864e+03
-8.137192082699585626e+03
-8.801622512197320248e+03
-1.003200904807289771e+04
-1.050422940527108949e+04
-7.955252292025016686e+03
-7.439447479695448237e+03
-8.167474842670894759e+03
-6.045233332753156901e+03
-4.305848301176773020e+03
-1.034248140445344006e+03
1.137238477131121954e+03
9.995614382672912370e+02
-1.974220892889323750e+03
-3.688908815938944372e+03
-4.543270402956118232e+03
-7.021881012967853167e+03
-6.685240304992868914e+03
-4.486370290466842562e+03
-4.795405593227007557e+03
-6.447611393256158408e+03
-7.637810113335265669e+03
-8.634853894039819352e+03
-8.019020542726541862e+03
-5.560889874776727083e+03
-3.769660634442484934e+03
-1.676569631788682273e+03
2.842244542927539896e+03
8.823345255382875621e+03
1.294289688066048075e+04
1.541441504167045059e+04
1.647960444323407137e+04
1.329055233799324014e+04
8.413619051988769570e+03
5.259950021666368229e+03
3.953691464595081470e+03
2.007070320282199191e+03
4.354076217820281727e+02
7.694895471014246141e+03
1.314184814265575005e+04
1.387255259785291310e+04
1.743028398730657136e+04
2.139230352786750882e+04
2.713186753634280467e+04
3.000724492843091866e+04
3.094965816912800801e+04
2.850143833222575631e+04
2.898000966295838589e+04
2.701678745240871285e+04
2.664414352165846140e+04
2.597252482030630563e+04
2.438745860780712610e+04
2.966852791045137928e+04
3.544811953208342311e+04
3.691567905153043102e+04
3.638874702306653489e+04
3.706385620529297739e+04
3.393851623737093905e+04
2.718929475499528780e+04
2.332079298989824019e+04
2.680359192089329008e+04
3.442133256281520880e+04
4.404170161470871244e+04
4.612336973882601160e+04
3.919703442237450508e+04
3.750153083281672298e+04
4.178564254143360449e+04
3.935914789366192417e+04
3.593877179935682943e+04
3.996627029309597128e+04
3.573204541887521191e+04
2.714957942107574490e+04
2.936975919509691812e+04
3.138933968147407722e+04
3.074338765451998916e+04
2.608944809510179766e+04
2.074879208971652042e+04
2.105647992921566401e+04
2.164657388684092439e+04
2.109010782013491553e+04
2.202923380093873493e+04
1.932024793144820796e+04
1.667532321710228643e+04
1.638166753015066206e+04
1.531573413905720736e+04
1.225990516843090336e+04
2.251314726525923561e+03
-1.249779707768229855e+04
-1.451908562541131505e+04
-8.459040280759452799e+03
-2.863073599720815309e+03
-9.397536177002815521e+02
-1.370654988222487646e+03
-4.371251461946681957e+03
-8.885994166291766305e+03
-1.294847316236739789e+04
-1.631406984853773611e+04
-1.886610112027548530e+04
-2.033789789409373407e+04
-2.051384490563321742e+04
-2.011533504705245286e+04
-2.005844984314141766e+04
-2.040140885942343448e+04
-2.043340573867342027e+04
-2.048067071207726985e+04
-2.152325064531638418e+04
-2.427812003029573316e+04
-2.878929158807804197e+04
-3.500579822628416150e+04
-4.349166578301040136e+04
-5.733394804373256193e+04
-7.802963280491289333e+04
-1.055955767977128271e+05
-1.264456886055897339e+05
-1.230227876326361438e+05
-1.153047107425796275e+05
-1.121983521361918392e+05
-1.149616097845872719e+05
-1.162404023691007169e+05
-1.124835923500965000e+05
-1.078280479675145471e+05
-1.006936129249971127e+05
-8.769188779796281597e+04
-7.354034073642318253e+04
-6.109169247809488297e+04
-5.171190471900284319e+04
-4.437660873191303108e+04
-3.653728414852063725e+04
-2.682111959338833549e+04
-1.741385427020899442e+04
-8.869194356858963147e+03
-2.791712102908210454e+03
2.947459764328778419e+03
9.538513141036652087e+03
1.357707016467527501e+04
1.576906407204213428e+04
1.634890486909472020e+04
1.751798457549532759e+04
1.801764143264087761e+04
1.755916968035891477e+04
1.656486190276249545e+04
1.665804385807023937e+04
1.803472740991978935e+04
1.864417198650316277e+04
1.870782549114726135e+04
2.028392503896629933e+04
2.127154906439913975e+04
2.040996842197186561e+04
1.870732157195655964e+04
1.453483287319564079e+04
8.551803119921472899e+03
1.473622708397208953e+03
-9.257512796585602700e+03
-1.791744646915790509e+04
-2.178607071917880603e+04
-2.322423249969887183e+04
-2.178783512877060639e+04
-1.871483527462523853e+04
-1.442923570442887103e+04
-9.874097322674100724e+03
-2.173920807601953697e+02
1.524996831726840355e+04
3.112893535747886563e+04
4.281830362895931466e+04
5.134495086061200709e+04
5.734069963813541835e+04
6.032435217853661015e+04
6.493466846517594240e+04
7.396237897795437311e+04
8.083818010810762644e+04
8.662472522357908019e+04
9.142753744578140322e+04
9.493220069808977132e+04
9.533320355945118354e+04
9.313396654422613210e+04
9.244481028194156534e+04
9.048994451651524287e+04
8.652683054067096964e+04
8.160979915807246289e+04
7.751796966890427575e+04
7.289544401785271475e+04
6.739164045364721096e+04
6.116887514827384439e+04
5.681212637086526229e+04
5.336633046524352540e+04
5.119751919837392779e+04
4.794074476160245831e+04
4.404803525200546574e+04
3.971223904784684419e+04
3.491222902314689418e+04
2.905675923509988206e+04
2.292457976225255697e+04
1.683940961282686840e+04
1.026102845334054109e+04
3.978069182080347673e+03
-2.625869536954369323e+03
-8.753208226225478938e+03
-1.297125112077858466e+04
-1.806370074393094546e+04
-2.114513051437465037e+04
-2.515995993997297046e+04
-2.857649910818980061e+04
-3.136755981716835959e+04
-3.485020101902995521e+04
-3.801679680726508377e+04
-3.969126373701381090e+04
-3.862941876970630983e+04
-3.610005688666785863e+04
-3.255566469682287425e+04
-2.750487243124392990e+04
-2.401456133428843896e+04
-2.409973067625085605e+04
-2.578125857796677155e+04
-2.790313358196993431e+04
-3.029650205429728157e+04
-3.288376727829843003e+04
-3.459162068446932972e+04
-3.455443979732248408e+04
-3.502600247327960824e+04
-3.716767339699874719e+04
-3.798901061745684274e+04
-3.754550444478503778e+04
-3.803907859903385543e+04
-3.981943158735519683e+04
-4.136383444908834645e+04
-4.156384781716491852e+04
-4.108019766554284433e+04
-4.005443779618672852e+04
-4.039909600136569497e+04
-4.174598974087797251e+04
-4.211923148122742714e+04
-4.165038463536084600e+04
-3.913082625559572625e+04
-3.662813387925592542e+04
-3.482931123608983762e+04
-3.209950735768426239e+04
-2.877711748034178163e+04
-2.591358016510019661e+04
-2.359725555262954003e+04
-2.115035822257843392e+04
-1.798817690137480167e+04
-1.399996413752400986e+04
-1.025287954770010037e+04
-6.881003514349110446e+03
-3.471414382502465287e+03
3.177725884290701401e+02
4.299393006045199400e+03
7.304331690770904061e+03
9.444608871756832741e+03
1.075010895292132955e+04
1.165868910732239783e+04
1.294930733683335529e+04
1.391398402959399209e+04
1.453373179424501177e+04
1.400354437376709757e+04
1.362047994515243590e+04
1.355862386128969229e+04
1.333212080556815090e+04
1.283206779103394365e+04
1.224859518120483153e+04
1.059586711358140747e+04
6.190204466228017736e+03
4.468624622676205945e+03
3.323508426886040070e+03
6.546257260770241373e+03
6.200988277247027327e+03
1.422092478303972030e+03
4.826878144397527649e+03
6.515772144317722450e+03
5.452357605252685062e+03
4.143380504681847015e+03
-4.163546439437219249e+01
9.528760946532688649e+02
-1.892384023989047819e+03
-6.570514572449070556e+02
-1.369659518401578225e+03
-6.676331601379225503e+03
-1.220517159913410978e+04
-1.178043133262210722e+04
-1.177835394366147011e+04
-1.005419094247096291e+04
-1.255820652073292331e+04
-9.238468708166221404e+03
-1.040311100987724785e+04
-1.018437123055262236e+04
-6.513386743059932087e+03
-2.574012586232123340e+03
-1.800535751647241511e+02
1.020702757444817166e+03
2.794843471976731507e+03
4.032742545319218607e+03
4.212487381510254636e+03
3.817240624210042824e+03
4.038361610525676952e+03
4.033162480449308077e+03
4.734252510535766305e+03
5.245017428965633371e+03
6.145991555791576502e+03
7.459425649364424316e+03
8.266687938147879322e+03
8.588924569179400351e+03
8.228755716750511056e+03
8.422845839193472784e+03
8.298060573183309316e+03
7.693804914478580031e+03
6.480860759029367728e+03
5.400756677102700451e+03
4.579121038985671476e+03
4.073685494875478526e+03
3.972576214083080231e+03
4.485312423151112853e+03
4.882888454892148729e+03
4.939176451097492645e+03
4.755727726958237326e+03
4.365637497284135861e+03
3.810055316444880646e+03
2.936560639583445663e+03
2.006286795840003833e+03
1.745611132530167424e+03
1.382094563586275171e+03
9.562008698023356601e+02
1.258543812815493311e+03
1.963647545651374685e+03
2.557842492167886121e+03
2.568907680414434253e+03
1.893248475654277172e+02
2.099906529707091067e+03
5.335581517397932657e+03
6.432836530556986872e+03
3.940726579808736915e+03
7.030091601857655405e+03
8.453999734371705927e+03
8.754583904448398243e+03
8.695817745270011073e+03
8.042249034128110907e+03
7.082278651710090344e+03
5.882507566038621007e+03
5.034887340422491434e+03
4.111813926857373190e+03
2.839671847331366735e+03
2.494002468394254720e+03
2.866690416987029039e+03
2.971339628760065807e+03
2.755282700749618925e+03
2.768850417684440799e+03
3.598904078618445510e+03
5.209307756191527915e+03
6.680723768226387620e+03
7.643834981463365693e+03
7.609359042727852284e+03
8.055015631054498044e+03
8.766465805974341492e+03
8.958306755590361718e+03
8.241005961041642877e+03
7.573903140235276624e+03
7.049279611696700158e+03
6.085384071439584659e+03
4.894569194128290292e+03
4.068269352390522727e+03
3.530844096338108102e+03
3.120697712328716989e+03
3.377040106130615641e+03
3.732183557541659866e+03
4.177525330116825899e+03
5.156463569772371557e+03
5.694392741899849170e+03
6.690865046812024957e+03
7.245678056848660162e+03
7.865838307941363382e+03
8.081435993888119810e+03
8.619551669549160579e+03
9.489545950202946187e+03
9.939976710010569150e+03
9.371967839816566993e+03
8.484868919832528263e+03
7.205648864711329225e+03
6.247636351591690072e+03
5.505419190092622557e+03
5.055517660461410742e+03
5.258074824701299804e+03
4.825701582639489061e+03
2.926104973177470583e+03
-3.570947625894440876e+02
-2.894079712736289366e+03
-1.777136519059422426e+03
-6.979605569411033912e+02
-7.693611336084252628e+01
4.371689927958979752e+03
9.674722489817666428e+03
8.981751663546447162e+03
9.515204193445282726e+03
8.994350571334492997e+03
7.993843720019984175e+03
6.477291630095262008e+03
5.275276327349829444e+03
4.495537767785863252e+03
3.297905062627320603e+03
2.515050322849462646e+03
1.526641137882052362e+03
3.102217492684135323e+02
2.854672167863167829e+02
9.490835030267533057e+02
1.147599880188398856e+03
1.470770373802089807e+03
1.237433931750867259e+03
4.684016420911736418e+02
-3.143964104123493826e+02
-7.261749060308005710e+02
-1.423957524918132094e+03
-2.008667208558000993e+03
-2.817650756405715583e+03
-3.582467233285964085e+03
-4.111559876958386667e+03
-5.250583329197117564e+03
-6.573163464398261567e+03
-8.908822868513119829e+03
-1.121407661448722138e+04
-1.227585352286845591e+04
-1.302619753680793474e+04
-1.423475330652647426e+04
-1.447175949525971373e+04
-1.417044098756156018e+04
-1.379117129494046276e+04
-1.325812316115205795e+04
-1.230774603878848029e+04
-1.025978566336915355e+04
-8.004543493921712979e+03
-7.135108016717500504e+03
-7.004750929810742491e+03
-6.931751394384755258e+03
-6.702087026932706976e+03
-6.146714576795301582e+03
-5.851881552435918820e+03
-6.102652664701266986e+03
-6.231975799705486679e+03
-6.101890051295141348e+03
-6.498576992916938252e+03
-5.784113137820112570e+03
-5.101506074359429476e+03
-4.987711798550359163e+03
-4.866976983652993113e+03
-3.643599588499637321e+03
-2.630334421404841123e+03
-1.478215134535778589e+03
-5.533273309251026149e+02
2.912334217978092852e+02
1.007387227890486201e+03
1.899123628861422958e+03
2.154520668242354532e+03
2.267581076085097720e+03
1.820313317127978280e+03
1.090658607051778290e+03
5.145734283902542074e+02
6.010631050854875639e+02
-3.396964609841075458e+02
-3.075755672078923453e+03
-7.763492593036312428e+03
-1.156792587882692715e+04
-1.353822345048153147e+04
-1.381401593739643067e+04
-1.371937232326730737e+04
-8.591570000425435865e+03
-4.507898059869956342e+03
-9.788622535575750589e+03
-1.161690561554419764e+04
-1.047180668460266679e+04
-9.199610278864824068e+03
-8.975605444745124259e+03
-8.456555755381523340e+03
-7.582118900332998237e+03
-7.287282373192304476e+03
-5.638073965872370536e+03
-1.564486499771032186e+03
-2.984678004586280167e+03
3.273116885942508816e+02
1.561367436661493457e+03
-3.881675693314177352e+03
-7.651972040652589385e+03
-7.870591241521268785e+03
-8.608472188477850068e+03
-8.073572865941341661e+03
-1.751841107401912723e+03
-1.975368925681130122e+03
-7.719218264234256822e+03
-7.510209958548563918e+03
-6.024181815082680259e+03
-4.478187789657601570e+03
-3.447141892440712127e+03
-2.160220361600815068e+03
-1.067720922237243030e+03
1.661487816661171337e+03
6.840431077750887198e+03
8.716019518873928973e+03
9.510209898361812520e+03
9.377005261676360533e+03
9.851448780247797913e+03
9.608578586366806121e+03
8.949380946532450253e+03
7.905728614954512523e+03
7.612555468613766607e+03
7.708981874449337738e+03
7.465030901103613360e+03
8.066590851182560982e+03
8.844625968487618593e+03
1.050832338649363192e+04
1.206797143872986089e+04
1.281982273970672577e+04
1.336901603771534246e+04
1.407661883211316126e+04
1.464480402032444545e+04
1.462059691897525954e+04
1.466218851964124769e+04
1.463082873036782985e+04
1.462616073542350023e+04
1.437461769344433924e+04
1.356661930437318551e+04
1.133558332148141926e+04
1.069787545526169379e+04
1.038701177544176244e+04
9.756081105014602144e+03
8.961337668409347316e+03
8.238600812366879836e+03
7.835299846337380586e+03
8.513137078189607564e+03
8.890655753778639337e+03
8.780210885632794088e+03
8.566228559405612032e+03
8.925239767771401603e+03
1.004866072139208154e+04
1.069785374639937982e+04
1.055647314719155293e+04
1.000558117404533914e+04
9.337319942894244377e+03
9.048264364234546520e+03
8.506519063188905420e+03
7.049211873120052587e+03
5.673624113308079359e+03
4.484826151986459081e+03
3.204335928082061855e+03
1.363859912643135203e+03
-4.231330634519769092e+02
-1.716502317549833379e+03
-2.621292636624306851e+03
-3.094138185540502491e+03
-3.442128366071561686e+03
-2.702103286522825783e+03
-2.089994364117466830e+03
-2.375659843556593387e+03
-2.455791303024830995e+03
-2.464177883355013364e+03
-2.367689629945141860e+03
-1.826171174244356962e+03
-8.495483976485858193e+02
-1.889634198273454103e+03
-1.779325589632252331e+03
-1.141510802337596715e+03
-1.603063915345726855e+03
-2.400811501589071668e+03
-3.027425127066022469e+03
-3.295713887379948119e+03
-3.036765458765047697e+03
-2.929637136823859692e+03
-2.550061920974119403e+03
-2.598792116084433474e+03
-2.838667197084005238e+03
-2.691644016145727619e+03
-2.713631200433536833e+03
-2.316435223308800232e+03
-1.708890809011719057e+03
-2.223892606796528071e+03
-2.496342839660335358e+03
-2.728128990619471097e+03
-4.090091409509440837e+03
-6.957104433924241675e+03
-1.030311865023378596e+04
-1.327815738868320113e+04
-1.441703740747757729e+04
-1.526467306611105596e+04
-1.608709385972704877e+04
-1.722228236034323709e+04
-1.208420559735481947e+04
-1.255775559626036738e+04
-1.955447641022108292e+04
-2.196989755929203966e+04
-2.233915802065072421e+04
-2.272695936334564612e+04
-2.251499253584530743e+04
-2.135471028931607725e+04
-2.045793849181671249e+04
-1.900946985390421105e+04
-1.492926074748972314e+04
-1.471324482202715262e+04
-1.821237251751386066e+04
-1.812958055048499227e+04
-1.287386688122479791e+04
-1.190223172855577832e+04
-1.096960379361345076e+04
-8.142068210998123504e+03
-8.589742952440399677e+03
-9.338637888049815956e+03
-9.430748595961782485e+03
-8.754063331696768728e+03
-8.933700483629681912e+03
-6.859785604785249234e+03
-5.630297430641438041e+03
-4.118167652042337068e+03
-2.909131549852214448e+03
-2.049305487997250566e+03
-1.491672830476040588e+02
1.992167087776037988e+03
3.269942228156663532e+03
3.493297018893744280e+03
2.795988766876319914e+03
2.207517783728129871e+03
2.265563368074153459e+03
2.200062847417948888e+03
3.771073256069098079e+03
4.602509271048138544e+03
5.039220255344559519e+03
5.323077352196361971e+03
5.194846935696256878e+03
4.371371910426031718e+03
4.101574849506266219e+03
3.876349194825736504e+03
3.671628862992714403e+03
3.132305216964431565e+03
3.376362119167681158e+03
4.601684297248941220e+03
6.533156020065976008e+03
7.755742526075496244e+03
8.661433037822853294e+03
1.165914840137810461e+04
1.331979199644784239e+04
1.350417568120187389e+04
1.335212530656408671e+04
1.256342223360273056e+04
1.367822716982870224e+04
1.548360776182991140e+04
1.475955275278653426e+04
1.422204559967922796e+04
1.524094725080755597e+04
1.433080633549891172e+04
1.335950174215365223e+04
1.364196228470155438e+04
1.409103093503899072e+04
1.372603465057840367e+04
1.144338180655449651e+04
1.508369969780115935e+04
1.757998830445729254e+04
1.780410247237984004e+04
1.719001673528450556e+04
1.647458185819699793e+04
1.647752899095049361e+04
1.546169292204095291e+04
1.510806561547592355e+04
1.446836675139699219e+04
1.318325645053913831e+04
1.163352878845025407e+04
9.694969008050831690e+03
8.340381706238622428e+03
7.221623505506885522e+03
6.797595033472034629e+03
6.719214625532606988e+03
5.122290217377762019e+03
4.828664660516884396e+03
4.143272643132732810e+03
3.118995902308127370e+03
2.766745093072948748e+03
3.433334929740349708e+03
3.635460632539177823e+03
2.905925078429277619e+03
2.395731177869168732e+03
1.361790650706180713e+03
-1.840534872202817951e+02
-1.757050761540924441e+03
-2.904485071686879110e+03
-3.552497752477680024e+03
-3.454298079893518661e+03
-4.875101592539876947e+03
-6.843113957950335134e+03
-8.625536678569471405e+03
-1.056967049610235517e+04
-1.354576267706689032e+04
-1.416199621318127902e+04
-1.477141458773307568e+04
-1.634816941888660040e+04
-1.761944905055902200e+04
-1.860044618075641483e+04
-1.905130842900687276e+04
-1.937212554207847279e+04
-1.924702580786143153e+04
-1.921225083264336718e+04
-1.945302648397314260e+04
-2.009442535236183176e+04
-2.093670986177375380e+04
-2.140710008009538433e+04
-2.261574972467215775e+04
-2.631083732697050073e+04
-2.454566958142963631e+04
-2.256532509547561131e+04
-2.088204945524966388e+04
-1.973799500326865018e+04
-1.928936313021559909e+04
-1.969335359281838828e+04
-1.926112328740813973e+04
-1.856472021362401574e+04
-1.817325444568963940e+04
-1.833977760778203810e+04
-1.976832056293765709e+04
-2.122820309405533408e+04
-1.823565383165715684e+04
-1.587164348601917300e+04
-1.571984855916417109e+04
