1.787721817000993951e+03
1.018302653056003237e+03
4.970808997965709182e+02
-1.613948828533949609e+02
-6.192178447878699217e+02
-1.225070486890042048e+03
-1.238213728480633335e+03
-5.249009869772884258e+02
4.111847255208475076e+02
1.629078397086730774e+03
2.094456422818481315e+03
2.410321652036342584e+03
2.944836022573567789e+03
2.917032454496691571e+03
3.006995384944544639e+03
3.328804215252807808e+03
3.307468967076088575e+03
2.965029583005995391e+03
2.930470980733144188e+03
2.761750184345105936e+03
2.798545775294561281e+03
3.137785754425023242e+03
2.698634605158296381e+03
1.752088547111702383e+03
1.321112647926731825e+03
1.147836226569945666e+03
1.625000705872878939e+02
-1.989086134969337763e+03
-5.181021596810236588e+03
-6.229290149879810087e+03
-5.805775871737493617e+03
-4.788327687352821158e+03
-3.756036065707166927e+03
-3.442006766874134883e+03
-3.610168663706121151e+03
-3.774483848013098850e+03
-4.104948838021820848e+03
-4.059590744104134956e+03
-3.571485014300855255e+03
-3.252513299977551924e+03
-1.683629625734392903e+03
-3.236792744190728172e+03
-1.353081416815145758e+03
-1.569479621210452706e+03
-5.188952750468438353e+03
-5.790503383151955859e+03
-5.267224219727782838e+03
-5.109174444141456661e+03
-5.195311977103532627e+03
-4.526510986405287440e+03
-4.474739686847016856e+03
-4.460071831675752946e+03
-3.829350508833801541e+03
-3.636557465232246159e+03
-3.328753902707561792e+03
-2.973869713257164676e+03
-1.819927685020635863e+03
1.775040168515968844e+03
2.720153370774788527e+03
2.890402537349580598e+03
2.301788059575328589e+03
2.905342471425591611e+03
3.903077212013516601e+03
4.322988054381373331e+03
3.548092201652808853e+03
2.623360537307080449e+03
1.920727481574450849e+03
1.576204149067684966e+03
1.402827868494526683e+03
1.469573198786703188e+03
1.734487085090775963e+03
1.279607209819692343e+03
1.304002063003282501e+03
1.747748998570177719e+03
2.009842396382056222e+03
1.650194137736551284e+03
2.072746135048476390e+03
3.035467128081379997e+03
2.636376329009017809e+03
2.308637415700284691e+03
1.843397926051340846e+03
2.131706989461215016e+03
2.097600596422769740e+03
1.603321993328950612e+03
8.506662560193306035e+02
4.948638480287238650e+01
-1.241544259312702678e+02
1.977228039172832439e+02
5.451842824186186363e+02
7.460791238344315843e+02
6.881849455332005618e+02
1.604757375896855820e+03
2.853244631846337143e+03
3.654318795583806605e+03
3.897973247782793806e+03
3.743181381238327049e+03
3.601971247090224097e+03
3.562391743860702263e+03
3.387374652972886906e+03
2.616706779044477571e+03
2.182654898149258770e+03
1.895215938949661904e+03
1.663283157107532588e+03
1.183970970617639978e+03
2.962298330015398165e+02
-6.790494674551442813e+02
-1.023833510610596022e+03
-9.742612878044832314e+02
-7.657224374183181226e+02
-1.073120920918213642e+03
-1.784286839979641854e+02
8.864467247895639730e+02
1.366527339830903429e+03
1.288805522903752717e+03
1.327255274792674982e+03
1.150843779148526664e+03
1.150492084309957136e+03
1.087232596416437673e+03
1.519052996101840563e+03
1.434888739181010351e+03
1.816760553566474528e+03
1.975668043041596093e+03
2.374617986997159733e+03
1.853594875709209418e+03
1.339491458932182468e+03
1.181268838004247300e+03
1.056918066177168157e+03
9.634709640993855828e+02
7.219152375429545145e+02
4.562511262532763112e+02
6.935058679954142917e+02
9.006786100052199799e+02
1.504747865638424628e+03
2.091690654306468787e+03
2.165495114136174834e+03
1.884184507151809612e+03
1.199712313136779585e+03
9.410590957402137064e+02
2.842335619807366243e+02
4.891625519747076396e+02
9.128463886458520165e+02
7.883379550007778107e+02
6.559098034159286783e+01
-1.855373847883994358e+03
-6.064571587933041883e+03
-7.370015267843859874e+03
-7.588689460734118256e+03
-7.500633307940449413e+03
-7.143909239505973346e+03
-6.526539924153337779e+03
-5.834515534788199147e+03
-5.348825957391824886e+03
-4.621447179324766694e+03
-3.654410744562690070e+03
-3.695658958560847623e+03
-3.797181819680606623e+03
-3.892990049462505795e+03
-3.829152836547157676e+03
-4.227153499189627723e+02
1.770367968298557571e+03
1.474192038214534477e+03
1.402688790571507980e+03
1.198811025340036622e+03
6.415975666581202859e+02
-9.321162221259582381e-01
-6.257974700087413567e+02
-9.150282767363441963e+02
-1.205652708129936400e+03
-1.318729163256000447e+03
-1.014227172229471080e+03
-2.100399530941611204e+02
5.498552243608236267e+02
1.554441473052595711e+03
2.268727839903444874e+03
2.129688974248800150e+03
1.631316025543485694e+03
1.121639723107019108e+03
1.230702483885013180e+03
9.094910381858662731e+02
4.400100586690254545e+02
-1.236688881669754068e+02
-4.195248309950139856e+02
-1.395297286591559782e+02
-2.967452233192003064e+02
-5.441768998610908739e+02
-5.788056860092397073e+02
-2.166536312840395340e+02
4.522554404977523745e+02
5.909945947294168036e+02
5.085318153013325286e+02
9.248392567879351418e+02
1.521042888975806818e+03
2.203187564825289883e+03
2.707272426970018387e+03
2.790270141822611095e+03
2.301187325496472567e+03
1.569087175129077878e+03
1.400930013389415080e+03
1.331752156229680395e+03
1.148522128526405140e+03
1.238260929051924677e+03
1.502079359570157976e+03
1.236920835542341365e+03
5.568150507892229371e+02
-8.116758495733590451e+01
-5.690010138967526245e+02
-8.196384805877351027e+02
-1.047044385584338897e+03
-1.236185286378680530e+03
-1.241164557937291193e+03
-1.010053894678106872e+03
-7.917295645217885749e+02
-3.560291319530481928e+02
8.890925037622371008e+01
2.651063786396463797e+02
5.816087020487618702e+02
6.864940216496571566e+02
6.517554795478025653e+02
7.504225253627674874e+02
7.194121521513588959e+02
7.748347347839021495e+02
1.062735941780047597e+03
1.334061522585428065e+03
9.077587847945327439e+02
3.978835904597942204e+02
-2.995693595078109865e+02
-1.157688024114794416e+03
-1.243471616492316116e+03
-1.130946395627755464e+03
-1.017054560580706379e+03
-7.557641535401105557e+02
-4.410101378629552187e+02
3.461898961748999568e+02
5.558990241105852874e+02
2.802003018922428055e+02
2.630125754169381480e+02
5.112364197277570952e+02
1.939163530410537248e+02
-9.381908593437968591e+01
-4.459860137162950195e+02
-7.926739187798439161e+02
-8.258665718016829942e+02
2.645185680254487437e+01
3.835450582003687003e+01
-7.802384540235035502e+02
-1.368297257685543627e+03
-1.644815465512888977e+03
-1.638789339299258472e+03
-1.499241380514694356e+03
-7.962176665724817894e+02
-1.887174548216322023e+02
7.193102691365337478e+02
1.322889390787702951e+03
1.313998207402682283e+03
8.105743532431894209e+02
4.106371324139226999e+02
7.852493583852983647e+02
1.239399905969652082e+03
1.280085003416372274e+03
1.148282180608505996e+03
9.719761575273756762e+02
1.033119530768889263e+03
7.196642652823654771e+02
-1.054142230490255656e+02
-7.011755253256906144e+02
-5.316268172495450699e+02
-6.068032697321572186e+02
-8.296393627416481422e+02
-9.071439651364513566e+02
-9.074345394350559673e+02
-5.685625161633339530e+02
-2.805219661193913794e+02
3.036615545603800115e+02
7.489606600050351517e+02
8.554248305765495388e+02
1.079970438465321877e+03
1.365601714467677539e+03
1.276369694727869273e+03
7.682214942788880307e+02
5.072493770572244784e+02
3.445809863846301937e+02
-1.298573224533473791e+01
3.355516894694399070e+02
-1.548973892757833255e+02
-9.132537769197185185e+01
-4.655620006847634329e+01
-2.815738640695387858e+02
-5.844733341679718706e+02
-7.753952446507387322e+02
-4.563168870862237441e+02
-7.018722245445623287e+01
3.060950192787999526e+02
1.038635702648966117e+03
1.714228375608048282e+03
1.302735962553661011e+03
1.384373959597086014e+03
1.852475427968199028e+03
2.577696496276898415e+03
2.337989774591796049e+03
1.988709867015120381e+03
1.849850167610000426e+03
2.019832214855088978e+03
1.534150205742967046e+03
1.204766769347613717e+03
9.439089822545909101e+02
7.316003074763067389e+02
3.287324202061569167e+02
2.563012420938512719e+02
3.644604312970709543e+02
5.610588683141635329e+02
5.348685218812304356e+02
1.229101047959253719e+03
1.943982037238826933e+03
2.012524727500287781e+03
2.127420862351314554e+03
2.148462494594444706e+03
2.265134076651181203e+03
1.882509060440616167e+03
1.711028450700335725e+03
1.605819393827865724e+03
1.082387179102172922e+03
6.817996754347695969e+02
5.329382200619043033e+02
5.615047183213702056e+02
8.705270739740326462e+02
5.663068763945029787e+02
4.297541543628372551e+02
6.739893014580317185e+02
1.056178096999149602e+03
1.055036953990125994e+03
1.230589885203478161e+03
1.389795876871681230e+03
7.396730383553996262e+02
-1.039570186833196658e+03
-3.482528491273162672e+03
-4.206230555918475147e+03
-4.030096841541218510e+03
-3.764535077112565432e+03
-3.828005846436640695e+03
-3.620052456592469753e+03
-3.486335625988343509e+03
-3.557377582151710612e+03
-3.306498319299981176e+03
-3.455055033208763234e+03
-3.191403528584027754e+03
-3.440574887452366056e+03
-3.606153409567729796e+03
-3.095881271321045460e+03
-9.026538200461678798e+02
-2.746253487105829663e+03
-3.554031558309010506e+03
-3.273272830569594134e+03
-3.030625417416236360e+03
-2.354420737585901861e+03
-2.378084889601923805e+03
-2.853568010924110240e+03
-2.876654755031968307e+03
-2.911040392914860149e+03
-3.225207938607232791e+03
-3.186236892266674658e+03
-2.635222689840878502e+03
-2.432245501014034289e+03
-1.109532312224069074e+03
1.220821910040371677e+03
1.822012145860137252e+03
1.949669656209496907e+03
1.259709379949950517e+03
1.506777794569968364e+03
2.055750608450466643e+03
2.307806218286721560e+03
2.594105812900181263e+03
3.190073682087789166e+03
3.482786394764859779e+03
3.961376827286217122e+03
4.043542944291731601e+03
3.485753871324650390e+03
3.119199529364009322e+03
2.890760236274638828e+03
2.798125734409888082e+03
2.885109120238585092e+03
2.515080867154377302e+03
2.009539100026456026e+03
1.492845761432660083e+03
1.195307157044076803e+03
3.808800719752776445e+02
3.323928336499787974e+02
5.824997996762015191e+02
7.403826401990828572e+02
6.966948577253276653e+02
5.224386220420138898e+02
4.698117972445916166e+02
6.811531430362647370e+02
1.001347090206570329e+03
1.267454669486944113e+03
1.705565255383233762e+03
1.982896580661190455e+03
1.952423255429468554e+03
1.753141295516262062e+03
1.144162536658275940e+03
8.818217987616832261e+02
7.484081171146924589e+02
8.800822595117045921e+02
1.115581843010834973e+03
1.012045767980742085e+03
6.327189973466413448e+02
1.147587724768898170e+02
-2.198674239554715939e+02
-8.991900480929326704e+02
-1.318377627177445902e+03
-1.928970293627387946e+03
-2.076562811094904191e+03
-1.740669445550171076e+03
-8.312530350495206903e+02
-3.289157341313511438e+02
9.729247027289611438e+00
1.988823048251363161e+02
5.108787593221852035e+02
5.565543159469375922e+01
-6.782537850319127983e+02
-8.212709355921591623e+02
-5.356515539937647645e+02
-3.000634176672708691e+02
-5.288975059098966085e+02
-7.742694359611027721e+02
-1.601879173368297870e+03
-2.094672501136038591e+03
-1.994070325009212866e+03
-1.773988425924024568e+03
-1.689623966093387935e+03
-1.803394429468032968e+03
-1.748886716653002622e+03
-1.507904287498406575e+03
-1.433117091119734823e+03
-1.057132984965745663e+03
-3.389918248057551864e+02
-5.380745060500396448e+02
-7.306244691546252170e+02
-8.173926997506658836e+02
-4.440420819939844250e+02
-5.368061779134054632e+02
-7.149134245020536582e+02
-5.389117724725097105e+02
-5.818802718173642461e+02
-9.118433666614178037e+02
-1.189373684556949229e+03
-1.918461586998276516e+03
-2.330670725984995897e+03
-2.469373412213616575e+03
-2.597488270845734860e+03
-2.310883523396543751e+03
-2.047435084157765687e+03
-1.560895933071482432e+03
-7.811701131763732064e+02
-4.575596665352653076e+02
-6.833969573360042205e+02
-1.061562944265634087e+03
-8.217889785179686442e+02
-1.363632295617054808e+02
-3.723213204251331945e+02
-6.216033430985207815e+02
-1.790798398602051975e+02
2.655533158311436068e+02
7.110896882582269427e+02
6.111978477789024282e+02
-1.185341196285701244e+03
-4.056484542654830420e+03
-7.135329033288379833e+03
-5.047815322348076734e+03
-1.516967928475699182e+03
-9.880593567813294840e+02
-7.670413678439971363e+02
-7.191309348449935896e+02
-2.025062978623809329e+02
3.909155299087968274e+02
9.330344575805336262e+02
6.879320244039057570e+02
1.036610076739241322e+03
1.469842532181523666e+03
1.517480620871443534e+03
1.285496244808236042e+03
1.387701624560659184e+03
1.545365783350076981e+03
1.328531429510916269e+03
1.414709359655717435e+03
7.534162782243329275e+02
4.665511480256837444e+02
-7.985062341578455403e+01
-1.199888087331161586e+02
1.023400589214357694e+02
2.661736971382949832e+02
1.248277227268995830e+03
1.715297140782296310e+03
1.767788127550118361e+03
1.822672371949668559e+03
3.254172466132672071e+03
4.450328243991563795e+03
4.277805206378950970e+03
3.668499656112353023e+03
2.745524446898968563e+03
2.780821803050978360e+03
2.277138407920851023e+03
2.263371102983163382e+03
2.343733220035582235e+03
2.512881117614913364e+03
2.821439937389843180e+03
2.882288855544766648e+03
2.624222408481148250e+03
2.845991582162257600e+03
3.102500980899401839e+03
3.342632186935805294e+03
3.146468730019502800e+03
3.481140934273846142e+03
4.313409181164829533e+03
4.972025176605802699e+03
5.412940598900698205e+03
5.911266769064221990e+03
6.186027450709946606e+03
6.112041906472293704e+03
5.195036652364728980e+03
4.457862518850713968e+03
3.798576224088504659e+03
3.584154752389015357e+03
3.682258828681364321e+03
4.421942991571469975e+03
5.466259724165935040e+03
5.748197275418496247e+03
5.070658399407767320e+03
4.712272784502429204e+03
4.493913913113833587e+03
3.756644715955647825e+03
3.410273537671004760e+03
2.330873164287221698e+03
1.116649591344893679e+03
8.244475921469194191e+02
3.891550436542765965e+02
6.058115917662091761e+02
2.329332528446360811e+03
2.337720127686165142e+03
2.976142418258553334e+03
1.751510368907355542e+03
-1.151210506586754491e+03
-3.933158885312997882e+03
-5.082354824808714511e+03
-5.960885351875709603e+03
-7.861769247908774560e+03
-9.261892035439406754e+03
-1.055120273690802424e+04
-1.086556903019115998e+04
-9.344027549813734367e+03
-1.025973166799986393e+04
-1.266690704911586909e+04
-1.159755162474043755e+04
-4.895170888690742686e+03
9.732698744242902649e+02
4.869609463375672931e+03
4.971879017137383926e+03
3.411152957068851720e+03
3.681386910908475784e+03
-4.829971323179114506e+01
-3.621743873760720817e+03
-4.701975936987740170e+03
-5.514186307191794185e+03
-6.709292683830806709e+03
-8.432981631626718809e+03
-7.952206124884281053e+03
-8.274145725189790028e+03
-1.198261250961717269e+04
-1.303135016030288898e+04
-1.046836159460917224e+04
-5.330747267713235487e+03
8.126019045953828481e+02
3.873116519301811877e+03
-8.940773633635400230e+00
-4.470553546091282442e+03
-1.960796963239612069e+03
4.318453202655988207e+03
5.172301678413787158e+03
6.303758272492285869e+03
6.029816289858177697e+03
1.688737364446642914e+03
-2.922397857635473883e+03
-4.008585296353301601e+03
-6.184643868091407057e+03
-6.674557259552154392e+03
-5.447163765238859014e+03
-7.302260022789615505e+03
-8.576808420669518455e+03
-1.074371075093309628e+04
-1.386178084807581035e+04
-1.378987623296454694e+04
-6.724829133798342809e+03
7.467946847889880928e+02
4.439052689071710120e+03
3.152064917320870336e+03
-4.323998788118413358e+03
-7.521993061518288414e+03
-7.201756506986303066e+03
-1.496426689353153233e+04
-3.015554005871707705e+04
-4.001943310920031217e+04
-4.298074579722678027e+04
-3.260823377068948685e+04
-1.318083872615137625e+04
8.415391651227906777e+02
7.170970179060863302e+03
1.946425252722747609e+04
3.025466433437400337e+04
2.500518000406788269e+04
2.307606674084823680e+04
3.055437678953715294e+04
3.421712097201614233e+04
2.484249958220421468e+04
1.499878055049910108e+04
6.797056606521296089e+03
3.650472831468660388e+03
-1.875770097181713936e+03
-1.119266869269299059e+04
-1.077028244026073116e+04
4.705739868371421153e+02
1.394183364505896679e+04
1.976245855870363448e+04
2.190841881410653150e+04
2.262404036649200134e+04
1.955141333143460361e+04
1.389244916091874984e+04
8.330154534349567257e+03
2.415528427991026092e+03
5.796840196940722763e+02
-1.531325556124272225e+03
-2.761459926700778851e+03
5.254252291369904924e+03
2.269582965786744535e+04
3.240238289087487283e+04
2.859396033228840679e+04
1.833461882798211809e+04
1.674640667032730198e+04
1.841944218228942918e+04
1.231980684676213241e+04
9.279436285415446036e+03
9.044252654931555298e+03
7.263228220960899307e+03
1.295457091976296851e+03
2.170012739869481720e+03
5.628920633145567990e+03
4.086172248094260340e+03
1.703708385744439738e+03
6.664515402135754130e+02
2.792468052255072053e+03
2.353727465880403543e+03
1.000155301434541343e+03
-1.882992191890208460e+02
-2.227056454176845079e+02
-8.430481401172936557e+02
-2.504213453063190173e+03
-4.766169907409594998e+03
-4.760985017420720396e+03
-3.441715927864926471e+03
-4.076394792360011706e+03
-7.436032388464352152e+03
-9.898693221956124034e+03
-1.031938499424086513e+04
-9.333216146245509663e+03
-9.245222557588678683e+03
-1.046046425399630789e+04
-1.577894769428459222e+04
-1.664373249214748284e+04
-1.243684885737447985e+04
-1.677428636376326540e+04
-2.317218547671857959e+04
-2.687484605051463950e+04
-2.703100929894279398e+04
-2.110073234032556138e+04
-1.010509494001481835e+04
-3.521423253068420536e+02
4.686015620037054759e+03
3.889337955771873567e+03
-2.366264582777620035e+03
-6.807904410829029985e+03
-4.672617692262237142e+03
-4.238373923886446391e+03
-1.583205475189239451e+02
5.330548149287220440e+03
6.049124088382834088e+03
8.305276606610132148e+03
7.874917510604857853e+03
1.049944009221960187e+03
-2.452703069101232813e+03
-5.660071366502023011e+03
-6.107230817091590325e+03
-1.648260738697645820e+03
3.700694296675515034e+03
4.050551499713589237e+03
1.953162923790027321e+02
-1.804070804559878979e+03
3.983875322162909924e+02
1.605318810472767552e+02
-4.295680754506252924e+03
-3.831232907193602841e+03
-4.409218235113206902e+03
-5.191711076031591801e+03
5.052772936136764770e+02
7.548758532742700481e+03
8.184641892857539460e+03
4.218754105925944714e+03
7.230055306862192310e+02
-1.468616309993166624e+03
-2.369162082615481268e+03
-9.662712763511733272e+01
3.814902890654534076e+03
4.296222128197761776e+03
8.852983941890772712e+02
-1.321844690590013442e+03
4.378747890061378456e+01
-1.661891972105502873e+03
-3.641956189517509301e+03
-5.398333404248765873e+03
-5.808076097208561805e+03
-1.347268119438592976e+03
2.137111691223278740e+03
2.730914325680051206e+03
1.066128935040655051e+03
3.998615989071134322e+02
-7.947219076430502582e+02
-2.025467222494880843e+02
1.270160444014996983e+03
5.604261407607616547e+02
1.589185041769149166e+03
6.353837622128613702e+02
-1.850064130651347568e+03
-2.859138564658534051e+03
-4.600892493177564575e+03
-4.266422617231847653e+03
-2.668556001892186487e+03
-2.513380772227719262e+03
-2.842018274491839293e+03
-2.237399391216055392e+03
-3.644431754542849831e+03
-2.861775497604186853e+02
5.833367342682277012e+03
7.724243027198784148e+03
5.399407288785623678e+03
2.735920965447837261e+03
1.456740849192771748e+03
-1.307086887894598476e+03
-1.075725399566003375e+02
4.393284400263402858e+03
7.977546202593097405e+03
8.589115041358030794e+03
4.798018233765709738e+03
7.792807060958157308e+02
-1.100817046571765445e+02
9.778861215073860649e+02
-1.006767388400391610e+03
-3.514859603159941344e+03
-3.104329983474934579e+03
-5.701526784286851353e+02
-1.363877294928552431e+02
-4.589447314392930934e+02
4.059188623816538893e+03
6.840043190513139052e+03
6.962579750519455047e+03
7.265767323150364064e+03
7.136647578050054108e+03
5.084242979096685303e+03
3.247607098439904803e+03
6.087476826644091261e+02
-6.242925478651853837e+02
6.056234333366807050e+02
1.784419703197651188e+02
-1.659844815406277576e+03
-3.089243049836330556e+03
-2.279728648473457270e+03
3.167747388425259487e+02
2.315379239849292389e+03
2.495111860637436621e+03
1.384052650377845339e+03
1.306216562887918599e+03
2.171591995497386051e+03
3.151740030794684913e+02
-3.921304499010728364e+02
3.736351483982841728e+02
2.410428311190612931e+03
4.765289433145878320e+03
3.820313057586146442e+03
1.721526132511710557e+03
1.295935835654508537e+03
-1.261365729492780929e+03
-3.056399816728928727e+03
-1.454064926427554155e+03
-8.582902850550900666e+02
-1.538200768695196984e+03
-1.861779642047882817e+03
-2.877976442414661960e+03
-3.687974752717405408e+03
-2.181768709134636993e+03
-3.914109530893409215e+02
7.345433109672777618e+02
9.652765511137190515e+02
1.152823775140531325e+03
-1.139390078463684119e+02
-2.141939556812471437e+03
-3.044176725952590459e+03
-2.929679448321812743e+03
-7.624346426774837937e+02
1.453520525109493747e+03
2.432046120346281896e+03
2.352829066406169716e+02
-4.170570301980354088e+03
-2.511664403872367984e+03
2.053294165328093470e+02
1.307142576037995013e+03
1.585631789997434907e+03
2.202804158638931312e+03
1.836041244996768228e+03
2.751417768390305355e+03
4.776242029602240109e+03
6.205567457876386470e+03
4.376231214928158806e+03
2.270169614618151172e+03
2.869379157456109169e+03
3.625915480955691692e+03
1.087550150061581007e+03
-4.316988755042359003e+02
-4.456146302646596524e+01
1.047872239233510498e+02
-2.245893446245504947e+03
-5.681985900687500362e+03
-5.124821308819928163e+03
-2.050324892305285175e+03
8.649144714341588269e+02
1.453969380365674851e+03
2.714260981416573486e+03
4.415392518770212519e+03
4.655744698881404474e+03
3.299247289985108182e+03
4.010991473289167516e+03
4.697328815279108312e+03
4.383353064828436800e+03
4.280782088305239085e+03
2.820663247956541909e+03
2.044819677706961784e+03
2.553028417217197330e+03
1.624527622017009207e+03
3.122846345885089363e+02
-4.176231267000541720e+02
-2.093159204959533781e+03
-5.308603015969979424e+03
-6.333533936587839889e+03
-7.173118977817726773e+03
-7.385297024125691678e+03
-6.820719743698142338e+03
-6.114846441287620110e+03
-4.289992546097046215e+03
-3.416382140781030103e+03
-4.524248947616963960e+03
-5.232800440764520317e+03
-5.407281392545647577e+03
-3.278271526562884901e+03
-1.954959568644581623e+03
-4.141237959513231885e+02
1.806191120417528737e+03
2.433252729721893502e+03
1.160409663117066202e+03
-1.682471101450095375e+03
-1.831215529223560225e+03
-2.767967303147660459e+03
-4.725516707244745703e+03
-6.539679912216128287e+03
-7.031359692891521263e+03
-7.319321276792545177e+03
-6.996490911704102473e+03
-5.364138050571697931e+03
-4.151974687041460129e+03
-4.056524819808770189e+03
-2.715437605502212591e+03
-1.633661299036749369e+03
-2.246318976223056723e+02
-1.496901055650705985e+03
1.527768460384438640e+02
1.579505082927412332e+03
2.167630011006031054e+03
2.580436235225522978e+03
2.005128641291760914e+03
2.215905206450759124e+03
2.976456254422647362e+03
3.607824970074243083e+03
3.642030812597052318e+03
2.935323112286574542e+03
2.229745205242575139e+03
1.537634679082885896e+03
1.027044506060156664e+03
7.137160565708039712e+02
1.842128485676206310e+03
3.587079110314858553e+03
4.320262784929947884e+03
3.712586557539257683e+03
2.442900129496835689e+03
1.264437548929103059e+03
1.461670295029833824e+03
2.415138473740212703e+03
3.485559851011424144e+03
3.841403667422605395e+03
3.073797572544421200e+03
3.304656220394414049e+03
3.671780174743157204e+03
3.487401585828263705e+03
2.794654202335881109e+03
1.472607793151441911e+03
2.412385198227977128e+02
3.615898605732871829e+02
1.164813484277844282e+03
1.069078511355784258e+03
8.582542028381258206e+02
7.272826152983359407e+02
1.271371731842797544e+03
1.808724134424907561e+03
2.670422706716664834e+03
2.479468797537899718e+03
2.118883360297173112e+03
1.587768371809805103e+03
1.023218653637832972e+03
3.396619659140127396e+02
-5.491716993748023015e+02
-2.847217799620412393e+02
-5.572943343618926519e+02
-3.613552507567267639e+03
-3.128576575513256557e+03
-2.497601640583636708e+03
-2.023153664854116869e+03
-9.117823953477573014e+02
-1.030503580197486372e+03
-1.310250089948921186e+03
-1.449665137202150390e+03
-1.768242274829632379e+03
-1.677967899234987499e+03
-6.143251651625777185e+02
-4.601859898820760577e+02
4.514361968291225224e+01
3.544704377583582300e+02
5.231157432593573731e+02
7.028970182796260815e+02
3.840271215003113525e+02
-6.492946447025485668e+01
-1.011054533468667671e+02
1.405701910291772094e+02
1.959381187945320448e+02
-4.093974921943446361e+02
-8.316044327016342095e+02
-1.263333368971132813e+03
-1.757215885681172949e+03
-1.372391860980909087e+03
-1.682166545467797505e+03
-2.258321674790719044e+03
-1.948507615661039836e+03
-1.597049066546481527e+03
-1.559853603861858346e+03
-1.169813101414312314e+03
3.625260618920327715e+02
1.218873629338765795e+03
8.266284834883960002e+02
6.513505398116048184e+01
-3.205769782783722235e+02
-2.775398422653793773e+02
6.751955572172164466e+02
1.769415201453192594e+03
1.402881576504533541e+03
7.827749568185223552e+02
3.644185261905885795e+02
9.977479294536200882e+01
-2.424530192400953013e+02
-5.510454956469394574e+02
-3.499497951268592715e+02
-4.490974130622174130e+02
-5.175982612083888625e+02
2.891536469479023594e+02
-3.148645672738825283e+02
-1.460533532998487317e+03
-3.284673815676705544e+03
-4.843401075359021888e+03
-6.617552322302868561e+03
-6.213180715676271575e+03
-2.528604361357875405e+03
-1.312805958674956855e+03
-5.639405715187177748e+02
-8.558314502561632935e+02
-1.702974310549207360e+02
3.125622359525401066e+02
-2.901663041153097993e+02
6.793082824121594285e+02
1.371850555502266616e+03
7.035041666478895195e+02
4.633073448646628094e+02
1.120267529032135371e+03
1.353648917977259771e+03
1.733120789879906624e+03
2.271310021012044672e+03
2.549250092487687198e+03
2.719216102985742054e+03
2.426265568841247841e+03
2.122250856105670664e+03
1.869321332497810999e+03
1.659227856400541668e+03
2.061644348685505975e+03
1.999480363241697660e+03
1.673982102874018665e+03
9.224677428887472388e+02
-1.230292558179763773e+02
-6.816777715707247580e+02
-9.327058138599725226e+02
-3.639255550539298270e+02
2.577509842189357983e+02
4.621809183090650208e+02
4.131725351914298017e+02
5.978045659061045853e+02
1.107078086519387853e+03
1.947629423525809898e+03
2.205536536916189561e+03
1.916917307047294571e+03
1.523747565763553666e+03
5.360478694991371640e+02
1.739422148775514643e+02
-4.895557298701831428e+02
-1.088363972941725933e+03
-7.595586779443164005e+02
-9.122962759692404688e+02
-8.934676831292683801e+02
-1.348894147699988935e+03
-2.087551192217457356e+03
-2.129687783873403532e+03
-1.076564206354306862e+03
-7.220323516682775278e+01
9.245698296711265129e+02
2.050887307002291891e+03
2.901704566171834358e+03
4.019873011987401696e+03
4.167632583760624584e+03
4.322953814478662025e+03
4.267724120244496589e+03
3.872818123963884773e+03
3.357158713525527673e+03
3.073983212610987266e+03
2.681363009920124114e+03
2.604240944515315732e+03
2.308829595128921028e+03
2.221094019350183316e+03
2.531758218545003274e+03
1.828919312996053577e+03
8.126963301188674222e+02
8.970414340699373952e+02
2.781066636532963798e+02
-2.192149086161607102e+03
-5.410920181691059952e+03
-5.296274033323901676e+03
-5.018069472331904763e+03
-4.829299067045302763e+03
-5.057968184775842019e+03
-4.165905843595026454e+03
-4.432009157909287751e+03
-4.942303429377014254e+03
-5.471828407754266664e+03
-5.579800716959117381e+03
-5.215294230986913135e+03
-5.070224266437999177e+03
-3.826308041754342867e+03
-2.552848418019987662e+02
2.548452057486812919e+03
3.590776010925965693e+03
2.428789079148659766e+03
-2.387485352236279141e+03
-4.820037302109351003e+03
-4.635753312731033475e+03
-4.606743417856646374e+03
-4.313080609273851223e+03
-3.737692337525962557e+03
-3.436342534862125831e+03
-3.342902009649079901e+03
-2.925525558844130501e+03
-2.864211239818042486e+03
-2.852684804788316796e+03
-2.765937680327076578e+03
-2.289072371525251128e+03
-1.961101745719884946e+02
1.656174557109948410e+03
2.671945959050563943e+03
3.550955642855946735e+03
3.246991090114949202e+03
2.591019111109407731e+03
1.518231828528104415e+03
5.225583648609131160e+02
2.529048286995027865e+02
1.241675284729661399e+01
7.822995201854706693e+01
5.032455001241164609e+02
1.320481868815278858e+03
1.983097713516015119e+03
2.397096842673604442e+03
2.465615810766653794e+03
1.952761772389726048e+03
1.762445787642383721e+03
1.819681269798942594e+03
2.091495408165983463e+03
1.697840642232271193e+03
8.757817974309538158e+02
9.625176103813709005e+02
1.822082030033111550e+03
1.665629617417410827e+03
1.676066138892883373e+03
1.653426890090216375e+03
6.986953201461938079e+02
1.997601857821257738e+02
9.046887232238128718e+02
2.013555688359601163e+03
2.760439414307574680e+03
1.824349441316489447e+03
1.590203424227754851e+02
2.003412695516422446e+03
3.039541081765216859e+03
2.883415105567456067e+03
2.925145522438801436e+03
2.857613243198647524e+03
2.489189166573585680e+03
2.548941545378272622e+03
2.511622508792495864e+03
2.320999060127275698e+03
2.219204497374501443e+03
1.902401942004765488e+03
1.578625779150938797e+03
1.147842119823568510e+03
6.888769734077429803e+02
4.357031109788995309e+02
3.093820351692815507e+02
2.658012687934954670e+02
-9.100914306301226020e+01
-8.910154375124818671e+01
1.498898293490400988e+02
3.487214196328572484e+02
5.572486292355569049e+02
2.763851884142387689e+02
9.080689698409246375e+02
2.103373350647221287e+03
2.216247243011565388e+03
1.714575564347646150e+03
1.480297011184761459e+03
1.343430407656230500e+03
1.247039947278164618e+03
7.231160418224820887e+02
2.446750992468573145e+02
3.017388431554286967e+02
1.602459115410942161e+02
6.406341204023672731e+01
-8.691960594418026176e+01
-1.996682621428871300e+02
-4.970526288967254231e+02
-1.629891691837693202e+02
6.104879674887896499e+02
1.301330960687652350e+03
1.045440463463933838e+03
1.558766356270003598e+03
1.924354319440727068e+03
1.551289749177992917e+03
1.307451371379449483e+03
1.105714770672414488e+03
8.701540491810579852e+02
7.808262545884836072e+02
8.447624378736927611e+02
1.919652636869789148e+02
-5.606671101785997280e+02
-9.162255224260194382e+02
-1.622670131394072087e+03
-2.257963990962479329e+03
-2.727138879113306302e+03
-4.653288889271187145e+03
-6.340433205517094393e+03
-7.139599261563136679e+03
-6.684757324436111958e+03
-5.960849608334611730e+03
-5.775765563690975796e+03
-5.378549387295299312e+03
-5.081365720059449814e+03
-5.236885114663467903e+03
-5.405326134138607813e+03
-4.983762224950060045e+03
-4.327944096361779884e+03
-3.674120809177320098e+03
-2.915366571147088507e+03
-1.872635745113740541e+03
7.110197787118448787e+02
1.576668589349369313e+03
1.573236042022603215e+03
1.383677089945394755e+03
1.525998554685006184e+03
1.551180951184527657e+03
1.695148233205754195e+03
2.022025385929754066e+03
2.435804727182799070e+03
2.933492872452594838e+03
2.849072097879485682e+03
2.820535480106713749e+03
2.438871562200417884e+03
2.046114820545419434e+03
