-1.924756047149151345e+04
-1.466293901518928760e+04
-1.178690925132207849e+04
-1.422625662582498262e+04
-1.608772975060384306e+04
-1.433605728340300811e+04
-1.310107711587125232e+04
-1.617167936457050564e+04
-1.948857841543464747e+04
-1.433149123402959412e+04
-2.870131594482606943e+03
9.836748251376067856e+03
1.864332396088151290e+04
2.891685979009415314e+04
2.739872813299630434e+04
1.438814791696667817e+04
2.615360500622529344e+03
-3.462368181196330170e+03
-3.947807451103264157e+03
-7.819764960202784096e+03
-1.436302707701785766e+04
-1.517128931269482382e+04
-1.301990626123358561e+04
-8.403471884128402962e+03
8.512535433744849342e+02
5.721788275601838905e+03
1.144859288008910335e+04
1.439004595801135110e+04
1.089414949658316436e+04
6.242183553722322358e+03
6.444384466064213484e+03
8.389031243070841811e+03
9.826320155437948415e+03
1.275948342229398804e+04
1.439901251620738367e+04
1.202844126893823341e+04
1.044063433753592471e+04
1.274872678031922260e+04
1.059913804030844767e+04
9.349125166922989592e+03
1.003068372933966930e+04
7.466893740923654150e+03
3.762317771785087189e+03
-1.374877612091312585e+03
-1.034771754027475981e+04
-1.356409652434013151e+04
-7.808744543336186325e+03
2.815542556914218153e+02
1.836892160440813541e+03
-1.823497994780464069e+03
-1.086352045478532318e+03
5.898517020833678544e+03
9.559344118074915968e+03
1.142633640087898675e+04
1.279772073680045287e+04
1.378268022986430515e+04
1.599336879813509950e+04
1.433896515170774546e+04
9.105575853486636333e+03
4.900356958661987846e+03
2.477199992678501328e+00
-6.048993149772670222e+03
-1.073288860296892926e+04
-1.116309900469084096e+04
-4.768535812508873278e+03
-5.731736325285278326e+02
-2.336889100661568136e+03
-7.159595132241358442e+03
-8.438246961985229063e+03
-2.901830903386382943e+03
2.168723113171600289e+03
3.823524416389237103e+03
7.873587494831811455e+03
1.643798025690873692e+04
1.233664281847641541e+04
6.529567545191773206e+03
3.267777572691698879e+03
-2.738709985916831101e+03
-2.238864547784124170e+03
7.226275593769382795e+03
1.391369770094618434e+04
1.825040093488133789e+04
1.909234938526018595e+04
1.612148417380996216e+04
1.424471145842406622e+04
1.386492543289240712e+04
8.673053889390817858e+03
3.170000190247382307e+03
2.719678439945763330e+03
4.001019277866770807e+01
-3.413146521131966438e+03
-3.226952020098497997e+03
4.446153983519415078e+02
6.163554094642787277e+03
2.008671196441406437e+03
9.487207304177787819e+02
9.866279563668699666e+02
-1.255854645289872678e+03
-5.543840502944544824e+03
-7.670470825598575175e+03
-3.791896169686208395e+03
-8.192558750177248612e+02
-1.687681660231177716e+02
-1.868608876653756397e+03
-5.135998082320502363e+03
-3.507134567944120136e+03
1.217735842931438128e+02
-5.055412283246089942e+02
-3.134232446652864382e+03
-2.328510166699899401e+03
-9.735851972462779713e+02
-2.779623131416592059e+03
-6.256807056283095335e+03
-6.638395753432907441e+03
-4.308582459333838415e+03
-3.315577207624764924e+03
-4.899615596568036381e+03
-7.623965410171671465e+03
-9.763866317736865312e+03
-9.561520801784172363e+03
-8.234078089370457747e+03
-7.318750851330393743e+03
-7.794809312267785572e+03
-5.283615658307186095e+03
-2.039403422176433196e+03
-2.864395085140123683e+03
-5.364774977676582239e+03
-5.329817213650920166e+03
-6.957683787675343410e+03
-7.757648176916854027e+03
-7.146018954084224788e+03
-7.310992919714018171e+03
-6.544785830506447383e+03
-5.276557643594505862e+03
-3.733484608839025896e+03
-4.788001072738580888e+02
-1.875673349410324590e+03
-4.911213223476595886e+03
-5.874725811143407554e+03
-5.082447319406146562e+03
-2.595573470977858960e+03
-2.076304803082850412e+03
9.261043073956823264e+02
4.199360799085886356e+03
5.023330009704198346e+03
2.729896204359602507e+03
7.888980029539226280e+02
-1.748859487229550723e+03
-4.784593785294234294e+03
-6.843495288849394456e+03
-6.906663978348783530e+03
-6.599100736548338318e+03
-5.027051806822996696e+03
-3.069669473758119693e+03
3.699063351096212671e+01
2.678807017959929908e+03
4.449553462786849195e+03
5.642112723276215547e+03
6.713396145394131054e+03
3.166341817395311864e+03
-5.951957289039682109e+03
-9.232542298739537728e+03
-1.219721875380821388e+02
1.418811412512374091e+03
-3.666237904066715600e+03
-7.982587810140886404e+02
-4.604264547912224771e+03
-6.349341322482451687e+03
1.278486835835934926e+03
1.543054194296884816e+03
8.093727325477177601e+02
1.624904199416653796e+02
-5.236708446861986886e+03
-5.477253155432080348e+03
-1.583150582461189742e+03
-6.315446948351222090e+03
-5.694153349076221275e+03
1.277915034948808142e+02
8.814422006796820597e+02
-1.137241566231126399e+03
3.052728481843269037e+03
-3.455984975078700359e+02
1.983797047740412381e+03
1.058957197558737562e+03
6.535916781192669077e+03
1.676567055433681389e+03
-2.926096563934739606e+03
8.960458191162175581e+02
-2.641973084482768627e+03
-1.115172715680171223e+03
1.012410396910572672e+03
-1.123115699886743641e+03
-2.028608216871889681e+03
-1.567970034126356950e+03
-1.499085699845301178e+03
7.201203350462019444e+02
-1.943487207129170713e+02
5.164669089053318203e+03
5.891284398180959215e+03
6.218545780855913108e+03
6.848590892706298291e+03
6.760520635813045374e+03
6.701403732137324369e+03
5.900321465987731244e+03
5.227367472064771391e+03
4.677690733891210584e+03
4.343405428794901127e+03
4.254464567128135059e+03
4.069983984811326536e+03
3.569119638427417613e+03
3.063829767008478484e+03
3.686118662379342368e+03
3.618045727643476766e+03
2.859099631854163363e+03
2.324423062965683584e+03
1.608041043283536283e+03
1.816272156507221780e+03
2.716270898072725231e+03
4.253105164770978263e+03
4.569863710323669693e+03
4.776539094723133530e+03
5.270303168030288361e+03
5.707459143695037710e+03
4.165217959246592727e+03
2.765547399922550085e+03
2.579057940628527831e+03
1.904495709311330984e+03
9.781912409018594872e+02
1.142314062901492207e+03
1.215426111535985228e+03
6.067763249586062102e+02
2.084344416215309934e+02
7.259650924006895139e+02
1.293563773567570024e+03
1.956666718032900235e+03
2.202942610825426527e+03
2.648375020332497570e+03
3.106636284496913959e+03
3.845585862967287085e+03
3.463055767550225028e+03
2.148837555512619474e+03
9.184259186969667326e+02
3.591005923235121031e+02
-1.517100081640044777e+02
-1.646376923022696246e+03
-2.562977504242307532e+03
-2.214512594557703778e+03
-1.609160534601946438e+03
-2.001567108122902425e+02
1.228464599784035499e+03
2.626584534552519472e+03
4.024403665247662047e+03
4.378048427176024234e+03
4.232269622523602266e+03
3.227244493838388735e+03
2.638443377789044462e+03
2.381137393621033880e+03
1.939989024989229847e+03
1.359490605722767668e+03
8.496739540577581238e+02
1.046944085394032754e+03
1.516293103661997293e+03
1.673428686172145490e+03
1.227405959612621245e+03
1.004553140522977856e+03
5.168921285971237012e+02
5.317337421084037032e+02
1.156389274968209293e+03
1.185500809776983260e+03
9.481599312490360489e+02
1.277023416278919058e+03
1.781920836114322356e+03
2.165942318368421638e+03
2.366298598633658457e+03
2.386748194401755882e+03
9.669303471219620860e+02
-2.759895872755799701e+03
-8.165380658153201693e+03
-9.316898877280280431e+03
-8.936789719692504150e+03
-9.052287120210779904e+03
-9.249942173805548009e+03
-9.237559841464484634e+03
-9.300321798184952058e+03
-8.842154005524163949e+03
-8.813502726439006437e+03
-9.511185136334708659e+03
-9.515625575582695092e+03
-1.000892667045014605e+04
-1.109906510883581541e+04
-1.122825063619152752e+04
-6.268335989516439440e+03
-6.865009990348372412e+03
-8.973285834459087710e+03
-8.523465844568867396e+03
-8.056163310097980684e+03
-7.354318419344458562e+03
-3.830050443450043076e+03
4.048824182262260933e+02
3.773619601501016405e+03
4.580402662128042721e+03
4.760631556851638379e+03
5.009034366648487776e+03
5.312867191311940587e+03
4.640808226832018590e+03
3.723287366942016888e+03
3.041683169793130673e+03
2.046725189106984999e+03
1.453872510187111857e+03
7.933492346324528626e+02
7.182427396813565110e+02
1.167577495827069470e+03
1.556445705182100710e+03
2.146731378972795483e+03
2.022801817326045921e+03
2.102986026454505463e+03
2.766394242546057285e+03
2.163252530653706344e+03
1.882751517472718660e+03
2.077904325877924293e+03
2.490446165359065162e+03
1.940867975086983506e+03
1.894240110667801673e+03
2.145072538809225534e+03
2.164764570997666397e+03
1.557108779357703042e+03
1.310527184191746983e+03
1.100959482527559658e+03
1.084642970173785898e+03
1.731368498024054588e+03
1.680739912502454445e+03
1.542752592313623154e+03
1.391703869148869671e+03
1.355552859834510627e+03
1.614682917598366203e+03
1.409714402515923211e+03
9.458920971292035347e+02
7.573323801965782422e+02
1.100212834821494880e+03
1.234760821353339679e+03
1.407337530218120719e+03
1.124854181150544036e+03
9.662243113254912714e+02
2.798599516879283442e+02
-6.727412719314489777e+02
-8.596075281238170192e+02
-1.511510010663627099e+03
-2.759340005578299042e+03
-3.680272054390139147e+03
-2.908529265103230955e+03
-1.870002141404753957e+03
-1.293046991990591323e+03
-1.421460617751152711e+02
-3.204105647015939553e+02
-8.845495018318363236e+02
-7.482424123702359111e+02
-5.976013330565301658e+02
-3.340806955015416406e+02
1.613878182191641883e+02
1.591845058043793948e+01
-7.932214580924171798e+01
-1.570920061064857123e+02
-6.236782092969413043e+02
-1.732264141184316486e+03
-2.142481466439946871e+03
-2.245178961895370321e+03
-2.818632070505061620e+03
-3.048876612039043266e+03
-2.640645554103041377e+03
-2.513743487789790834e+03
-2.274346216909937539e+03
-1.240669611042945235e+03
-4.696587313671770971e+02
-3.940854210706951335e+02
-4.898287329723946186e+02
-6.818177020666033741e+02
-3.461814877080493034e+02
-5.804196909006590488e+01
1.506158214770743768e+02
-3.609878665523459773e+01
1.285172084905056522e+02
-3.996798150572079749e+02
-5.134099140758694375e+02
-8.775053126280600964e+02
8.125483278936589393e-01
4.726323794520611727e+02
1.309443977253755520e+02
-3.194092846210374432e+02
-1.174430763055243460e+03
-1.326252473872969631e+03
-1.363009167844283638e+03
-1.308748282342383391e+03
-1.026674224340338242e+03
-1.114229072420218927e+02
3.960952744426405729e+02
5.867441481565423373e+02
8.684460915785648467e+02
1.083022380372048701e+03
1.087572063071910407e+03
5.677190069238760088e+02
4.282854329994749492e+02
5.313173061219190458e+02
6.700457595836338669e+02
7.654809914890447544e+02
3.536477326309391174e+02
-6.104359346266849116e+02
-1.858911249944182828e+03
-2.055966085986955932e+03
-1.985619617445637004e+03
-2.009105459754208141e+03
-6.566514907396478975e+02
8.605627858171519620e+02
7.685220552448955686e+02
5.092558828644674236e+02
4.526513730427965356e+02
9.916250891368954399e+02
2.077226501836821626e+03
1.964250980190111477e+03
2.595644868144510383e+03
3.270296266747368009e+03
3.593225055848080046e+03
3.020039599601514055e+03
2.984353605539572527e+03
2.970549260176668668e+03
2.759328513261470562e+03
2.170348334489332956e+03
1.718120537312901888e+03
1.724372410470061823e+03
1.541460800533938482e+03
1.134717733514123665e+03
7.548146562993919133e+02
5.182016760635227683e+02
5.938443039097179508e+02
1.400218079883196424e+03
2.243567510394511828e+03
2.452445044267559297e+03
2.634349777133169937e+03
2.850942397982582406e+03
2.937612493262560292e+03
3.253102788005998264e+03
3.762614174195435680e+03
3.693963713994584396e+03
3.198362532561560329e+03
3.303880506169139153e+03
3.770851612559536079e+03
3.728885810170654167e+03
2.687784717559716228e+03
1.825118932630864492e+03
1.617265682036609178e+03
1.320821114731301122e+03
1.419973034945802738e+03
2.029149980807521160e+03
1.725460313287909912e+03
2.028387798787273596e+03
2.674150779974664147e+03
2.693903065896475255e+03
3.155592442144819870e+03
3.498165519247554130e+03
3.299624907532229372e+03
2.822897221623635687e+03
2.177018680372402741e+03
1.834007543276334218e+03
1.920872522373764014e+03
2.152571972523744989e+03
2.357021933097947567e+03
2.293196393932576029e+03
-1.086351756545036551e+01
-3.869203524421773636e+03
-9.042908990411751802e+03
-9.599984598610266403e+03
-9.442389885558970491e+03
-1.006913080730767433e+04
-9.165156288663953092e+03
-8.839528879731593406e+03
-8.902302323011093904e+03
-8.180533588518973374e+03
-8.136139975453322222e+03
-7.212105147987610508e+03
-5.634439385544053948e+03
-3.122180493304420452e+03
-4.810015721234533885e+03
-4.957921859874441907e+03
-8.670328809684541511e+02
-3.238301977822621666e+03
-7.043593094003919759e+03
-6.693002915920222222e+03
-6.300512676001832006e+03
-7.041049824193689346e+03
-7.533589199128416112e+03
-7.339199618494740207e+03
-6.869843368028641635e+03
-6.500565392078736295e+03
-6.336260843730002307e+03
-6.140862769339990336e+03
-5.421358030238225183e+03
-5.065729901055512528e+03
-2.883773725302688035e+03
1.797660919136279290e+03
-1.927317436760803957e+03
-4.888733845113661118e+03
-4.056544613257036872e+03
-3.918603515402968696e+03
-3.311899761945905539e+03
3.748482233967165939e+03
5.608560529710590345e+03
5.839326503109853547e+03
4.938802258450085901e+03
4.547979419542105461e+03
4.431908830822249001e+03
4.545729427541104997e+03
4.183497530177905901e+03
3.773350602869724298e+03
3.787354326191070413e+03
4.098591027178457807e+03
4.294168133926877090e+03
4.240173390656840638e+03
4.171735141983032008e+03
4.069849126854348015e+03
3.879589130070433839e+03
4.450044142571185148e+03
4.979336490712691557e+03
4.942477335194270381e+03
4.965510525547724683e+03
4.801466502184001001e+03
4.538383536796181943e+03
4.379349857262042860e+03
3.644432354270580618e+03
2.614649763926014202e+03
1.862025621661300875e+03
1.631664713415847700e+03
1.668582188242457732e+03
1.945801541034760021e+03
1.736428289660048677e+03
2.174708431577721967e+03
2.923118694139040599e+03
2.750759183559820030e+03
3.178606339306182235e+03
3.234797973106217796e+03
3.437415986669294853e+03
3.693398329015024956e+03
3.265767457091988490e+03
3.408547551826469316e+03
3.736805024060500728e+03
2.816698341118152712e+03
2.440196830753561699e+03
2.204302735348920123e+03
1.123155214499641488e+03
1.002967472797733649e+03
5.959987770391237518e+02
3.133081558713382364e+01
-7.365362258496594450e+02
-1.300699634369276282e+03
-8.241563853326769049e+02
-2.887272521341100884e+01
3.569748611786761217e+02
4.512869849278976062e+02
9.664643223508670644e+02
8.392773209132267311e+02
1.309516414459610587e+03
1.524143226436711302e+03
1.683115987989559017e+03
1.976536505009836219e+03
1.379454371962606729e+03
9.478615209113536366e+02
4.448114589582074245e+02
5.323073368202017264e+02
2.903669417183683095e+02
-2.100726168856295430e+02
-9.107683972028360131e+01
-2.986801748662263662e+02
-7.389589932795284710e+01
-6.667234317901362601e+02
-6.351719359027696328e+02
1.472837508432370335e+01
1.620634931248619353e+02
-6.203036543988127427e+00
-5.030966581630424912e+02
-4.146506447785681644e+02
-7.247987633634855911e+02
-6.626483018069927766e+02
2.097763833032602747e+02
8.534597916564049456e+02
1.053419980990592876e+03
8.766197339010063843e+02
5.740208198130476376e+02
-8.440572561554557041e+00
-2.888347717837380628e+02
-6.561601699692329248e+02
-1.041469649602676782e+03
-1.407818735629705316e+03
-1.564237059669536166e+03
-1.491776218999799084e+03
-1.508455507714531450e+03
-1.381254104255682478e+03
-5.111793914836354134e+02
-1.803186044521702911e+02
-5.965119559637522428e+01
-1.630232505383247599e+03
-4.514101151047055282e+03
-9.512309052917289591e+03
-1.158890769910375457e+04
-1.071391774425819494e+04
-1.011332507415056716e+04
-1.039414872560839649e+04
-1.046540042713683215e+04
-1.006113608528365148e+04
-4.924559747865090685e+03
-6.067959758501698388e+02
-6.983199096350487878e+01
-5.927732581993311669e+02
-5.905519783084658911e+02
1.827772749175487661e+02
4.730998391246038182e+02
7.704456453442013526e+02
1.640783795492129912e+03
1.820026096155108917e+03
1.148182915247140954e+03
8.202243899774106239e+02
1.097109938743372140e+03
1.431827374233921546e+03
2.474409789549719335e+03
2.902816748841888511e+03
2.733945493586423709e+03
2.644792993619625577e+03
2.496280029497169380e+03
2.230358173953834466e+03
2.070989515147627117e+03
1.933114734752029108e+03
1.397620891640368654e+03
9.064778240467722981e+02
1.268590332060158588e+01
-1.957892604330737072e+02
4.407342940582604740e+01
1.392338115099922504e+02
4.386808968539717171e+02
1.031384578236198649e+03
1.310372740046967692e+03
1.441626232619829352e+03
1.630184873620422195e+03
2.152991643214420492e+03
2.379024204176288549e+03
2.151162616112950673e+03
2.658445652907543717e+03
2.986923290557482233e+03
3.000584296512141464e+03
2.695475627247539705e+03
1.687538588195271814e+03
9.277412979027291158e+02
1.330808871821440675e+02
-5.547267190777665746e+01
-9.739526230135620608e+02
-1.804368899269154099e+03
-1.398726163793385012e+03
-3.970082049679125475e+02
1.259781602056071051e+03
1.964672136027301121e+03
2.248756794106016969e+03
1.836008975432261195e+03
1.655455887121439901e+03
2.117128153008510708e+03
2.545020389761254592e+03
2.825171426748443537e+03
2.371660246020374871e+03
1.932546439506459365e+03
2.522775968968383950e+03
2.576330472483869926e+03
1.259225895919624691e+03
-2.464846580812068666e+01
-6.053198288339340252e+02
-2.866901711668580788e+02
-7.917028618592255498e+02
-1.517347918272640754e+03
-6.469577458781473069e+03
-8.521488493594104511e+03
-6.125919263347945162e+03
-3.234909582024541578e+03
-5.211446926817305211e+03
-5.906468952913322028e+03
-2.640881249459318042e+03
5.473705581953552155e+02
2.966328150312226626e+03
-9.179961237952098827e+02
-4.577574699732716908e+03
1.281626861892500074e+03
3.895939386369053068e+02
-1.133635724998849128e+03
-1.769974303382507969e+03
-4.302410149517253558e+03
-2.268938339837996864e+03
-7.255155977454169260e+02
-1.815208185501596290e+03
1.188976084002615153e+03
-4.640902064738428635e+03
-8.770764556607222403e+03
-1.214553036651708908e+03
-2.549200818059546691e+03
-3.865725480895663623e+03
7.348529889597238025e+02
-1.010396946185359525e+03
-2.456384243514719401e+03
-3.687140256828470683e+03
-3.790709571617039273e+03
-4.410115422627151816e+02
-2.989191224767985773e+02
1.424566315841897676e+03
-5.045611367398193465e+02
2.100692201146467596e+03
-2.530684105090604589e+03
-3.384705733138520372e+03
-2.927057387220382978e+01
1.367568129478275523e+03
1.709761253662900572e+03
1.693348062338298178e+03
1.950323765459422020e+03
2.118791804335716279e+03
1.767792301663315357e+03
1.331321751080344029e+03
1.394390851422672313e+03
1.972080918241874542e+03
2.606403178689091419e+03
2.764273764343837684e+03
2.756647402890807825e+03
3.177570149738999135e+03
3.151227976874422893e+03
3.396781272843985789e+03
3.126458129235149045e+03
2.601996469088470803e+03
2.005245666120086071e+03
1.662262738203377467e+03
1.318899593798503702e+03
1.043200547573816038e+03
9.011440843125413949e+02
7.266480836500670648e+02
5.607685562807735096e+02
4.563866878178308184e+02
-3.786923368923717135e+02
4.622995243340915863e+02
1.345073504521899395e+03
1.374548986534450933e+03
1.091280445122013589e+03
1.855574434192128138e+03
2.189620250708753247e+03
2.435059591287713829e+03
2.534061694794361756e+03
2.669667125642848987e+03
2.417648201004046769e+03
2.354019004499947187e+03
1.348395200921574769e+03
6.551811887493242921e+02
4.484183494258863902e+02
-1.382053803047043061e+02
-8.484339873508686196e+02
-7.127345800914604297e+02
-3.930907763561100410e+02
5.768825804754822002e+02
1.204439097172867605e+03
1.786130977442614494e+03
2.485565049109225583e+03
3.067192222932128061e+03
3.149789231052519426e+03
3.152269707970469426e+03
3.426438959901342969e+03
3.708196093788704729e+03
3.463523063669435032e+03
3.412338369219456126e+03
3.532592648026943152e+03
3.028241816726380875e+03
2.276261290076293790e+03
1.529637211039128715e+03
1.043284762790162858e+03
6.891287531868424594e+02
2.131174196839655508e+02
4.092675169039194998e+02
3.695880006135907365e+02
8.250439597107169902e+02
1.472640460594462638e+03
2.395296064744316027e+03
2.934028668296478827e+03
2.896901524596302806e+03
2.837897161579408930e+03
3.165006146052588520e+03
3.354196596655085614e+03
3.302458265213325376e+03
3.236809644358871537e+03
2.892281855041744620e+03
3.056856763596039855e+03
2.444467672328672506e+03
8.951034998317049940e+02
-2.360336376980761543e+03
-7.329852132866220927e+03
-1.098953154942396213e+04
-1.126239265598864404e+04
-1.117329320062457009e+04
-1.037226616367171300e+04
-9.049284809635690181e+03
-8.786374924453193671e+03
-8.931551692380566237e+03
-8.801727600645524944e+03
-8.742961105515178133e+03
-7.900249157865114285e+03
-7.167463965460408872e+03
-7.384605898373992204e+03
-7.066808425613581676e+03
-3.057041936791573335e+03
-2.640328415067893729e+03
-7.056634836538782110e+03
-7.987838765423983205e+03
-8.345900361884641825e+03
-8.976771043022907179e+03
-9.195430988221978623e+03
-8.521865252856890947e+03
-7.426160705895635147e+03
-1.933544515487708395e+02
3.279575518815255236e+03
3.935732722579953133e+03
4.203060082467980465e+03
3.944550815387496186e+03
3.824305316541595403e+03
3.796554925247694882e+03
3.621370568656090200e+03
3.554672869043087303e+03
3.756427908099414253e+03
4.069704191740853275e+03
4.198661951308478820e+03
4.176257610595920596e+03
3.836336799234940827e+03
3.740057656874533677e+03
3.053484446293060500e+03
2.452559789819659727e+03
2.227130945479621914e+03
1.997287486266090809e+03
1.659201432009815335e+03
1.664935715387366372e+03
1.833501252925354947e+03
2.239769018489745122e+03
2.029707195383248973e+03
2.151319039141857047e+03
2.257730988394157976e+03
2.276275254749737542e+03
2.484404507024680242e+03
2.635123738417208187e+03
2.567034089293777470e+03
2.805856542152081602e+03
2.954033957928371365e+03
2.774987750707809028e+03
2.213857911775969114e+03
1.712219473565862472e+03
1.240992190570841558e+03
3.940164727135926910e+02
-2.152810060706475213e+02
-3.051185204651742424e+02
-4.723784786462551892e+02
6.111909387701668095e+01
6.523779266839476350e+02
9.462347566063731392e+02
1.283087957762906171e+03
8.792765267662523456e+02
1.527671680131547873e+02
7.925976665881498775e+02
1.361092996662323230e+03
1.644367900689285989e+03
1.936059142853908725e+03
1.932717587981813267e+03
1.372401821811064337e+03
1.238141466072256890e+03
1.106603824810543301e+03
1.226960587067031383e+03
6.827685526649999019e+02
-3.265971828438739522e+02
-4.953452830857626168e+02
-3.468959419162314362e+02
-4.547066081433623594e+02
-5.166475635864425158e+02
-4.184875242571593503e+02
-3.073850089140684076e+02
-2.925309372577089562e+02
-1.879821576993201404e+02
4.930223644288041669e+02
7.003583059714143246e+02
8.374801145477240425e+02
6.630145219814722850e+02
1.014441998983977896e+03
1.185188672864341925e+03
1.213557616269143182e+03
1.165429209418068922e+03
1.081709583238168307e+03
7.331090130607462925e+02
-2.874477350169884460e+01
-4.858707097654093445e+02
-6.910007117412797015e+02
-7.479901762000355347e+02
-9.749501330913839183e+02
-1.023410459196680222e+03
-7.020638436485359080e+02
-2.981166935570133774e+02
-3.636784114430991810e+00
-9.665784119847816669e+01
-2.913273795906413284e+02
-6.613592012784280882e+01
1.942507894923810454e+02
2.462744257682874434e+02
4.521689209939832494e+02
6.009138230259196689e+02
5.022742544857434268e+02
4.930886874694047606e+02
3.819260268234555724e+02
6.635602564489330462e+02
6.118925021784655200e+02
1.719864025351376995e+02
-5.524851104952143288e+01
-4.985995247845120275e+02
-9.783155355233595856e+02
-1.045620441669114598e+03
-1.348778387822818104e+03
-1.244747864830235130e+03
-7.733044784950748181e+02
-4.632132561426631696e+02
-3.417451810296302597e+02
-9.615264684137964935e+01
1.998013743151934989e+02
5.305099031195301222e+02
7.237376653124611039e+02
8.442787600058644557e+02
8.682637526541205943e+02
8.209711575299124888e+02
2.490673466622952503e+02
-2.476278368574790534e+02
-9.207092185340965216e+02
-7.019791187356588580e+02
-1.363877779258758210e+03
-1.469982624125860184e+03
-1.681670257919121696e+03
-1.956652136451936258e+03
-2.091601845179133306e+03
-2.396551408408349289e+03
-1.922858765449802831e+03
-1.130332067588889231e+03
-6.330446107030036273e+02
-5.854529856852079774e+02
-4.631525576099391515e+02
-5.079348424503538695e+02
-6.983676457679042642e+02
-4.380688765833202751e+02
-4.538536412457086158e+02
-7.640749937830495355e+02
-6.242133957651476521e+02
-8.756951591438255491e+02
-1.456058984862204397e+03
-2.321642714950657592e+03
-2.704824452385630593e+03
-2.676545881832063060e+03
-2.188746832943014397e+03
-1.909763223138390458e+03
-1.906476292079776158e+03
-1.894113327140313913e+03
-1.502953033882261025e+03
-1.205062785669783125e+03
-1.341419244403022503e+03
-1.205816646673542436e+03
-8.092896910674037372e+02
-7.205553007422422525e+02
-4.033739562960163880e+02
-5.454762118327446387e+02
-7.282271748231620450e+02
-7.576825483719921976e+02
-5.303201639569698500e+02
-5.510331543371431735e+02
-9.803878188713188138e+02
-1.784170792403055202e+03
-2.518098402878989873e+03
-2.144927600785241339e+03
-1.836748865528156784e+03
-2.061894515293602581e+03
-2.695385814031870268e+03
-2.231146341077939724e+03
-1.091206126400263884e+03
-6.944292354623946721e+02
-8.556326674006976418e+02
-6.977172763694785544e+02
-6.826242714470256487e+02
-9.843343061968108714e+02
-8.076907576138984268e+02
1.240610338180142378e+02
4.500676277978135431e+01
8.368178279215577220e+00
-2.108235744312398481e+02
-8.853256685545110827e+01
-4.099291745931799937e+02
-7.820297026902803736e+02
-8.306827347273250552e+02
-1.210857108321680926e+03
-3.173782634560879615e+03
-7.202169390347718036e+03
-6.384129832668460949e+03
-4.747703560407391706e+03
-3.436638047600364189e+03
-4.070902905056356758e+03
-4.368034725043296021e+03
-5.452219494606750231e+03
-3.833318479524744816e+03
-2.094408972560540860e+03
-2.691520516603026863e+03
-2.090724462410711112e+03
-6.154992851528944811e+03
-5.035158468471641754e+03
-2.689294770400937523e+03
-3.717584627302074750e+03
-6.794791317330914637e+01
-2.014594728001583462e+03
-1.356908432174871905e+03
-5.242958470300059162e+03
-8.676627000365500635e+02
-1.489960511852794980e+03
-3.615027845495210386e+03
1.037425026314846690e+02
2.780238548855864337e+03
-7.435595328984521757e+02
2.384364430838981662e+03
3.823105642612362317e+03
4.443590258096286561e+03
4.856486059483298050e+03
5.323633145172750119e+03
5.962018715761556450e+03
6.257479138262944616e+03
6.673716716472290500e+03
6.792550025654831188e+03
6.619940922984746976e+03
5.950888055773143606e+03
5.421283001777812387e+03
5.171883578327640862e+03
4.593623351264322082e+03
4.080301114502825840e+03
3.432649124945772655e+03
3.245428444326967565e+03
3.614482477407655097e+03
4.144688787233337280e+03
4.689942373917864643e+03
4.970134586917041815e+03
5.449112426350073292e+03
5.747750503759386447e+03
6.181927199400153768e+03
6.714283702386599543e+03
7.052558740025986481e+03
7.777731965619154835e+03
7.713785127525570715e+03
7.214667364774462840e+03
6.158412614160769408e+03
5.135881740742162037e+03
4.991042910974815641e+03
5.076670558691226688e+03
5.242508679219246915e+03
5.278368629869984943e+03
5.205103863636896676e+03
5.546640640225700736e+03
5.678798255616236020e+03
6.103601615129649872e+03
6.928579585418447095e+03
8.327673909422943325e+03
8.136911499049445410e+03
7.029199492143135103e+03
6.039157493634173079e+03
4.659952167093942990e+03
4.155228304745870446e+03
3.441955301006238642e+03
3.040211291530985818e+03
3.758847201740081346e+03
5.229646966823212097e+03
5.308388306661950082e+03
4.320193179087642420e+03
3.632369313057538420e+03
3.262645520377845969e+03
2.331039218596343289e+03
4.563892814094813275e+02
-9.053664303039822698e+02
5.527429342697625998e+02
2.012682289755740157e+03
2.357399198393817187e+03
1.658847135818130710e+03
1.949993622066341686e+03
3.866806567999547951e+03
4.882302721199213920e+03
4.148454698055932568e+03
4.709328632210251271e+03
6.456877022128101089e+03
6.454127533676719395e+03
4.382091675556865994e+03
3.364784025696595563e+03
3.654214377142987814e+03
4.117387133019461544e+03
3.923299955412447616e+03
1.885972050944098555e+03
-2.240522605943363033e+03
-7.722034657734237953e+03
-1.250458689295514523e+04
-1.447404806928598919e+04
-1.135127827195962891e+04
-8.244200178084918662e+03
-1.090573557855993568e+04
-1.957076220878251115e+04
-2.474214858342172374e+04
-2.611674400306672032e+04
-2.664341182831339756e+04
-1.954805480138443090e+04
-1.189548739240106079e+04
-4.522548347336050938e+03
-3.925043152111670679e+03
-6.605814326643060667e+03
-7.764721195359189551e+03
-7.460593605375852349e+03
-7.583338266733538148e+03
-1.272578936250311017e+04
-1.611970664362006028e+04
-1.954388835522481895e+04
-2.257005605551172630e+04
-2.307393422496436324e+04
-1.931835562957269576e+04
-1.394703551219722431e+04
-1.233371880982396397e+04
-1.645124194538181473e+04
-1.482542914596220362e+04
-1.193999969770805546e+04
-1.689465126565194441e+04
-2.222318654667301598e+04
-2.059536242515222693e+04
-1.206487878435615130e+04
-4.501435645550634035e+03
-7.647771358835904039e+02
-1.786693996691609527e+03
-1.776906581400426603e+03
6.838386023143621060e+02
1.901804293692036481e+03
1.492271891051454986e+03
4.294859471656993151e+02
-3.319278743493491220e+03
-1.040676766279770527e+04
-1.347364523581293361e+04
-8.040643155325203224e+03
6.223586687342048208e+03
1.640828024241183448e+04
1.979773359783848719e+04
2.284620159062117455e+04
2.532394562800049971e+04
2.463422206475482744e+04
1.801532801904396183e+04
1.015256219947533828e+04
4.764191735335522026e+03
9.146062324629937734e+01
-7.066407517854139769e+03
-8.721142899153919643e+03
-6.325548436197756928e+03
-6.124420882795337093e+03
-6.502483013052045862e+03
-6.753531033232546179e+03
-9.253338073057735528e+03
-5.252591290364603992e+03
6.082925806356392059e+03
1.286540066164419113e+04
1.043906090516751283e+04
6.931119781160103230e+03
1.303880545065790466e+04
1.902131780593429357e+04
2.059180680473407483e+04
2.028045029163622894e+04
1.782542361516243182e+04
1.580094006541311865e+04
1.355010610537542561e+04
1.500705880502781838e+04
1.469697638956053197e+04
1.051804087951100337e+04
1.587631638469988866e+04
2.290987574247022349e+04
2.104082828049788804e+04
2.311824811599320674e+04
2.213726965466972251e+04
1.724102050975232851e+04
1.361652242608283268e+04
1.466485764052900231e+04
1.380017441718253212e+04
9.103502861465309252e+03
3.077914042604546012e+03
-1.139557023915554282e+03
3.594058996078496421e+03
7.935822146306184550e+03
3.643737349240958338e+03
3.217455290017608718e+02
-1.704123515515794679e+03
3.938180914120590387e+03
1.067256531320391514e+04
1.007196902362026412e+04
8.396304400187120336e+03
6.511542726018801659e+03
3.366646040201132109e+03
2.594414030877376717e+03
-4.280811276202690863e+00
-3.360505430623384200e+03
-3.189243916640913540e+03
-3.959619461305015193e+03
-6.204746567979446809e+03
-5.224748026064067744e+03
-1.172785394444597841e+03
