-1.146467911581401268e+03
-1.366193024276899905e+03
-5.537469629358801058e+02
3.126693437042720802e+02
1.887024879280681944e+03
2.633168310886863765e+03
3.171730042978479560e+03
3.520666564989884137e+03
4.103948966157549876e+03
4.198253893362001691e+03
3.903607256939623312e+03
2.645184314348701719e+03
-1.561451750763239374e+02
-2.595449827271211234e+03
-3.530657274361343298e+03
-4.002936540160570530e+03
-4.572503144563255773e+03
-5.525516499740963809e+03
-6.509353879508408681e+03
-7.155183121099215896e+03
-8.201279565325385192e+03
-7.271790751957280008e+03
-6.801530496028737616e+03
-3.644564625861458808e+03
-2.536230900896090589e+03
-1.249538772228621610e+03
9.647163624841492435e+01
4.127667112109900813e+02
8.225845895402002839e+01
-2.939495350640266906e+02
-2.917951787111232420e+02
2.974934550782631391e+02
8.427094772351064194e+02
2.551743581504710164e+03
3.720563660017835446e+03
2.448145333933051006e+03
4.741732432191335533e+02
-1.469474130382338899e+03
-2.328592786105167306e+03
-2.894176070573999823e+03
-3.146346842912771081e+03
-2.887217996341333219e+03
-2.714872774775539256e+03
-2.130402788287327439e+03
-1.170960959889958758e+03
-1.210506770405102998e+03
-1.220949267956163339e+03
-8.103469284837144642e+02
-2.648458046663179175e+02
4.566437192166444561e+02
5.882902259802920071e+02
1.719387417674218810e+01
-4.476279761780096464e+02
-5.923500795421615521e+02
-5.570404173732102890e+02
-4.364520614022738414e+02
-4.754830222568403428e+02
-1.427374198222398718e+03
-2.448216669221637858e+03
-2.232659153488091306e+03
-2.501974323486503636e+03
-2.787813689121875996e+03
-3.554265420388181610e+03
-3.651196353960071974e+03
-3.726491534577666243e+03
-2.381992510680041505e+03
-1.463575819948209983e+03
-8.921485444803165592e+02
6.114891043020629695e+02
2.799749785477999012e+03
4.113523177829662018e+03
4.318626050865369507e+03
4.610304335512587386e+03
5.241666959167282585e+03
5.350564949172610795e+03
4.551286092548757551e+03
3.481949072531493130e+03
2.347476431083284751e+03
8.249850552056137758e+02
1.495951694815755406e+00
-5.206892220143714667e+02
-1.310664462928912144e+03
-1.985433351103270525e+03
-2.396613765443013563e+03
-1.742718812938412384e+03
-1.744532687791227090e+03
-3.248001247729467650e+03
-1.954991870485589743e+03
-1.004464485983840859e+03
-1.053559397048981509e+03
2.665604930597267867e+03
1.747903537081971763e+03
5.050087512615035479e+01
1.415894658493482211e+03
-9.046523508121092618e+02
2.289390734246745751e+02
-1.223462102495424233e+03
-2.001722405813667365e+03
-2.439721162553671093e+03
-2.783296626068009573e+03
-2.638265776800086314e+03
-1.237380664012503075e+03
-2.745544302113576578e+03
-1.871850434075068279e+03
-3.828100892598005430e+03
-3.148071336886997869e+03
-1.344563548182367413e+03
3.226370098826921549e+02
1.339741250914463308e+03
1.600778241748643268e+03
3.978997025026755182e+03
3.230490934014627783e+03
2.930409587914619351e+03
4.191860581418290167e+03
2.553722211588785285e+03
3.296150843234775948e+03
4.925710205404337785e+02
-6.709231168825416489e+02
7.606802166999609653e+02
-8.803370643272965026e+02
1.970057603453278716e+02
-2.644289359000827972e+03
-3.353052081356308918e+03
-1.391225181210872677e+02
-2.383823308000783072e+02
-1.191608993208847778e+03
7.563323075230027825e+02
2.098632534026229223e+03
2.550367187736974302e+03
2.298584106267786865e+03
2.185315897596230116e+03
1.705600786143670348e+03
1.495604838551782677e+03
1.614479743687811606e+03
1.621270878203108168e+03
1.606017231832773405e+03
1.071898767440688744e+03
7.158860214665311332e+02
7.489715216883686253e+02
1.032495769850210081e+03
8.395486278289934035e+02
3.563448611477805343e+02
2.199305644310679497e+02
9.430599278629750870e+01
-3.153740048927036241e+02
-5.381544419150034173e+02
-6.302186088718764267e+02
-7.626350305618966559e+02
-5.212562517837300220e+02
-2.579665722544886108e+01
6.836897368304631755e+02
1.122025663527829465e+03
1.550222244644030297e+03
1.836280912135774997e+03
1.848939734351178686e+03
2.313986090751886877e+03
2.517737095246550780e+03
1.858949401432236982e+03
3.972706697633236104e+02
-1.057190718110991611e+03
-1.563990007295173200e+03
-1.231434057498960101e+03
-1.456091284600953713e+03
-1.480997891785647653e+03
-1.057873405877363894e+03
-2.986351156053538034e+02
7.237016841758252212e+02
2.021051248788043722e+03
2.599378372261522145e+03
2.640552912605081019e+03
2.936552460663335751e+03
4.174158584093264835e+03
4.659995032129165338e+03
4.796505430802271803e+03
4.920638861061826901e+03
4.511979165338633720e+03
3.386484859430665892e+03
1.898924638343636161e+03
6.491174313163902525e+02
-1.469804717015807114e+02
-9.625565585303975240e+02
-1.441937034497113700e+03
-1.257176545159958778e+03
-6.244583514631607386e+02
1.240125022900131029e+02
8.791388764968090754e+02
1.710856011401643400e+03
1.567088793328146267e+03
1.231665226951503882e+03
1.932474071684166120e+03
2.385508877274212864e+03
2.605611752437531322e+03
2.973664261512123176e+03
3.649579908787982731e+03
4.294228693903708518e+03
3.962501874211109225e+03
3.573210210433421253e+03
3.960167337966254763e+03
4.469264650552861895e+03
4.170299757028996282e+03
3.672052327634450648e+03
2.662348154045423144e+03
5.410561356076269703e+02
-2.371060356126057286e+03
-3.711236593434851784e+03
-4.194533466538273387e+03
-4.052910864162843154e+03
-3.885409173537648712e+03
-3.900176328603270576e+03
-2.175160249694771210e+03
2.288627487884447419e+03
2.226032403947522653e+03
-1.149105022098407289e+03
-6.369322759696927960e+02
-1.364812260244090794e+03
-2.650901858521025588e+03
-3.784221504000739515e+03
-4.330976656936757536e+03
-4.336167123943136176e+03
-3.473810744397350845e+03
-5.473056413724750200e+03
-6.603974195177498586e+03
-6.786708828661839107e+03
-6.786348916819204533e+03
-7.673008151600706697e+03
-7.211688116329890363e+03
-5.913541284939679826e+03
-4.999547463595878980e+03
-1.390689227753709929e+03
1.709923542610715685e+03
2.345192058324197660e+03
2.177048940711839805e+03
1.858646450426100728e+03
1.781051323474227502e+03
1.029041380939986766e+03
2.436912459485659710e+01
-1.619689038758612867e+02
-2.249128778793329957e+02
-1.506446966513547068e+02
-1.182282126136037050e+03
-2.137759244159832633e+03
-2.920015725324687992e+03
-2.914034824282485260e+03
-2.153894827949518458e+03
-1.464621733419231077e+03
-2.022430140487823280e+02
-8.777132906123785006e+01
-3.511496590974573451e+02
-9.138776152759535876e+01
7.245362340433865711e+02
2.498677399681117549e+03
3.593210940654912065e+03
2.991149537954918742e+03
2.234418740765615894e+03
1.605229507173904494e+03
1.350609845504523264e+03
8.405491129554517329e+02
1.361413627842829897e+02
-1.605334381525710512e+02
-3.315054829678915667e+02
-1.347756873071991095e+03
-2.389366573883678484e+03
-3.092304689362839781e+03
-3.488516453249557344e+03
-3.898952989195293867e+03
-3.680514119253818535e+03
-2.445079331411890507e+03
-6.392151313915355786e+02
1.123891447132341455e+02
3.927273071958152855e+02
1.227128407968517365e+02
2.457152261810502978e+02
8.622815928345457905e+02
1.539300608337341146e+03
1.952508830722249058e+03
1.749135929768699270e+03
1.047202214155533284e+03
5.656109252774106011e+01
-1.132988567353879489e+03
-1.984962940743175750e+03
-3.121136302079342386e+03
-2.594710132765668732e+03
-1.949159351262002247e+03
-1.102540816494694354e+03
-8.721238295431413690e+02
-6.863399065489913937e+02
-6.271800981531586103e+02
-4.388245467267112190e+02
2.092222552585236031e+02
1.025277193248632102e+03
1.390812960385376527e+03
1.282744048488854105e+03
3.806585545901527325e+02
-7.167803312229855237e+02
-1.834734738152638784e+03
-2.123002340902640299e+03
-2.756771730903701155e+03
-3.405567204368846888e+03
-3.692713418357364844e+03
-4.312011581623934035e+03
-4.276760431974874336e+03
-3.253532022523300839e+03
-3.328221675464694272e+03
-2.886688055913811695e+03
-2.364433667499747571e+03
-2.598251709526093691e+03
-2.715437559994321418e+03
-2.247987742041026650e+03
-1.660609933197225928e+03
-1.147909884331711737e+03
1.864510064232906359e+02
1.828220880109487553e+03
1.909203401823293461e+03
2.110705565005589960e+03
2.833797618768050143e+03
3.529277283100267596e+03
4.091092063416319888e+03
3.917920731315350167e+03
3.456552770449683067e+03
3.383584481638323723e+03
3.045311906704044304e+03
2.380405515472149091e+03
1.857202251380413145e+03
1.383218578699363661e+03
1.318332609228102228e+03
2.169775337996873532e+03
2.639569410768206581e+03
3.096941275583582410e+03
4.240707156361356283e+03
6.036123566677167219e+03
8.251277509416255270e+03
9.768972796622761962e+03
9.705541584455069824e+03
9.120907621481992464e+03
8.840924739662472348e+03
7.293216139000245676e+03
7.041070800708829665e+03
5.957581860668035915e+03
5.812402163851118530e+03
5.139661148412423245e+03
4.277400148433444883e+03
3.563789731492728151e+03
3.014133006252247014e+03
2.947321987340763826e+03
3.712672158348033918e+03
4.824129884480176770e+03
6.280452175748364425e+03
6.944169019359530466e+03
6.277068176248109921e+03
6.320659741337990454e+03
6.522519323573632391e+03
6.424640091857626430e+03
5.614964592265831925e+03
5.238221906790929097e+03
4.628694326707966866e+03
3.505216931292231493e+03
2.682954064895037845e+03
2.652865378945482917e+03
1.762653848378077328e+03
1.510711866767853735e+02
-7.103677696581668215e+02
-1.501963658130140857e+03
-2.395714799181009312e+03
-3.665467669242507782e+03
-4.795327236143744813e+03
-5.156870959515199502e+03
-4.370479609360104405e+03
-4.038847871604473767e+03
-4.140034678468536185e+03
-3.622933093781552543e+03
-3.487588628379647616e+03
-3.294668486866331023e+03
-3.251629289613495985e+03
-3.199195290586410010e+03
-2.966789087884303171e+03
-2.600651585836290906e+03
-3.693499391374360130e+03
-5.176493416126779266e+03
-6.380880026523331253e+03
-7.420933367073947011e+03
-6.930121727234288301e+03
-5.997053548590840364e+03
-5.980572146289006923e+03
-5.491357474134992117e+03
-5.050983780395037684e+03
-4.583118859091231570e+03
-4.389875913950848371e+03
-3.774794491908072359e+03
-3.483061908782194678e+03
-3.699525044400343177e+03
-3.884784109789634385e+03
-4.953520891559241136e+03
-5.538860383545515106e+03
-6.282938201476712493e+03
-8.193462429441826316e+03
-1.065233353821026867e+04
-1.364060698362870062e+04
-1.443887680634663957e+04
-1.534221486505442590e+04
-1.632358164882358506e+04
-1.515941647588367596e+04
-1.276556902540332339e+04
-1.144247865995831307e+04
-1.132810873345686559e+04
-1.008051815444235217e+04
-8.431900307617737781e+03
-7.625180846708367426e+03
-5.484124921564758552e+03
-2.788366664096332897e+03
5.508307018901399488e+02
3.156232453821318359e+03
1.976211175151727048e+03
1.538023419376331503e+03
1.582740682876062010e+03
1.299476436967159316e+03
3.636166485138433586e+02
2.266009295253752043e+03
2.496398865174439834e+03
-2.011156503166959965e+03
-6.068417043476164508e+03
-6.523418535224004700e+03
-6.128044110025880400e+03
-5.044520261938497242e+03
-4.075903567011759606e+03
-4.045627218420187546e+03
-4.488218930095559699e+03
-2.236830620142834960e+03
-2.861380286949761853e+01
-1.416722992361539582e+03
-1.388045829600156367e+03
-5.233261645059232023e+02
-5.135550511623349621e+02
-4.497895331836839432e+02
-4.090412577975824604e+01
2.444336047199262794e+03
4.312101648970069618e+03
5.221295066060652971e+03
4.965770950672750587e+03
4.839453822802594914e+03
4.107263657296493875e+03
3.027222262640983899e+03
2.480359206168179298e+03
2.098770979108189294e+03
2.365485806194388260e+03
2.721328259296793021e+03
2.953188267343188727e+03
3.524068294687155230e+03
4.166194631732287235e+03
4.780470520075597051e+03
5.426314338577534727e+03
5.932792210031365357e+03
6.231471332588509540e+03
6.707379241526098667e+03
6.600114817411552394e+03
6.919433106031559873e+03
7.198578963077261506e+03
6.736642977817843530e+03
6.003066436560429793e+03
5.576371151338069467e+03
4.841788673011295032e+03
3.847442726745500295e+03
2.903980889468532951e+03
2.985528528895091767e+03
3.739998310394265900e+03
3.919183650400093484e+03
3.462869174204010960e+03
3.167710958461545943e+03
3.392159241102048782e+03
3.743483733600690812e+03
4.317355496597842830e+03
3.222303934191087592e+03
4.545886108575793514e+03
6.691541047594830161e+03
6.364198366503584111e+03
6.297649617237728307e+03
6.369739873937894117e+03
6.102517913385944667e+03
5.824323859835219992e+03
4.770527696401290996e+03
4.078961375033377408e+03
3.409586667726139694e+03
2.539175023767103539e+03
1.474252737245680009e+03
1.437046798579722008e+03
1.997529686015152492e+03
2.280232659272828187e+03
2.694714759517047696e+03
3.310789930905682468e+03
6.082436197854359307e+03
1.030738081882607912e+04
1.213031476917339751e+04
1.100217594298119002e+04
1.045887189575508637e+04
1.107727962880350424e+04
1.044218871800052329e+04
9.269746683043835219e+03
7.791322781869315804e+03
7.550568976833490524e+03
7.495879108903549422e+03
6.785815704990083759e+03
6.111084212623401982e+03
5.229478740856246077e+03
4.552002573069665232e+03
4.763841344569898865e+03
4.641753965797933233e+03
3.974253165127273405e+03
3.614926317111466233e+03
4.490603609084569143e+03
4.770262654140625273e+03
3.289211822108524757e+03
3.554733250891596072e+03
3.258715489000081106e+03
2.363842716665419175e+03
1.828975390553121542e+03
2.001078790405588734e+03
2.345060820816561318e+03
2.621738378315096270e+03
2.199009655971661232e+03
6.358446097859743986e+02
-1.544863345136123826e+03
-4.716243160253558017e+03
-7.985320153561246116e+03
-1.201387560348426996e+04
-1.246773091276563719e+04
-1.097305318204733339e+04
-1.268622378892541565e+04
-1.777232143408458796e+04
-1.892824102171339473e+04
-1.322993608197911453e+04
-8.905196531424458954e+03
-9.000807025665864785e+03
-7.202870884527523231e+03
-5.549979193243407281e+03
-7.407842039627635131e+03
-1.168758783231181405e+04
-1.158029617075575334e+04
-5.611723361122954884e+03
-3.666695117661276981e+03
-8.740311565213141876e+03
-1.691951974827343656e+04
-1.893823339035268145e+04
-1.514616049795961226e+04
-1.143913623641468621e+04
-1.006102449083171632e+04
-1.612192750249827441e+04
-2.038377674088935601e+04
-1.844119511068933571e+04
-1.852958590557254138e+04
-2.874675663623727451e+04
-3.474949882906457788e+04
-3.191974928017145794e+04
-2.553434297543151843e+04
-2.091409070789829275e+04
-2.338456424414409412e+04
-3.177436963664292489e+04
-2.593520668055643546e+04
-8.194025250962728023e+03
6.445378527894456056e+03
1.071123364186981780e+04
3.087742549002017313e+03
5.651053445726096243e+02
1.499471753647980404e+04
2.950087113574737668e+04
3.290076552615508263e+04
2.581886206670064348e+04
2.222451515993152861e+04
2.266912703866132506e+04
1.956878278347037849e+04
1.259759564340815814e+04
7.720006752406953638e+03
1.018428296384294185e+03
3.540293297899381741e+03
7.226049454772077297e+03
6.634100337429666979e+03
2.593703963627353460e+03
5.416063776988786231e+03
1.415443277033099548e+04
2.079100556553086426e+04
2.164712148994727613e+04
1.566525630382872441e+04
6.061577528394213005e+03
-1.532522209196265067e+03
-9.689783999920471615e+03
-1.744689279388251452e+04
-1.655152943960046468e+04
-1.141756897876561925e+04
-2.844868947697530984e+03
5.081047343181996439e+03
4.583457253572035370e+03
2.446551193742496253e+03
-2.676349368070399578e+03
-1.557987598585695014e+04
-2.753546012832827182e+04
-2.669790530293110714e+04
-1.631513110212298307e+04
-1.555298393597245195e+04
-1.355419849770353721e+04
-6.860389427031280320e+03
6.072833439873749739e+03
3.470663201499787829e+04
5.099905510982702981e+04
4.258113064079716423e+04
2.773308208850393567e+04
2.174701226570445215e+04
2.124114520296098635e+04
1.253490762273287874e+04
-1.196241656731952844e+03
-8.457145410653787621e+03
1.202185392392296137e+02
4.584416223368729334e+03
5.526382345857967948e+02
-6.634304250701600722e+03
-1.333927763007889371e+04
-2.197616276088225641e+04
-2.103611163970299094e+04
-1.193908458953284025e+04
-4.458070734631990490e+03
1.246179445418701835e+04
2.291453282575158300e+04
1.122536317401141059e+04
-4.957679530546936803e+03
-2.006560774195313934e+04
-1.650244212480404894e+04
-4.544171635734443953e+03
6.826401367034684881e+03
8.837141293431883241e+03
1.279182193344472580e+04
1.954544062954375840e+04
2.427984629757776202e+04
3.023919422278571074e+04
3.315552244753448031e+04
3.653953683255052601e+04
4.168592620527671534e+04
3.432942491587746190e+04
1.627993602320457649e+04
5.236401239924385663e+03
3.318804767201174855e+03
2.906901588931655169e+03
3.135333041727851651e+03
-3.602090586670090488e+03
-6.817621239308703480e+03
-7.451622996611243252e+03
-1.139452872411735189e+04
-1.031656924214161518e+04
1.910243146053260034e+03
4.854954075498857492e+03
-4.967856364977631642e+02
-3.594313483993360023e+03
-1.029686517121221914e+04
-2.259768184052754077e+04
-3.522697444591140811e+04
-3.608479331336273754e+04
-2.395729046327674223e+04
-3.654638418285353509e+03
5.643669396821337614e+03
3.044314634740716883e+03
7.128059295971605934e+03
1.348541645265957959e+04
1.463094935305091349e+04
1.602332657089271925e+04
1.613831708351596899e+04
1.311057534877360195e+04
9.876601071473101911e+03
8.744094382132407191e+03
1.171260129633608267e+04
1.097388885524014950e+04
5.633682273760945463e+03
3.041726176030852457e+03
3.161960657624062151e+03
3.285986242396402304e+03
3.182498294982547577e+03
6.658294828632397184e+03
7.688206457678453262e+03
5.254685768745868700e+03
3.105704787569342443e+03
2.457220548087348561e+03
5.136733532005606548e+02
-4.613756705496808195e+02
-5.263205499589987085e+03
-1.254812847584154224e+04
-1.376222892065491760e+04
-9.653936665318973610e+03
-7.777653547300647006e+03
-7.883690829538497383e+03
-9.609324317007060017e+03
-1.139153168846326298e+04
-1.079158197277235377e+04
-1.036669910649165286e+04
-1.178006073173686673e+04
-1.324289205041809328e+04
-1.285037295482123591e+04
-1.024369090162796601e+04
-8.283268717509312410e+03
-8.270227456479175089e+03
-9.234787986140008798e+03
-1.095314335656207732e+04
-1.217440707671109340e+04
-1.287776695140167612e+04
-1.196339625317043101e+04
-9.787525934638339095e+03
-1.025724276690643092e+04
-1.241768750026728412e+04
-1.351491688144545515e+04
-1.120508595392469942e+04
-9.211418900652721277e+03
-1.431398393232300805e+04
-1.878372096879374294e+04
-1.530774462899361424e+04
-1.061507804989335636e+04
-9.678824416294683033e+03
-1.017199425267527840e+04
-5.811663072116910371e+03
1.522066908397934412e+03
3.782349005528913949e+03
2.392446466065756283e+02
-1.237378303429042717e+03
-1.464444020356728743e+03
-4.194803836188209061e+03
-3.498543415288071628e+03
-1.451833797599074387e+03
7.726615427232334810e+01
6.108646147670605160e+02
4.551073003919609050e+02
-1.778885924284952580e+03
-3.210126911171158554e+03
2.608440863868313954e+03
9.459887186525505967e+03
1.266642840088482626e+04
9.952089830986995366e+03
7.577901108493440915e+03
4.240108427501933875e+03
5.727551479464796103e+02
9.401532911035850759e+01
3.521134818371492656e+03
1.717232036686639049e+03
3.334309989897067794e+02
7.297230333127993163e+02
-6.917643185022408261e+02
-5.464807844402790579e+03
-4.496305777340648092e+03
-1.140140236362081851e+03
2.713847600090777178e+03
4.276813169444727464e+03
3.907847313364512956e+03
4.854104117099846917e+03
4.400615557791051287e+03
2.030402234386342570e+03
-3.342157048759395934e+02
-2.830874526036709540e+03
-4.668307488675588502e+03
-7.640324150146692773e+03
-6.777768663595844373e+03
7.755247678008179264e+02
7.656901746673167509e+03
1.000442374456900870e+04
9.773107984531938200e+03
8.440140707816759459e+03
6.065661372010143168e+03
6.170929264392329060e+03
1.007614868395907069e+04
1.322740641723038425e+04
1.275882456940680640e+04
8.794591604534127327e+03
4.446858786721490105e+03
-1.922672245949439684e+02
-1.969592852923420651e+03
9.982111362999218045e+02
4.581183772371592568e+03
6.238588918410749102e+03
7.211644313989711918e+03
8.762500870717869475e+03
1.085926212819437569e+04
1.198904288908916169e+04
1.173686346713847706e+04
1.145387536657890996e+04
1.035533161787619792e+04
7.803434701840591515e+03
4.432414176687783765e+03
4.306375128440460685e+03
8.396440295977807182e+03
1.248747781797724019e+04
1.134641590183377048e+04
8.164740192551220389e+03
4.642908904557492860e+03
7.128584073332950766e+02
-1.235032411829929060e+03
-1.082741807251336013e+03
-3.456747600832899934e+03
-2.219219416551497034e+03
1.814794269301918575e+03
3.322661746211967056e+03
2.178715492552871183e+03
2.881709673349882905e+03
4.140154340330016566e+03
4.397487147002761048e+03
3.984189348374625297e+03
3.197543668959136994e+03
3.830027123957157528e+03
4.862049143971540616e+03
5.751410928356441218e+03
3.096283025229647137e+03
-1.323749947779681861e+03
-3.869803116775395210e+03
-1.611248160825050036e+03
6.539181335395138603e+02
2.512486181191512969e+03
2.136297059769093721e+03
4.206787246046691848e+02
-1.689838132701641598e+03
-2.163336627606472121e+03
-7.763443713031008429e+02
2.060665232251958969e+03
2.217472716497513375e+03
2.262784452385995337e+03
3.088414362364649151e+03
2.038893435690852584e+03
1.971074202145251206e+02
-2.803610804138812114e+02
-1.659086461429606516e+03
-4.752455906388182484e+03
-5.628852674878174184e+03
-5.688533450349777013e+03
-4.242781104077233977e+03
-4.428000397184702706e+03
-6.794961549133118751e+03
-9.554264149219614410e+03
-1.159000518982901667e+04
-1.185305723028839930e+04
-1.016916683638612813e+04
-6.749565442691682620e+03
-4.033043983398951241e+03
-2.663390625076544438e+03
-1.505229167235404930e+03
-2.208230545101852840e+03
-3.344500217757223709e+03
-2.494753621454861786e+03
-3.669506237314853479e+03
-3.637404179355356064e+03
-3.193550183533724976e+03
-2.757940620446588582e+03
-1.863536849419432201e+03
-2.294006336903582906e+03
-3.990882244464045471e+03
-2.455679748852853663e+03
-9.336784903611558093e+02
-2.017383244705104289e+03
-3.592654411214976790e+03
-4.124264745850670806e+03
-2.201506577651449334e+03
4.777624241192763179e+02
1.546221775129953642e+02
-8.449314970886539413e+02
-2.601387973028262877e+03
-3.187967896616650705e+03
-1.681252065132656753e+03
-6.328837596060154738e+02
-1.266790955512225764e+03
-3.683400003310989177e+03
-5.800670147577499847e+03
-9.111140374913667983e+03
-1.346727819682259542e+04
-1.703061112120124017e+04
-1.670522343935424215e+04
-1.613581297304149484e+04
-1.765150800955439263e+04
-1.430879261398058225e+04
-8.730563491066601273e+03
-6.394950296311453712e+03
-3.761494034306966569e+03
1.426520385519921206e+02
2.612988160430269545e+03
4.320775319725842564e+03
4.704124140426617487e+03
3.065219552053743428e+03
6.159694408471614224e+02
-2.040905584447711618e+01
-1.236989855430233320e+03
-3.190430541055150570e+03
-5.206455666770025346e+03
-5.955382630395076376e+03
-3.871194902776935578e+03
-2.965988603557964325e+03
-3.531041612549387082e+03
-3.660722529785936786e+03
-4.810143798940189299e+03
-2.847131574366926088e+03
1.774115232929496869e+03
5.354670825166025679e+03
7.499627864009014957e+03
6.571690881897422514e+03
5.237203590649633952e+03
4.846137870504390776e+03
6.400267295322004429e+03
9.084361467912491207e+03
1.075530933670571540e+04
1.210921697283466710e+04
1.379755652230336091e+04
1.385221622848002698e+04
1.095124868940262240e+04
6.889922023201755110e+03
5.454894564116960282e+03
7.550228288788809550e+03
8.171570339242974114e+03
7.696675642932003029e+03
6.206510990093674081e+03
4.909531815060885492e+03
3.700515979694367161e+03
3.701965348691903273e+03
4.313210050549630978e+03
5.367250906469497750e+03
5.722298544548621976e+03
5.508932775224561738e+03
5.813033414705918403e+03
6.036168381563251387e+03
6.394091396882711706e+03
5.886239664845631523e+03
5.248644167047045812e+03
5.450481626194808086e+03
3.854150181220873947e+03
1.373756032320962504e+03
-1.982826652979395021e+03
-3.854571163500683269e+03
-4.162041969314780545e+03
-3.776795456785230726e+03
-3.823928293569563721e+03
-4.729581302997431521e+03
-5.484610832012619539e+03
-5.462831991826938975e+03
-4.495467421229543106e+03
-3.566281869356435436e+03
-4.485105422699943745e+01
2.107979069554711714e+03
1.362836194896406425e+02
-1.209777146324848218e+03
-1.923149275741227711e+03
-2.328323779773007573e+03
1.370730350312149426e+02
5.167024559247839477e+01
-2.703815095698461846e+03
-3.709183339993260688e+03
-4.764317547771131103e+03
-6.224038549974375201e+03
-7.181196066638037337e+03
-7.239948053287888797e+03
-7.494242641745916444e+03
-7.884867165394908625e+03
-7.489728540953762604e+03
-3.920839891512265240e+03
-2.684402419971012478e+03
-7.633533177511089889e+02
-9.750623330551647427e+01
5.672809023155463137e+02
1.379188225404746163e+03
1.324304551560109076e+03
1.283595836179839353e+03
-3.211189736621219737e+01
-3.239559687526825655e+02
-7.426827978768765206e+02
-4.640812205521417013e+02
-2.951730518924223361e+02
-1.674149699714061398e+03
-3.011999310350487121e+03
-2.467186811589999252e+03
-2.401702029118951032e+03
-1.870208551420854519e+03
-1.606970613117828862e+03
-1.386737618345389592e+03
-1.172296169575005706e+03
-1.970001379409529591e+03
-1.359262861823737012e+03
-2.816430226336329667e+00
2.088723292878531979e+01
5.638091852629698906e+02
2.723884326475110811e+03
3.750224061717960012e+03
3.214559097776190811e+03
2.036664394059058168e+03
9.455087835717341704e+02
1.481121036834918243e+02
8.469014575965940139e+01
-5.625789918248152617e+02
-1.422758612015917606e+03
-2.313353157227404154e+03
-3.580034287818364646e+03
-3.442741608630662995e+03
-2.854733039128361725e+03
-2.615923780379006530e+03
-3.111210072630496143e+03
-2.790602359444384092e+03
-9.983435474003289301e+02
1.089258635395994361e+03
2.592548290896108028e+03
2.564554451690585665e+03
2.166224910325745441e+03
2.360537245500475365e+03
1.424415977603952570e+03
7.346348409865754547e+02
6.710341999884250299e+02
3.634173739433579726e+02
-8.180766379139997753e+02
-2.121766199972541017e+03
-2.835724529875940334e+03
-3.266965488049704163e+03
-3.537454136354864204e+03
-4.442204106076434073e+03
-3.917236420927154995e+03
-1.732526575119008839e+03
-6.899398913686339938e+02
-4.318563651631322955e+02
1.617110427742676393e+03
3.738797715944118863e+03
4.329237945300451429e+03
4.402519686292586812e+03
3.826735564476059608e+03
3.893952376628277761e+03
4.484918272083086777e+03
5.005182541666169527e+03
4.661628030055937415e+03
3.826459943552065397e+03
2.777912808989148289e+03
2.124073152703021606e+03
1.289975821952193428e+03
5.652724805651607767e+02
-2.315729012832192666e+02
-2.237372473966434256e+02
-1.421001003097000925e+01
6.009295004904265625e+02
1.673607494003187412e+03
3.096727030804288006e+03
3.387388208716466579e+03
3.366584611182078334e+03
3.727204809663778633e+03
4.255252144662882529e+03
4.822869283590888699e+03
4.563145497692743447e+03
2.692716738955016353e+03
4.620670426752331537e+02
-2.313015709003731899e+03
-3.613220381119943795e+03
-4.502398741583856463e+03
-3.976511046447551053e+03
-4.760514827477946710e+03
-6.327626692464076768e+03
-5.849045206129639155e+03
-5.985642274153874496e+03
-7.140756898278713379e+03
-7.814555874773512187e+03
-7.944989933563723753e+03
-7.678976454668869337e+03
-7.166610925793498609e+03
-3.636972609342244141e+03
-5.610459252190199777e+02
2.094275155596155855e+03
3.563975637574291341e+03
4.019771000792547511e+03
3.098562149876075637e+03
2.947275184917715706e+03
2.631141801075215426e+03
1.626346409278889269e+03
2.317740325263724571e+03
1.995885817035692071e+03
9.177046923439432931e+02
5.410941179899941744e+02
8.992671187792099090e+02
1.084370272574374894e+03
9.304488605143633322e+02
1.111357762080955354e+03
1.980827771794162118e+03
2.460657245300777959e+03
2.648106363420000434e+03
2.843221470408376717e+03
3.172920563107763883e+03
3.803317885562070387e+03
4.136469136120535040e+03
3.992275822751219948e+03
3.900818900742090591e+03
4.106221854135155809e+03
3.994375215542717342e+03
3.347267192068048644e+03
2.018747262536477365e+03
5.549032312718615003e+02
-3.108671074951418234e+01
-1.821160738800129195e+02
-8.542339629402879382e+02
-1.252593942086640936e+03
-1.365426268526554395e+03
-1.338924444363729663e+03
-1.302096748488265803e+03
-1.210828857314706056e+03
-9.109840350070454633e+02
-6.794080413596996095e+02
-2.530084682189900320e+02
2.361297695146879505e+02
1.022098569833420129e+03
1.738736388550457150e+03
1.258015944152481325e+03
8.729765367074282949e+02
1.075566091582338686e+03
8.988550293517486125e+02
6.809506480171154408e+02
-4.753350779815049805e+02
-1.806779461896103157e+03
-2.398065699990187113e+03
-2.998350149307748325e+03
-3.641714692087333333e+03
-3.641323270549394238e+03
-2.747254489226032092e+03
-2.298215012832099092e+03
-2.166062088656450214e+03
-2.110712329002382830e+03
-2.667175600294292963e+03
-1.606527132974622418e+03
-3.400627970281216676e+03
-3.912265202038664938e+03
-1.090211063217452192e+03
-1.016388281521032013e+03
-2.486460929855391839e+02
-1.175929126912907577e+03
8.607444509729003812e+02
-6.658915170132023604e+02
2.861904511687625927e+02
-1.430788851624455674e+03
-4.419223196236897820e+03
-4.777265527757293967e+03
-3.453652084594632925e+03
-5.220429076668936432e+03
-4.334727398181337776e+03
-3.918397586249116557e+03
-5.331324557487332640e+03
-3.593350166584589715e+03
-2.866317033762933079e+03
-2.102040712323533171e+03
1.498493954127807001e+03
1.638422975197954884e+03
2.245886106495235254e+03
3.195973714903006567e+03
1.761655640588618780e+03
1.054736145450706772e+03
1.653314787273893899e+03
-4.074257211495431648e+02
-5.375089107098086743e+02
5.501740751393475648e+02
1.221427582510091270e+03
1.010673214295950118e+02
4.761003006621861573e+02
-1.209404976274289083e+03
5.498449731995285674e+02
-1.449916653169072163e+02
-1.893833472432726239e+03
-1.357778964548645035e+02
8.020688515868924924e+02
3.195836557407062628e+03
3.172576838727718041e+03
2.912371024624662823e+03
4.623475648585836097e+03
5.196250311884288749e+03
5.103927223875364689e+03
4.784293768676004220e+03
4.296979457206283769e+03
3.586123885231951590e+03
2.136876686463131136e+03
8.439805869305228470e+00
-1.903117266227005530e+03
-2.384743731561234654e+03
-2.605635193757309935e+03
-2.197884590598449449e+03
-2.773585806167537271e+02
1.235231485960482587e+03
2.063119918095382218e+03
3.160316683667608231e+03
3.613795039207735044e+03
4.233646979144682518e+03
4.559059953532608233e+03
4.729958776541805491e+03
5.153448135249905135e+03
4.470700931513826617e+03
1.867726536421484525e+03
2.261796072053199168e+03
3.675913388492582726e+03
4.263890375746310383e+03
3.998718617011753395e+03
2.784535553775394419e+03
1.846424376246824295e+03
1.583450164741014987e+03
1.064459083885585869e+03
2.173342903400513251e+02
-3.260011045142562693e+02
-6.150770131247800236e+02
-3.276147791588860514e+01
-2.056805228010016151e+02
-3.427021370568901943e+02
3.919530917996374342e+02
9.180334590014714422e+02
6.243927294795389571e+02
1.485168963356428094e+03
2.787551485101151229e+03
3.112393265310492097e+03
2.991647072141001900e+03
3.455303139168791404e+03
3.328278152514130852e+03
