4.944149624162731698e+02
-7.579786654119134255e+02
-1.200282449507050842e+03
-1.254380622573659139e+03
-1.804243947274226002e+03
-1.950881463649644047e+03
-1.382120806646948040e+03
-1.865247321421741100e+00
1.589968136951716588e+03
2.638486168474563783e+03
3.142685703370987085e+03
3.460591712532033853e+03
3.660366029159903064e+03
4.013167593539743848e+03
4.289009282999052630e+03
4.181928622342396011e+03
3.530938978533473346e+03
2.847173324476142625e+03
2.340653054570148015e+03
1.936339731384621473e+03
1.040269635456166952e+03
-1.861001954826150850e+01
-9.331870939126164330e+02
-1.235472225411810768e+03
-1.150347872887455878e+03
-1.139638170712630426e+03
-8.541102651306687221e+02
-2.130728551405333064e+02
9.634145143183815208e+02
2.017305406300528148e+03
2.132542931645717999e+03
2.244330148048014507e+03
2.693948627785821373e+03
2.497497412800749316e+03
1.481070626573061418e+03
-2.398601392702785233e+03
-3.705180293657608104e+02
1.414534025762088731e+03
1.371185961927405515e+03
5.453444264697402559e+02
2.708185574832203315e+02
-3.716293680193808200e+02
-8.657973392517053526e+02
-1.094051686411300579e+03
-1.337979614958407410e+03
-1.675901164710905050e+03
-1.483727976847169884e+03
-6.225738492317949522e+02
1.768047054323346146e+01
5.613438156099416574e+02
9.458495829213350135e+02
1.488241901152513037e+03
1.503590924783058654e+03
2.010895464186457275e+03
2.549037088708826559e+03
2.863909640954761471e+03
2.872464335447785743e+03
2.449726011307652698e+03
1.718666917261242588e+03
1.185095829708477368e+03
5.829039802092237323e+02
-6.070187996174427099e+02
-2.148679419686256551e+03
-2.578195726849049606e+03
-2.661678749825405703e+03
-3.088280231512597766e+03
-2.808041616434807565e+03
-1.684010806678565359e+03
-5.021726620807280028e+02
7.854381625761095620e+02
1.073735917993705243e+03
1.662687710270925663e+03
2.689247342124263923e+03
2.996358096030236084e+03
2.927944266720633550e+03
2.821855426659415116e+03
2.738064945883316796e+03
2.490529303980561963e+03
1.565189191364869885e+03
8.599176010714712675e+02
4.435755105591123311e+02
-7.259183255989942154e+02
-1.920655108370614016e+03
-2.682846008545396671e+03
-3.088632096168469161e+03
-2.912111143084971900e+03
-2.609330801352239178e+03
-1.674350991175596164e+03
5.382160478918031288e+01
1.480178068831485916e+03
1.813592738745728639e+03
4.640335496718044510e+02
-3.144593222034619885e+03
-8.442347917336268438e+03
-8.913300827275648771e+03
-5.323610299018117985e+03
1.283663129508923248e+03
1.530467888020536520e+03
4.276764054321520234e+02
-1.876784816890824459e+02
1.775448210915322989e+02
-7.340393760443039355e+02
-1.278687463600930641e+03
-2.042499579268123171e+03
-2.468691654412923072e+03
-2.468185520580583670e+03
-1.950056165181007145e+03
-9.574047994339346133e+02
-2.826879971135207370e+01
8.223188996258337511e+02
1.296331231601749778e+03
2.132784793703024661e+03
2.473617673896984797e+03
2.522788545829467694e+03
2.249267532793919599e+03
1.960966906818507141e+03
1.696815478625521109e+03
1.036772701467107481e+03
5.727959548985356832e+02
1.737844864486105223e+02
-2.743306063656881406e+02
-9.116246011680428865e+02
-1.556168962667642063e+03
-2.194095076358704318e+03
-2.622457232579429729e+03
-2.908355201630515239e+03
-2.965813731004796409e+03
-1.889799897727519919e+03
-3.402897019450068683e+02
7.758002316985845255e+02
1.244401766101949306e+03
1.259484504340193553e+03
1.184066487930285348e+03
1.554248073528418672e+03
1.711932994775481347e+03
1.832037795700267225e+03
2.005548306773721379e+03
1.625536487906559387e+03
1.568010995885113516e+03
1.132952004240136375e+03
3.193122214582719494e+02
-3.439369410546747190e+02
-7.269133333507905945e+02
-8.376921646997636799e+02
-1.004257682111136091e+03
-9.445986061741421054e+02
-9.696901530653265127e+02
-3.174414980309294378e+02
5.711836529467277614e+02
1.060239392118513706e+03
1.453727988444901939e+03
1.634692766099902428e+03
7.662939950118691286e+02
2.487565848873593950e+03
3.508482351212996491e+03
3.593036554646186232e+03
3.374303874733539033e+03
3.064313519747347982e+03
2.497052370888225596e+03
1.955513693913441102e+03
1.415714454010178770e+03
3.147459507903469671e+02
-2.308467679575031070e+03
-7.702852840926468161e+03
-8.617381637204678555e+03
-7.029093134420188107e+03
-6.272013514788671273e+03
-2.960968272562854054e+03
-3.205856251362233252e+03
-4.370583352385046055e+03
-3.045013725917609008e+03
-4.506048862660195482e+03
-9.116474901387773571e+02
-1.730789130054172574e+03
1.111584720534415965e+03
4.548456393138079875e+03
4.560899290389632370e+03
4.064995804564117407e+03
1.007892942203592668e+02
-4.313580935021446749e+03
8.489001814766374991e+02
-3.168785179123885882e+03
-1.722597545472862976e+03
-4.471435780822330344e+03
-4.227308180204229757e+03
-1.952235600369681151e+03
-7.755166072720125158e+03
-5.033954874193063006e+03
5.265218898792642221e+02
-2.069635553242088918e+03
2.559661433915375255e+03
1.569487334051171501e+03
4.708988393675488169e+02
4.328001926477009874e+03
3.623852287614800844e+03
-1.265549416131300177e+03
-7.131419542551662971e+02
3.193217834361727910e+03
-8.764140528288610312e+02
1.057016716284991162e+03
1.985532991167061937e+03
6.111031519793685902e+02
-9.482606118035796499e+02
-7.705336022158617197e+02
-8.206358742848450447e+02
-1.069572040318009613e+03
-8.783029015568075692e+02
-1.366826664728903040e+02
1.100450411043119630e+03
2.464416098066152699e+03
3.217978952121427938e+03
3.532131837939521574e+03
4.192109101855818153e+03
4.632026194905937700e+03
4.235001254228372090e+03
4.301685971695737862e+03
4.054107145554921317e+03
3.485247875562422905e+03
3.128666771515053824e+03
2.682835732133133206e+03
1.909136530551706301e+03
4.504473100877675620e+02
-6.300596249122949075e+02
-1.532405457980328492e+03
-1.890007794689903903e+03
-1.848063955825140056e+03
-3.078289404761169862e+03
-5.750579768803969273e+03
-2.421699653105721154e+03
7.351778396583728181e+02
2.286691889553897454e+03
-6.204798242460592661e+01
-1.541521954588021117e+03
2.917247285868640120e+03
3.147393503324743506e+03
3.061858220161982899e+03
3.128622045042241552e+03
2.796332545650042448e+03
2.629870783458176902e+03
2.131350477184512329e+03
1.623492832798138579e+03
8.748246992770265251e+02
-1.880742788871569644e+02
-8.988146851966051827e+02
-1.139841542636889017e+03
-1.195679401623499871e+03
-1.401278092239649595e+03
-1.014067966599366855e+03
3.172098978962384308e+02
1.264406601464535697e+03
1.645633153426777426e+03
2.198001136133059845e+03
2.686454252545991949e+03
3.049191202606662046e+03
3.352973174275648489e+03
3.451640831066464671e+03
3.476019925827855332e+03
3.014285928246564254e+03
2.454414825586521602e+03
2.224182054551520196e+03
2.017575407726244521e+03
9.286653551910685565e+02
-2.154605970414912974e+02
-1.001734296023884554e+03
-1.292379622828435004e+03
-1.287609076418933455e+03
-1.425449801242778904e+03
-8.338842072058678241e+02
-1.137704688705716904e+02
4.758055282605701564e+02
1.546719103488329210e+03
2.631090796913160830e+03
2.843929897940361570e+03
3.327334566678503961e+03
3.675261979167210939e+03
3.240596186148704874e+03
3.263273005282417671e+03
2.672407504287814845e+03
2.333065771287942880e+03
1.671342968711863705e+03
8.781696301404575706e+02
-1.778094821128174203e+02
-1.035850830184560891e+03
-1.918003636300892822e+03
-2.935299752173076740e+03
-5.585782597787384475e+03
-9.454455608196734829e+03
-1.265407048946808936e+04
-1.210961356865791277e+04
-1.087829233875746650e+04
-8.476294388675074515e+03
-8.174781990713447158e+03
-9.100195940790777968e+03
-7.948364641160255815e+03
-7.491638615416944049e+03
-3.243430480155918758e+03
2.216309448379111018e+03
-5.207089218517374320e+03
-8.012739148777402079e+03
-7.881903566405567290e+03
-3.787550799619340069e+03
-5.723744257923522127e+02
-6.613665313236790553e+02
-2.916795107629626727e+03
-5.937829089160435615e+03
-1.366315344272461971e+03
-1.010526961891829046e+03
-5.508340156791773552e+02
6.640406185708087605e+02
2.194445217742224031e+03
3.237784209058518627e+03
3.512964120528007243e+03
3.903662484538914214e+03
4.347989109480026855e+03
4.491211032519668152e+03
4.283962033913499909e+03
3.980162543377952261e+03
3.291729931290628429e+03
2.720144457672080080e+03
2.167365931301929322e+03
1.842355999578347337e+03
8.431056964495426200e+02
-1.415973155286951339e+02
-7.536741432566235517e+02
-1.122999426402891004e+03
-1.230926469024553853e+03
-1.135479149974451502e+03
-5.551768299363059214e+02
4.918826300247862946e+02
1.533562772649053613e+03
2.189119867868592792e+03
2.156965137684917863e+03
2.577309170140666993e+03
3.136022485294179660e+03
3.150081499412201538e+03
2.713513676084617600e+03
2.733180800943371651e+03
2.841041313427335808e+03
2.901207862772133922e+03
2.203979611487241527e+03
1.548402290046022699e+03
6.542520593172605459e+02
-5.554988785271700635e+02
-1.404649608558620457e+03
-1.602841855256389181e+03
-1.257280802238426759e+03
-1.371916438162714257e+03
-9.026716011520247775e+02
-1.242452693884683583e+02
6.854371917501784992e+02
1.583748837085082869e+03
2.067701090847524483e+03
2.485998346572152514e+03
2.758938104896742061e+03
1.869316192101553725e+03
2.401219714633354215e+03
2.947657634421074818e+03
2.660552001892498993e+03
2.620495249446605612e+03
2.086550042926520746e+03
1.375949379201980946e+03
4.470003834682397041e+02
-6.877669695008042936e+02
-1.710562619870026765e+03
-2.275161350794423470e+03
-2.350839018234001287e+03
-2.860335923071933394e+03
-2.477425927778520418e+03
-1.741384910941019371e+03
-7.008254061331343792e+02
3.376741971647551850e+02
9.735586270891200229e+02
1.579893565960446267e+03
1.930506346251134573e+03
2.270283898521566698e+03
2.104887519083828465e+03
2.152140726832227756e+03
2.041262507330002109e+03
1.545640458496703104e+03
6.222891584075597393e+02
2.244369531997312492e+02
-7.449415171205274646e+02
-2.240009614024735583e+03
-3.112421211538254738e+03
-3.802536714901303640e+03
-3.764788781360970461e+03
-3.445766409038501934e+03
-3.177080929047098380e+03
-2.492445256327236166e+03
-7.750076129326547516e+02
1.713864836862853167e+02
7.801583768337713991e+02
1.183250635776356830e+03
1.588933261467393550e+03
1.643542312482262560e+03
2.066090910272142082e+03
2.127751797625971903e+03
1.842124938867291348e+03
7.999357904467169647e+02
-3.317379490671553413e+02
-1.179851767483563435e+03
-2.302794690538538816e+03
-3.225609817099234533e+03
-3.753205910186893561e+03
-4.175226791175633480e+03
-4.105540011613187744e+03
-4.225323245407739705e+03
-4.342690508358058651e+03
-2.943413072494229709e+03
-1.342930636579803831e+03
-3.585913422245328093e+02
-1.159950054409409574e+02
-6.092658227118452174e+00
6.455259266498219404e+02
9.411495766411808290e+02
5.858326933193669674e+02
2.424509496334620735e+02
-4.189832081216750481e+01
-1.128282785274430353e+03
-9.224786797831965259e+02
-1.359552622662276463e+03
-2.385135299652894901e+03
-3.354587321906206398e+03
-4.287096854719525254e+03
-4.930282719509484195e+03
-4.818054507282779923e+03
-4.541353138149821461e+03
-3.522378417320785957e+03
-2.411262156526190211e+03
-1.693723569531403655e+03
-5.866617583174023594e+02
6.675060281337435697e+01
4.873754598063042636e+02
5.805712168037989613e+02
6.500389750612581565e+02
1.073183774076002919e+03
1.137505804748744140e+03
7.262587325172498822e+02
-3.853283399197652415e+01
-6.221382631861195023e+01
-1.751479326098894944e+02
-9.278857554011340198e+02
-2.085023033507104174e+03
-2.845837046557544909e+03
-3.136400998534704286e+03
-3.211411305334563167e+03
-3.121188388977558134e+03
-2.844158502852696529e+03
-2.238750538641512321e+03
-1.107973690024362440e+03
2.312334152622939243e+01
6.664100293277082301e+02
1.214958859561594863e+03
1.994552068916236976e+03
2.523861517235753126e+03
2.881978975790129880e+03
3.284886627691245849e+03
3.090965073958483117e+03
2.674998205361539021e+03
1.976592606590058722e+03
1.525362676456353256e+03
6.722205271514112610e+02
-2.095373503676102587e+02
-1.141888266700748545e+03
-2.222108059040246644e+03
-1.793328593409688665e+03
-1.386799662864918446e+03
-1.241575369956379291e+03
-6.226551827855724923e+02
6.369997335566749825e+02
2.255449101736031025e+03
3.158663736159280688e+03
3.596375961166690104e+03
4.000357327488169631e+03
4.524565930275194660e+03
4.794891348583834770e+03
5.274237297003072854e+03
5.031493691282337750e+03
4.627729129783226199e+03
4.643930627335623285e+03
4.141974856625448410e+03
3.208777518162612523e+03
2.010036530474145366e+03
1.129881880872088004e+03
3.166649466140408435e+02
-2.180244854873147233e+03
-6.349180720765502883e+03
-3.507301322652479939e+03
-3.603293050817166204e+03
-8.612904171463128478e+02
2.988218979203321396e+03
1.854508889428057500e+03
2.506454781255352827e+03
6.829406784748637165e+02
5.471028537138192405e+03
4.298664133835234679e+03
6.167647693980201439e+03
5.915842593533443505e+03
2.508212704214201949e+03
1.807568668462615733e+03
8.909292365378604472e+02
3.684326101150836621e+03
3.315513367491577810e+03
-6.895983576509004251e+02
-1.787106627520567599e+03
-7.821379532212024515e+02
-3.930774795011963761e+03
8.068949651494579030e+02
2.454737757316199804e+03
2.266691811321344630e+03
4.456794581142159586e+03
5.471029776115800814e+03
5.840369732528764871e+03
6.220768706043355451e+03
6.322180359589925501e+03
4.236570520113518796e+03
2.142861398539786933e+03
2.249746060558818215e+02
-1.880778168866654880e+02
1.615639542397755122e+03
2.342988392014512101e+03
1.302907693530054530e+03
-2.276526160316968799e+02
-1.915723676311421968e+03
-1.675322783937086569e+03
-2.259536791065900161e+03
-4.178513475919808116e+03
-4.466287955848813908e+03
-4.697778901358402436e+03
-3.858948558752380904e+03
-3.196819106023929180e+03
-3.570414498645760432e+03
-4.565651574345484732e+03
-4.456620273177954004e+03
-3.341367246051725942e+03
-1.079089443768099557e+02
4.139838430263725968e+03
5.402828131180130185e+03
3.760923827037304818e+03
1.821145614613206135e+03
-8.020809430275059526e+01
-1.782836775331700665e+03
-3.354711443530438828e+03
-2.146773978929080386e+03
1.469963679032176174e+02
1.033325042896559808e+03
-8.046592851916277596e+02
-6.267376736205065754e+03
-8.711566332445254375e+03
-2.385987673755921605e+03
1.443173137421210185e+03
-1.039988037454303594e+03
-4.121606781014730586e+03
-2.354464846927137842e+03
-1.843305661526589347e+03
-4.643433621400256925e+03
-7.217912546332984675e+03
-5.733281672093333327e+03
-3.480144885617130058e+03
-3.518782315036991349e+03
-4.746295318869970288e+03
-3.729867275500727374e+03
-6.024140818875300283e+03
-1.422383937964654797e+04
-2.024139566799861859e+04
-2.326395551465893732e+04
-2.040671334153993666e+04
-1.770263748983653204e+04
-1.890752355565501057e+04
-1.899425545222195069e+04
-1.555175909734668858e+04
-2.003846838523401630e+03
1.482458429987818636e+04
2.089361669551494924e+04
2.061539530833422759e+04
1.928800456384437712e+04
1.840448191323373612e+04
1.785291448640028102e+04
1.389845888009350529e+04
1.104122822081300001e+04
1.065429000160737087e+04
5.585759990535009820e+03
-6.962814947868209856e+02
-2.566801693310293103e+03
-5.910723007264972694e+03
-1.153098000037705424e+04
-1.574248815320342874e+04
-1.563917789974973675e+04
-1.256782854350256093e+04
-1.059030646306623021e+04
-8.701485754986006214e+03
-6.888190795027951026e+03
-6.659271244808824122e+03
-6.913679859375271917e+03
-6.795240001006785860e+03
-2.704886648306996449e+03
3.428496453913093774e+03
8.303035692857598406e+03
1.487583424272117554e+04
2.667806298359402717e+04
3.357280248660564394e+04
2.612618274150752404e+04
1.729926422118481059e+04
2.067909887274214634e+04
2.736771213464461835e+04
1.894717887178122328e+04
1.006558737074645069e+04
3.150032693767028377e+03
-5.358322156153262767e+03
-7.385342146991406480e+03
-4.966921402894490711e+03
-2.666847551869517702e+03
3.151373062206911868e+02
3.701003024702642961e+03
8.079591862495911414e+01
-3.989918279082440677e+03
-6.821421905803807022e+03
-6.308666607471582211e+03
2.089499070462090003e+03
1.010223257630282751e+04
9.375576608481896983e+03
4.056595909301388474e+03
5.823672617240140426e+02
-1.449029723091283358e+03
-8.236561464860913475e+03
-1.247419527298122921e+04
-1.281292282908850029e+04
-7.862685827049000181e+03
-1.297354915404838039e+03
3.932199424986079521e+03
7.797105492329474146e+03
7.209446531129482537e+03
3.093392473578857334e+03
7.001258705397258097e+01
7.463954663664019336e+02
8.975923958342559672e+02
3.551669958690088151e+03
5.994670483636165955e+03
6.107693307597808598e+03
-3.949116751321716492e+03
-6.919749825520186278e+03
-2.266201997516223855e+03
-5.840486771414651230e+03
-6.095624662114554667e+03
-3.477549810682331554e+03
-3.213225715533184484e+03
-8.527382003041906273e+02
7.499970934911243603e+03
1.680099285192716707e+04
1.754046512528433959e+04
7.311438587533138161e+03
-6.295017876533857816e+03
-8.024897391289990992e+03
-2.876132449240782989e+03
-1.096646311575358595e+03
1.757614705406691655e+03
5.632650893561145494e+03
4.101518533914864747e+03
9.961966225863284308e+02
-2.524291269390838352e+03
-1.703949269340669616e+03
1.106183650932025330e+03
1.181195193904714870e+03
-1.085042957622217955e+03
-1.510714645749304054e+03
4.240633812372329885e+03
9.070740026602821672e+03
5.499525962001398511e+03
4.602769325966037428e+01
-1.992728894811825739e+03
-1.189732692803086593e+03
-3.729520800793246735e+02
-1.868381161906044781e+03
-3.102021303250750861e+03
-7.160958963114932885e+03
-1.200791601513805836e+04
-9.437168302465373927e+03
-1.168478149085054065e+04
-1.740561386160318216e+04
-1.387375992939582466e+04
-4.353068880210399243e+02
-3.033329329362030649e+02
-7.729160650324311064e+02
-1.664132365733190454e+03
-8.212130923437720412e+03
-6.644998094295522606e+03
-7.955736238450871497e+03
-7.861409126532619666e+03
-8.294067766038273476e+03
-7.108698360852936275e+03
-1.076327308242590516e+04
-1.429686237687080575e+04
-1.333857826183341786e+04
-1.198442186812657019e+04
-5.378408163276092637e+03
-1.064857817291485298e+04
-1.296910214996697323e+04
-6.068108172229422053e+03
-2.888567647494336597e+03
2.476493254263220479e+03
3.373992200296912415e+03
-7.632200272705633779e+02
-4.579279825706356860e+03
-6.776305470013566264e+03
-6.636404351972391851e+03
-6.534737607268913052e+03
-4.444158951227518628e+02
1.394441018593040781e+03
-1.472469946269925742e+02
9.424546200191543903e+02
2.804460712535708808e+03
-1.840300751268793874e+03
-7.638687731080758567e+02
6.406723960347684624e+03
1.075940519850261626e+04
1.094305219766164009e+04
8.297548651269516995e+03
4.348751225317960234e+03
4.368578541881514866e+03
6.308964836233911228e+03
6.645794883547566315e+03
7.145958457953269317e+03
5.797263723296507123e+03
4.017559028941129327e+03
2.524646425517816624e+03
2.872391205898424687e+03
5.318675280358230339e+03
8.349241102498064720e+03
1.009282027525288686e+04
9.896355908073292085e+03
9.847907686025695511e+03
9.592732170403169221e+03
8.963752042950947725e+03
7.313895385183855979e+03
6.422097719129011239e+03
6.503204624301457443e+03
6.091118401575541611e+03
6.161643035480306935e+03
3.618895723104618355e+03
2.003605557704362354e+03
4.279056132964196877e+03
6.379677127838878732e+03
6.433947278705642020e+03
4.459871774196228216e+03
3.331437608288492811e+03
1.699802453689985896e+03
1.048766322459097637e+03
1.473899952062585044e+03
1.204951476706093672e+03
6.640879998769836448e+02
1.724576876013126821e+03
3.767780976561115040e+03
4.343964868475899493e+03
4.258834146542778399e+03
4.488412355041326919e+03
2.679898953619683198e+03
2.051954293184387097e+03
3.403466584472088925e+03
2.986369145597619536e+03
2.181603691260445885e+03
1.648509872196571678e+03
1.651264852979234774e+03
1.529011067571610738e+03
7.761006323398303266e+02
-7.245762236829871199e+02
-2.433053170403815329e+03
-3.085404322515962122e+03
-3.143931764850547552e+03
-2.835511774234184031e+03
-2.235244808725792154e+03
-1.848185003659878930e+03
-1.224400824800189639e+03
-4.317520008360224324e+02
2.498051128972330162e+02
9.272085983672008069e+02
1.252259600961801880e+03
5.226943301386198755e+02
-1.825472768908128103e+02
-8.424043703006087753e+02
-1.685840846060235890e+03
-1.511908212381896419e+03
-1.645763491871345423e+03
-3.430390814928827695e+03
-4.997747228382172580e+03
-5.078989676070886162e+03
-5.068131562577598743e+03
-4.644347978210457768e+03
-4.196715643939031906e+03
-3.054203187611428802e+03
-2.222674307707775370e+03
-2.448143507905264414e+03
-2.702725197915225635e+03
-2.221641274380792765e+03
-2.600051866748396606e+03
-5.679786566268347997e+03
-9.500622972084342109e+03
-1.045253266935756074e+04
-7.820454239497747039e+03
-6.545362624918810070e+03
-6.571240288333926401e+03
-6.764300986389104764e+03
-7.352666636333476163e+03
-5.365325619075828399e+03
-7.351092185127962694e+03
-8.399270108427581363e+03
-8.080058397051363499e+03
-8.396192591077506222e+03
-8.389585215937806424e+03
-5.792735954218444931e+03
3.175561206526716887e+03
2.991054735766992053e+03
1.464945791834053352e+03
9.465783217795883502e+02
-3.119922570194933996e+03
-3.152777814989853141e+03
3.386046644879637370e+03
6.807721512142473330e+03
6.120293300206544700e+03
3.909661184743154536e+03
1.652464677247993734e+02
3.014753112074092314e+03
4.751208123462565709e+03
3.937555549075208091e+03
2.142392870793359180e+03
1.054686618532007287e+03
4.528770123025800558e+02
-2.259868531758839083e+02
1.908480556720027437e+02
5.936096939714934706e+02
8.709097055450371272e+02
1.485495837483852256e+03
2.162961078102765441e+03
2.116537622206087235e+03
2.119372365689057006e+03
2.087666190410832769e+03
2.043849793100462421e+03
1.763997955428664682e+03
1.818048282624097055e+03
1.864595304799238193e+03
1.182006207617036580e+03
6.171404387238036406e+02
1.232794912988197638e+02
-4.971953705991588777e+02
-2.033124182404443445e+03
-3.065676993661084452e+03
-3.477002212450776824e+03
-3.481862032574730620e+03
-3.082092618503473204e+03
-2.578598933375918023e+03
-2.423117372960300145e+03
-1.147409597938473325e+03
-2.123478139167288532e+02
9.989731056266043652e+01
5.662740631767717332e+02
5.438992888003713233e+02
7.215494800707411969e+02
6.176693643511497385e+02
1.378596520737691890e+03
2.310008195742304906e+03
2.202421775723637893e+03
1.570098320383535565e+03
8.021401859479027507e+02
-2.165575660478124860e+02
-1.386316837209491950e+03
-2.382365494236606537e+03
-3.240137666856056057e+03
-4.474621624401072040e+03
-5.993982579510880896e+03
-4.183552359524479471e+03
-3.679501350633857783e+03
-4.832787535980082794e+03
7.275578809731013052e+02
1.635690566229598744e+03
1.672609896093250654e+03
2.018164574123293050e+03
2.833793394325213740e+03
2.948414543938355109e+03
2.993685145682057737e+03
3.335090241788420826e+03
3.075690828249228161e+03
2.972529650980816768e+03
2.649119286190200455e+03
1.735415514385354754e+03
4.931586515709821015e+02
-6.420902234206949970e+02
-1.260495829775681614e+03
-1.510002715129602166e+03
-1.682551811862317436e+03
-1.091781299784205885e+03
-1.803173551296189885e+02
1.053918608082907440e+03
1.851685421217985095e+03
2.173994621126917536e+03
2.669715084941105033e+03
3.004914429693902548e+03
3.733720288616364542e+03
4.363951348432071427e+03
4.436157492126151737e+03
4.326773948387890414e+03
3.548361739478405980e+03
2.854610254056213307e+03
2.453237928425911377e+03
1.574339263221311739e+03
1.816001450911701056e+02
-1.049552593635623680e+03
-1.293430659433756091e+03
-1.296538175978093250e+03
-1.145003055721908140e+03
-8.442855655203843526e+02
-2.562350143803172386e+02
7.894647742324759747e+02
1.496953537344918459e+03
1.660030411258834420e+03
2.449525478637688593e+03
2.317735812221426841e+03
2.225750572732751152e+03
2.133553552372903596e+03
1.305670846652792306e+03
1.966718736992175991e+03
6.677423905108248618e+02
-3.794222131176898984e+03
-9.444636470156657424e+02
-3.856240735103565953e+02
-1.057814508684814655e+03
-1.971492782453169866e+03
-2.756669843128108823e+03
-2.725683862069716270e+03
-2.300874809006551004e+03
-2.200442761673072710e+03
-1.924366719480492065e+03
-2.575793919427774199e+03
-9.881473919683404006e+01
7.942121487552334429e+02
6.475716422082264216e+02
2.135250347127223449e+03
2.968627995827397172e+03
3.096926425440468392e+03
2.820275979101919347e+03
2.754887414287992215e+03
2.485508896010402623e+03
1.700001056308258740e+03
5.690937060405257171e+02
-3.597006347568436695e+02
-1.015057929824605139e+03
-2.088099411666277319e+03
-2.576856230155230605e+03
-2.265855278729972724e+03
-2.039053981685004828e+03
-2.021727142950114057e+03
-1.426720586255610897e+03
-5.097753830584162529e+02
4.945490077717190047e+02
1.063456638681537925e+03
8.657057417223679749e+02
1.272778088010601778e+03
1.808058459318678615e+03
2.640197565653561014e+03
3.127309715503743519e+03
3.200462333310340000e+03
3.029641946546396866e+03
2.804433040426794832e+03
1.972876806281814197e+03
1.468274165985501668e+03
7.403718790293221446e+02
-3.197111643271650792e+02
-1.223004622190826012e+03
-1.807933073625276847e+03
-2.329684728608957812e+03
-2.238462721550305105e+03
-1.006102764888050388e+03
3.312500249306530122e+02
1.395338672323010087e+03
2.083211120818879863e+03
2.514228188156435408e+03
2.782601382662682227e+03
3.459918804363497202e+03
3.927938320632330488e+03
4.081609077235917539e+03
4.755746459998261344e+03
5.183478975616626485e+03
4.295896793009447720e+03
3.511899183510152852e+03
3.470382803466165115e+03
2.153107763223432357e+03
-2.300094894306508650e+03
-7.637178561257884212e+03
-1.201698563580780137e+04
-1.206649033393247919e+04
-1.186765153332044792e+04
-1.073038041018506374e+04
-9.396497434536955552e+03
-8.610000655087964333e+03
-6.971872517747064194e+03
-6.760009030692800479e+03
-3.796439395792790947e+03
-2.881758738728391563e+03
4.289142145656611319e+03
6.785855231893840028e+03
1.670354374734350358e+03
-6.091145399571120834e+03
-6.786402314932651279e+03
-6.603347319553640773e+03
-3.941870329378713450e+03
-2.846974315252997712e+03
-8.807644173361448338e+03
-1.049472410401886555e+04
-1.016104704646878963e+04
-9.501632057385540975e+03
-9.470480310144608666e+03
-8.628329817764650215e+03
-7.839986766902047748e+03
-6.515319336916064458e+03
-5.778949004186726597e+03
-5.421789588887318132e+03
1.611488813874921675e+02
4.856165464101492944e+03
-2.108549327303613609e+03
-4.477866061906031064e+03
-1.561741871889190179e+03
3.833970977447458608e+03
5.260475637590920087e+03
5.503016187516320315e+03
4.249787958103999699e+03
2.557876703040060420e+03
2.633371792541009199e+03
1.978397589864294787e+03
1.671103058750757782e+03
1.185690972506521575e+03
9.463619830625476652e+02
1.746252546770115714e+03
2.557516224231836986e+03
3.121367537894093857e+03
3.753072748436046822e+03
3.821907762769541023e+03
3.669085691535832666e+03
3.947794325933791697e+03
3.742215974933304551e+03
3.977418764474333784e+03
4.300568061434942138e+03
4.180982919511069667e+03
3.944809728097461175e+03
4.078054617295722892e+03
3.584861364969488932e+03
2.368385475116301222e+03
5.667282527498683748e+02
-2.839917512617971624e+02
-1.226260783902821458e+02
3.096165308182590081e+01
2.732613420548037197e+02
6.703578017242849683e+02
1.173298250953486331e+03
1.712125691503451890e+03
1.892640216708673961e+03
2.400054166408679976e+03
2.974328677999944830e+03
3.454595297171643779e+03
3.833037468375758181e+03
4.010779519768620958e+03
2.906086035335104953e+03
4.835005186182428929e+02
1.845543235136983412e+03
2.421274689740947906e+03
2.400723424671288740e+03
1.676093943666088535e+03
3.174256925450980589e+02
-7.572770559509651775e+02
-1.368340556055660727e+03
-1.221459960166122528e+03
-1.092931991581601324e+03
-6.626839533908464546e+02
6.923061635157061744e+01
1.861688546027979100e+03
3.246533920431104889e+03
2.952916055855610921e+03
2.352707075481934680e+03
2.471046253717747277e+03
3.294248745036516539e+03
3.768741797255736401e+03
4.292527024719622204e+03
4.401836519293539823e+03
3.300784439319626017e+03
2.625332577330765616e+03
2.029460519081112352e+03
5.852208017061105920e+02
-1.825210877945027050e+02
-3.598025295279867919e+02
-4.166540509870843607e+02
-2.370909513822832082e+02
-1.672153758675665074e+02
9.207183728350727847e+01
1.359775819276013181e+03
2.559912990039293163e+03
3.233485817369613869e+03
3.309481393905914956e+03
3.750814635976919817e+03
4.413438960400945689e+03
4.837344502774136345e+03
4.880437784547933006e+03
4.422659034320451610e+03
4.172951097562749965e+03
3.544302101771323123e+03
2.288604845607309471e+03
1.509703470152217278e+03
1.206457989858416795e+03
4.727004424870115145e+02
-3.346916046569017453e+02
-6.657995086651552583e+02
-1.041790445333127082e+03
-1.091751866599046025e+03
-2.817572789422932260e+02
4.311043903797503276e+02
-5.842214942701640439e+02
-3.705884428744282559e+03
-8.073968091936635574e+03
-8.077580367177321023e+03
-6.979850374337886933e+03
-5.671870512368311211e+03
5.192466871918677498e+02
1.843427356985356255e+03
-6.629519501303117977e+03
-8.584740702539353151e+03
-9.055384969616952731e+03
-5.645673441438312693e+03
-3.796065021687155081e+02
3.117693545985202377e+02
-1.526104755585892235e+03
-3.655233278192044054e+03
-1.948553925816287801e+03
-7.858630879617140863e+02
-4.799994085659237157e+02
-3.139694411289591471e+02
5.940942399462135199e+02
1.198045488896064853e+03
1.351823169073285271e+03
1.180255334390152711e+03
1.400205360974782707e+03
1.999584929325351141e+03
2.511177880583433762e+03
2.863811038402182476e+03
2.465401853336924432e+03
1.507872812987930956e+03
7.370632432802332232e+02
1.337638214535834038e+02
-6.161569732198672682e+02
-1.473864214091042868e+03
-2.372548745887085261e+03
-2.646346106198127472e+03
-3.010428886558357590e+03
-4.053929153429018697e+03
-4.237922180318710161e+03
-3.070482207681382079e+03
-2.007670166520695375e+03
-1.678611075853661077e+03
-1.550406461692539096e+03
-4.100563064628178722e+02
4.523655929092875567e+02
6.947858490126985771e+02
1.077051168675460985e+03
1.341002308692067118e+03
5.555990920279871261e+02
3.328239327967716576e+02
-2.543603143726148375e+01
-7.053298674696017088e+02
-1.915953355436745824e+03
-2.042420322038668473e+03
-2.301821222307708467e+03
-3.087216035893627577e+03
-3.586728561545910907e+03
-3.943419929888836577e+03
-3.353286409005923360e+03
-2.632388453885947456e+03
-1.389651571208866926e+03
1.048950089303451136e+02
1.322225841501553759e+03
1.838437711428585317e+03
2.285324788820467802e+03
2.246046089630259758e+03
1.567897642533273483e+03
1.086202951697085382e+03
1.358055999217786393e+03
2.273533853931776321e+03
1.845661394513341975e+03
1.232430280721073132e+03
6.987425502828549497e+02
-4.504608824410947818e+02
-2.133191572523321156e+03
-4.322480413555043924e+03
-1.025308664149824654e+04
-8.393335213958078384e+03
-5.940292636080783268e+03
-5.975834755859536926e+03
-3.094523696483312051e+03
2.053586652265743396e+03
-2.330618178780872313e+03
-8.460482542226848182e+02
-8.696566891855511585e+02
-1.131369411635612551e+03
4.244888693825230803e+03
4.191751974943466621e+02
-4.475011485860037510e+02
