3.255248639202316917e+04
3.575890761297644349e+04
3.860236649848087836e+04
3.915922260176647978e+04
3.869652786153574561e+04
3.856151558859836223e+04
4.033837063460218633e+04
4.499844940600563859e+04
4.842013601836942689e+04
4.908070525350345997e+04
4.908348601378902822e+04
4.741486784061091748e+04
4.662118662471339485e+04
5.107386411166904873e+04
5.577332901562853658e+04
5.607795504591101053e+04
5.696529299686422019e+04
6.024977284481844981e+04
6.214982245730794966e+04
6.263103637152283773e+04
6.159298893304338708e+04
6.128021670454620471e+04
5.980534427321844123e+04
5.948118230580991803e+04
6.233838587737877242e+04
6.342365135836110130e+04
6.121662601340991387e+04
5.893111480062670307e+04
5.664993370364220755e+04
5.625182804581091477e+04
5.590065807903887617e+04
5.492531826776026719e+04
5.498682065543207136e+04
5.612616680555307539e+04
5.515740290327648108e+04
5.103464081909206288e+04
4.799402112462820514e+04
4.602176856908931222e+04
4.513816481722193566e+04
4.080844218236559391e+04
3.524793325918854680e+04
3.031308633236145033e+04
2.515740947033800694e+04
1.996436257142774775e+04
1.518041973762097587e+04
7.469134870869049337e+03
-4.856771962522824651e+03
-2.266755070690766661e+04
-4.049351102506808093e+04
-6.437182589388471388e+04
-8.255165951227986079e+04
-8.914520580777057330e+04
-8.857844513038717560e+04
-8.568548322090206784e+04
-8.722726631436303433e+04
-8.828452100985795551e+04
-8.700914391370270459e+04
-8.787375738344869751e+04
-9.269199808744661277e+04
-9.922648662024407531e+04
-1.049465965352473722e+05
-1.112819045070986031e+05
-1.222029612685808679e+05
-1.379073281646393007e+05
-1.550163046696375823e+05
-1.732601086472829047e+05
-1.969209187109299237e+05
-2.233508329335849849e+05
-2.564451455849401245e+05
-2.972650912048956379e+05
-2.965426243645424256e+05
-2.406577514999970153e+05
-2.171364022365952260e+05
-2.120464814237798273e+05
-2.076078018895194982e+05
-1.959421385494016577e+05
-1.810831571355512424e+05
-1.657314740286379529e+05
-1.412807284451976884e+05
-1.110004780545838003e+05
-8.176617753548023757e+04
-5.512725227277234080e+04
-2.779430528812500415e+04
4.282303337274520345e+02
2.394796496204606592e+04
4.184054852290635608e+04
5.653768388475005486e+04
6.900808064066500810e+04
7.998441109007736668e+04
8.918831667754470254e+04
9.448574222610046854e+04
9.692951169257142465e+04
9.925131117576849647e+04
1.027699845696982084e+05
1.045184164692685008e+05
1.065765069562583230e+05
1.097501266036132583e+05
1.114771977145216078e+05
1.120977138071208901e+05
1.130156468748900515e+05
1.114539896024795889e+05
1.096667056739438558e+05
1.060208185361062642e+05
1.005344353694688180e+05
9.207772767176000343e+04
8.139837441983698227e+04
7.325516696118295658e+04
6.792022775365809503e+04
6.583849398530645703e+04
6.249686557771129446e+04
6.044126882189799653e+04
5.969061108214217529e+04
5.998284722054934537e+04
5.716985727668080654e+04
5.800746985124719504e+04
6.893454249969957164e+04
7.571795416137206485e+04
7.351348375503007264e+04
7.403987860514658678e+04
7.752695117371222295e+04
7.930256408934222418e+04
7.395467992019194935e+04
7.263306187926282291e+04
7.198098780734917091e+04
7.773318147462011257e+04
8.749735954677274276e+04
9.292103553011729673e+04
9.062763644464468234e+04
8.552260408004949568e+04
8.015328468976549630e+04
7.400302306002425030e+04
6.891419712869587238e+04
5.959015038109652960e+04
6.227010134065736929e+04
5.706422766519532161e+04
5.021074027645325259e+04
4.532476144530795136e+04
4.406847272999266715e+04
4.213287416535184457e+04
3.613895637221122888e+04
2.983975258539662536e+04
2.053322980428882147e+04
1.278128670535148922e+04
4.207686007723393232e+03
-1.489837792278804272e+03
-5.539520023973617754e+03
-1.424375471715691492e+04
-1.863803537319533280e+04
-2.272482830357214334e+04
-2.528864071718316700e+04
-3.295911072043441527e+04
-3.463482138022802974e+04
-4.196449390358920209e+04
-4.437384851773195987e+04
-5.213860515701786062e+04
-5.583866099302210932e+04
-6.100607103440094943e+04
-6.558676118394146033e+04
-6.536864895315988542e+04
-6.350061261842468230e+04
-6.122168416497619910e+04
-5.915801667794639798e+04
-5.825673731380812387e+04
-5.774002165248890378e+04
-5.719510806493600830e+04
-5.689136560898039897e+04
-5.682028616878891626e+04
-5.608641281171631272e+04
-5.186534497914216627e+04
-4.853963485505228891e+04
-4.791784820016055892e+04
-4.719752817155046068e+04
-4.510727288326839334e+04
-4.241584664725788025e+04
-4.068794063965937676e+04
-3.893437503368414764e+04
-3.755202135350547906e+04
-3.608751561879261862e+04
-3.582425884099573159e+04
-3.476904587410069507e+04
-3.339886551266020251e+04
-3.275069753508134090e+04
-3.223059471558036967e+04
-3.175352824086298642e+04
-3.317546707368645730e+04
-3.316753576126508415e+04
-2.853076850065759209e+04
-2.616654123096943295e+04
-2.488816435265521432e+04
-2.265302927464323875e+04
-2.145655720092321280e+04
-2.038957744816737977e+04
-1.827085635413569617e+04
-1.631956502246649143e+04
-1.512994355057811481e+04
-1.318453657120880780e+04
-1.118028385557003094e+04
-9.792025413227649551e+03
-7.443089949864428490e+03
-5.476450594433067636e+03
-4.213003567599196685e+03
-2.437047567648873610e+03
-9.494837164831895961e+02
3.925366011586519903e+02
2.004775700388951236e+03
3.318935805478503426e+03
4.742619595202807432e+03
6.719689672968360355e+03
8.263795748742835713e+03
8.816627109526518325e+03
8.762967025062122048e+03
9.104497871118972398e+03
9.470944678236763139e+03
9.041122465551845380e+03
9.151871643232805582e+03
1.015207896387778419e+04
1.184662587384473045e+04
1.240050080623521717e+04
1.206169916432916034e+04
1.216909129258258690e+04
1.248554649001582402e+04
1.267101229895360848e+04
1.346836897772093107e+04
1.350862655029620510e+04
1.345373697423049271e+04
1.381274843780474839e+04
1.368287948731889264e+04
1.455538954515456135e+04
1.559143969284198465e+04
1.756708864167684806e+04
1.792957623044039428e+04
1.753908569503137187e+04
1.701151420187358599e+04
1.579110604524620794e+04
1.506619963920865302e+04
1.497700279171778857e+04
1.546162486038161660e+04
1.516435306858208969e+04
1.463362662101876595e+04
1.503505073781507599e+04
1.532224368565837904e+04
1.446585152315397681e+04
1.382621252051838019e+04
1.399782372681090601e+04
1.434823150906076989e+04
1.507195041916285300e+04
1.438143672517286359e+04
1.339428901369316736e+04
1.256123602795478655e+04
1.194995376361364106e+04
1.108729687734647086e+04
1.017296483362155595e+04
8.504809418837974590e+03
5.313643573702360300e+03
1.396500867676314556e+03
-2.752812164225155811e+03
-2.628346702955936962e+03
-1.820277840173574759e+03
1.699214424591082206e+03
6.176159470720871468e+03
7.456751745150549141e+03
8.446179329806665919e+03
7.757564604071322719e+03
6.910908314383385914e+03
7.123069493406692345e+03
6.788258417355440542e+03
5.694915459385872055e+03
5.041316624343813601e+03
4.158788351997569407e+03
3.445560368818021288e+03
2.918535995463692416e+03
1.383917480915698661e+03
7.123254449260409729e+02
2.099916143152306063e+02
-9.090067033335260476e+02
-1.507255971928731014e+03
-2.439247255970621154e+03
-4.020454151921852372e+03
-5.467482918585234984e+03
-5.183827833579875005e+03
-5.027099967848819688e+03
-5.139145015529542434e+03
-5.426440771387157838e+03
-5.195251505117372290e+03
-5.530080678644257205e+03
-6.253359728983482455e+03
-7.258695526916440031e+03
-8.452563476469098532e+03
-8.732563197867802955e+03
-9.072289663625853791e+03
-9.149290318417541130e+03
-9.230984893290957189e+03
-9.220538779996950325e+03
-8.924496081813582350e+03
-9.199395633016414649e+03
-9.193869727261848311e+03
-8.789118157563829300e+03
-8.251401340212389186e+03
-7.233158744008378562e+03
-6.776726660386631011e+03
-6.621528139756800556e+03
-6.539019318887217196e+03
-6.050358598805371912e+03
-5.132584504131704307e+03
-3.978645381945947975e+03
-2.874739511275189670e+03
-1.752443282545901184e+03
-7.391371740413929956e+02
3.069201826871470189e+02
1.306760004886421484e+03
1.309712130349341351e+03
2.690930292415549957e+03
2.681526372800486115e+03
3.109675773843247043e+03
5.115942192149005677e+03
6.252869471765657181e+03
7.439967993774863317e+03
8.078597343252993596e+03
8.716136109139108157e+03
9.175296301206808494e+03
9.601932398744087550e+03
9.728708477507465432e+03
1.039226798945830342e+04
1.226658612151151829e+04
1.387950085613755073e+04
1.433124963859717354e+04
1.480026090917437432e+04
1.490666319324018696e+04
1.522859092743405199e+04
1.556586789261351623e+04
1.535868142753286156e+04
1.498492555299012201e+04
1.465687267505777163e+04
1.451005734234844567e+04
1.414014388157413850e+04
1.385895357540571058e+04
1.367459400811801970e+04
1.455355978822145335e+04
1.487639884198913933e+04
1.482060851330804144e+04
1.447662635576215689e+04
1.398535382436746477e+04
1.396685732330488827e+04
1.442809057748569103e+04
1.417298957821859949e+04
1.334752603132455079e+04
1.394571161551904879e+04
1.471175365560256432e+04
1.441084173221872879e+04
1.413694400980170940e+04
1.365994347156120602e+04
1.355399716968962093e+04
1.320304622375361760e+04
1.233196674439913295e+04
1.165485862690402791e+04
1.098881169509816027e+04
1.004480601365511575e+04
9.075058707345462608e+03
8.560666893529529261e+03
8.532850293058620082e+03
8.313911829813836448e+03
7.551317034565258837e+03
7.099371091170662112e+03
6.449985004417262644e+03
5.895013576983424173e+03
5.433338346637971881e+03
5.152104937277823410e+03
4.533252376716450271e+03
4.552683643665198360e+03
4.532226436531593208e+03
4.068092174871413590e+03
3.316936509288620073e+03
2.656819803375514311e+03
2.223853071617658316e+03
1.736642391420354443e+03
7.899924173352518437e+02
-3.434499260740881823e+02
-4.776451953923743758e+02
-9.181468133920436685e+02
-1.918164899344826154e+03
-1.389308571853859348e+03
-1.685749950003449158e+03
-1.971823477652872270e+03
-1.997034074471238455e+03
-2.263900371904841450e+03
-2.433155263142205058e+03
-2.381727427969350174e+03
-2.400453752266152605e+03
-2.541387340928446065e+03
-3.225047291057535404e+03
-3.912387885268241462e+03
-4.045791089155305144e+03
-4.510051568296460573e+03
-4.419231772717620515e+03
-5.033302812292315139e+03
-6.076308003365873446e+03
-6.567357283590600673e+03
-6.602510955081248539e+03
-6.207373638419448071e+03
-6.376538490143867421e+03
-6.850852216272596706e+03
-6.820458465677043023e+03
-7.013359445414373113e+03
-7.377853023837114961e+03
-7.502746735610362521e+03
-7.031921279187434266e+03
-6.929260909093073678e+03
-6.337339400249376013e+03
-5.918549646591734017e+03
-6.108437477188256707e+03
-6.174284419513542161e+03
-6.228514329609967717e+03
-6.565073419939869382e+03
-6.789162320210531107e+03
-6.842032222436710072e+03
-6.503871987328842806e+03
-6.695993546263520329e+03
-6.933404286151864653e+03
-6.733186583406274622e+03
-6.072356159301130901e+03
-4.185953970917624247e+03
-2.213004101866093606e+03
-1.400440992444545145e+03
-8.692748138374959126e+02
-1.057535832259046856e+03
-1.584506219521382945e+03
-2.055169942644308776e+03
-1.474322484100881638e+03
-3.239219140505486507e+02
1.599779795285504633e+02
7.042484804067415780e+02
5.579091212785945118e+02
-1.836915728533043421e+03
-5.727118633914613383e+03
-8.158630300292468746e+03
-8.269294381754554706e+03
-7.980996175730150753e+03
-7.599601892844363647e+03
-7.651934209124946392e+03
-7.502934507913624657e+03
-7.295560753894519621e+03
-7.500407975506781440e+03
-7.161418205079963627e+03
-6.522826928738593779e+03
-4.384303746650345602e+03
1.709345915765258042e+03
7.351839481863535184e+02
-5.610528243164092601e+03
-7.287539269399255318e+03
-5.263752819454227392e+03
-1.936072509831041316e+03
-5.916243994600302358e+03
-7.481105074137657539e+03
-5.939424350859128936e+03
-5.128953264759355989e+03
6.685313674626980855e+02
-2.204716454893316040e+03
-6.740410859303919096e+03
-7.146320999461877364e+03
-6.782228482851101035e+03
-6.253900459904552008e+03
-6.031110886826441856e+03
-4.283550351048231278e+03
1.217058970088637125e+03
2.918936485814751904e+03
3.119335274349325118e+03
3.217620299160633749e+03
2.986134777040285371e+03
3.529111345322952275e+03
3.646856496206466090e+03
3.242725843315702150e+03
3.121915794438223202e+03
3.235628366389943039e+03
2.856080511990859122e+03
2.257636952807997204e+03
1.686657011985154668e+03
1.074422679106651685e+03
9.471951948308875444e+02
1.005263658958391716e+03
7.658532559242111120e+02
6.393092919638419289e+02
1.589241019749186705e+02
-6.902096975060417208e+02
-9.109007473127049934e+02
-1.018947688216447204e+03
-1.129172888660935541e+03
-6.705257561667200434e+02
-5.968136876418363101e+01
-1.295373693631886681e+03
-1.872394238188109057e+03
-1.753471294904934894e+03
-1.442463156949753966e+03
-2.126239606079690020e+03
-3.502688199454627465e+03
-4.777782266990223434e+03
-4.463399588043768745e+03
-3.375025763904700852e+03
-1.939721857294225856e+03
-1.588754127652748366e+03
-1.404868330410093449e+03
-1.173580679011257871e+03
-1.368466141790256188e+03
-2.762914369847083435e+03
-4.065388905566903759e+03
-4.868478040939150560e+03
-5.396025332762731523e+03
-6.592073062827871581e+03
-6.796603525641875422e+03
-5.426582082794312555e+03
-5.610990797070309782e+03
-4.983735891907884252e+03
-3.936742673622080474e+03
-3.282117403430014747e+03
-3.566214226379133834e+03
-4.159936110307689887e+03
-4.531884685939182418e+03
-5.195533076959924074e+03
-5.761928157074347837e+03
-6.094348002740863194e+03
-6.114881536864402733e+03
-6.340783977914738898e+03
-6.498377290063111104e+03
-5.873840300443278466e+03
-5.082340385905285984e+03
-5.147206983775483423e+03
-5.232742315254494315e+03
-4.494307478290475956e+03
-3.471239394928838465e+03
-2.142799403170988171e+03
-1.275426916169370998e+03
-9.955239204261683881e+02
-9.495025365341901988e+02
-4.928103676450076023e+02
-9.787915199919130060e+00
8.252006968510102070e+02
1.369723757879863115e+03
2.315145471551842547e+03
3.158943165112512816e+03
3.676641273739784538e+03
4.276789037310043568e+03
4.528776255225038767e+03
5.395139970415242715e+03
6.846380847611530953e+03
9.124953639334555191e+03
9.730284034114780297e+03
1.015272610956578865e+04
1.136769459735547571e+04
1.164756145720821223e+04
1.245871649833914125e+04
1.293655351042472466e+04
1.339737225337151358e+04
1.283058549670835055e+04
1.177752232454870864e+04
1.108753691069764318e+04
1.034406191760798174e+04
1.023633259806732349e+04
9.948656933536040015e+03
9.621391495823059813e+03
9.552845531303761163e+03
8.663350044916565821e+03
5.697208477860855965e+03
2.017674714647685505e+03
-9.979530686583924535e+02
-1.273378317305976225e+03
-1.277329717879360032e+03
1.351481655947460922e+03
7.907390326123266277e+03
9.057762621248915821e+03
7.788873415424944142e+03
7.034081142028223439e+03
7.743879654716814912e+03
7.238452904771918838e+03
6.578148382228375340e+03
6.487286693315823868e+03
6.036234678226793221e+03
4.930433672139050941e+03
3.700276381071998912e+03
2.748100287087449033e+03
2.111321651748374734e+03
1.226365888803780535e+03
1.835619567707811939e+02
-6.376917656841934559e+02
-1.261858070222598144e+03
-2.940490676486721441e+03
-4.935126977997100767e+03
-5.739334220371658375e+03
-6.146619297507417286e+03
-7.515423708960548538e+03
-9.154244746441801908e+03
-1.025650573832590453e+04
-1.125670755934586305e+04
-1.324020916116135231e+04
-1.383039893465008572e+04
-1.418465335583781780e+04
-1.591542748838408261e+04
-1.682701699235275373e+04
-1.723380193660104487e+04
-1.728113852340275844e+04
-1.717634652180056219e+04
-1.717074830346790623e+04
-1.732960815468573128e+04
-1.694412403332378017e+04
-1.610848587754329674e+04
-1.512702816409535626e+04
-1.402403449725615610e+04
-1.331766092128543460e+04
-1.267611508991187475e+04
-1.153751126230979025e+04
-1.074198542217073918e+04
-1.018068838749954739e+04
-9.587642608550551813e+03
-9.069855893609808845e+03
-8.746338053732941262e+03
-8.658113939720484268e+03
-8.421189881667536611e+03
-8.315593517920335216e+03
-7.620317736937003247e+03
-5.687322049913924275e+03
-4.321452637175341806e+03
-3.870622604027148554e+03
-4.204729444273109948e+03
-3.644658530853777393e+03
-2.832279147100630780e+03
-1.744469783008697732e+03
-3.508050499222851499e+02
4.338961126568504483e+02
1.059759204304456489e+03
1.157892215216720160e+03
1.270523483102206001e+03
1.429922201166113382e+03
1.372394413023725974e+03
1.721201969109120910e+03
1.403747306103539358e+03
8.253773322983261096e+02
-1.650486677938831008e+03
-3.942420968573883329e+03
-2.290260575515401911e+02
-4.148984184217376423e+03
-6.849834568479563131e+03
-5.435092977058618999e+03
-4.627326253355820882e+03
-3.730068036428486266e+03
-3.116845916337320432e+03
-2.229172386766586897e+03
-1.980473116570642787e+03
-1.198244354642522239e+03
-1.049030816384670516e+03
-7.232695898108273695e+02
-5.304013334629134988e+02
-2.307888929711864989e+02
4.356045444578644492e+03
8.975794085308856666e+03
8.059166293103999124e+03
4.324751976445110813e+03
4.610755187575426106e+01
2.748532350287770214e+02
3.266250249529115024e+01
-6.178028929367009141e+02
-4.179077451496812046e+02
3.624035774378247879e+03
6.227190806700533585e+02
-1.751233003106147635e+03
-1.706177212219784678e+03
-2.105473038059817554e+03
-2.296406784096324373e+03
-3.052288021515359105e+03
-3.384474663691437854e+03
-2.378325953704726544e+03
3.301879948994910592e+03
5.348905181068449565e+03
4.136374229552314318e+03
5.235969772957280838e+03
4.821334923832874665e+03
5.746236810760738990e+03
6.527410809864928524e+03
6.717545620123829394e+03
6.332314483037826903e+03
5.773346821295032896e+03
5.876342591856925537e+03
5.562936797999061127e+03
5.407842089724946163e+03
5.504733874891102460e+03
5.566391738507427362e+03
5.615478759812468525e+03
5.957471967197166123e+03
6.840897917867689102e+03
6.615432782210855294e+03
5.149653104360398174e+03
4.480219827063645425e+03
3.957020037057043282e+03
3.408919610254734835e+03
2.340479401067824710e+03
2.086088040419408117e+03
2.674203268807253608e+03
3.633488800993725363e+03
3.762562494314340711e+03
2.520929383969496030e+03
2.318896451687625358e+03
1.993463770706743162e+03
1.656048187722545663e+03
1.963150254086267068e+03
1.832401306640928169e+03
1.382539430119977851e+03
1.046314043597711589e+03
1.473902566286907131e+03
2.001395208495078123e+03
1.287842660149360199e+03
3.646905766896092587e+02
-5.503635729057270964e+02
-1.208754710887740202e+03
-2.237741730930694303e+03
-2.346554937171683832e+03
-2.343772103905076165e+03
-2.332909424837428560e+03
-1.822555990033128182e+03
-1.796910423475528887e+03
-2.149525325102345505e+03
-2.654011035607999929e+03
-2.831886040645518278e+03
-2.654533165329534768e+03
-2.302955899347792183e+03
-2.374728744694473335e+03
-2.225554690904113613e+03
-1.921198816577767047e+03
-1.930328853324184138e+03
-1.611951412266010038e+03
-1.189061690641314044e+03
-1.464607115180653182e+03
-1.925435720818848495e+03
-2.369349330067192113e+03
-2.760135941061152607e+03
-3.148649362858895984e+03
-3.154845740417047637e+03
-3.084670229230270706e+03
-2.817146379223886015e+03
-2.237176411230635949e+03
-9.886009127097577220e+02
1.075422951323534789e+03
1.984834839023259974e+03
1.903684037176609536e+03
2.579882381194280697e+03
3.212291018893866294e+03
3.077952462881239626e+03
3.073851601447863231e+03
3.120746045516739741e+03
3.092669216027748462e+03
3.282374123464555851e+03
3.324642435789002775e+03
3.497305205516460774e+03
3.850286102719463088e+03
1.733554628948799973e+03
-1.557939075892194523e+03
1.039517985728175518e+03
1.898691303743440358e+03
-3.746585025213660629e+03
-8.580324614808903789e+03
-7.945797012282994729e+03
-1.419386242777235111e+03
1.269755793171217647e+03
-4.142326872441884007e+03
-5.939786291881895522e+03
-6.103345948747070906e+03
-6.724081970740654469e+03
-7.378945606285416943e+03
-7.416516330828756509e+03
-7.593251041805352543e+03
-7.816287918723233815e+03
-7.549079063837315516e+03
-8.632912378268367320e+03
-9.083934243867126497e+03
-5.157554520223725376e+03
-2.765084211425860758e+03
-1.698745923220328223e+03
-9.567698584155498338e+02
-1.021464117115890758e+03
-1.003066727275439689e+03
-1.630902935801976810e+03
-2.315266279758777273e+03
-2.494472511719747672e+03
-2.052939291795180907e+03
-1.628944275966337955e+03
-1.322716681982569298e+03
-1.355617083441080922e+03
-1.166059336407206274e+03
-8.353141963246255273e+02
-5.927093338580377804e+02
-3.256065066165322719e+02
-9.294014982472994006e+02
-1.684362708101084536e+03
-1.796831193881785111e+03
-1.724143175388500822e+03
-1.374692451659143899e+03
-1.357757443719610364e+03
-1.803611122995607275e+03
-2.197511661725256545e+03
-1.937620735117790218e+03
-2.160247061708157162e+03
-1.919659962543994880e+03
-1.388226655850405450e+03
-9.713324385665121099e+02
-9.372645152832515123e+02
-9.301494249428437797e+02
-9.101379146356113097e+02
-9.725042841096524171e+02
-1.023748036210605619e+03
-7.611846124650945740e+02
-1.093947558230725690e+03
-1.462247768182584650e+03
-2.090291514742742493e+03
-2.365208823508603473e+03
-1.169175306399261217e+03
-4.153537456239363337e+02
-3.159466153873791541e+02
-1.332540995116821421e+02
-2.955596120082592506e+02
4.909825808403061842e+01
8.239860710120204885e+02
1.318005375607876658e+03
1.802303540417868362e+03
2.314690330192967849e+03
2.310822986356200545e+03
2.017431900755226025e+03
1.889300259191213172e+03
1.146259773833057579e+03
9.860537747112445004e+02
-4.345406448208579491e+02
3.964388259473427638e+02
1.119703105035476256e+03
1.325266644686797235e+03
1.292930893567048543e+03
7.615045557835206864e+02
1.114907395803532836e+03
1.552108537453357258e+03
1.291051824725180495e+03
7.918871456559757007e+02
9.737431755651632557e+02
1.504262925102493227e+03
1.801514049301270006e+03
2.425528498146951733e+03
3.139251302191130435e+03
3.549657471595462994e+03
3.589646613907945266e+03
3.652054206472385886e+03
3.787744631276689688e+03
3.317759020311834320e+03
3.172010716827458964e+03
2.276414456151574996e+03
1.810035636932507714e+03
1.581189865956369431e+03
1.647603012767895734e+03
1.991105020701112153e+03
3.028774030325198964e+03
3.542393996860040716e+03
3.483834599438785517e+03
3.063109052842698475e+03
2.637460226248168055e+03
2.954733518229901620e+03
3.543617572228095014e+03
4.315399239301800662e+03
5.349025931207566828e+03
6.001232115950077059e+03
6.206761438607597483e+03
5.886522393920063223e+03
5.688474744324696076e+03
5.729525187337267198e+03
4.883544466001569162e+03
4.056596373090891575e+03
3.953590399068318675e+03
4.298609773953398872e+03
4.346641861499814695e+03
4.240613521242139541e+03
3.950345165079257640e+03
3.822678906157486381e+03
3.371562737023559748e+03
3.365811089964497114e+03
3.610303973867306922e+03
3.559132185183502315e+03
3.337389459441290910e+03
2.872857328506589511e+03
1.809343853783576151e+03
3.561612868512645036e+03
6.270471992074957598e+03
8.455024663449192303e+03
8.895232745580906339e+03
8.645218471637659604e+03
8.237991719778345214e+03
8.109570253678209156e+03
7.125979550733275573e+03
6.299980919496932074e+03
4.813135127696069503e+03
4.801517531486882945e+03
5.104217434492209577e+03
4.794734839677327727e+03
4.792959299564911817e+03
4.470698658106265611e+03
4.686935111295880233e+03
4.956318965877903793e+03
4.994302958031293201e+03
4.976247474335381412e+03
5.092617123165073281e+03
6.158075406269346786e+03
7.137840095600404311e+03
6.518094942803697450e+03
5.762724897086508463e+03
5.324999801168580234e+03
5.296682134299355312e+03
4.330320378661783252e+03
3.684292377847215448e+03
3.701086130124992451e+03
3.827901136430557472e+03
3.514805005077850183e+03
3.549959740519952902e+03
3.539528432858488486e+03
3.349307857117338699e+03
3.391207119558263912e+03
3.623039689166813787e+03
4.067373909113427544e+03
4.210534948196158439e+03
4.699946928180814211e+03
4.456288470584568131e+03
5.285323365811796975e+03
6.403843884796444399e+03
6.521988804700813489e+03
6.050533606961729674e+03
5.869583165717444899e+03
6.263000030110690204e+03
5.784754441451975254e+03
5.136071337973288792e+03
4.014081601589286038e+03
3.029443067872338361e+03
2.234708691922586695e+03
1.632944284070279537e+03
1.244135693957898184e+03
1.654259193755801334e+03
3.077285393923018091e+03
3.307072834933350350e+03
3.981844040531801511e+03
4.096362067291171115e+03
5.381556064262060318e+03
6.975670216158624498e+03
7.634069714772135740e+03
7.593266936671921940e+03
7.511801329243149667e+03
6.746541528479565386e+03
5.482372472492041197e+03
4.790643882821083935e+03
4.969263042053694335e+03
5.323592991288491248e+03
5.085125376292386136e+03
3.443606401104571887e+03
2.886038221277313369e+03
2.552485153198192165e+03
1.693030585368818947e+03
-2.758988239022692142e+03
-2.075803184176128070e+03
-2.038573399594707325e+03
-1.573335344447238413e+03
3.231900072942996303e+03
4.313132590032275402e+03
2.509729584955881819e+03
3.533911712377163894e+03
3.834083768440848417e+03
2.981568046091999804e+03
4.667478261334736999e+03
2.751940374830681776e+03
4.854859025486071914e+03
1.851175513715154466e+03
3.561099191196160064e+03
-1.116703534746831338e+03
2.893165241934796654e+02
4.635276863116221762e+02
-2.706501820737923936e+03
-3.579928482982968944e+03
-2.656705804104487470e+03
1.638142900063006664e+03
5.647082876118766137e+01
2.357007525840187689e+00
-2.279357886475790735e+02
-5.533821818736022351e+02
-3.421919929592869494e+02
1.905631153137317824e+03
3.361427003476200298e+03
2.847627843884719368e+03
4.256742548527548706e+02
-1.923165519909547356e+03
-3.273841035647912577e+03
-3.795044313564498680e+03
-3.792962620383537342e+03
-4.158107649941187447e+03
-4.711912460016153091e+03
-5.795965719109928614e+03
-5.819927260694585129e+03
-3.919325470944809240e+03
-3.545346109315176363e+03
-4.103341789807988789e+03
-4.187938713172673488e+03
-4.311206230342159870e+03
-5.533380342108521290e+03
-5.441818737895237973e+03
-3.566877599615670078e+03
-2.923104188295259519e+03
-2.185891050380150773e+03
-2.601799926935218991e+03
-3.686520760458916811e+03
-5.210297043624157595e+03
-7.285567653772118319e+03
-9.172323316138526934e+03
-1.013555141271482353e+04
-1.129770388502515198e+04
-1.239736740699127222e+04
-1.260546194210452086e+04
-1.103885906614317173e+04
-9.958004637690408344e+03
-1.085920013355922856e+04
-1.140495553060668499e+04
-9.615555904693312186e+03
-6.240960185887010084e+03
-8.585729774163077309e+03
-8.850278311684314758e+03
-5.606726916247474037e+03
-5.029231318705159538e+03
-4.967764153766078380e+03
-4.395321955929784053e+03
-5.133211301652662769e+03
-5.363518705671444877e+03
-3.722785585923556937e+03
-4.328957750231345017e+03
-5.827937536836806430e+03
-6.551102057735602102e+03
-6.947385480615682354e+03
-7.624589661086632987e+03
-7.397450543754865976e+03
-7.087913489881189889e+03
-6.762997082194062386e+03
-6.438648735650362141e+03
-6.665764857416788800e+03
-6.105296429050518782e+03
-5.088095990220218482e+03
-4.593808642580319429e+03
-4.484353857831182722e+03
-3.227758240872396527e+03
-1.223923518617672016e+03
3.224541096433450207e+02
4.365118871043060835e+02
8.183249942050957770e+02
1.205806777459405794e+03
1.253797669945737653e+03
3.883720764207358798e+02
-7.505421371482729000e+02
-1.417139110993626446e+03
-1.848319024907897301e+03
-9.311217680267387777e+02
-5.940242011575389114e+01
7.415836661911250758e+02
1.087853924180782997e+03
6.497282402274009883e+02
1.053898605910364950e+03
1.844517532705933718e+03
4.143195082120660118e+03
7.734315810844520456e+03
7.599584913121663703e+03
6.879609362237162713e+03
7.035930516317294860e+03
7.415240772299514902e+03
6.746958901209382020e+03
6.152627070768106023e+03
5.859788100591698822e+03
5.638811228767592183e+03
5.728338505576032730e+03
3.821790567778912646e+03
-4.084464575749076403e+02
-3.773964168770789001e+03
-2.918526577817762700e+03
-3.923689189307693141e+03
-2.622007885121566687e+03
-1.772059481526214768e+03
-9.024622970701585700e+02
-1.368797533997302253e+03
2.952200856474231614e+02
7.874799763349460591e+03
1.081796995333142695e+04
1.040104186340777233e+04
1.137346085336855140e+04
1.176934141093034668e+04
1.279591781962707864e+04
1.244229904114871715e+04
1.122975459010458144e+04
9.431777322554651619e+03
7.034427168798360981e+03
3.901707922690579835e+03
3.282824928075966909e+03
5.713949029331794009e+03
4.253207830877411652e+03
4.004658797355407842e+03
5.216451669779632539e+03
7.053740618780405384e+03
8.558709715583583602e+03
9.140530108976325209e+03
9.420349339362639512e+03
9.037271590373160507e+03
8.728463323389918514e+03
7.208054330202212441e+03
5.071051438535197121e+03
3.929741485844321687e+03
6.394242403490439756e+03
7.632793456916430841e+03
7.729649790637380647e+03
7.976821362384065651e+03
6.503488680656640099e+03
3.881906188726607070e+03
1.830417182971499415e+03
3.749292261225458788e+03
4.681751987990734960e+03
1.890925516395881914e+03
3.973139091619026203e+03
7.437568468037177809e+03
9.311384345474307338e+03
9.269997253837464086e+03
8.531788098175054984e+03
7.951173614643235851e+03
7.499449947667220840e+03
5.733102930765077872e+03
5.142695882206935494e+03
4.074709612973545518e+03
4.831570005363528253e+03
6.385669807389246671e+03
7.995542480082457587e+03
8.556703409325771645e+03
7.770706608176536974e+03
7.709124506290511817e+03
7.648630321486356479e+03
6.586713490994514359e+03
6.717975087560186694e+03
8.358045599017184941e+03
9.322617358485358636e+03
9.258380959989517578e+03
7.315104233948192814e+03
3.687235439550964202e+03
1.129377404845276033e+03
-1.737620401150461930e+03
-3.163489547120183488e+03
-3.818167937392568092e+03
-3.285246939873717565e+03
-1.389863918077642893e+03
-8.490270809106731349e+02
-6.303812353285846257e+03
-1.164028751331384774e+04
-1.884662151153064042e+04
-2.027279021034302787e+04
-1.552475475974684014e+04
-1.986252939947159757e+04
-2.422297997955052779e+04
-2.937209407408833067e+04
-2.857385269587291623e+04
-3.547417690557175229e+04
-3.652997320756603585e+04
-4.119109573731597629e+04
-4.345742434622367000e+04
-4.175985474967287882e+04
-4.064699179303609708e+04
-3.368573293169102544e+04
-2.689091552414457692e+04
-2.314023246599678532e+04
-2.035923659837808736e+04
-2.145466430463165671e+04
-2.434635353240643235e+04
-2.969003956191152974e+04
-3.473038998514897685e+04
-3.292808539281364938e+04
-3.273174734390862432e+04
-3.301607261690171435e+04
-3.382165170080625830e+04
-3.478815110985667707e+04
-3.780944114084428293e+04
-3.418410914070146100e+04
-3.037172232100085239e+04
-2.802486907873888777e+04
-2.643934622795863106e+04
-2.164881741800067903e+04
-1.691983165747500607e+04
-2.088096044571353195e+04
-2.024372720215331719e+04
-2.149473815771098816e+04
-2.211256390616677527e+04
-1.705380689147780504e+04
-1.590192016215569311e+04
-1.817452067415734928e+04
-1.890630691154272427e+04
-1.950476047081549041e+04
-2.029141005081408002e+04
-2.111917903160815331e+04
-2.268781166369110360e+04
-2.110184701010648496e+04
-2.164369941596938952e+04
-2.239790605588551989e+04
-1.912944640064087798e+04
-8.842078068214712403e+03
-1.648363023409692232e+03
2.297189952247561905e+03
4.836861220487531682e+03
