1.868273614871879909e+04
1.952778619593027543e+04
2.100959411108984932e+04
2.005091258425349224e+04
1.765944459012750667e+04
1.469170509932998721e+04
1.743324323406913754e+04
2.167589617836920297e+04
2.578246206570085633e+04
2.607555783186432382e+04
2.264951958260767424e+04
2.100081888466131568e+04
2.184800256837350753e+04
2.313035044414505683e+04
2.207933828226493642e+04
2.117369432561806389e+04
2.122384991008718498e+04
2.074497028080718519e+04
1.989130883776818882e+04
1.923007533557259376e+04
1.939355748468386082e+04
2.176929931113067869e+04
2.451028699155728827e+04
2.126357557974625524e+04
2.005338141305463068e+04
2.065177216852757192e+04
2.057383345643540451e+04
1.997150292367559814e+04
1.859085143497627723e+04
1.696996261438011425e+04
1.656581587342097555e+04
1.622243363877258344e+04
1.571055520202758817e+04
1.476706691153976681e+04
1.574380451639662533e+04
1.738247410295092050e+04
1.945884784795162705e+04
2.033076719549218251e+04
1.835709931124621289e+04
1.759569576707257875e+04
1.898221150373978162e+04
1.952024981267382100e+04
2.052762330458117503e+04
2.006010262323856659e+04
1.852819293421833572e+04
1.683049281712427546e+04
1.754669249268399653e+04
1.747326460265852074e+04
1.584874478460164391e+04
1.435681402015532876e+04
1.350510001693522645e+04
1.440799790009523713e+04
1.301467309364348148e+04
1.088361606341274273e+04
9.934499793263606989e+03
8.449777326204837664e+03
6.689875657641161524e+03
5.337176855148785762e+03
4.149228219572423768e+03
3.208573231818630120e+03
1.302455178196280485e+03
-3.517303415093959984e+02
-1.330580316113523168e+03
-3.121851917236100235e+03
-4.713205639401742701e+03
-4.709139906084675204e+03
-3.233385842393749954e+03
-2.903664531757953682e+03
-3.659467912110127600e+03
-4.493378730543385245e+03
-4.078983237234941043e+03
-2.866759025798582115e+03
-1.682832147172753821e+03
-7.601005692426934957e+02
-1.101871324461777249e+03
-2.728327466543947594e+03
-4.989210811943946283e+03
-5.021232460330526919e+03
-5.681943867552607117e+03
-6.085641708212987396e+03
-6.210715399902740501e+03
-8.210639871237763145e+03
-1.043694076943296022e+04
-1.265711628401737107e+04
-1.551374696404518727e+04
-1.286033692184315805e+04
-1.183823226790306762e+04
-9.922314391123074529e+03
-8.741919681543036859e+03
-8.876862507113652100e+03
-8.590722238601159916e+03
-7.761016378465435992e+03
-6.854189212847114504e+03
-7.382399889403607631e+03
-8.727693079687738646e+03
-9.783481466493070911e+03
-1.009793468259146539e+04
-9.836977929707813018e+03
-9.885662784968464621e+03
-9.311974999838872463e+03
-7.548948617191070298e+03
-5.387725848264195520e+03
-4.827247315911681653e+03
-5.125546517868209776e+03
-5.750501273770366424e+03
-6.848028002363944324e+03
-7.793120133231917862e+03
-9.060515486202051761e+03
-8.654902951046637099e+03
-7.796054707706634872e+03
-7.438803414461581269e+03
-6.078952234562231752e+03
-3.249007561044536942e+03
-2.636717699935944893e+03
-4.209767007284064675e+03
-6.217652134809121890e+03
-7.603856020036079826e+03
-9.081978913752434892e+03
-1.063241606869743191e+04
-1.242538423039139707e+04
-1.497324619327734035e+04
-1.595748728210914305e+04
-1.629055098798782637e+04
-1.698274757034476352e+04
-1.737929442910786020e+04
-1.635442609863839425e+04
-1.191333111962036492e+04
-9.439159111270935682e+03
-9.984970803313717624e+03
-1.047686336514976392e+04
-1.016807176595192868e+04
-8.905782571778256170e+03
-7.329052926897934412e+03
-6.292737061527118385e+03
-4.414559709172855946e+03
-3.695446142614447126e+03
-5.748346473952040469e+03
-9.512133675891982421e+03
-1.035275395991484402e+04
-1.057614933384898904e+04
-1.028019480978419051e+04
-8.809693080471704889e+03
-7.240520297593247960e+03
-3.334530002290389803e+03
-2.214163977856122074e+03
-1.952402569194129683e+03
-3.190057852119860854e+03
-4.087000075487031609e+03
-4.606851583796338673e+03
-4.709343723424453856e+03
-4.367252801543873829e+03
-3.264304712128142000e+03
-1.921185460701443390e+03
-2.057503213098761080e+03
-1.748030628084608679e+03
-6.825440182528467403e+02
1.204245094421806243e+03
3.296599385240323045e+03
5.091920809818031557e+03
6.911549597450723013e+03
8.691542705820038464e+03
1.001510628402495058e+04
9.895520017959515826e+03
9.698953414715269901e+03
9.011545762130128423e+03
7.879562226492442278e+03
7.137132654940814064e+03
7.534271008994148360e+03
9.599072509948548031e+03
1.187275595233141576e+04
1.274659556145757415e+04
1.301942923609672107e+04
1.333327371451687031e+04
1.290516617082075936e+04
1.299125285753832577e+04
1.349841353081776106e+04
1.512334233303615656e+04
1.627294037031212429e+04
1.723699116042030801e+04
1.765025825576735588e+04
1.730874360975060699e+04
1.719030434693908319e+04
1.781175434916107406e+04
1.858871112908272335e+04
1.900865349150886323e+04
1.858010240673127191e+04
1.849744472192075773e+04
1.873234447132912101e+04
1.840042583398510396e+04
1.834484488701400915e+04
1.768705827914010661e+04
1.782354712288564406e+04
1.956268647113349652e+04
2.039967078574186962e+04
2.050170918744781738e+04
2.040397754592443016e+04
2.210867437902420352e+04
2.317179207120536739e+04
2.199349362227575330e+04
1.957875955832160616e+04
1.775855109716698280e+04
1.600390702645208148e+04
1.495775205605346127e+04
1.153639978374424390e+04
8.712717603778513876e+03
8.800621330129219132e+03
8.818799825888963824e+03
1.041920542798649331e+04
1.231461580856449837e+04
1.203952815244664271e+04
1.053841537506583518e+04
1.041169335556867918e+04
1.020600641974801329e+04
1.141882811155797935e+04
1.253642228260520278e+04
1.268229582674414451e+04
1.224980661094435891e+04
1.031834403340336576e+04
8.952102217474139252e+03
8.047439002075784629e+03
6.875822275354998965e+03
6.264277506987882589e+03
6.199700749900908704e+03
5.170428778199526278e+03
3.906485124418338728e+03
4.636764622476568547e+03
5.195434796751306749e+03
3.844543439431187835e+03
1.920028903335844916e+03
5.728005122216148948e+02
-7.280588159374474344e+02
-2.330446098390001680e+03
-3.583646419547040296e+03
-3.332909513772011906e+03
-2.868181365993806139e+03
-3.697338539361300263e+03
-4.093583150640243730e+03
-3.714228570824718645e+03
-3.786512204839141759e+03
-3.743439995374856608e+03
-4.501423192817102972e+03
-5.181751594267873770e+03
-5.898856713889045750e+03
-6.630133684563745192e+03
-6.616904530006654568e+03
-6.955183387663103531e+03
-6.974209694410636985e+03
-6.757302276748296208e+03
-7.322708065385153532e+03
-7.809778193796017149e+03
-8.096881484019946583e+03
-9.119358222537281108e+03
-1.012444985508445279e+04
-1.025015132687959340e+04
-8.947760994051388479e+03
-9.396546261259232779e+03
-9.980608189639577176e+03
-1.037822775285678654e+04
-1.121496112806434030e+04
-1.163013049004230197e+04
-1.142299086300506133e+04
-1.159222207047529264e+04
-1.205658826879537082e+04
-1.180394008119046339e+04
-1.106706061768824657e+04
-9.283953691721280848e+03
-8.523486469823312291e+03
-8.729731263139885414e+03
-8.599941440205549952e+03
-9.416591284448550141e+03
-1.050608780845289948e+04
-8.926063295657200797e+03
-7.575548694233589231e+03
-7.194782272326288876e+03
-7.260436182320829175e+03
-8.320276088728161994e+03
-9.935922533482998915e+03
-7.201034883406273366e+03
-5.070339635268839629e+03
-4.564745709298899783e+03
-4.991782571211405411e+03
-5.731223503262694067e+03
-5.474646755596708317e+03
-5.036079006727522028e+03
-4.307628581034108720e+03
-4.355956219571092333e+03
-4.964929965074781649e+03
-4.349338766760482031e+03
-3.283833010212590125e+03
-2.590858032412232660e+03
-2.060552435573092680e+03
-2.103257895868137894e+03
-2.763571721601424997e+03
-3.473351105250252203e+03
-2.061641894786409466e+03
-4.081565086031010310e+02
-9.226333075579611886e+02
-1.462462595917732642e+03
-1.446890511372452693e+03
-1.263468718075101833e+03
-1.075454238708543699e+03
-1.163978662661284744e+02
6.802670699095249347e+02
4.622397710434843532e+01
-5.144187370385133136e+02
-1.628656393901019896e+02
1.441074348102849171e+03
2.914714649751474099e+03
2.655461781695206355e+03
2.124954421546095091e+03
3.033418919894044393e+03
3.976478506546295648e+03
4.452278440774567571e+03
4.201753611144528804e+03
4.448489705064320333e+03
5.650177968026954659e+03
5.884056074478975461e+03
5.284227647172755496e+03
6.103976903876468896e+03
6.043492862853557199e+03
5.375130622867439342e+03
4.977445277516641909e+03
4.783120874637636916e+03
4.975879899904755803e+03
5.347280814175912383e+03
6.414840396449043510e+03
7.987605116146061846e+03
8.968878964764362536e+03
7.470047892619318191e+03
4.066031354545295926e+03
1.710030692779231686e+03
2.889913283272371700e+03
4.193879749633908432e+03
3.896324976733553740e+03
2.620560965352562562e+03
2.316240137008860984e+03
2.063227205329221306e+03
1.723854163418689041e+03
1.708243027106775344e+03
2.266570832398133007e+03
2.252780966817968874e+03
2.748292865643447840e+03
2.920254645736602924e+03
5.997440294415445351e+03
1.099381488947509752e+04
1.144734971930844222e+04
1.057844307674509218e+04
9.955914752549646437e+03
8.825691877323090011e+03
8.242222268305531543e+03
9.429419590374196559e+03
9.235744927209570960e+03
7.999695552021844378e+03
7.432439529536110967e+03
7.356643467642290489e+03
7.106462333987056809e+03
7.020429641488535708e+03
6.993043875442594072e+03
7.578781638671812289e+03
7.925607609371926628e+03
7.877660739323029702e+03
7.919225158457268662e+03
6.998030134861105580e+03
6.177464916042259574e+03
6.164602998718711206e+03
6.124734473651299595e+03
6.099390253321600539e+03
6.273273678624097556e+03
5.620271790162283651e+03
4.303374868236008297e+03
3.887107262561864445e+03
3.840214611732975754e+03
3.360152622920552403e+03
2.745433898930071791e+03
1.941525729976435514e+03
1.383909306371072262e+03
1.731020775268385933e+03
2.748427574693249881e+03
2.245383760207094838e+03
1.215181114713702073e+03
1.122445463100202232e+03
1.231601597900497836e+03
5.682337306471774809e+02
-7.723615736875998437e+02
-1.213587162611582926e+03
-1.277880254713522390e+03
-1.384928796126482439e+03
-1.904793477370099254e+03
-3.423418383831974552e+03
-5.345587524264062267e+03
-4.875318961383832175e+03
-4.266792007366652797e+03
-3.945760556541527876e+03
-2.642351031649835477e+03
-1.508182249223217923e+03
-1.319614162840219251e+03
-2.421878037318261249e+03
-3.957335063606236872e+03
-2.769082737608477146e+03
-4.754851530552114127e+03
-3.899292330189059157e+03
-2.982871990802460914e+03
-1.699798994779511759e+03
-2.523967114176806263e+03
-2.819348201247908037e+03
-3.127465164357318372e+03
-3.235335785676231353e+03
-3.622373452850879403e+03
-4.427722299077210664e+03
-4.614304502324789610e+03
-4.865745230835091206e+03
-5.533460788939949452e+03
-6.128296839371340866e+03
-7.090129360695449577e+03
-6.520683236297938492e+03
-5.257596706528095638e+03
-4.965686039901967888e+03
-5.546769026416654015e+03
-6.587664056121281646e+03
-7.037365958400589989e+03
-7.114949974822895456e+03
-6.548532109253601448e+03
-6.661491355272823967e+03
-7.145185233988020627e+03
-7.936903422521992979e+03
-8.694950233163686789e+03
-7.599517826348416747e+03
-7.488725617803124806e+03
-8.071709953866117758e+03
-9.097532403606634034e+03
-8.811313671440640974e+03
-8.361104129872734120e+03
-8.788824509382238830e+03
-9.168440446907648948e+03
-1.013395513775844120e+04
-1.118929320764068507e+04
-1.146735112698838930e+04
-1.147691719491597178e+04
-1.017494882171924291e+04
-8.573513761480813628e+03
-9.367489871388148458e+03
-1.091473478318557136e+04
-1.199606863770015116e+04
-1.166341049092890171e+04
-1.061475510170049347e+04
-1.057904432438832009e+04
-9.810010374304398283e+03
-8.897362565772999005e+03
-7.199072731202947580e+03
-7.201863947270193421e+03
-7.600338895866850180e+03
-8.046210216541147020e+03
-7.952049838703678688e+03
-7.916989836604083393e+03
-7.863533115453103164e+03
-7.783829318418534967e+03
-7.349921361813683689e+03
-6.384786714239785397e+03
-4.341268518280163335e+03
-5.365192329656726542e+03
-7.660387327730998550e+03
-1.010450686762352780e+04
-1.399916402945359187e+04
-1.397870599747319284e+04
-1.060850985979082361e+04
-8.038531572913431773e+03
-7.471222960240103021e+03
-7.491258263038999758e+03
-6.847693215866622268e+03
-6.859465368492425114e+03
-8.526371660763117688e+03
-9.431959539252267859e+03
-9.829842197263138587e+03
-9.161773919184723127e+03
-9.296490631892034799e+03
-8.800788199893162528e+03
-5.692568277759320154e+03
-4.065702017766936478e+03
-5.157950496387427847e+03
-4.479076053113300077e+03
-4.236800537578414151e+03
-6.236782859528800145e+03
-6.565045644064229236e+03
-6.202400239471507120e+03
-6.666347669224272067e+03
-8.526693915195421141e+03
-9.202363066987016282e+03
-6.744062116587437231e+03
-6.917489596171376434e+03
-1.001350632264426531e+04
-1.108323606147038117e+04
-8.834591230532319969e+03
-6.391350347007501114e+03
-5.686553350785927250e+03
-6.256168061829921498e+03
-3.416999097290130976e+03
-2.193890757760354973e+03
-8.687733498820607565e+02
-5.075506445409218941e+02
-1.336975451239467247e+03
-3.422832398336710412e+03
-3.532029320052240564e+03
-3.419455870099833646e+03
-3.377219997048071491e+03
-1.936301635059536920e+03
-1.032436604397663359e+03
-1.958631523095886678e+03
-4.486956425375167782e+03
-6.766235413204473844e+03
-5.616414836952770202e+03
-6.121811853470160713e+03
-5.810642950871253561e+03
-2.812658629796301739e+03
-4.568184926190883175e+02
7.329173645161673676e+02
2.471512795216237009e+03
1.986857071326006462e+03
-7.262188927229166438e+03
-1.388067385716787794e+04
-1.050653936086861722e+04
-1.184391221295821197e+04
-9.673074128886015387e+03
-5.950496191788321994e+03
-4.470474442476852346e+03
-2.748287678470078845e+03
-2.716231970445150637e+03
-6.074807605309926657e+03
-6.139247926879705119e+03
-5.560982318025062341e+03
-6.387452263912735361e+03
-2.589051541216333135e+03
5.632766933768544732e+03
7.329696866035571475e+03
5.143607551655157977e+02
-1.894248437477203424e+03
-3.374719627723192389e+03
-6.575475648818714035e+03
-7.349057111388257908e+03
-2.092114212691020839e+03
1.360565902207352565e+03
8.933671002823624576e+02
1.081623682092318177e+03
-8.603600205357665800e+02
-2.974347196800177244e+03
-4.803172616860766539e+03
-3.907709373854022942e+03
4.312244842050202351e+03
6.844775157899073747e+03
-3.293986432937074369e+03
-4.745927263620476879e+03
-1.130433452938249701e+02
-3.255161650169090422e+02
-3.221426201737630436e+03
-3.296593316739645616e+03
-1.234024403462238297e+03
1.412284552252577612e+02
2.185078487132393548e+03
4.325621343759017350e+02
-4.099427935636362236e+03
-7.645144151031133333e+03
-7.482520626731524317e+03
-8.761552917387532943e+03
-4.722428518847924352e+03
-6.415422899460693770e+03
-1.295768464531419158e+04
-1.274131534016893420e+04
-8.857589883359652958e+03
-7.183812785183390588e+03
-2.874990159043199583e+03
1.610652612280661288e+03
1.642884411718448291e+03
-3.106625657025300370e+03
-6.207178685479352680e+03
-1.101080778600789745e+04
-1.441861612013738886e+04
-1.712595550643365641e+04
-1.851802347342704161e+04
-1.445301106386066022e+04
-1.456113007645933612e+04
-1.951051630317169111e+04
-2.167335308680590970e+04
-2.138142658781594218e+04
-2.413690015341947219e+04
-2.560986556304496116e+04
-2.465946311477896234e+04
-2.854147258522297852e+04
-3.512776268690673169e+04
-3.702635507007192791e+04
-2.849051051789509802e+04
-3.103282168365870803e+03
3.179557643779226055e+04
8.122235165234585293e+04
1.539612166849661153e+05
2.349044630554467440e+05
2.469674122605450393e+05
2.307840783864302794e+05
2.483710321030789637e+05
3.459009213889341918e+05
4.779832132375286310e+05
5.389074726737726014e+05
5.721770397428976139e+05
5.526993388350637397e+05
4.395483517117632437e+05
3.000459357677699882e+05
1.859449613490928896e+05
9.623550523628889641e+04
-2.165231695510470672e+03
-1.192485553010877629e+05
-2.007093622844986094e+05
-2.406375175517481985e+05
-2.490069977325490909e+05
-2.396896590038711729e+05
-2.153082019726342114e+05
-1.854841643473562144e+05
-1.641389666226558329e+05
-1.489203017523212766e+05
-1.384806654285103141e+05
-1.315664076329095988e+05
-1.228298068040424405e+05
-1.159549515531068173e+05
-1.166439167361526197e+05
-1.214107949526886805e+05
-1.289716429726554925e+05
-1.387084840981239686e+05
-1.467313284376314841e+05
-1.500330011797194020e+05
-1.435351319696127903e+05
-1.362543596457183594e+05
-1.304192784179217706e+05
-1.241635278108051134e+05
-1.185505935640556127e+05
-1.133488643492147239e+05
-1.093696884508779331e+05
-1.055554585822321387e+05
-1.035764967312429071e+05
-1.039339327395114233e+05
-1.033099342902804783e+05
-1.034346940123887616e+05
-1.004052285947648488e+05
-9.426638268352345040e+04
-8.536696083845861722e+04
-7.508479418187576812e+04
-6.332662157562865468e+04
-5.386920321463574510e+04
-4.495331537951468636e+04
-3.463848102550597832e+04
-2.671232075875374358e+04
-2.239767166139379697e+04
-1.861608979365378764e+04
-8.451066154563857708e+03
3.575851363553110787e+03
1.288523937952545566e+04
1.871470332556383073e+04
1.836921515352457209e+04
1.506550810425137206e+04
1.243798252060710547e+04
1.496350876208159025e+04
2.113053309574812374e+04
2.291371767701243516e+04
2.271878657988256964e+04
2.088957555048234281e+04
2.388375727195883519e+04
2.617015558437955406e+04
2.198255988017298296e+04
1.398467205877800006e+04
3.912202295519532527e+03
-6.602123515159538329e+03
-1.249661809584883122e+04
-1.812559557186455277e+04
-2.348234445514103209e+04
-2.674315320922740284e+04
-2.651353355507699962e+04
-2.395293589711442837e+04
-1.834576488264800719e+04
-9.205519193138461560e+03
6.473238096255729488e+02
1.173616880242875777e+04
2.342836108384178442e+04
3.207324004979288293e+04
3.813924354122975637e+04
4.303663884532164957e+04
4.729253369032762566e+04
5.101599197825343435e+04
5.310792434480362863e+04
5.344439157179654285e+04
5.324627113658298185e+04
5.044350001575558417e+04
4.665577347176072362e+04
4.348179597795160225e+04
4.141631405563447333e+04
3.843197054605892481e+04
3.556828661926910718e+04
3.266463685033025831e+04
3.079723146054322569e+04
2.874628606380749625e+04
2.548083159859832085e+04
2.281181060518283266e+04
2.050031619558669991e+04
1.836421141381256894e+04
1.619720920085412945e+04
1.283694438901632930e+04
7.533888190434799071e+03
3.608462453086604000e+03
6.409293236267481007e+02
-3.439582569388448974e+03
-4.105035815606845972e+03
-1.413219650114266869e+03
3.899012610384901109e+03
1.514851905697023722e+04
2.838907867552041716e+04
3.608501949171773595e+04
3.945870783819573262e+04
3.933860282735440705e+04
3.755912653473669343e+04
3.499731488878736127e+04
3.242807364322283684e+04
2.587762723699328490e+04
1.977598469203625791e+04
1.794416721710076308e+04
2.252924575944731987e+04
2.229333285638642701e+04
2.072252633799299656e+04
2.165824042471767098e+04
2.307181259958121518e+04
2.242249499474281038e+04
1.928840222274236294e+04
1.684460609566041603e+04
1.737817211575730471e+04
1.959598344049093066e+04
2.210962472031829384e+04
2.389186614663492583e+04
2.606750719664069402e+04
2.722891254692298389e+04
2.670819129251383856e+04
2.661879669813625151e+04
2.722929039898878909e+04
2.755772233053262971e+04
2.913435030353940238e+04
2.982351426126853403e+04
3.029917704198479623e+04
3.281627710395622125e+04
3.470888346228262526e+04
3.544502409335075208e+04
3.745536743878076959e+04
4.091148711852875567e+04
4.472431993328438693e+04
4.684290893182336004e+04
4.877192848388269340e+04
5.065176115481229499e+04
5.057882144852261263e+04
4.972881835241770750e+04
4.903951971259255515e+04
4.870430896164446312e+04
4.653680739007579541e+04
4.341739692880330404e+04
4.131571351572907588e+04
4.025249050133411220e+04
3.988438060410155595e+04
3.968070858871645760e+04
3.742401910052345193e+04
3.456991227891463495e+04
3.349791108701503981e+04
3.184366249791542941e+04
2.890098199146024126e+04
2.699362663689414330e+04
2.563127504339689040e+04
2.086941902684753950e+04
1.438492897264331805e+04
9.072530605253912654e+03
4.011772661196867375e+03
-8.537066850161444620e+01
-4.533945050935700237e+03
-9.271096309097976700e+03
-1.412557899996600099e+04
-1.861145340836057585e+04
-2.073255735071761956e+04
-2.095133470220581512e+04
-2.072120646186823797e+04
-2.148108605019622337e+04
-2.297560104917392528e+04
-2.506511937345449769e+04
-2.642827745332298218e+04
-3.108432382687092104e+04
-3.513987791644482058e+04
-3.720932693457416462e+04
-3.948278737617419392e+04
-4.199592177648536745e+04
-4.495215752573995269e+04
-4.679965129170908767e+04
-4.760568570940128848e+04
-4.976621303238839027e+04
-5.228292930894425081e+04
-5.397128328566520213e+04
-5.555537949287929951e+04
-5.773565159057074197e+04
-6.075053729904201464e+04
-6.272881052630554041e+04
-6.354425253730281838e+04
-6.423943140164914803e+04
-6.538174277000039001e+04
-6.566407098605297506e+04
-6.569255225016095210e+04
-6.487983383623770351e+04
-6.422054106269597105e+04
-6.333086267864811816e+04
-6.234171168846415094e+04
-6.197239175969392090e+04
-6.205227415699987614e+04
-6.276295392087828805e+04
-6.325755126752195793e+04
-6.386268501862604899e+04
-6.429824379031699937e+04
-6.514549768278517877e+04
-6.466464966939244187e+04
-6.338744912132076570e+04
-6.402881617601699691e+04
-6.400753181031311397e+04
-6.235957261589031987e+04
-6.017637192413981393e+04
-5.775710849225316633e+04
-5.447388255915407353e+04
-5.141361869203908282e+04
-4.976515588712512545e+04
-4.820620179150711920e+04
-4.371792191924041254e+04
-3.929265116019106063e+04
-3.552147780007893743e+04
-3.273702407356206459e+04
-3.011158248877188817e+04
-2.603102684784140001e+04
-2.131099860316356717e+04
-1.687225076350579911e+04
-1.322947329023311977e+04
-1.061737350513465753e+04
-8.900960663532314356e+03
-7.466385902258575697e+03
-7.067595753283152590e+03
-2.580988970486303970e+03
2.078962384664042929e+03
7.668186993710117349e+03
1.212735269859855543e+04
1.744104666354688379e+04
2.217143191975168884e+04
2.675763465292482942e+04
3.075121361116587650e+04
3.319632651831572730e+04
3.532925089367412147e+04
3.743646929781523068e+04
3.952600787864953600e+04
4.186086425954406877e+04
4.419578525741723570e+04
4.186824380911934713e+04
4.146269062127033249e+04
4.269251399189162476e+04
4.389740075298312877e+04
4.486853850350762514e+04
4.558669269728979270e+04
4.604927582600997994e+04
4.579257077397466492e+04
4.477852304123563954e+04
4.379781065093859797e+04
4.417303525902213005e+04
4.853838900966901565e+04
5.153032974324732641e+04
5.436422060975108616e+04
5.660390902642585570e+04
5.743379991214958864e+04
5.726521025927540177e+04
5.644429969680983049e+04
5.662690134452894563e+04
5.882136324133127346e+04
5.940108081485962612e+04
5.891226099895362859e+04
5.793905990717270470e+04
5.692670086729605828e+04
5.634993436139642290e+04
5.666659579032455076e+04
5.787409739503660967e+04
5.896871987044074922e+04
5.949446482126036426e+04
5.875232552081386530e+04
5.684593285127003037e+04
5.530952180351406423e+04
5.500076373225519637e+04
5.559274278091723681e+04
5.482176232817876735e+04
5.388294183126479766e+04
5.313629313607312361e+04
5.284975081791981938e+04
5.255427996983464254e+04
5.238974500961674494e+04
5.172798729319930135e+04
4.984887976958759100e+04
4.693494359753459867e+04
4.378561956942819234e+04
4.086803798971330980e+04
3.796424875787460041e+04
3.579330981719958800e+04
3.482305836552722758e+04
3.398664762157032237e+04
3.193533768567124207e+04
3.053407688774548660e+04
2.841348406807256106e+04
2.510519787704008559e+04
2.164624768915007735e+04
1.791232699964177664e+04
1.404664063195782728e+04
1.018171567525845421e+04
5.245706901948560699e+03
3.214490344111035483e+03
1.831966537782950809e+03
6.462029458021099515e+01
-2.362207040440574474e+03
-5.269449909052500516e+03
-8.557172948465698937e+03
-1.116327865877281693e+04
-1.445457617255656442e+04
-1.832493406556648188e+04
-2.128284377146674160e+04
-2.326551300624341093e+04
-2.576639887604238538e+04
-2.897526550736435092e+04
-3.149624410902363525e+04
-3.419937143938323425e+04
-3.740106381005480216e+04
-4.007967875921648374e+04
-4.229665697013790486e+04
-4.447851216891728109e+04
-4.591892516851337132e+04
-4.721850630978547997e+04
-4.939130733090541617e+04
-5.156448040910161944e+04
-5.365984206923745660e+04
-5.600434401046510175e+04
-5.761994203441657010e+04
-5.763731787283012090e+04
-5.712818621917020937e+04
-5.750741627357986727e+04
-5.848578647025445389e+04
-5.924307066189032776e+04
-5.970502233881264692e+04
-6.145843499173113378e+04
-6.290216378532107046e+04
-6.433453843218363909e+04
-6.564999606850664713e+04
-6.640250651646782353e+04
-6.587700236850038345e+04
-6.511816091007267823e+04
-6.454067800581986376e+04
-6.428530379973693198e+04
-6.352893628754127712e+04
-6.211924694565757818e+04
-6.077286201512256230e+04
-5.936365619852892269e+04
-5.849549873950037727e+04
-5.779704878226589790e+04
-5.568193519557755644e+04
-5.318973804477866361e+04
-5.152686265517105494e+04
-4.988213714762368909e+04
-4.931720122449906921e+04
-4.916023477186595119e+04
-4.849593536078980105e+04
-4.543634855926022283e+04
-4.166961827304902545e+04
-3.586009543824342836e+04
-3.313663932950919843e+04
-3.225429694818278949e+04
-3.086318191253758414e+04
-2.740050439740097499e+04
-2.509456589818789143e+04
-2.384236889113197685e+04
-2.283118718950728726e+04
-2.242216437225650589e+04
-2.004336982085782438e+04
-1.459543233309109564e+04
-1.127784901128994898e+04
-9.038296879121502570e+03
-6.496941600472144273e+03
-5.119152890089314496e+03
-3.909082739558604317e+03
-2.141432422238405707e+03
-4.605176694010222036e+02
8.267372053748873668e+02
2.843973638082496564e+03
2.558424896884964255e+03
4.125508416960745308e+03
7.627446929574290152e+03
1.001252600123176489e+04
1.106250192158198297e+04
1.199862077160219815e+04
1.336715705776919640e+04
1.376464195906824716e+04
1.460542291559415025e+04
1.568690291193552002e+04
1.682284854121268654e+04
1.775522366742954182e+04
1.939446127698223791e+04
2.112400279602889350e+04
2.131793495189166060e+04
2.167610086986860188e+04
2.166703773864203322e+04
2.214072020393551793e+04
2.388799138689806568e+04
2.576408837580033287e+04
2.563167192941701433e+04
2.512876653714598433e+04
2.539491921309113604e+04
2.695129067585602752e+04
2.840184078298119857e+04
2.806791645337731825e+04
2.790317837790163321e+04
2.885852116922126879e+04
2.963993775151954105e+04
2.913002974456533775e+04
2.839712934452047557e+04
2.771277052166965950e+04
2.761932280726396493e+04
2.775522082505644721e+04
2.851118239520660063e+04
2.858756473412089326e+04
2.813479633692601419e+04
2.798315127472650056e+04
2.771549305380547594e+04
2.729403114240957075e+04
2.609883551867431743e+04
2.596938432072909200e+04
2.530733229755479624e+04
2.355430643013017107e+04
2.188192212804693918e+04
2.052573546282089592e+04
1.939537378765535686e+04
1.907014872200494574e+04
1.781037022060011805e+04
1.627670117861839753e+04
1.603780119744928015e+04
1.571424096630946406e+04
1.268267133677537822e+04
8.193630219965978540e+03
7.140931884290648668e+03
5.628227161929201429e+03
3.775849189283437681e+03
4.401446129844493953e+03
3.012647485949741167e+03
2.739970038756488975e+03
2.480059307294710379e+03
1.107261199592712501e+03
1.001200689927617020e+02
-1.413833808662274578e+03
-3.144203494984282315e+03
-6.648338053849072821e+03
-8.628551732037123656e+03
-8.749582685636012684e+03
-1.144510812407083540e+04
-1.113954103681565539e+04
-9.360637897828484711e+03
-1.255007710098112511e+04
-1.216355750008518953e+04
-1.298776295305568783e+04
-9.828371559154458737e+03
-1.136497591667186134e+04
-1.256536099465210100e+04
-1.146230628952367442e+04
-1.065039982920167495e+04
-1.270334331520592059e+04
-1.167687200561743157e+04
-9.178780498366986649e+03
-1.030565863676718072e+04
-1.156430244895891155e+04
-1.196460760036887768e+04
-1.164236981831088633e+04
-1.419247837605929271e+04
-1.578663094733692560e+04
-1.658673007880532168e+04
-1.528073422759101049e+04
-1.525549096874206953e+04
-1.507089686910633645e+04
-1.396786187259090002e+04
-1.278822297889242145e+04
-1.277582769927506524e+04
-1.404665594374993816e+04
-1.507191894314742422e+04
-1.572083667779102689e+04
-1.611337813794818612e+04
-1.415041097544738113e+04
-1.179295245129539398e+04
-1.030021031358024993e+04
-8.975212014501435988e+03
-8.293879390229107230e+03
-8.542165295682083524e+03
-9.502058509423139185e+03
-1.039045109617230810e+04
-1.104730799502902482e+04
-1.029971046475581898e+04
-9.018903487975483586e+03
-8.124951532316353223e+03
-7.416108136850798473e+03
-6.760367887445695487e+03
-6.825598790340422966e+03
-7.461695906005288634e+03
-8.760778856516995802e+03
-8.259898966661203303e+03
-7.254805156499347504e+03
-7.422338512234701739e+03
-6.934540178789304264e+03
-5.530519261712530351e+03
-5.145259692868594357e+03
-5.141675556701467031e+03
-3.797360866385956342e+03
-3.373285440458215362e+03
-3.458393608997076626e+03
-2.680618274011210815e+03
-1.899178173453417912e+03
-1.358891600236024715e+03
1.764466037377523833e+02
3.112358660024429810e+03
5.108944945051034665e+03
6.484164792681509425e+03
8.875080515609444774e+03
1.183219733716810515e+04
1.476876620977905259e+04
1.755413325907394756e+04
1.880340635620796456e+04
1.756968025477614356e+04
1.804523402453201197e+04
1.868945488203848436e+04
1.994166166811478615e+04
2.170783028428122998e+04
2.260906336669598022e+04
2.236168293033217924e+04
2.268910095473174442e+04
2.360764354379030556e+04
2.327153470297959211e+04
2.284002942710595744e+04
2.364738760886214004e+04
2.350093391800380778e+04
2.311596804968244032e+04
2.266595717341782438e+04
2.191736440915854837e+04
2.166854438971599666e+04
2.053989115478576059e+04
1.995976180103854858e+04
2.049762107920760900e+04
2.078689603166316738e+04
2.086805854591821480e+04
2.110847567492875532e+04
2.224659712792918799e+04
2.317091059773400411e+04
2.427191437033273178e+04
2.522126645221409854e+04
2.403161552423214380e+04
2.150252495770083624e+04
1.808852294097030244e+04
1.524513081867077199e+04
9.999967410585950347e+03
7.898578351690636737e+03
8.055406441939423530e+03
9.200139343579636261e+03
1.018443399136926018e+04
7.781967171544680241e+03
5.455373806938210691e+03
2.196273421112667620e+03
3.514112525048393536e+02
2.143522521895225964e+03
-1.296698237846870370e+03
-1.770521935831705605e+03
-1.639506117926529441e+03
-3.587982782841966582e+03
-5.562263437315717056e+03
-4.662674150238780385e+03
-1.433264196473619677e+03
-1.244215925427906086e+03
-9.739398932893435585e+02
-7.796428620943980832e+02
-1.155683710393176398e+03
-3.039497360022515750e+03
-2.752354176748990085e+03
-1.900434284219392794e+03
-3.858004055438463638e+03
-5.814208322611426411e+03
-6.183216764879551192e+03
-7.186453262142121275e+03
-9.502278782900541046e+03
-1.153392901723559953e+04
-1.264057225683066645e+04
-1.141956601345992931e+04
-1.157625759973094137e+04
-1.303688205373015262e+04
-1.347468229087560030e+04
-1.336895468837177032e+04
-1.278887526227265153e+04
-1.186379335906535198e+04
-1.106315012666317125e+04
-1.144321709106222988e+04
-1.149622017251711986e+04
-1.094152053251716461e+04
-1.074343120547177205e+04
-1.213920489114051088e+04
-1.537605616862395618e+04
-1.602426612297485190e+04
