-1.463510414229581102e+03
-1.330244023240083834e+03
-1.407433129762806175e+03
-1.113979195079135934e+03
-3.250302114858496338e+02
8.004072149571090904e+02
6.977009374706378821e+02
-1.169890949062556160e+02
-1.582879169616908030e+03
-1.987424524788035342e+03
-1.900374512113248784e+03
-1.682087949692168195e+03
-1.381911909944813260e+03
-2.004944510789017386e+03
-1.454960459622071312e+03
-1.286589252606800528e+03
-2.429773037249386107e+03
-2.846431979231999776e+03
-2.054494778705936369e+03
-1.868123778618048391e+03
-1.208353071011636303e+03
-1.630332457397557562e+02
7.729785867398070422e+02
1.313934525777039198e+03
1.558819834264408428e+03
1.812730358207241352e+03
1.699607077465906286e+03
1.644820269251010586e+03
1.208636671869539214e+03
7.943072907860210989e+02
9.377263875634231454e+02
1.092164842990993520e+03
7.706447969035821188e+02
-7.918908704568157475e+01
-8.345052843892824512e+02
-1.222120944308091339e+03
-1.617836459825336760e+03
-2.126889144136655432e+03
-2.013378918935410866e+03
-1.366153791911046937e+03
-5.883599459551606969e+02
5.110468301086542624e+02
1.496104335627684350e+03
1.234661730956196379e+03
1.376660927410217255e+03
1.552098962221747342e+03
2.005978815295602544e+03
2.243507918526803223e+03
2.211767111468155690e+03
2.229652764234154347e+03
1.654115114111281400e+03
6.251903935677138406e+02
1.389096057281253138e+01
-1.580864741671510032e+01
1.450387468150742336e+02
-2.378868633968044719e+02
8.337938337298216140e+01
2.440776673920831570e+02
2.292044561933571458e+02
9.108330160618003219e+02
1.511721181755212456e+03
2.428586969635042351e+03
3.467653567548739375e+03
3.914256915620272594e+03
3.955692368613177223e+03
4.451997809526726996e+03
4.693120072063782573e+03
4.416960978273471483e+03
3.745509677328951511e+03
3.145606221944510253e+03
2.667182101075378341e+03
1.720118172169286936e+03
3.235142220227833718e+02
-2.001408556292292587e+03
-5.363475115793470650e+03
-7.492763733128624153e+03
-7.743358912184908149e+03
-7.520061726123456538e+03
-7.236722206466698481e+03
-5.325418956066600913e+03
-4.482232133507296794e+02
1.320642898350094356e+03
2.185140477845129226e+03
2.458554016180093186e+03
3.482960795314700135e+03
4.532411553972546244e+03
4.594003266866223385e+03
4.157787738965318567e+03
3.752792183456197563e+03
3.212153084274591492e+03
2.257002433453907088e+03
1.828439243513832480e+03
2.573382928343201002e+03
2.136866454119222908e+03
7.048834432091200597e+02
-1.142626645200499070e+03
-1.987606817692215373e+03
-2.360030449995924755e+03
-3.017925366786985705e+03
-3.018505137509611814e+03
-2.984821665590147404e+03
-2.491518479011972431e+03
-1.457527880985227966e+03
-3.570861166302811398e+02
1.499137572450936204e+03
2.938471382168128457e+03
4.278820116382117703e+03
4.620955047057435877e+03
4.375194756603370479e+03
4.491597973640111377e+03
3.874008731980733501e+03
3.102392235866471765e+03
2.751761230275268190e+03
1.904169385684556119e+03
5.775084897028326623e+02
-6.792606110013546186e+02
-1.655900101203191070e+03
-2.506194080702920473e+03
-3.266077845211061685e+03
-2.811769384940893360e+03
-2.086271805302768826e+03
-1.302391820755618483e+03
-4.101424616307292581e+02
3.316433931358218388e+02
6.302882029228868532e+02
9.489187594006729114e+02
1.243680044968232096e+03
1.021490052086624701e+03
1.118368089658998088e+03
1.330507482777393989e+03
1.206930683828265728e+03
1.270690592152704312e+03
8.788465598894869117e+02
-3.555717901333175632e+02
-9.735180853599977127e+02
-1.567041024671354535e+03
-1.645085469196346367e+03
-2.033616644134812759e+03
-2.451576779626320331e+03
-2.463876294857363973e+03
-2.237497090345623747e+03
-1.865291415909916623e+03
-1.688060113845858041e+03
-1.369802517578626066e+03
-6.423781795517941191e+02
-2.867210960046555712e+01
4.613419219155560995e+02
-3.322590553884550673e+02
-2.790363681371172333e+03
-4.422649257185778879e+03
-3.162360614230773081e+03
-1.343711268738809622e+03
-4.127689688589328398e+03
-3.620064833626433938e+03
-4.644851374518379089e+03
-4.905199363274436109e+03
-4.833928951219393639e+03
-3.956946562378067028e+03
-5.864281176693094494e+03
-4.163867183422709786e+03
-5.452642823972049882e+03
-4.152621591581781104e+03
-4.539710576339824911e+03
-4.151024563980089624e+03
-3.132471510053215297e+03
-3.181900618911424317e+03
-5.408207849991787953e+03
-6.629418754366915891e+03
-2.916511339201832470e+03
-3.035541338590564010e+03
-1.699610204502208717e+03
-2.520672761290518338e+03
-2.414711009425868724e+03
-1.639827884512603532e+03
-2.668136286607906641e+03
-1.359662003541505783e+03
-4.063382992192748588e+03
-3.556301692142208140e+03
-2.097405764119524065e+03
-2.143606438268393958e+03
-3.529001762375988164e+03
-2.401689353452503383e+03
-1.931583204903207616e+03
-5.036320370352888176e+02
1.575056410087164750e+03
3.042424351315084550e+03
3.696362599172711271e+03
4.209910390062850638e+03
4.848026550682060588e+03
4.639663959120392065e+03
3.832651513584992244e+03
2.853955386365847062e+03
2.002485067047631446e+03
1.268207153870526327e+03
1.084079703292938575e+03
6.330693804128617330e+02
4.810905500646360906e+02
-7.316534873976574715e+01
-4.478910624668329774e+02
-9.540367631996504088e+02
-1.020736824531010143e+03
-6.261075354601713343e+02
-1.240739424609444939e+02
1.453454702823262608e+02
5.928671959476541815e+02
8.904543908936161642e+02
2.018166676267318962e+03
3.330764059887625990e+03
4.442168932977817349e+03
5.695412109773181328e+03
7.237479044173406692e+03
8.495202095100192309e+03
9.233427156495452437e+03
8.756909138085833547e+03
6.824305783119475564e+03
5.409186697768647718e+03
4.637100164930704523e+03
3.876325473590942238e+03
3.265080838188988764e+03
3.193663986097953966e+03
3.337243595936546626e+03
3.565816402742864739e+03
4.140928324773578424e+03
4.496564849300915739e+03
5.711636140300391162e+03
6.586217404366553637e+03
6.327835613225044654e+03
6.392520601839259143e+03
6.575184838418358595e+03
7.121731840453395307e+03
7.488829345739868586e+03
7.356358065068718133e+03
6.875124270651670486e+03
5.074061041250916787e+03
2.980634058235459179e+03
1.658567225312480559e+03
9.230673846405874201e+02
7.647628798738231808e+02
1.519378489971207046e+03
2.259832810698630510e+03
3.217994083495701034e+03
3.401728287607525999e+03
2.963958882105068369e+03
2.740568150990216964e+03
2.841464198912603479e+03
3.346439196159712083e+03
3.894394977575383109e+03
4.677284002419613898e+03
5.117969967246445776e+03
4.096344570632473733e+03
3.492270184668140701e+03
3.077563629846255481e+03
2.163070559105292432e+03
7.386382509629305559e+02
-9.678497382058232006e+02
-8.554940061355499665e+02
-3.044377790418103586e+02
-3.258762589069467026e+02
-5.778999948879658177e+02
-8.555544387568934326e+02
-4.809374900513936950e+02
-1.879131363188254454e+03
-2.646341256032124875e+03
-2.787600042494783338e+03
-4.607840870815006383e+03
-4.872062843047048773e+03
-4.533444471580384743e+03
-4.842122013048453482e+03
-4.964182931991872465e+03
-5.781685602294720411e+03
-9.633647407271282646e+03
-1.302126484159116444e+04
-1.471051093084176318e+04
-1.656038648819167065e+04
-1.749004558314188398e+04
-1.803466151381879899e+04
-1.926828464904240900e+04
-2.208775065505941893e+04
-2.355917618602687435e+04
-2.239968093877598949e+04
-2.022911894582999594e+04
-1.871254151194151927e+04
-1.725093650104212429e+04
-1.373224967170454875e+04
-8.310489028660031181e+03
-4.962592823424779453e+03
-3.806513467280062287e+03
-3.023312074585319351e+03
-2.344981749261686218e+03
-2.489469782082675465e+03
-2.947681616285697146e+03
-2.103626454044455386e+03
-8.929071542411909945e+01
1.816331216635861665e+03
4.292270551415022965e+03
6.178570212974738752e+03
6.023238973476419233e+03
6.368392692878389425e+03
7.229120612345771406e+03
7.462429925375430685e+03
6.116462344187794770e+03
4.520323292327444506e+03
4.258116694425953938e+03
5.636856080614013081e+03
6.567674723359832569e+03
6.954854597239427676e+03
7.208472188152229137e+03
7.701667572716380164e+03
7.834609461339263362e+03
7.803492642288614661e+03
9.012347680992395908e+03
1.012214729765506308e+04
9.470139337859009174e+03
9.492409682458077441e+03
9.795081258667903967e+03
8.893228545629788641e+03
6.273825574262165901e+03
3.798895248290020390e+03
2.611594960712478951e+03
1.326117981966236130e+03
9.777958271813358806e+02
8.619509218653389553e+02
2.947817495399854124e+02
1.243414981419199648e+03
2.924979190086470680e+03
5.403799969020707067e+03
6.808792790894077370e+03
5.186992137524664031e+03
2.524734856032260268e+03
1.116561211537142071e+03
4.098949987749296042e+02
-1.813090419575360102e+03
-4.626266414965975855e+03
-5.201535256424240288e+03
-4.080973411937419769e+03
-2.760408589675461826e+03
-1.416760000694638393e+03
-1.752087038839265460e+03
-3.740246850415246627e+03
-5.232675761391753440e+03
-6.169322790528097357e+03
-6.306699146964066131e+03
-6.307730376387430624e+03
-5.354354463380634115e+03
-4.471476271152676418e+03
-4.087387858867696195e+03
-2.819998317389830845e+03
-3.623318912123947939e+02
9.187197282542227867e+02
1.396351759798369812e+03
2.172705971963176580e+03
3.465978972139853795e+03
4.422958346925483966e+03
4.941372085749345388e+03
5.514506833144521806e+03
5.384723159220377056e+03
4.191044829416864559e+03
3.023087440450050053e+03
2.172988596747507017e+03
1.207924175630554146e+03
9.688275016552480565e+02
1.379805431862549312e+03
2.123856677536224197e+03
3.637958869055666582e+03
4.634540211061093942e+03
5.434707422458532164e+03
6.363914087237089007e+03
6.891762301856884733e+03
6.461304938426650551e+03
5.940953172463245210e+03
5.805032193850884141e+03
5.612840915374697033e+03
4.746412361108942605e+03
3.530116954814308428e+03
2.585211164064285640e+03
8.977552772744534195e+02
-4.156771638627143943e+02
-1.011161370307883431e+03
-1.939225428954155404e+03
-2.425322208216350646e+03
-2.098011506155199186e+03
-1.581770208563551478e+03
-3.406011000536612414e+02
2.399002386521839867e+02
4.919940712229773681e+02
1.499062496026220515e+03
1.890326357502122391e+03
1.860945103538078229e+03
2.352164487327899224e+03
2.906277611324130703e+03
2.966575862776157919e+03
2.195485499294627516e+03
1.673856417343450858e+03
4.497343346741794790e+02
-7.210795684000632946e+02
-1.473404026832832642e+03
-2.539119959412639673e+03
-3.454309920825726294e+03
-3.598341711892280273e+03
-4.479275712833120451e+03
-4.194112876165006128e+03
-2.045624710269024717e+03
-7.933448948791500470e+02
-8.337841190080326896e+02
-1.310711712843011355e+03
8.038383606898509015e+02
8.752360641470627343e+02
4.310212884439706045e+02
3.938927282104503433e+02
6.624885379706868207e+02
5.563839445329887212e+02
-3.896894906042857798e+01
-7.562923763407358138e+02
-1.394697456159019566e+03
-2.419561275074157038e+03
-3.713294096766261646e+03
-5.047886293751789708e+03
-6.069336383878991001e+03
-6.429190504265315212e+03
-6.316321680240901514e+03
-5.858283482863370409e+03
-5.073306836091007426e+03
-4.308114581864751926e+03
-3.655963346091714811e+03
-2.713523790665996785e+03
-1.701048226967079927e+03
-1.014010781784842152e+03
-1.064934968377656332e+03
-1.835881351511529374e+03
-2.815024820965715662e+03
-3.541632941978673443e+03
-4.119536510894012281e+03
-4.339054996945264065e+03
-5.075594691180223890e+03
-6.041011762074640501e+03
-5.877026217530856229e+03
-5.908023912772097901e+03
-6.355356212190296901e+03
-5.501078165730029468e+03
-3.649249533856329435e+03
-2.908225198582330449e+03
-3.030460680781243354e+03
-3.002524759304376857e+03
-1.586888188854824421e+03
-1.013582266307627833e+03
-1.150901170438221925e+03
-9.137877828465819903e+02
-6.905889136951557248e+02
-5.977255189803620397e+02
-2.535526016456953471e+02
-1.886542661147656190e+02
-5.941988653639208451e+02
-1.217687437870773465e+03
-1.534062873152119437e+03
-2.622661711317163736e+03
-2.714513540526526413e+03
-2.474317831173263130e+03
-3.023052154855813114e+03
-3.479726004952769017e+03
-3.228249644902777618e+03
-3.445596679880301508e+03
-3.173756637258494720e+03
-2.204732319572846336e+03
-1.308341152071003080e+03
-6.501151138331586026e+02
2.028121231365138897e+02
1.301957585837189754e+03
1.628156421526300619e+03
1.273521829186758850e+03
8.011485958039661455e+02
7.879138519054231438e+02
4.390337491383480142e+02
-6.560097708165631047e+01
-5.761247662770433635e+02
-1.181305032198965137e+03
-3.466184103014133143e+03
-2.785406552537080643e+03
-2.603018550025580225e+03
-4.484598343934916556e+03
-4.734144666354748551e+03
-4.245910673385646987e+03
-1.362813918232406195e+03
-2.262637239913754911e+03
-9.165947579928224513e+02
6.342006420021444910e+02
2.219605781576884056e+03
1.911473930406890076e+03
2.228711707507745814e+03
1.682448346600821878e+03
3.631904431057495458e+03
4.194259923597275701e+03
2.305405264857087786e+03
3.379587715830739853e+03
3.295326106160283416e+03
2.526589945747271031e+03
1.643656377622485479e+03
1.487712875562545605e+03
1.263402183060719608e+03
1.100887477825337555e+03
8.103406804637299956e+02
1.000537688436277335e+03
1.582966232777511095e+03
2.287281592273102888e+03
3.073324551337989760e+03
4.044977873104430273e+03
5.124119022750625845e+03
5.767701806862321973e+03
6.109673402439982056e+03
6.005622954952998043e+03
5.890370817075267041e+03
5.980078005863286307e+03
5.860211942060456749e+03
5.684507527620939982e+03
5.035297793124427699e+03
4.101977688268659222e+03
3.539027612989474164e+03
3.317095662271671245e+03
3.989768581502563848e+03
3.891175492130775638e+03
3.335416921619219465e+03
3.898402843735574152e+03
4.755700775202271871e+03
5.327724920265271976e+03
5.680180769307001356e+03
6.088734090132007623e+03
6.915239156768074281e+03
7.547891544658716157e+03
7.666996393401792375e+03
8.689242776040591707e+03
9.085258202976247048e+03
8.591993959871198967e+03
7.431861937894681432e+03
5.139481287086356133e+03
5.687761592000642850e+03
5.730695717486375543e+03
4.460068534112492671e+03
4.920588731475737404e+03
4.647857461031051571e+03
4.590394396669101297e+03
4.876068342956072229e+03
5.059426038208302089e+03
5.518227112509274775e+03
6.473383329266952387e+03
7.109886101569941275e+03
7.729342450763169836e+03
8.307876560928776598e+03
9.178671227222204834e+03
9.487587995772842987e+03
9.726445966663151921e+03
9.314070101822999277e+03
8.224674585658871365e+03
7.279825086211409143e+03
6.015766670197972417e+03
5.481324864343074296e+03
5.719335065888514691e+03
5.207548333821150663e+03
4.127866543122858275e+03
3.475189737939615952e+03
2.933339673952186786e+03
1.462355442707049178e+03
-7.571880120773735712e+01
3.031542600012880371e+02
4.210596393312428631e+02
2.698955599618409451e+02
1.508057622975130982e+02
1.421992492688929588e+03
2.384717647464458878e+03
1.719901600324116089e+03
2.067503003334357800e+03
2.763610414543953993e+03
3.517189673794101964e+03
3.528397342039831983e+03
2.131502743590840055e+03
-1.227769674398298093e+03
-4.721069481545630879e+03
-8.077280587720086260e+03
-1.015915742198917360e+04
-1.069191786910680094e+04
-1.006666283226711857e+04
-9.797743029012077386e+03
-1.039907496062547034e+04
-9.224956148958211998e+03
-1.132550838859357464e+04
-1.586543892359778874e+04
-1.987142872809883920e+04
-2.030423326728642496e+04
-1.855164114487757251e+04
-1.804741550008629929e+04
-1.714711103351613201e+04
-1.493021614076818514e+04
-1.480550328345797607e+04
-1.409981787396129766e+04
-1.190772659208487312e+04
-7.591975630469073621e+03
-4.511330497450914663e+03
-9.682520694708746305e+03
-1.829001541594342416e+04
-2.336536790514766471e+04
-3.072436698247803361e+04
-4.260474013348643348e+04
-4.478022225679730036e+04
-3.947225882186431409e+04
-3.367326233459858486e+04
-2.925193850478540844e+04
-2.347099471507231647e+04
-1.352394829120418581e+04
-1.527538116534635037e+03
-8.574594566905320789e+02
-5.688292859302388024e+03
-2.000668780198496506e+03
5.949681568798100670e+03
4.985181428932242852e+03
-1.143273672713780252e+04
-2.510150982271165776e+04
-2.693674658112992984e+04
-2.732408486362717667e+04
-2.983517677840124816e+04
-1.675662687012882088e+04
-9.308716868842068379e+02
3.782734425211860980e+03
-4.503419754444568639e+02
-6.055079208367643332e+03
-7.242371694851325628e+03
-1.745165729966232220e+03
4.954830420312025126e+03
1.935408426383108235e+04
2.677904545295492790e+04
2.468913081137766494e+04
2.167468154415079334e+04
2.277615494613429837e+04
2.749393725918290511e+04
3.409021587124114012e+04
3.749920350742067967e+04
4.115209024115499051e+04
3.825305420500434411e+04
2.799064534490805818e+04
2.099300959564538061e+04
1.901328738644631812e+04
1.624664034528305820e+04
3.595195234366315162e+03
-9.995808576223442287e+03
-7.319021028700116403e+03
-7.692463973917314206e+02
-5.397313028361344550e+03
-7.928961981523858412e+03
-7.806003036596714082e+03
-4.864239263972945082e+03
5.459669853530441287e+03
1.638798331624358980e+04
1.692575890335296936e+04
1.420698398064013054e+04
1.313772657573309880e+04
1.385716015586222602e+04
1.383446865268534202e+04
8.560590062384129851e+03
5.483014398662813846e+02
4.998805927553115907e+03
1.470799575138576074e+04
1.948453353593403153e+04
1.814667449180338372e+04
1.825768740699278351e+04
1.544141131451590263e+04
1.752956534132152592e+04
1.667015421189555855e+04
1.212792979242632828e+04
1.009187273117566838e+04
4.442943813509189567e+03
1.738761096125040467e+03
2.795911299118931311e+03
2.659016427175763056e+03
-2.277108389769202859e+03
-3.626429668170043442e+03
-1.417077119989949551e+03
-2.198976404872683361e+03
-8.652355801831034114e+03
-1.738492890164691198e+04
-2.173020915787808917e+04
-1.555934636391704407e+04
-4.949760927729887044e+03
1.840105670865646744e+03
1.054958429593206347e+03
2.021512312345100327e+03
6.856132628795631717e+03
6.925347883787891078e+03
3.353919273235565470e+03
-3.333450761225197311e+03
-7.399720407890143861e+02
2.592927366406878718e+03
4.520806753984797979e+03
1.059419930625445886e+04
2.367155987323358568e+04
3.119848813557289031e+04
3.356453603825952450e+04
2.947125105064033414e+04
2.592914096426391188e+04
1.961556941882646061e+04
7.145076435407510871e+03
-2.436718662649213627e+02
-4.211208018960242043e+03
-2.753123973115485114e+03
-1.893043141800695139e+03
-5.404547716026716444e+03
-1.066516385266164616e+04
-9.328223430492778789e+03
-7.408989976428428292e+01
6.088622253656844805e+03
4.915260248435682115e+03
9.504530489512603708e+02
2.334862846820479263e+03
4.836075044817240268e+03
2.172303652876511933e+03
-2.033822301942313743e+03
-3.709560875427350311e+03
-5.485028973066375329e+03
-7.683897013060009158e+03
-9.270924855829538501e+03
-1.139075352441068935e+04
-1.395676825108704725e+04
-1.765833941550959935e+04
-1.884519009463495968e+04
-1.307149183097177774e+04
-7.503000510410069182e+03
-6.911852620437750375e+03
-7.814460800850723899e+03
-7.167275525126745379e+03
-5.114485651054759728e+03
-5.456394592570217355e+03
-4.518274656002722622e+03
-4.523476417343227695e+03
-5.737108900758049458e+03
-3.648334232947639066e+03
-1.056627077626953678e+03
-6.098121724499770608e+03
-1.245439245299218965e+04
-1.366992707873552172e+04
-1.398755281786056366e+04
-1.747566902223368379e+04
-1.873552705880983558e+04
-1.633437914617058414e+04
-1.660208053581889180e+04
-1.721696975844565168e+04
-1.882949771381797837e+04
-2.137349138016195138e+04
-2.488303544418413730e+04
-2.677044783583920071e+04
-2.506933993236982860e+04
-2.055717546744872379e+04
-1.559496467503286112e+04
-1.814735105873073553e+04
-1.156540745775290452e+04
-9.011087992888822100e+02
5.602834449968035187e+03
4.540424757889210923e+03
7.175313960579825334e+02
-1.788641758442679475e+02
2.901305430774928936e+03
6.296130839121061399e+03
6.132740236641368938e+03
4.079222800724490298e+03
2.006629306040605343e+03
8.360951441000074738e+02
1.268939134168775240e+02
-3.647565312880633996e+02
1.397438708618464489e+03
6.908052653016020486e+02
-5.992255903946372655e+02
2.285673939784866889e+03
5.487915732359640515e+02
-5.516039738997756103e+02
6.840778649272991061e+03
1.030240188155016585e+04
1.023360375054783617e+04
8.270719071755680488e+03
3.810248489341694494e+03
1.152499044148488110e+03
3.025798031784270734e+03
8.206469675518865188e+03
9.856764063554968743e+03
8.366038310279780490e+03
6.318885870622030779e+03
1.482742013689396799e+03
-3.352019708823176188e+03
-4.265005161795102140e+03
-1.713667977084217910e+03
-1.084651854975493990e+02
1.120004237128956447e+03
4.752263529147533518e+03
4.891997046110548581e+03
3.103839837058413650e+03
1.773306584023841197e+03
8.477181579715261250e+02
6.746471237395554681e+02
2.395709816538378163e+03
3.626318598666868183e+03
1.069031382999642574e+03
-7.737359283118804569e+02
-3.828376257265745608e+03
-5.014402415235342232e+03
-6.255412305578982341e+03
-7.302943628389658443e+03
-1.221248708689759223e+04
-1.439764787159688058e+04
-1.325185002696172160e+04
-1.220751079600192861e+04
-1.000821670445231030e+04
-6.090420615981588526e+03
4.434402753880588534e+03
1.475983163860166678e+04
1.866239169735669930e+04
2.060262494614029129e+04
2.269894284701108336e+04
2.378870867481984897e+04
2.432141310015634372e+04
2.251555350351094967e+04
1.758849738177701875e+04
1.361967137405598260e+04
1.159555409059755220e+04
9.594569263311699615e+03
7.883992532788141943e+03
3.969169173628487442e+03
1.069472166336233158e+03
-5.387109434996662003e+02
3.918376147328773413e+02
1.193515174927674707e+03
8.578200052973971879e+02
-1.413030912212477915e+03
-5.568756140562761175e+03
-9.862079979927117165e+03
-1.471573076853850762e+04
-1.477637232870717889e+04
-1.236253275038365427e+04
-8.775863540829783233e+03
-3.267180154482894523e+03
-9.053859672766457152e+02
-1.680383741679765762e+03
3.604849578042863868e+03
1.072941883185102051e+04
1.394050144719951095e+04
1.482006875639882128e+04
1.644647956615200019e+04
1.641305596783442888e+04
1.464181725995934721e+04
1.265057086483633793e+04
1.026637476979606981e+04
7.632541178162667165e+03
6.268061794541883501e+03
5.740748393712154211e+03
5.077581852187891855e+03
6.806448697150794032e+03
8.712151120022597752e+03
8.241320501080193935e+03
4.616906215334362059e+03
2.926585543806785608e+03
2.646589244878335194e+03
1.113490287035053143e+03
-1.861648737866831652e+03
-5.822522289150338111e+03
-7.935929234726943832e+03
-7.821701207401873944e+03
-7.562283226357432795e+03
-6.529923718584228482e+03
-4.454096129557765380e+03
-4.213547304424914728e+03
-4.566919889985891132e+03
-3.654676433916483802e+03
-2.813548131147540971e+03
-3.817479578757456238e+03
-4.452211061284849166e+03
-5.453386148207277984e+03
-5.681972986908798703e+03
-6.337220075786992311e+03
-7.573219178544847637e+03
-1.022542621514872371e+04
-1.293910311553173779e+04
-1.309996427755718469e+04
-8.880912019519486421e+03
-8.447037255526694253e+02
4.241940429980640147e+03
7.084842110544854222e+03
6.680347713483113694e+03
4.980505904598060624e+03
3.412666142572549234e+03
2.671647694670150941e+03
3.210410098752987778e+03
3.950262927151200074e+03
5.969947183296516414e+03
8.962730055437525152e+03
1.113486537053434222e+04
1.152468455352310048e+04
1.063390322800963077e+04
8.600056213544747152e+03
9.575256664405837000e+03
9.558796948208510003e+03
8.945177525592627717e+03
7.451580560679259179e+03
5.197680132480622888e+03
2.178065538215258130e+03
1.787319207327547019e+02
-1.307875462726280603e+03
-3.878661400931982371e+03
-6.336187466247003613e+03
-8.392914931235543918e+03
-1.008941849086186812e+04
-9.709225906777228374e+03
-8.212492381472984562e+03
-6.859882311945784750e+03
-7.677041630465158960e+03
-9.137999147012460526e+03
-9.166247545718653782e+03
-7.770326225577862715e+03
-7.412572251053051332e+03
-9.706867940855669076e+03
-1.066327374115443854e+04
-1.200510631752389054e+04
-1.577824259997705667e+04
-1.678180695836607265e+04
-1.454767182576050436e+04
-1.349426421739150101e+04
-1.169968287741550557e+04
-9.731646276542851410e+03
-9.676097529998905884e+03
-7.442769948875358750e+03
-2.426982353915113890e+03
6.013765627389618658e+02
5.510584193826495039e+02
-2.444351472193302470e+03
-5.997960100694727771e+03
-7.434604492080147793e+03
-8.289700478953207494e+03
-4.930775059189058084e+03
1.302282953913916401e+02
1.011742969754104024e+03
-4.310643622161089752e+02
6.435962128200633288e+02
1.256577004959055785e+03
7.781088374300472879e+02
1.085423379520325852e+03
3.224959912987024836e+03
2.539518530790275236e+03
2.348652399236545136e+02
-1.242073396499442879e+03
-2.580429499239368852e+03
-1.852765270001183808e+03
-9.845841683073919057e+02
-3.996895728907067991e+01
1.068075830759517430e+03
3.151947573938862774e+02
-3.952585277514947961e+02
4.495367683180058549e+01
6.302398496395950360e+02
5.563667555332000347e+02
-3.247164165650383438e+02
4.112025215048382165e+02
2.732051311372719738e+03
4.218863997970668606e+03
4.847717797212038931e+03
5.586213693704223260e+03
4.609337613924211837e+03
2.141473397478810512e+03
1.796902057994255756e+03
3.354262711599957129e+03
3.511040613370793380e+03
1.711488833244001853e+03
8.802404529704003835e+02
1.428717940679039202e+03
2.787681057428287659e+03
2.751826265721251161e+02
-2.523080502495260134e+03
-2.026579828307578509e+03
4.231721458870795686e+03
8.400141523465339560e+03
9.368992998881631138e+03
8.667490192915058287e+03
8.143886632589813416e+03
9.059500374593311790e+03
6.918664890811307487e+03
8.022393722232998698e+03
4.308323082991139927e+03
3.806625829442204576e+03
3.359879957851836480e+03
9.934074982667609675e+02
-3.024754025550580536e+02
-1.556792477520988541e+03
-1.763911067482463750e+03
-2.850784288440972432e+03
-1.565087828502473940e+03
1.996632878559782057e+03
3.604428822813751594e+03
5.427497911267206291e+03
6.374779171264770412e+03
3.630860953137551860e+03
3.430751366567135847e+03
2.040664127447776082e+03
3.861545119013587168e+02
5.103866215051710924e+02
1.255254774363923161e+03
2.125136090714823695e+03
-7.356099239674808814e+02
3.523924563592966592e+02
1.046106618314599146e+01
-3.200929146652884356e+03
-1.704617601661450863e+03
-2.830705410721043336e+03
-5.235179967479043626e+03
-5.956887644387817090e+03
-4.778948474529259329e+03
-4.397835142883087428e+03
-1.116842735425826277e+03
2.005454161556245936e+03
3.788818262021079136e+03
4.437763877295386919e+03
4.785453362411424678e+03
4.608827453239529859e+03
4.812970452887576357e+03
4.720351577456284758e+03
3.187363087242287747e+03
7.542769760723400623e+02
-9.077231484075698518e+02
-2.693414827186997172e+03
-4.428657560077068410e+03
-5.847499947223893287e+03
-5.802555185063295539e+03
-5.167551566332097536e+03
-4.285654448187669004e+03
-4.042323220166957981e+03
-4.359419326472195280e+03
-3.630536002761512009e+03
-3.459303597665250436e+03
-3.471260635575836204e+03
-1.360001532312870040e+03
1.322830226382731098e+03
3.000286126281760971e+03
3.347219436196327479e+03
2.626383577034038808e+03
1.207139738058186595e+03
1.557925335974433438e+03
1.733855602338785729e+03
9.302194004634148996e+02
-4.868593487570615252e+02
-1.247327725151720870e+03
-1.794237566402620587e+03
-2.578575287049593499e+03
-3.682713463016499190e+03
-3.439952516282135093e+03
-2.215764257469143558e+03
-2.349938136797759853e+03
-2.329475365071821670e+03
-1.921322968584300725e+03
-1.600431193200021653e+03
-8.629308807257804119e+02
-1.268368057572154868e+02
-4.888967307688966457e+02
7.798569967583558764e+02
1.934657897118323490e+03
2.160464794841194816e+03
2.457915899204932884e+03
2.656947629473772395e+03
1.358123697320794918e+03
7.845168106559464150e+02
1.722576394096037347e+03
1.156115335308435760e+03
1.140822572295516693e+03
8.143729214822831182e+02
7.190276229386754494e+02
1.111407276925965562e+03
1.934632447964996118e+03
2.779689597803058859e+03
3.343529533127566083e+03
3.805182530632827365e+03
4.378622805835366307e+03
4.444911615197109313e+03
4.593228244419451585e+03
4.450320610738897813e+03
4.119840902738109435e+03
4.086675778083286787e+03
3.380726004576141804e+03
2.283086278244369623e+03
1.370640607044885201e+03
1.381208438212668455e+02
-4.738144277639415805e+02
-4.141870749383880934e+02
-5.011309572159223649e+02
-1.827154896664556532e+02
5.081853284064759464e+02
8.064587663762584953e+02
6.680099633558826326e+02
1.045359277296937080e+03
2.301110656886045490e+03
2.844868305609324125e+03
2.938168942491235157e+03
3.447029448187327034e+03
3.598509780967265669e+03
3.099815445268820440e+03
2.275399383588610817e+03
1.386233677009714256e+03
3.312713612463304003e+02
-1.150820181962933475e+03
-4.286155629332327408e+03
-8.348764311479029857e+03
-1.041472844630811960e+04
-9.709173043757835330e+03
-8.138325762556753943e+03
-6.544375863812550961e+03
-6.228490633991305003e+03
-5.896893354974375143e+03
-5.210950885610355726e+03
-5.097866348014547839e+03
-4.559683992715938984e+03
-1.998322402906629577e+03
6.260636531193317751e+02
1.927268476518310081e+03
2.525228281986310321e+03
2.473900070477549889e+03
2.682366426236666484e+03
3.034388491334751961e+03
2.629509370228400712e+03
2.008457237363102422e+03
1.063988077293382048e+03
-1.570829191135726433e+02
-1.602925523420101854e+03
-2.604800298510357152e+03
-2.721069535117635496e+03
-2.874945803314429213e+03
-2.879393712539608259e+03
-2.230560505445771469e+03
-1.805508438843476142e+03
-1.355352341893637913e+03
-4.372475262423154163e+02
7.407244502702653790e+02
1.055758867183404163e+03
1.298857240878438688e+03
1.497760139063082306e+03
1.346947119296204619e+03
7.738346656849278133e+02
1.202889143279220292e+02
-4.337816767019040753e+02
-8.902662992126198560e+02
-1.853150570802839411e+03
-2.507626854495812495e+03
-2.715817908557712144e+03
-2.615824473399257386e+03
-2.192669256957643483e+03
-2.026524050671177974e+03
-1.775454066000430885e+03
-1.448426487895130776e+03
-1.403408896209880822e+03
-9.323713358606956945e+02
-1.492292133253757527e+02
6.617284018991890662e+02
1.458503342744116708e+03
8.452095392774757556e+02
-3.630193695782778605e+02
-8.920916818087389402e+02
-6.229295727698528253e+02
-5.950748274950291972e+01
-7.327956600221576764e+02
-1.651652702183872179e+03
-2.351081716464456804e+03
-3.119018714797260600e+03
-2.323476797294885728e+03
-2.069617641689636002e+03
-1.991491002925068415e+03
-1.367056851445038319e+03
3.388265396208890934e+02
1.924238404775055415e+03
3.268189250086103129e+03
4.444547585160697963e+03
5.942385415180461678e+03
6.839031549287955386e+03
7.270530255631758337e+03
7.870003238969659833e+03
7.959700403556792480e+03
7.903523493804820646e+03
7.305255618115079415e+03
5.458066893466298097e+03
1.978003829676617443e+03
-1.066954012890495733e+03
-2.452650347587693886e+03
-3.529281590358369613e+03
-5.179064809852327016e+03
-5.572835888649352455e+03
-4.959228965111081379e+03
-3.936925715311198928e+03
-3.586756460321673785e+03
-3.333686415979344474e+03
-3.940477209515121103e+03
-4.652423859607799386e+03
-4.476619754974253738e+03
-4.504641751335543631e+03
-2.467216440566636720e+03
-2.414308970028408112e+03
-4.265821599022138798e+03
-3.438564958955331349e+03
-2.315550628632828648e+03
-5.818030983721987468e+02
4.582062030053722083e+03
6.354272583452785511e+03
2.687913246639041063e+03
-2.119420216960612606e+02
-9.853037804424587875e+02
