1.398704233047436901e+04
9.467131176236864121e+03
4.070579088407926974e+03
2.475535045362150413e+03
4.811105842435280465e+03
5.273423861457335988e+03
4.523768860307110117e+03
6.592215967591449044e+03
8.599945607205803753e+03
1.038904579036813448e+04
9.770626010873629639e+03
6.697890164335773989e+03
4.020034856221628161e+03
1.949235769558852326e+03
3.447769408467557355e+02
5.886192616031692637e+01
-1.563322501260330455e+03
-2.917586590450342101e+03
-1.916757593816811550e+03
-6.968527737974729064e+01
1.119752269571994930e+03
2.467816293037359173e+03
5.019759083604068110e+03
7.449792948913127475e+03
8.310027206827578993e+03
8.299558631401871025e+03
7.253623717673959618e+03
5.731623382173854225e+03
4.754693342930474500e+03
4.399035195978199226e+03
3.701005646147928928e+03
2.898839660368938439e+03
2.379717299627373450e+03
2.107777866727774381e+03
2.726361843305251114e+03
4.517934198074982305e+03
6.278771194440716499e+03
6.870177121375127172e+03
6.113366032498121967e+03
5.596437352489242585e+03
5.411703157097979783e+03
4.885534270273767106e+03
4.602177719634811183e+03
4.238832420166972042e+03
3.950635288134025359e+03
2.800888397970944425e+03
2.118877012197084241e+03
2.087797193011017498e+03
2.352849646872176891e+03
2.381445429667583994e+03
1.981811335576198871e+03
1.098894192937956859e+03
6.487991082995241641e+02
4.387359219167525026e+01
-6.345349074406130967e+02
-1.291001404205955168e+03
-1.781209050991903041e+03
-1.905021946721558606e+03
-7.880841213005139707e+02
6.200068247316131647e+02
2.473870847397585067e+02
4.508522635018699134e+02
2.248422449526957735e+03
3.288492296261075808e+03
3.375481761576426379e+03
3.231490899816259116e+03
9.747578786640026465e+02
-2.215073944104387465e+03
-2.936670205621115201e+03
-2.284849720803130822e+03
-3.671533931847833173e+03
-5.025015347269139966e+03
-3.656020412724626112e+03
-3.744451995272511340e+03
-2.364972610040227210e+03
2.499585061654461697e+03
7.550952820819937187e+03
9.918435227870724702e+03
8.582173484268887478e+03
3.085379969293701834e+03
1.028965899241700981e+03
9.576320828955859952e+02
-5.696486841704899007e+02
-1.761152615530968433e+03
1.939803466171879336e+03
1.687108225122252406e+03
7.484271967348963699e+02
-1.018870779372901666e+03
-3.707086194942765360e+03
-1.123568383099566063e+03
-1.218506234768005243e+03
-1.512717628801846558e+03
-4.847783449051875323e+03
-6.505671665754065543e+03
-7.357953384514586105e+03
-2.228078518605283534e+03
-3.159733117545727509e+03
-4.874535685367684891e+03
-1.963987533811246522e+03
-5.136962432670362432e+03
-6.607370279940113505e+03
-6.179021723144866883e+03
-4.855311201225968944e+03
-2.682531386926048071e+03
-3.171622979555889742e+03
-6.294527150328162861e+03
-6.752505640396563649e+03
-4.513428954052290464e+03
-7.179673985508821715e+03
-4.833844955692236908e+03
-8.241136339253891492e+03
-8.520980740379169220e+03
-3.830586032785493899e+03
-2.512022651476695955e+03
-2.924330148699225447e+03
-2.903580180618048416e+03
-2.641580011631609068e+03
-2.557078887114052577e+03
-2.488814295317271444e+03
-2.771722875813572955e+03
-3.080136533498922745e+03
-3.224288004214207831e+03
-3.572513594005347841e+03
-3.664418067892907857e+03
-3.921873867954276648e+03
-3.424881774568060337e+03
-2.847176414197637314e+03
-3.001469206534051409e+03
-2.831656091228945115e+03
-1.568367468341964013e+03
-2.888727567640187317e+02
1.456326807843549034e+02
-1.047594687762419426e+03
-2.471974578848800775e+03
-2.608954109425630577e+03
-2.091454233563094931e+03
-1.611531499326252515e+03
-1.564302727638272472e+03
-6.586089703849817170e+02
2.158933794276345566e+02
1.591135639800214676e+02
-3.072748502749932982e+02
-9.326333190813988949e+02
-5.936536798595542450e+02
1.132535749118172390e+02
1.607075962426571323e+03
2.650844210504326838e+03
3.758241292251132109e+03
4.365897753829394787e+03
4.313691723759301567e+03
4.456551557668913119e+03
4.333906197124416394e+03
4.208616773777896924e+03
3.874890776929595631e+03
3.946708090598404397e+03
3.605019916512432246e+03
3.625390239784230289e+03
3.803700991981674179e+03
3.563453529945948048e+03
3.523843761428115158e+03
3.619917110082939416e+03
3.386859719217032307e+03
3.029048682320566513e+03
2.958475115500704305e+03
3.306260393088171895e+03
3.345314850087690502e+03
3.266654001199104187e+03
3.662412398663750082e+03
3.520585722900029396e+03
3.296811360214565866e+03
3.841123878150960991e+03
4.293080013042242172e+03
4.047839603520509627e+03
4.253498255164840884e+03
4.631029266602969983e+03
4.345191947613595403e+03
3.881778144308295850e+03
3.777420465230261925e+03
3.674614723057601623e+03
3.370952173473044695e+03
3.587272567588182483e+03
4.187566580451942173e+03
3.944541627062106727e+03
3.539592092408031931e+03
3.472475048021296971e+03
3.294232904220630189e+03
2.921561237152724516e+03
3.011030268840515873e+03
2.658272334701833188e+03
2.343362863973579351e+03
1.891460794351613686e+03
9.964464205167930686e+02
5.792571625050683224e+02
2.061166297120018953e+02
-3.908200370357060365e+02
-2.751625186663872228e+03
-6.640277915473375288e+03
-8.134968116318897046e+03
-6.552977904426243185e+03
-6.589050633970790841e+03
-7.262010446272352965e+03
-6.603976603220031393e+03
-6.392050223739343892e+03
-7.283214817597517140e+03
-6.810384321778785306e+03
-5.809611260731858238e+03
-5.901818632520618849e+03
-6.740931376261993137e+03
-7.486830127895236728e+03
-6.822554721063405850e+03
-2.766149510828480288e+03
-2.309292872032621290e+03
-6.300352127989505789e+03
-7.357516567131721786e+03
-3.583844852186487515e+03
-7.744726144799129486e+01
6.556353502464241956e+02
1.470421878727528338e+03
1.342811924327214001e+03
1.190727409374267836e+03
1.282044891252376601e+03
1.281682953506710874e+03
1.295702615985902185e+03
8.131023401793414678e+02
-8.372155276546955065e+02
-2.546309538781881201e+03
-3.393439175156700003e+03
-4.369839396397859673e+03
-5.001420559344259345e+03
-4.417053711815637143e+03
-2.144682135832711992e+03
5.395998336754564662e+02
1.964728422445098658e+03
2.877534989602014775e+03
3.288139271031431235e+03
4.076574691469323170e+03
3.867715798398417974e+03
3.773609006886501447e+03
3.550483137362130492e+03
3.072441908444565797e+03
2.654379826967995086e+03
2.458026770761580792e+03
2.463456902743093451e+03
1.741942523231606856e+03
8.190581412156321903e+02
-2.944201031677697529e+02
-1.109906666623983256e+03
-1.265028440080247947e+03
-1.815636525784094601e+03
-1.341738672563951695e+03
-1.653768524049064297e+02
5.905142217436551846e+02
1.208039660955746285e+03
1.807202257040579752e+03
3.020930230537764146e+03
3.570128465984027571e+03
3.657871846879722398e+03
3.359315777229870946e+03
2.274641033049375892e+03
1.346053110724988528e+03
4.803450298725048810e+02
-7.282999944576012297e+01
6.582531551137549286e+00
2.036178262346933820e+02
1.107923076953245300e+03
1.300530151270706483e+03
9.418035868976554639e+02
1.620254821199857133e+03
1.997653849820365622e+03
2.035757850296009792e+03
1.702497164738152833e+03
1.175886360253147586e+03
1.513861829442483895e+03
1.391515196757306740e+03
1.315828556598832847e+03
1.577599463060766766e+03
1.636667321676658275e+03
1.574067771441356854e+03
1.163758435066982202e+03
1.354607788986339528e+03
1.498555615609003780e+03
1.356700463917773959e+03
6.111024329052338544e+02
3.677730820859606524e+02
4.386596664864156310e+02
4.147253059016559291e+02
3.838759837523705301e+02
2.451788570189140728e+02
2.906195459416052245e+02
-1.838119312779341783e+02
-2.790630635963198074e+02
2.097970071976630777e+02
2.526162709929140249e+02
6.613275357793572766e+02
1.136055421295977567e+03
1.542918891697403296e+03
2.814916980731814419e+03
3.821084206043331051e+03
3.801470154229360105e+03
3.969998568245920069e+03
3.392562450116733999e+03
2.851108423468856927e+03
2.616697690260402396e+03
2.807279802800071138e+03
2.449882387217498490e+03
1.927437922553671115e+03
1.519938860539120469e+03
1.317560907233956868e+03
6.683797282162560123e+02
-5.064539712751581391e+01
-8.264616104800938956e+02
-1.316973527418679168e+03
-1.722178586659736311e+03
-1.905167473059872918e+03
-2.425180219954158929e+03
-3.312429944888715909e+03
-3.588999134349029191e+03
-2.154814789925540936e+03
-3.978679762015198662e+02
1.581766192778790810e+03
2.661074939783411082e+03
1.755181701938215383e+03
4.031892211872873872e+02
2.603177588308643635e+02
6.158612357481946731e+01
4.507125030669001262e+02
1.446607337472252766e+03
2.035427596167297679e+03
1.908238670204294976e+03
2.276899200215410019e+03
2.727543114787325067e+03
2.432031857655098520e+03
2.662052200608974545e+03
3.465552862639063733e+03
3.090600286998572756e+03
-1.064575751925539180e+03
-7.745517068681989485e+02
-2.536481227653739097e+03
-7.082908675511596357e+02
7.770160951111415670e+02
7.215082138892323655e+02
5.809532479049887570e+02
5.436933461260763352e+02
-9.011791491309161017e+01
-1.233208289118424261e+02
1.763723959576500704e+02
1.866502023487480244e+02
-3.433604176957484810e+02
-5.236820581528224920e+02
-7.829442458918318835e+02
-1.297938626691940954e+03
-1.409631350315355576e+03
-2.226961123473820862e+03
-3.586627210015366927e+03
-4.629891648518017064e+03
-5.309434941581558633e+03
-5.098097325894984351e+03
-3.893271839315649686e+03
-3.162824473727858731e+03
-4.372675999171407057e+03
-4.979889272148456257e+03
-3.534111636486383304e+03
-1.875030548946790077e+03
-1.901857501902349441e+03
-2.815659355679480996e+03
-3.007068321309051498e+03
-3.120479732298218096e+03
-3.031418668204711594e+03
-2.599934608536639644e+03
-1.493205561252566213e+03
4.841189522856143981e+02
1.594842081931700477e+03
1.358953110427836009e+03
1.553455992796829378e+03
2.589534147243105508e+03
2.729372567185665957e+03
1.839964597781934799e+03
1.620232219255672135e+03
2.687231946700690514e+03
3.329133209732128307e+03
3.572032340178834147e+03
4.200042093779043171e+03
4.185125773636985286e+03
3.225307684094269007e+03
1.734639287525747250e+03
1.010162315747473258e+03
1.497849265720385119e+03
9.697601017216778700e+02
-3.089265956020938120e+02
-2.571976698486853820e+03
-5.207249327024005652e+03
-8.066786802648612138e+03
-7.454584232381092079e+03
-7.160592549854734898e+03
-6.900664401148910656e+03
-6.682647184183598256e+03
-5.912385276886681822e+03
-4.352734436146704866e+03
2.784355385843110525e+03
6.127010008649900556e+03
4.433148230518000673e+03
-9.883587588978740541e+02
-2.896570833874686286e+03
-3.377452255849294943e+03
-3.003769461692891582e+03
-3.157145735357084050e+03
-2.758471246299769064e+03
7.521630562026437019e+02
8.217926313276439032e+02
-2.673568986793768545e+03
-2.778932049065026149e+03
-2.555178102731933905e+03
-3.113085757642268618e+03
-3.429553607222922437e+03
-3.805494099364405884e+03
-4.265779827023356120e+03
-4.032358232235515061e+03
-3.766137340328525170e+03
-3.510860564746298678e+03
3.525383708900558304e+02
2.504071517637270972e+03
3.106666780375128837e+03
2.608343616306822696e+03
1.984161439880388343e+03
1.796116406647257918e+03
1.948326019329578457e+03
2.222880964192227111e+03
2.989715035015080502e+03
3.226851475950407803e+03
3.226450984158127085e+03
2.867569820941439502e+03
2.036255930668924520e+03
2.160598963964514041e+03
2.349664974599591915e+03
2.278476807077419835e+03
2.057107388152774547e+03
1.704749022038771955e+03
1.957502960962758152e+03
1.536419204072357616e+03
1.365574039228601578e+03
1.231943036811538605e+03
1.484124795956327034e+02
-6.140743765809652359e+02
-1.312488948070052174e+03
-1.987842473101808082e+03
-2.640998723188164604e+03
-3.912914289644767905e+03
-5.576603885845422155e+03
-6.703034087662450474e+03
-4.918207384996743713e+03
-1.185109123994752736e+03
5.933207240371815487e+02
1.608176705321061945e+03
2.198635456911013989e+03
1.819637308522783087e+03
1.861359557299864264e+03
1.724021415151171595e+03
1.818942996409320585e+03
2.090930728264869686e+03
1.974254545292438934e+03
1.285062517928385432e+03
1.382819282080972698e+02
-8.811468727979432742e+02
-2.427382072534443978e+03
-4.873407406582266958e+03
-4.215213072851629477e+03
-3.880844499251021261e+03
-2.656842038504765924e+02
1.046481055879742826e+03
1.858110175117850986e+03
2.623784902647418676e+03
2.168748143772566436e+03
1.754949069370283951e+03
1.935516027997963192e+03
1.479282529451909568e+03
9.261946325168529484e+02
3.511583340577751073e+02
-1.494387207191383915e+01
1.608361489814152776e+02
1.113645135037899365e+02
8.462475884294235584e+01
1.987529124181380382e+02
-8.529160592126828533e+01
-8.488352779961563783e+02
-1.077035234574722153e+03
-3.890158300670936455e+02
3.350032054821747352e+02
5.517484769114320216e+02
2.282713189512796532e+02
-1.023335694463337830e+02
1.358047474843687041e+02
1.844905179375066098e+02
2.546667652478576827e+01
-8.538077521465277187e+01
-2.213379478848199255e+02
-9.105519688067072366e+02
-1.827092842907093882e+03
-1.807062841797608826e+03
-1.746520340955747542e+03
-1.312514651494172995e+03
-9.610093074182315149e+02
-8.711204389070851448e+02
-1.281057228172556052e+03
-1.691028066787802572e+03
-1.475149085912898499e+03
-5.473366502606705808e+02
-2.928785748217961782e+02
-9.550514491977023681e+02
-5.240101318966255803e+02
3.049463254574070561e+02
6.706403238492465562e+02
1.918677069603906489e+02
-2.434786911171318309e+02
-4.065293164448302150e+02
-1.246422346136928127e+03
-1.552196455934386222e+03
-1.406987192721362362e+03
-1.408917255616044713e+03
-2.046120427291635679e+03
-3.521716940565005189e+03
-6.970795321507956032e+03
-1.023351120474093113e+04
-8.586995893071434693e+03
-1.279337135818677325e+03
1.680301748110446624e+03
1.791733093459812608e+03
1.173816601614437332e+03
8.654527572933402553e+02
1.064625890473132586e+03
1.170116020375829521e+03
1.226797694687356170e+03
1.297566187753695431e+03
7.482277010915468054e+02
5.756330631366316766e+02
5.877279153528056668e+02
9.165219929993131700e+02
1.331936646981518379e+03
2.268895576482719207e+03
3.745352104056319604e+03
4.732244484786891007e+03
4.551403055540398782e+03
4.275671918899964112e+03
3.295050762044644216e+03
2.708662298776619537e+03
1.629434343721005007e+03
4.391308514975942785e+02
6.162802188487471255e+01
-1.502689344026026959e+02
-7.467343674086641840e+02
-1.823648192250607735e+03
-2.204856156324137828e+03
-2.365494316398976480e+03
-2.356763465389706198e+03
-1.406887923500550642e+03
2.219964964869465689e+02
1.540947957737984098e+03
1.659965012675678281e+03
1.185111779843104159e+03
4.284556177018375251e+02
-8.840221686389772913e+02
-1.392366061326083127e+03
-2.537538290732607038e+03
-4.246512595507078913e+03
-4.314212546320477486e+03
-3.929599280056258976e+03
-3.628596661051865340e+03
-2.682188208328853761e+03
-1.964096002925279834e+02
3.042781712901505671e+03
6.101396139124949514e+03
7.040427964104254897e+03
6.863909035346836390e+03
6.287013184241772251e+03
4.850866273513109263e+03
3.853341839241856178e+03
3.662328461282596891e+03
2.835719488019776691e+03
2.684595004919570329e+03
3.743241668890645087e+03
5.593784952796843754e+03
6.401327087345036489e+03
5.558007245107623930e+03
4.720820059994218354e+03
3.487732601983698714e+03
2.445746113114681975e+03
2.091066598532078842e+03
2.063803915392172257e+03
1.777003248842732319e+03
1.607869375390531104e+03
2.176485129071650590e+03
1.705866641462624557e+03
1.062536315335936479e+02
-1.842006317200059584e+03
-4.154071356218955771e+03
-4.440581072443897938e+03
-7.128632393424191832e+03
-1.002003163880446664e+04
-1.162448664694542094e+04
-1.313889415713477320e+04
-1.430328098680377843e+04
-1.533152159040140759e+04
-1.466239007767370094e+04
-1.285876970852759405e+04
-1.185355861202223059e+04
-1.169852393008275976e+04
-1.060044777510364111e+04
-5.425183855373466031e+03
1.898315306434333706e+03
4.644177487248289253e+03
5.878656497976126957e+03
1.822950937389622823e+03
6.273218941417067072e+03
6.880676921660031439e+03
2.582399599950614629e+03
4.354065176865587432e+02
-4.872566530022129996e+02
-1.746344646835061894e+03
-1.650669847498245872e+03
-1.173261191094641845e+03
-1.851069120730675650e+03
-1.054821352614287434e+03
-1.014164597019310008e+03
-1.834879794890338417e+03
-3.428897307838833967e+03
-3.984188018949755588e+03
-1.750642519478263466e+03
2.557806749030511583e+03
2.569116745673250989e+03
2.013437610681803790e+03
7.940345429808440940e+02
8.701352319716681905e+02
2.799745041260317521e+03
3.860006887714932418e+03
3.037203012058490913e+03
1.970522791446299379e+03
1.804988558094100199e+03
2.253749076178599353e+03
3.264072466997556148e+03
3.934071456924563336e+03
4.402746853867709433e+03
3.960014081371383327e+03
3.320847342714118440e+03
2.479800290199766096e+03
1.569700221687514613e+03
1.180035744025639133e+03
9.948483775651172891e+02
1.016237733222835118e+03
5.022916477657096266e+02
-4.546596171906969062e+02
-2.059691729174463035e+03
-3.603766332756935753e+03
-3.456502520309029023e+03
-1.968048168863922911e+03
-8.130604314008205336e+01
1.336760535876759377e+03
3.482573532819132652e+03
4.945151782060837832e+03
4.333815115453715407e+03
2.686184783522245198e+03
-2.976022036740295675e+02
-1.590910821397099198e+03
7.131399678451392674e+02
3.408902633708580652e+03
4.577415027891201134e+03
5.099300592014757967e+03
4.724926517938358302e+03
2.563709113557135879e+03
7.101709902725208394e+02
-1.653878183530617036e+02
-6.519066993845009392e+02
-9.833624992594396872e+02
-1.215428369056375914e+03
-1.733356843271104935e+03
-2.050435694873364355e+03
-2.124375978578001423e+02
1.817615336699879890e+03
3.833617293595158571e+03
4.879621794346599927e+03
5.224746579248282615e+03
5.427700502575518840e+03
5.268852497849858992e+03
5.281883406344827563e+03
5.578552328006111566e+03
5.031819589763677868e+03
3.840720034511566610e+03
3.045278306119363151e+03
2.526482451813663374e+03
2.043407208033759844e+03
1.213103100811125842e+03
3.945071300743416032e+01
-1.548648474912319898e+03
-3.267209125098298500e+03
-3.623183831656482653e+03
-2.633580575819297792e+03
-6.204908921051040807e+02
1.687228864656648739e+03
3.578536281241401866e+03
4.263262682907931776e+03
3.783361723174390136e+03
2.946756824908510680e+03
1.890399928462350772e+03
1.731238170044544404e+03
1.903248377537484203e+03
1.477439343606108423e+03
5.908274296632773712e+02
-3.166317389009876706e+02
-1.374234999190615326e+03
-2.248216633160171114e+03
-4.401545851171323193e+03
-7.184181124904992430e+03
-9.581180578679690370e+03
-6.288687512674277059e+03
-6.787285139353222974e+01
-2.477627385892377333e+03
-6.522046270277902295e+03
-7.720279353568586885e+03
-7.964330015579221254e+03
-7.297197787419070664e+03
-5.865832495053347884e+03
-6.797254088311527084e+03
-8.059468392910073817e+03
-8.931425561478095915e+03
-8.314517308194625002e+03
-7.687901732469497802e+03
-6.273819873141065727e+03
-2.332296963757453796e+03
2.835004983050114902e+02
-4.085470465769464568e+02
-1.043773605804847193e+02
8.259147164624329207e+02
1.123196877614267351e+03
9.924759508110665820e+02
6.616967980046986213e+02
1.037698660002663615e+02
-1.033292154083924856e+02
-9.206502445405336630e+02
-1.421240276306722080e+03
-2.332583474668436168e+02
1.691190222561085875e+03
1.586164296273725768e+03
3.586731496976602784e+02
-1.234454382742709640e+03
-3.451372667435368840e+03
-6.281166703454277012e+03
-6.250973783909676968e+03
-3.889776883636247931e+03
-1.178516258980154362e+03
8.997777978078391925e+02
2.277030337406688886e+03
3.212153278455469717e+03
2.194087121838666462e+03
4.188686661337043802e+02
-1.397604089260535602e+03
-3.406517288746576924e+03
-4.781016959081178356e+03
-5.144070800631868224e+03
-4.051658251201760777e+03
-2.829723112632380889e+03
-2.834257827446604551e+03
-3.826257981147581177e+03
-4.164907179252297283e+03
-1.854397945489068661e+03
1.651468322473141939e+02
1.882712830064115224e+03
3.769254445389417924e+03
3.985685193240927219e+03
3.933954980480468294e+03
3.948991361643160417e+03
3.992712145078523463e+03
3.778072196413392703e+03
3.056114418763559115e+03
2.493862723297038883e+03
1.683186517951938640e+03
6.519623357937301762e+02
-5.029798109038370626e+02
-1.126600137277452177e+03
-1.088951090873799785e+03
-3.984807673151474887e+02
-1.541161325313694874e+02
1.228172416818148633e+02
1.204994496053387593e+03
1.523299936233827111e+03
1.376817244778019131e+03
1.051822840655905338e+03
1.825306752470464062e+03
2.298881853210145891e+03
2.284516239536531430e+03
2.426418307063840075e+03
1.807547285663232060e+03
2.089480693068953201e+02
-1.272262815061227229e+03
-2.035038722007654997e+03
-2.085780259304342053e+03
-1.880734291285828704e+03
-1.273120785555905968e+03
-9.063128580967522794e+02
-1.234463921521886732e+03
-2.406553810076562058e+03
-2.868418764301048213e+03
-5.448714197152279439e+02
2.355970421031414844e+03
3.899111209381167100e+03
4.431640449318024366e+03
3.558554282655445149e+03
1.473787916454715514e+03
9.323150737410753663e+02
3.773130477720952513e+03
6.401140782229627803e+03
7.593373909689958055e+03
7.703731331348673848e+03
6.430030918488051611e+03
5.072346214850759679e+03
3.915710359312593482e+03
2.757308198861156598e+03
2.368406208796756346e+03
2.008083200863686898e+03
1.484420628625896143e+03
7.573423014500882573e+02
-1.408402787202431909e+02
-2.700823754391775537e+02
1.370999463374820095e+02
9.502626373426013515e+02
1.712315027607698767e+03
1.578937466225065918e+03
1.809428403062295274e+03
1.806301938006399268e+03
1.404380344966478106e+03
3.136064784326240442e+02
2.229735314058806068e+02
1.836289270539807376e+03
3.506618492063430949e+03
4.126859443259218097e+03
3.344795735697890450e+03
2.022069492301564196e+03
1.288774800760868402e+03
2.787464605523820751e+02
5.325771748819996674e+02
1.648803335775023697e+03
2.523805274142856888e+03
2.828234211287483959e+03
1.696911482695501263e+03
1.136314397332077760e+03
1.201443228900411896e+03
6.816314625819571802e+02
6.540698146709138427e+02
8.453712774018858909e+02
5.082319724846014992e+02
6.342338364111884630e+02
-8.291659957143641577e+02
-2.311472041160896879e+03
-3.299297488301464000e+03
-3.723575971690335791e+03
-3.190878663302666610e+03
-1.656899957616275969e+03
-2.081171507184853056e+02
-5.995015321400583161e+02
-2.045484865977863819e+03
-2.032606460126017737e+03
-1.928117806035975264e+03
-2.661325261483139911e+03
-2.988812688083271951e+03
-2.031311585777027631e+03
-9.202306941125084450e+02
-1.334375821718317184e+03
-1.780113464921346349e+03
-1.735791816601772098e+03
-1.878158213231707578e+03
-1.907888905475002275e+03
-7.663368414374134545e+02
6.127954538043504726e+02
1.897498636883590279e+03
1.832740182106687826e+03
9.030028412857095645e+02
7.190618558574203689e+02
3.783544385684641043e+02
-7.873631280461489723e+02
-2.155993451036368697e+03
-2.061582294180736426e+03
-2.001967207408807496e+02
1.160368379045453366e+03
1.477154739382341859e+03
1.883880456997149167e+03
2.340960508312282400e+03
1.693615838625353490e+03
4.668427889312048364e+02
-6.992390248306168132e+02
-4.204511427525717409e+02
-8.639402529909953046e+02
-2.207664788473063254e+03
-3.091450994494137376e+03
-2.820992866116881487e+03
-2.479329709938217093e+03
-1.984639377387432887e+03
4.170016902357286881e+02
3.954598804256986568e+03
6.148223851742181068e+03
4.783116767927288493e+03
-7.036449898191092700e+01
6.639211015368177868e+02
-1.221977297018342824e+03
7.708941973946193684e+02
1.289419983862843992e+03
2.695906783798213269e+02
-2.379410061388699887e+03
-3.430194330821248968e+03
-3.600379690152121384e+03
-4.772776911175956229e+03
-1.857305488126255113e+03
-1.403212289252845949e+03
2.913985257282882344e+02
3.242601845712624709e+03
5.261595282297469566e+03
4.397474510935610851e+03
1.469522871394551203e+03
5.301289588716099388e+02
3.399447457985506389e+03
2.229747409977132520e+03
-8.278109439926338382e+02
-8.732850886320891277e+02
-3.575071207188827316e+02
-1.698072827546056942e+03
-2.015287139410538884e+03
-1.432436164164667616e+03
-4.865238451649516719e+03
-4.937744179149377487e+03
-5.479123563926485076e+03
-6.040460318692432338e+03
-2.389635424236945710e+03
-1.806556375449158395e+03
-4.702064382575022137e+03
-5.120120322989146189e+03
-6.010888339557849577e+03
-4.001146832385120888e+03
-1.650690112011907786e+03
1.835754895640548511e+03
9.164295348553372378e+02
5.020519440316112195e+03
6.245198583190522186e+03
4.933734718438298842e+03
3.145418300591691150e+03
2.382390913844586066e+03
1.647678891159700242e+03
6.554169222542100215e+02
4.119306349922516688e+02
5.655763268438362275e+02
4.786761406021231551e+02
-4.504701381016508890e+02
-1.614594766697412069e+03
-2.076509097412111714e+03
-2.435041810911337052e+03
-2.947056477183523839e+03
-1.629442727183746683e+03
3.588499547393856233e+02
1.193020402087275897e+03
1.094139686937233819e+03
7.313635877253606168e+02
2.377690345616863397e+02
-5.065831448394603740e+02
-1.109782856426891158e+03
-1.861829960967852003e+03
-2.562506306320120530e+03
-2.975606766632527069e+03
-3.472000625613908142e+03
-3.517526595410532082e+03
-3.555062468897075178e+03
-2.465397765909759983e+03
-1.160241229910364609e+03
-1.661634689442376612e+03
-3.403790165827182591e+03
-3.268057945727962306e+03
-3.219775083902494771e+03
-4.090659537424566679e+03
-4.674914436494123038e+03
-5.184591897235493889e+03
-4.876721321286746388e+03
-3.901538400673799515e+03
-2.639070771469868305e+03
-7.954599073241569158e+02
2.432222596625977360e+02
1.769009130477469398e+02
2.040698763829030440e+03
3.323501060160678207e+03
3.395594262428925049e+03
3.013860646544754673e+03
3.176287334828649364e+03
2.990686243048761298e+03
2.523895685863856215e+03
2.316625002883329671e+03
2.032790141009712215e+03
1.200298523851060281e+03
9.030802577398859512e+02
1.417051823266006977e+03
2.188090813712313320e+03
1.883913068926416827e+03
1.121261374739248367e+03
1.517935286596728247e+03
2.458739221596615607e+03
2.612458324864741371e+03
2.640004708102924724e+03
2.645299499090503559e+03
1.128245177880127130e+03
-3.115087028105140234e+02
-5.083938257070302029e+02
3.183474532443181033e+02
9.946086730031644265e+02
1.190135080849959422e+03
1.442662678817776850e+03
3.108140644025227175e+03
3.862451887471489044e+03
2.433418751236771186e+03
1.818066122471531969e+02
-1.412629564814914602e+03
-1.903166449796202414e+03
-9.251494371193811048e+02
9.821634960225238729e+02
3.668737277073334099e+03
5.095511812649758213e+03
5.565120960400756303e+03
6.111010312018608602e+03
6.761046690569270140e+03
6.550075899411632236e+03
6.942799798274119894e+03
8.076941929886070284e+03
8.834282370179756981e+03
8.306631244168236663e+03
7.539739296333673337e+03
8.064297101561003728e+03
8.831129131594812861e+03
8.997173109438814208e+03
8.532299114706182081e+03
5.894293048868566984e+03
2.819053824056104531e+03
-2.684571905514974787e+03
-4.165753444228786066e+03
-5.275639336677706524e+03
-5.580390887321776972e+03
-2.362204813701248440e+03
-2.815200174451324983e+03
-4.503570248817598440e+03
-3.066451879295700110e+03
-6.528141730724338458e+02
-2.189847925030941497e+03
-4.257700111270771231e+03
-3.441540701624617668e+03
-2.486456372345959608e+03
-8.945705782443006910e+02
3.722134623339627979e+03
1.115480728723820721e+04
1.591460031935088955e+04
1.929835077710304904e+04
2.189976990192005542e+04
2.139763215412091085e+04
1.890362628193620185e+04
1.531578632514575474e+04
1.344120965909175357e+04
1.330980236726328076e+04
1.214633286333346950e+04
1.040473926268662944e+04
9.510969729905733402e+03
9.510972369937158874e+03
9.178795415079272061e+03
8.315617145195410558e+03
6.825298781871793835e+03
4.593548479550171578e+03
2.771378704997411205e+03
-4.052180391805333670e+02
-5.556235945010644173e+03
-9.592492937126526158e+03
-1.390090876009432941e+04
-1.761143555475375615e+04
-1.893095407782790426e+04
-1.968845964318644837e+04
-2.010790307598136133e+04
-2.080315982291990804e+04
-1.773012100947179351e+04
-1.375072867558138205e+04
-1.414789488063990211e+04
-2.023251487781773540e+04
-2.910149764380314809e+04
-2.929976846549296897e+04
-2.248111037905495687e+04
-1.865241623583012552e+04
-1.512554131731935195e+04
-1.277634261786882780e+04
-1.053457015919881451e+04
-1.056608542667704205e+04
-1.046085061486267477e+04
-1.119864020205415545e+04
-1.411617348767957992e+04
-2.363216518363853902e+04
-3.360140726078218722e+04
-3.233773574275758438e+04
-2.016893335801449939e+04
-1.150189488682752744e+04
-1.076143999281158176e+04
-1.467034992298389807e+04
-2.266837236561903046e+04
-2.567417750439030351e+04
-2.854956100694494307e+04
-2.658331700716934938e+04
-2.105918374232321003e+04
-1.899894992712115709e+04
-1.935844321199604383e+04
-1.182727891606453341e+04
3.784719113319178177e+03
1.648675480983237503e+04
2.376825540565607298e+04
2.229451305730123204e+04
9.587702225807222931e+03
-2.730795649140713067e+03
-9.530046492711286191e+03
-1.768196111660226597e+04
-1.928917995960392363e+04
-1.413435604587790112e+04
-8.602370608665336476e+03
-3.580016695713883109e+03
-5.507001478530429267e+03
-1.905113296539014118e+04
-2.617831023782689226e+04
-1.168836915074096214e+04
6.638001998850641939e+03
2.218699630148329015e+04
3.086476383864583477e+04
2.625748590750510994e+04
1.060935306112688158e+04
6.155443987415162155e+03
9.112844913650927992e+03
1.428974031304780328e+04
1.463438890402085053e+04
1.131502508426907116e+04
1.507974000420704942e+04
1.711069885578897811e+04
5.172118076298703272e+03
-9.348885015926927736e+03
-1.535229423026163204e+04
-6.664171191031459784e+03
3.818627358960715810e+03
1.402323344230490511e+04
2.200569282365837353e+04
2.411903235301980749e+04
2.231840535949521654e+04
2.071795038582889174e+04
1.988075330188905355e+04
1.750775941862047330e+04
1.696399867008476576e+04
1.769660312665453966e+04
2.040163965906386511e+04
2.208398948189676958e+04
2.175147946967227108e+04
2.012597453529174891e+04
1.805928981207552351e+04
1.530518968611360469e+04
1.412960832198605931e+04
1.569775237678123267e+04
1.823387232098563618e+04
2.056149642500645859e+04
2.127567768126247393e+04
1.954694462833076614e+04
1.587525856765788376e+04
1.250357460831656499e+04
1.155777189584744156e+04
1.358864828085508270e+04
1.619905889490080153e+04
1.865605337768685422e+04
1.817403085696345443e+04
1.597019267753436543e+04
1.326608616983788124e+04
1.062500593979322002e+04
7.883752778591010610e+03
6.084298898915732025e+03
4.974356278354581264e+03
1.960652873350451728e+03
-2.604994105506981668e+03
-7.322569276837018151e+03
-1.253118836681498578e+04
-1.821938648997876226e+04
-2.351250740134498483e+04
-2.336967845840800510e+04
-1.640128978915714470e+04
-8.336727091859542270e+03
-1.505773599560376624e+03
2.957929875929269201e+03
5.174571891665130352e+03
7.290018640536177372e+03
8.862704223533353797e+03
1.024441817474210256e+04
1.015817276071413107e+04
7.747458271828113539e+03
6.085929425547249593e+03
4.924992681358136906e+03
4.142362627787787460e+03
3.428611549678984375e+03
2.494262093160889890e+03
7.714031803634252356e+02
1.773019981508659360e+00
1.026184131476800303e+03
8.282931120068855080e+02
-2.643371515143381203e+03
-7.607196792397648096e+03
-1.171853434067156741e+04
