-1.271041725000090446e+04
-9.973972487388153240e+03
-1.009829864283084862e+04
-1.523312062502483968e+04
-1.429210627718809883e+04
-1.093498351862813433e+04
-1.014358414499394166e+04
-1.015652039489903837e+04
-1.473558964551321333e+04
-2.047462545239504834e+04
-2.181914475028498055e+04
-2.403072259166033473e+04
-2.432507998607692934e+04
-1.919279166964719843e+04
-6.883556530245663453e+03
-2.747047147501567451e+03
-1.169487324842803537e+04
-1.690260945571065167e+04
-1.142385278400819334e+04
-1.100214885980063082e+04
-1.614495820735734560e+04
-1.154781176141507967e+04
4.106906859801017617e+02
6.747389858502741845e+03
9.694737914113705983e+02
-6.354001544935468701e+03
-5.665303233573132275e+03
-1.923796516692593741e+02
6.230966030012794363e+03
9.876135478434018296e+03
1.021956180619011502e+04
7.577582080720902013e+03
1.828578829566705508e+03
-3.147034952355706082e+03
-7.625043816302599225e+03
-2.041100676569604957e+03
5.464196361490769959e+03
1.276715270851186142e+04
1.837894929916617184e+04
2.051977156792572714e+04
1.839178697813616600e+04
1.241874593247312441e+04
2.754741468888354120e+03
3.057868204332993173e+03
7.376281304649035519e+03
9.861318885352136931e+03
1.154737199440160293e+04
1.570573370099981730e+04
1.897377504017696629e+04
1.609972702899679643e+04
1.333377194788616180e+04
1.511716500460593852e+04
1.376112774801222622e+04
1.007901515619366546e+04
7.371007707321735325e+03
6.807313720084088345e+03
1.149167321301653828e+03
-6.629285399292807597e+03
-4.223770490909738328e+03
-2.581981722177134088e+03
-6.504772422675056077e+03
-1.034313964559139822e+04
-1.351105256252475556e+04
-1.412740065153450450e+04
-1.580700056012983623e+04
-1.190479575266135544e+04
-7.139721116072634686e+03
-4.505662890174676249e+03
1.020636262450284812e+04
2.754933754195488655e+04
3.251532402313853891e+04
2.817625993505193401e+04
2.110415848156276115e+04
1.444307728439795210e+04
8.053029111942851159e+03
6.538885314010639149e+02
-2.399408615560284943e+03
1.012166164462014876e+03
5.655487309752697001e+03
8.689377609620809380e+03
1.173486423258494142e+04
1.693595358707278501e+04
1.922065657069145163e+04
1.686268944570092572e+04
1.542488286595977115e+04
1.602817648747008934e+04
1.265356358617912520e+04
7.833782093763509693e+03
1.410784330401695570e+03
-4.702641116190137836e+03
-9.393710639313414504e+03
-1.034770339181040617e+04
-3.197958485872461551e+03
4.949795722741711188e+02
4.002805213155410001e+03
6.524330559738528791e+03
4.805451720680838662e+03
5.781839493328579010e+03
4.459234660466471723e+03
4.093201426847978837e+03
4.474420837519602173e+03
4.272483205259271017e+03
1.808118551240044553e+03
3.295205244923516119e+01
-1.776363198007326673e+03
-7.962041318381722022e+02
3.277996126932269362e+03
6.989930352240439788e+03
5.596396123905899913e+03
4.431048351073114645e+03
3.857385989458773111e+03
4.261980584264802928e+03
6.936531112392984141e+03
8.863633028712709347e+03
7.126020238114555468e+03
7.640291751188963644e+03
7.848928343161986959e+03
7.667443047683638724e+03
8.016547847378819824e+03
6.597841600532306074e+03
3.101837749648391309e+03
7.380581079727520546e+02
-1.039853556366447492e+03
-5.007336524820993873e+03
-8.134826663430968438e+03
-1.065577834067038566e+04
-1.400563815835003516e+04
-1.589083697219865098e+04
-1.396678376150026997e+04
-1.199881257124418698e+04
-1.176129596796110491e+04
-1.358064730683607195e+04
-1.345326001698515574e+04
-1.113557089474052736e+04
-1.192098532420685842e+04
-1.357488625088152730e+04
-1.703165090951741513e+04
-1.918870618743330488e+04
-2.091741151809871371e+04
-2.273311532890850503e+04
-2.526923021893743862e+04
-2.574525663252669619e+04
-2.576459505015124523e+04
-2.206753851642360678e+04
-1.721956214190134051e+04
-1.309701264074437131e+04
-1.039012395814722186e+04
-7.838219961737534504e+03
-6.985625730088184355e+03
-6.475730113787124537e+03
-7.039911675825666862e+03
-7.627431816053081093e+03
-7.705632606495231812e+03
-6.433879569241111312e+03
-4.793453873478332753e+03
-3.342724774840656210e+03
-2.753870112049372437e+03
-2.957074707416169531e+03
-4.391689536205795775e+03
-5.737955801504764167e+03
-7.798040841874127182e+03
-1.034419485022928347e+04
-1.304867706090559295e+04
-1.442170877926301546e+04
-1.482449208510425160e+04
-1.359420244716220623e+04
-1.288878968542645998e+04
-1.142670973220458836e+04
-9.884133123443545628e+03
-8.496159513174370659e+03
-6.499859448070452345e+03
-2.741320565295639426e+03
-5.132653830925178227e+03
-8.348112817006993282e+03
-7.016668669020124071e+03
-5.366303579806288326e+03
-6.177072556389546662e+03
-4.937013781935218503e+03
1.883845168008280780e+03
3.243377656173750893e+03
1.048565422122939026e+03
3.963430441625923777e+02
3.897326948543965841e+02
8.516244981422056526e+02
1.733048316201795160e+03
2.770090321016433791e+03
3.366623835962820522e+03
4.999749892742966040e+03
6.122564630578284778e+03
6.836047423525303202e+03
6.545217309529775775e+03
5.183130986736276100e+03
5.782938762991835574e+03
1.050573927123289468e+04
1.380568070600970168e+04
1.571284287681098795e+04
1.661032327979933325e+04
1.815116067641652262e+04
1.941347097895325351e+04
2.092241974512871093e+04
2.154014322649817768e+04
2.261079375092791088e+04
2.324455655050089626e+04
2.305960602458993890e+04
2.321713614582208902e+04
2.418935147856024560e+04
2.443131589573311430e+04
2.432204542252447573e+04
2.404857569999930274e+04
2.431914827317677555e+04
2.546083299460437775e+04
2.552570655810223616e+04
2.385083958131637701e+04
2.241974793785880684e+04
2.223089410145412330e+04
2.248360095377557809e+04
2.260409814595336866e+04
2.163066343364037311e+04
1.910059383514492220e+04
1.600316503888096122e+04
1.316362004226940189e+04
9.422015261509319316e+03
5.013339708209609853e+03
9.211140013724159417e+02
-2.715701259980727173e+03
-1.779025025354864511e+03
-4.046211137163492367e+03
-6.538943561466169740e+03
-7.110564883720891885e+03
-6.518114139172333125e+03
-6.634580938943292495e+03
-6.348758563686990783e+03
-5.901029554503326835e+03
-6.209022816880650680e+03
-6.965432682131637193e+03
-8.064817060725051306e+03
-8.836859475687011582e+03
-8.500446642135631919e+03
-9.338087465278893433e+03
-1.135242017289366595e+04
-1.174046214295721438e+04
-1.180605042451948611e+04
-1.233607092107671451e+04
-1.276027912855115028e+04
-1.148781727642630358e+04
-9.712405233369847338e+03
-9.194989682057223035e+03
-9.987018631891434779e+03
-1.076099957391752650e+04
-1.066169989643996087e+04
-1.014907109436633436e+04
-9.639790115164400049e+03
-9.833600201786965044e+03
-9.290064730722557215e+03
-8.660641749879077906e+03
-7.359109191848071532e+03
-6.343346039682321134e+03
-5.418306837220026864e+03
-5.533894724704017790e+03
-5.898660191402139390e+03
-5.996949244087181796e+03
-5.730976803859414758e+03
-6.012743949961526596e+03
-6.401820041554034106e+03
-7.159945963146412396e+03
-6.699459108621338601e+03
-5.952924731537252228e+03
-5.106338015916690892e+03
-5.463360617430731509e+03
-5.967887631282927941e+03
-6.524198487865734933e+03
-7.322766368790553315e+03
-8.207856803769533144e+03
-8.347207012477112585e+03
-8.309686399194551996e+03
-8.086844693654285948e+03
-7.755144536599450475e+03
-7.484903467042960074e+03
-8.074703096348501276e+03
-8.913100958530079879e+03
-1.105563198065652250e+04
-1.186216868293833795e+04
-1.076531049054007963e+04
-9.345428699387424786e+03
-9.525783999060735368e+03
-9.625341924248494252e+03
-8.309900861995549349e+03
-7.192094580273123938e+03
-6.093399644138519761e+03
-4.949242964807368480e+03
-4.339334047166886194e+03
-2.555373471642394179e+03
-8.240048730423762890e+02
9.536721197928777656e+02
4.296773877214458480e+03
3.206521507554800337e+03
2.470222100734206833e+03
7.862361666694808264e+03
1.042345261256386038e+04
1.064007766152266413e+04
9.728639106169774095e+03
8.604950916089361272e+03
7.425262663679010984e+03
6.634733994664098645e+03
6.336238121365682673e+03
6.019914876567527244e+03
5.014341203917480925e+03
3.995666007994842857e+03
3.062692835402767741e+03
2.603846611830705115e+03
2.364512646470328036e+03
1.823744224920101487e+03
1.650592992613379465e+03
1.515752904700465933e+03
2.091489173043245046e+03
3.573966230222672948e+03
4.880271488293701623e+03
5.291990602685771591e+03
5.286360534269902018e+03
4.724408784854457735e+03
4.602894205975379009e+03
4.827932484991764795e+03
4.803174033262787816e+03
5.537545211662671136e+03
6.345053240113827087e+03
6.812538990535445919e+03
7.567527670351589222e+03
7.974811618664613889e+03
7.715175521353246040e+03
7.573034226782881888e+03
7.516471123173504566e+03
7.054507494891690840e+03
5.872398650697378798e+03
5.000875204075679903e+03
3.889407565379428888e+03
2.252791809455264683e+03
6.679781471182766381e+02
-8.717846911059540105e+01
3.330425530692700136e+02
-8.592622928191824485e+02
-3.226826617226069175e+03
-4.603806996049687768e+03
-3.670488542321040313e+03
-2.609443143897196933e+03
-8.792467086377216674e+02
1.093286357024456038e+03
2.614171460044063224e+03
3.903438672937989850e+03
4.476595191333983166e+03
4.151991144959109988e+03
3.071649027465952713e+03
2.059985263217211468e+03
2.062926540730353281e+03
2.179688430733916903e+03
2.901933394019848038e+03
3.379651795575960023e+03
3.581602899950665233e+03
3.311599517060235030e+03
2.720493903915815281e+03
2.007352583333244183e+03
1.454066082681600847e+03
6.584871680607712960e+02
-6.400094437988993832e+02
-1.009943484398678265e+03
-1.184492742387900307e+03
-4.684411905723719087e+02
-8.590079539720410366e+02
-2.398445504027517927e+03
-3.141034846354224555e+03
-3.573163061488440235e+03
-2.648890053787234137e+03
-1.479162139361777008e+03
-1.577402886333813740e+03
-1.918814505658484222e+03
-1.880565978524630964e+03
-9.107714798272387497e+02
-5.234449840533834504e+02
-1.426718353836698043e+03
-1.884893642137946472e+03
-1.836186364604734763e+03
-2.076661855018109691e+03
-2.368576088105575764e+03
-2.888224109272183341e+03
-3.511771101876141984e+03
-4.085521562813391483e+03
-4.385131255522013817e+03
-4.294046456502196634e+03
-4.735358037394189523e+03
-4.520002768339902104e+03
-4.466307162323286320e+03
-4.282771996473825311e+03
-4.483511414598214287e+03
-3.823421289887274725e+03
-3.338351979800876961e+03
-3.258756648189703810e+03
-3.165012615845829259e+03
-2.702325419165341827e+03
-2.598783896357371759e+03
-2.841729477010384471e+03
-2.304521560289284480e+03
-2.230023312814487326e+03
-2.537777950640623658e+03
-2.526964779484374503e+03
-3.115642140460287010e+03
-3.135047661786060416e+03
-3.020347061532568659e+03
-2.742792878380940692e+03
-2.481491093086326146e+03
-2.231624975940165768e+03
-2.089484145501852254e+03
-1.529396011331919226e+03
-1.106476127828108929e+03
-4.887665666710734627e+02
4.944820905961783524e+02
6.958007178635228911e+02
8.940079967149932827e+02
1.599943038022893688e+03
1.783602413786677744e+03
1.570768558471268307e+03
1.683215341001977777e+03
1.378943054390279030e+03
7.687220225939759075e+02
-1.926044322954876407e+02
-1.090303555487321546e+03
-9.417856390453731592e+02
-1.009794313280899928e+03
-1.325807239910017415e+03
-4.948517495159441069e+02
7.409238085343530429e+02
5.958733201562369004e+02
6.298370545502226605e+02
1.471220764659452470e+03
1.974245069663598315e+03
2.347806547825794041e+03
2.555847587605171157e+03
3.033781892939420231e+03
3.307062375264124512e+03
2.943678349276535300e+03
2.762688915423622348e+03
2.653844415633657718e+03
2.191294126782683634e+03
1.747592867090792197e+03
1.222998996006408561e+03
1.184795030998721359e+03
9.955226925957300637e+02
1.003360789981284825e+03
1.210311354525942761e+03
6.803929525650604546e+02
8.598223096231181444e+02
1.567553878743935684e+03
2.609312296835717007e+03
3.344334981002498807e+03
3.582407941801239758e+03
3.997824653813409896e+03
4.893785455238193208e+03
5.727243269308710296e+03
6.190210093717785639e+03
6.271817853551458938e+03
6.217113068640377605e+03
6.087349080945619789e+03
6.228677872868977829e+03
5.818137921187781103e+03
5.683924479069941299e+03
4.951437635624465656e+03
4.023906142883647590e+03
3.880386464415180399e+03
2.443797857024162568e+03
2.601923816410881045e+02
-3.105048755970789443e+03
-4.031522320185850731e+03
-3.458182815169168862e+03
-2.838212064576799094e+03
-2.393494943634946594e+03
-1.798720075735826867e+03
-1.617504508071385771e+03
-1.025398631540018869e+03
-8.800157055400929949e+02
-6.809137022209617953e+02
-4.359044131680432770e+02
-4.440367505748699841e+02
3.061954107777163699e+03
5.594295181112025602e+03
8.227520934753027859e+02
-3.306147637199563178e+03
-2.153102416216886468e+03
-4.968122981150554551e+03
-7.812176606036658995e+03
-9.663943303546639072e+03
-1.012722532388491163e+04
-1.020589124315219851e+04
-1.021479162383331823e+04
-8.224627168226161302e+03
-5.512007849276239540e+03
-2.425643068331305585e+03
-4.054712283427432453e+02
7.516983778312126105e+02
9.202097417157158361e+02
1.377245967333792350e+03
2.657762499007826136e+03
4.569843249249070141e+03
1.178548792857572380e+03
-1.096089874636058084e+03
-2.809739122226990844e+02
3.384043093820595004e+03
4.789194307989113440e+03
5.065840823690777142e+03
5.238194288905358917e+03
5.508306912578301308e+03
5.963347181873749832e+03
5.804645316075088886e+03
5.638273880277522949e+03
5.058257694140087551e+03
5.253394168730695128e+03
5.394689502874756727e+03
5.534230712467028752e+03
5.865217904884104428e+03
5.826942567880947536e+03
5.415523552168600872e+03
4.781020903413636916e+03
4.488638559443185841e+03
3.627717003364089123e+03
2.876441382936174705e+03
1.997550926412219496e+03
1.536937503772134733e+03
1.085762259133196721e+03
5.991757870988907371e+02
-4.407823904329605398e+02
-1.157070573318518200e+03
-1.448620284625521435e+03
-2.256243095876041934e+03
-2.474917545845729819e+03
-1.736650507997367640e+03
-9.043941733614725536e+02
3.786843883074273975e+01
7.272047698061855954e+02
1.317033476959391692e+03
2.196388178344710468e+03
3.083331814667505114e+03
3.378776500046831188e+03
3.550490780108671061e+03
3.470364710168254987e+03
3.891583648537655790e+03
2.859219583912430608e+03
8.401680388594108990e+02
-7.085229562411984716e+02
-1.924830436710785762e+03
-2.701917738232316424e+03
-2.812821406727374324e+03
-3.328438291667590420e+03
-3.852050895634503377e+03
-3.382958641458129932e+03
-2.076205964767506885e+03
-1.225468659966103814e+03
-3.757394950404724341e+02
1.905454081208017101e+02
5.687413026996870258e+02
2.367640422577618509e+01
-2.886591648437675417e+02
-2.182679224016795274e+02
-1.522581289756845706e+02
-2.696907243599298454e+02
-2.777042740195953456e+02
-7.463946009087345601e+02
-1.801778219621573498e+03
-2.837893389568555449e+03
-3.227840484499216927e+03
-3.180692447474124037e+03
-3.789371449638766535e+03
-3.360869078609639018e+03
-7.532846360331535607e+02
8.103495562712546416e+02
2.448405333855781691e+02
-5.239880884562510346e+02
-6.002738469578079048e+02
8.429330569826598776e+02
2.081642750704875198e+03
1.849755723230963213e+03
1.146069159622245479e+03
1.365423092995211618e+03
2.486839431368453916e+03
2.397183872515874555e+03
1.372385016238913977e+03
5.904335133513186520e+02
7.321868081011535878e+01
5.065221487502269326e+01
1.037703103783081588e+03
1.842434612269245235e+03
1.577751227733008136e+03
1.941494692341240352e+03
2.173635881617405630e+03
2.582046855229881658e+03
3.261700633683851720e+03
3.305572639335503027e+03
2.791631520476290461e+03
2.412772226140903058e+03
1.864894561284683277e+03
5.350474491767126892e+02
-2.156797135775560037e+03
-6.715688755294143448e+03
-1.031584446754217061e+04
-1.054646570464831348e+04
-1.043776397317736519e+04
-1.025777541310525339e+04
-8.073633668332216075e+03
-7.427465184572003636e+03
-4.173434547614448093e+03
-9.356491347785691914e+01
-6.267786082414888824e+02
-6.599243867089019204e+02
-2.410031603005625129e+02
4.149342543977538185e+02
6.277213835077579915e+02
4.701345260910657657e+02
7.210026404533192590e+02
6.563486355859498644e+02
1.065238332875400602e+03
2.738742261361970577e+03
4.868817351910235629e+03
4.276406601292836967e+03
2.999427277851869349e+03
2.355691217715540461e+03
2.106164307836082116e+03
1.383718307560003268e+03
1.543493288660191922e+02
-1.424790477209801793e+03
-3.013693037336243378e+03
-2.989308176706240829e+03
-3.176679056125883108e+03
-4.060880089593803405e+03
-5.186902835383889396e+03
-6.307995850314910058e+03
-5.494240813468532906e+03
-3.463704503431519697e+03
-2.473540646326646765e+03
-1.740648427796838632e+03
-3.688773793998287829e+02
6.777386580759291519e+02
1.825096223163681316e+03
2.536077635510691380e+03
2.965649470622729496e+03
3.751933317698458723e+03
3.336046145770422754e+03
7.009434830059421984e+02
-1.888322279832533923e+03
-3.102657112537153807e+03
-3.701104366306147313e+03
-5.175576567113249439e+03
-8.330177634547215348e+03
-8.494024868376201994e+03
-5.558188648975692558e+03
-3.980678458262840650e+03
-3.772560789649453909e+03
-3.343849892812822873e+03
-1.748526968074096430e+03
1.042385064998308962e+03
3.664826801222087852e+03
2.975832596747220578e+03
4.275731877413612665e+02
-1.345968603751040746e+03
-1.528867520508444841e+03
-1.155118311324390788e+03
-1.119701154715035500e+03
-1.623556158777391374e+03
-1.780804047271038826e+03
-1.645491545387533279e+03
-2.074527838059666465e+03
-2.615776391318289825e+03
-1.110219231049559767e+03
3.470099447042811789e+03
7.986169551399712873e+03
8.958036891590943924e+03
8.689794710535708873e+03
8.379350884714078347e+03
9.254810292154794297e+03
8.517239976073835351e+03
5.753641403860861828e+03
5.513013275127081215e+03
5.006326596004839303e+03
6.304566149259384474e+03
5.905840674322525047e+03
2.576192697633517128e+03
4.526592937617286225e+03
2.095167961956419731e+03
1.443935178340072298e+03
2.886821933916212856e+03
4.604869678436484719e+03
4.062192370031466908e+03
7.947438013757915769e+02
1.790447996403273464e+03
-1.027550093414400152e+02
-6.482415937001751161e+01
-2.376592016537674112e+02
1.862782995736673229e+03
7.675376067676127150e+02
2.004689763187825747e+03
9.102297411426455938e+02
2.542265382918277282e+03
-1.110123322145662996e+03
-1.579949485509644546e+03
1.612806506150344148e+03
2.991140148043728004e+02
7.259770423395070793e+02
6.654701815065428718e+02
-7.984469890268009067e+02
-1.659776064941926052e+03
-2.092545325137476993e+03
-2.065678359928177542e+03
5.383095997168742031e+01
-2.298984110081287326e+03
-3.015007909030129213e+03
-1.236228938355557830e+03
-9.717336245048508090e+02
-1.306461769704734934e+03
-2.158343509394299872e+03
-3.570260678227591598e+03
-3.772133484972994211e+03
-4.619914422282397936e+03
-6.814552016541272678e+03
-7.814975648605006427e+03
-6.073283800197950768e+03
-3.080433049260074313e+03
-9.154870983350849656e+02
-1.037541566848534103e+03
-1.645506597236585094e+03
-3.523730854820620380e+02
2.509866468996544882e+03
4.153164577811914569e+03
2.184783225594091618e+03
-8.181230849909486551e+02
-2.943452151195730039e+03
-4.215319955147759174e+03
-4.359822027313673971e+03
-3.160990430575900518e+03
1.525251425208034334e+03
5.600994303013962963e+03
5.437354651685775934e+03
5.495246082198567819e+03
5.579519766671781326e+03
4.384725517942432816e+03
4.050350394313717061e+03
4.407696599619395784e+03
3.787524450486074784e+03
2.137279343630365929e+03
1.303057101222050278e+03
9.544944912909206778e+02
6.878229499075719389e+01
-2.397858932799365448e+03
-4.536495530214139762e+03
-4.893322687139950176e+03
-3.602359827136916010e+03
-2.398721441805246741e+03
-2.000637803545983161e+03
-7.023494017236672562e+02
2.741202728798260523e+03
4.465057459125442620e+03
4.971191378871133566e+03
4.187586928621075458e+03
3.424823745350659919e+03
2.676738989930095613e+03
5.268764669315290803e+02
-2.597779373448057868e+03
-3.738803723242249362e+03
-3.344030674607844958e+03
-3.594787480522771148e+03
-3.337137721535911624e+03
-8.811328097686345018e+02
2.359427675624421681e+03
5.364496150680599385e+03
5.549991556971683167e+03
4.151911467474777965e+03
2.086301052283876743e+03
-4.107478825378844931e+02
-1.364178472036260700e+03
-2.216879263492922746e+03
-3.549801274539331189e+03
-4.407133707913877515e+03
-2.153995726782817655e+03
1.562847650024198629e+03
2.629633751873507208e+03
1.723566101369066246e+03
2.130490015460366976e+03
2.480152885662998415e+03
2.184489936664998822e+03
1.222739616160735977e+03
-4.156091139890532986e+02
-9.719358857371751128e+02
-1.470297206740782713e+03
-2.769116148350525691e+03
-4.183835793162898881e+03
-6.201394835843050714e+03
-8.402911621941582780e+03
-6.648677024987116056e+03
-4.825579941125763071e+03
-3.844835110861068642e+03
-3.065206886798351206e+03
-3.453997195440464566e+03
-4.995711797673905494e+03
-6.034623181412426675e+03
-6.340473108721841527e+03
-6.483807761618984841e+03
-5.777685648160262645e+03
-4.108970318840913023e+03
-3.809949835217797954e+03
-4.111378606694246628e+03
-1.011351701828351565e+03
-3.742054097591089317e+02
-3.047252737310675002e+03
-4.247277378759920794e+03
-5.394923434420240483e+03
-6.237523349335684543e+03
-5.572701601258359005e+03
-1.012094611419376406e+03
6.404627851836262380e+02
1.825428316309722732e+03
3.417079676007252601e+03
4.170788537981717127e+03
5.151484595610596443e+03
5.580570847360772859e+03
5.449352066609397298e+03
4.916225748691455919e+03
4.242711047597017568e+03
2.621871429209586495e+03
7.287675590356424209e+02
5.469666166193236450e+02
9.835082004594704586e+02
1.445143598300785698e+03
2.647326017918452180e+03
3.356207759100749627e+03
4.164962706088636878e+03
4.558700799896686476e+03
4.725347058709932753e+03
5.855842348918456082e+03
6.332642786414355214e+03
5.574910663982380356e+03
3.859460120563384862e+03
2.914997083253747405e+03
1.899720643159237397e+03
1.054653240490425560e+03
8.303213453540495266e+02
6.299201134227224657e+02
4.840041682040910587e+01
-7.089424890887606807e+02
5.203138800625395106e+02
1.992070341159934287e+03
2.246676958513905447e+03
2.297896587214858755e+03
1.748961686643820258e+03
1.290976538609940690e+03
5.431572520300378528e+02
-8.903608584488438282e+01
-6.309846940260597421e+02
-2.824582908916539168e+02
1.544106566254458244e+02
-3.518816284806791259e+02
6.565898084332802398e+01
1.233861919808286530e+03
1.459984632346001490e+03
1.029444879804485026e+03
1.957856732214277145e+03
2.355244031761231327e+03
2.287546769244348070e+03
3.132082656620636385e+02
-2.547455282884292501e+03
-5.198453255019193421e+03
-5.671625743546250305e+03
-4.322390628270421985e+03
-2.211486360494585369e+03
-1.510003706479309642e+02
5.814246581533812019e+01
-1.509262412140200922e+03
-2.896150079441100843e+03
-3.391277167974285021e+03
-2.514657186269716931e+03
-1.214227289906257738e+03
-5.301296261730087167e+01
1.221838256085285508e+02
-8.524666376377431334e+02
-1.745905421693577182e+03
-2.996103129798823829e+03
-5.244024172563615139e+03
-6.912511536046175024e+03
-7.800474282971678804e+03
-7.461825850695888221e+03
-5.465464087605377244e+03
-2.821025826286040683e+03
-1.423353475671151358e+01
1.379429440024810845e+02
1.741297800696377607e+01
5.688149932601935461e+02
-1.017284535217679377e+03
-2.761549048549618874e+03
-2.137419101497828251e+03
-9.589098947352013056e+02
-9.919876172821311684e+02
-2.620633519525593783e+03
-5.364525928891208423e+03
-7.215691070253613361e+03
-7.836228981342575935e+03
-8.962108707631634388e+03
-9.103155209961738365e+03
-8.450026886460176684e+03
-7.422841414184777932e+03
-4.847940639338152323e+03
-2.762447653443693525e+03
-2.151180681222034764e+03
-1.274933150119590664e+03
-2.587068270973389303e+02
-2.772248994315409618e+02
-4.691236393679262733e+02
4.682580360220764959e+01
8.764308086081886273e+00
-1.409201330283058041e+03
-1.902103375252989736e+03
-5.752567172874620383e+02
2.928793899737355559e+02
4.972589980451795668e+02
-9.513129640273599819e+01
-1.862059843842221767e+02
5.603985616329013055e+02
-2.131769943724810616e+02
-2.081682850169200265e+03
-3.369571745357312921e+03
-3.377997356457367459e+03
-2.838393867463058996e+03
-3.117081326656896181e+03
-3.585487894078937643e+03
-3.211037587467161302e+03
-2.434698937417723755e+03
-3.113401980252757767e+03
-2.118974083927279480e+03
-6.990151535059136449e+02
3.084737722285590849e+02
1.558621979297741063e+03
1.845636595801604017e+03
1.093182658902886260e+03
6.621095863193912692e+02
9.970668250417450906e+01
-4.013108302060217056e+02
1.507830967967312574e+02
3.511683620737469482e+02
5.007027871790768927e+02
1.649085330110299083e+03
2.965188700969516049e+03
3.746050626601208933e+03
4.264707043051870642e+03
3.422894172674902620e+03
2.459775001445285852e+03
2.116035335810645847e+03
2.245035306946689161e+03
2.330061397979285630e+03
2.470374860425466522e+03
2.152471849492503679e+03
2.892524525646108486e+03
4.073354459033538205e+03
4.840758194053222724e+03
5.440446564384272278e+03
5.800812376849007705e+03
5.685098661337192425e+03
6.405819148258600762e+03
6.581710858725992694e+03
5.463807686780205586e+03
3.920971114787905208e+03
3.345835860228962247e+03
2.891079097401388481e+03
2.252539844312228524e+03
2.248168203172877384e+03
2.256042817423133783e+03
1.276276234892948196e+03
6.107829386180274014e+02
7.046169969809885458e+01
2.799470465793467611e+02
1.109001784272373925e+03
2.319093557288219017e+03
4.532029730248755186e+03
7.370792082248361112e+03
9.462061037550240144e+03
1.165023157565137990e+04
1.274797043812568882e+04
1.318899084209986904e+04
1.306405121852733282e+04
1.133583233724769889e+04
6.704908734605883183e+03
1.829866199683915511e+03
7.245482883018363509e+02
1.501980969298723039e+03
3.697008712346291759e+03
4.899442500503128031e+03
4.434120938441023100e+03
3.686678537230807251e+03
3.186762861555206200e+03
3.739855367057638887e+03
6.066635825576699062e+03
7.348238880763135967e+03
1.119784766495773511e+04
9.150237938886575648e+03
4.724434033873886619e+03
2.602277770763678745e+03
1.720544055564998189e+03
2.158214572751114247e+03
3.097356688261307681e+03
-7.562634457587322458e+02
-1.827566530073043850e+03
2.955068114567142175e+02
2.067017151693292817e+03
4.032906558090428462e+03
7.815078696853781366e+03
1.233935953276687360e+04
1.436677467923685435e+04
1.292740649570568530e+04
1.096110797471123442e+04
9.358558442472771276e+03
8.078861228698496234e+03
7.290174312027624183e+03
8.433768221107151476e+03
7.881855280047173437e+03
3.697571978855032285e+03
1.905040348215989980e+03
3.929411451061479511e+03
7.888656006233636617e+03
8.079667864037854088e+03
7.500489933235746321e+03
6.235271863183160349e+03
6.814098298390788841e+03
6.731059698142590605e+03
4.758313266713558733e+03
2.903311167005866992e+03
1.049490103355441533e+03
-7.178843523454234798e+01
-5.103215662188805481e+02
7.684818063811191280e+01
9.679309244837323831e+02
-1.181754199561999485e+03
-5.598924208345393708e+03
-8.832529116519539457e+03
-9.787422886813412333e+03
-8.538058953728039342e+03
-9.026953146509807993e+03
-1.363476427737756603e+04
-2.091096623272402212e+04
-2.790112404838514703e+04
-2.985872956010462804e+04
-2.305928788037157938e+04
-1.589752110405320309e+04
-1.233492649676499423e+04
-1.306020558501302366e+04
-1.272813666468935116e+04
-1.362307956840506995e+04
-1.912245275450464760e+04
-2.458120725438012596e+04
-3.438209086138869316e+04
-4.351739642332825315e+04
-4.576348456919127784e+04
-4.161070150571575505e+04
-4.063339241987049172e+04
-3.498392702178734180e+04
-2.266350458263766268e+04
-8.939786697637653560e+03
-3.581577115416286233e+03
-5.625900340155377535e+02
7.615814430396000716e+03
3.147256573399191439e+03
-7.787065846525249981e+03
-1.165331266865069665e+04
-1.199044673223822610e+04
-5.541375739573200917e+03
-1.828482906380826080e+03
-5.532055024156737090e+03
-4.647619326817922229e+03
-6.707337908757299374e+02
-4.136588763347150234e+03
-1.878100349405290763e+04
-3.162456675998753781e+04
-3.432069674794006278e+04
-3.183391056550258145e+04
-2.367661022304399739e+04
-7.369204663790520499e+03
6.385929058648363025e+03
1.078829485055588157e+04
1.865653388146864745e+04
2.371622847377025391e+04
1.602278073228430731e+04
4.189609554941816896e+03
-9.308645598590517238e+02
-5.368241957991769596e+03
-1.038404339215382242e+04
-1.528192473402360883e+04
-2.170144320469950981e+04
-1.379315895076606830e+04
3.887221194502403705e+03
1.353607311481945908e+04
2.330487009500818749e+04
3.337404344976130233e+04
3.662990162381739356e+04
2.588182814819517080e+04
4.211189488648112274e+03
-5.892830722690560833e+03
-4.519927378559704266e+03
2.482143270294357080e+03
4.741662688124692977e+03
6.653712655224368064e+03
1.355434932136817588e+04
2.017684215825952924e+04
1.778945254587535601e+04
1.689329047692444874e+04
1.974045000832891310e+04
1.513800265882009808e+04
3.004014281692869645e+03
-9.278366541154349761e+03
-1.277908021396969889e+04
-1.123014204052353125e+04
-1.153758484754086385e+04
-2.946504719005611150e+03
1.197701088627292484e+04
1.143089810740954272e+04
5.494138346358541639e+03
-1.721454836933339720e+03
-9.394949513371457215e+03
-1.431446315873822641e+04
-1.265390061711542512e+04
6.040632832140916435e+03
2.789002079180277360e+04
3.586186672214052669e+04
3.592664153722083574e+04
3.514996426359350153e+04
3.482136449897188140e+04
3.084245231417734612e+04
2.693206487423423823e+04
2.486690645999895423e+04
2.227753782989911633e+04
2.125342001289857217e+04
2.023508164113693783e+04
1.847111462057198514e+04
1.710817571346276236e+04
1.609490632900054698e+04
1.494777223131483697e+04
1.267023569368997778e+04
1.049074253240092730e+04
7.475664308238838203e+03
3.607330814730374186e+03
9.330567626304926989e+02
1.762122940056221751e+03
5.188834719389737074e+03
8.738423409396995339e+03
1.093134086303682670e+04
9.868922860753200439e+03
3.116444766778920439e+03
-2.289597934657196674e+03
-1.984852686814923572e+03
-1.671125992052160655e+03
-1.691123486315814034e+03
-1.921477425609742795e+03
1.391154170291339142e+03
4.260092411806881501e+03
6.227498149575721982e+03
7.053534348721230344e+03
6.853480384326685453e+03
1.009747067468048044e+04
1.283165909550037759e+04
1.105121653647940548e+04
4.873167955256984897e+03
-3.855315580236487676e+03
-9.981961162333795073e+03
-1.476960043600892095e+04
-1.857808311644624700e+04
-2.025513069238777098e+04
-1.946956242631130590e+04
-1.542628914443336362e+04
-7.176001196461570544e+03
3.178665069374850646e+03
8.041845163018972016e+03
4.570633667704730215e+03
-7.347465038315335732e+02
-6.629051480501902006e+03
-1.268196668666516052e+04
-1.580817037434417580e+04
-1.875451775181180346e+04
-1.880962304675888663e+04
-1.057110364853455758e+04
-2.802620133150785477e+03
7.450028168834026019e+02
3.364979197969624238e+03
5.214818350732197359e+03
3.007831549812352932e+03
-2.283747605234731054e+03
-9.087550394411495290e+03
-1.513800638756223634e+04
-1.521088637228996777e+04
-1.665583617878267250e+04
-1.891342816149915961e+04
-1.566925992701928772e+04
-1.604575710957930460e+04
-1.570232504335277918e+04
-1.183139294687532492e+04
-1.388342674152341169e+04
-1.358484965941624978e+04
-1.440720412872808993e+04
-1.466584542847723242e+04
-1.550111705150377747e+04
-1.617551354383485159e+04
-1.734837854110930493e+04
