2.821102892071636234e+03
2.717541238838193749e+03
2.267937267666637581e+03
1.669200076321256574e+03
1.423235798270193072e+03
9.250148140280670077e+02
6.955312122594488073e+02
5.968320444890862291e+02
9.469886829168018494e+02
1.068994256895214676e+03
7.458354529542325508e+02
1.133587755858393621e+03
1.941262218751775208e+03
2.346876818200016714e+03
2.223351938964959572e+03
3.736421454997596356e+02
-2.863329073337932186e+03
-6.612586808635345733e+03
-6.828134798173891795e+03
-7.183999575153911792e+03
-6.942322173699938503e+03
-1.612205309732452179e+03
7.353350100515777967e+02
-4.936811025757469906e+03
-9.237860391667329168e+03
-8.708881653187794655e+03
-5.958922737460634380e+03
-2.228970453577189346e+03
-5.049145771603090907e+03
-8.366673354901786297e+03
-7.592574869016634693e+03
-6.976837777960941821e+03
-5.851456319767042260e+03
-3.138583802958586602e+03
-1.368113995156235774e+00
-3.213827635209698201e+03
-2.671027041398094752e+03
3.115055472548774560e+03
5.076448236439031461e+03
4.996985892431272077e+03
4.344614793132641353e+03
3.502276833359574994e+03
2.988861224260812378e+03
1.922326043962753374e+03
9.196448087527339794e+02
2.267594313625015445e+02
4.261384913556344145e+01
8.415310027396931503e+01
2.223442400547408226e+02
5.820728604568980700e+02
8.644079691454259091e+02
6.824092949293946049e+02
1.317997483626942767e+03
1.240193051925158215e+03
1.222043000515611311e+03
1.825517400511507049e+03
3.040547384813079589e+03
3.091150360694232404e+03
2.241322598977294092e+03
1.668982900044703911e+03
8.511019429795467204e+02
6.768569327822082471e+01
-8.852836957217182317e+02
-1.588957929869164218e+03
-2.044392902438784631e+03
-1.916585431439449849e+03
-1.475501244766354603e+03
-1.934125183531261655e+03
-2.306516989127356737e+03
-2.278620968516782341e+03
-2.183428014454224467e+03
-1.733962592794102193e+03
-5.751573017546086248e+02
2.770308863429124813e+02
6.335918409369859319e+02
8.135979478250484362e+02
8.870281212494518286e+02
3.039360581846148079e+02
-6.016821086138892269e+02
-8.047351896470304382e+02
-1.308049095576474429e+03
-1.729558161053071217e+03
-1.945181116145043688e+03
-1.510235342044796198e+03
-1.722807401084779713e+03
-1.358649332896453643e+03
-1.651583236987397186e+03
-1.739564543730536570e+03
-1.657521382417261975e+03
-1.510628086637492061e+03
-1.580950737158866104e+03
-1.003302939458612741e+03
-8.618706137598085206e+02
7.538332555537272128e+01
3.865620482559123161e+02
1.712731091966518306e+03
2.325904990367484515e+03
1.268172133244001998e+03
3.218135856099294188e+02
3.419205179971071971e+02
6.737791729978098942e+01
-6.509565639588882959e+02
-1.249944881771458313e+03
-1.974487926419336191e+03
-2.807573956875092790e+03
-3.073304656583954966e+03
-2.906536566933389167e+03
-2.401273274002098333e+03
-1.681614633438899546e+03
-9.896695121396928698e+02
-3.753215058666359027e+02
4.354682237667930167e+02
1.384937524005555588e+03
1.962321169007367189e+03
1.661537654896742652e+03
1.383261698665422045e+03
1.436468670544568795e+03
1.373181287194059678e+03
8.803624151644656877e+02
-4.989049404533337650e+01
-1.125920092129689039e+02
-7.321073846008464443e+02
-6.726715662143684540e+02
-1.191307559630316973e+03
-3.020979922307274137e+03
-3.984752824563540344e+03
-3.476859350486437052e+03
-3.481379519705757502e+03
-3.337308314005468674e+03
-3.285608708272499371e+03
-3.226409764290766361e+03
-3.239655571873303870e+03
-2.816402184192785171e+03
-1.384542578800596402e+03
1.546674044204569611e+02
1.887316283273185320e+02
8.924084916359969384e+02
1.496856444605133902e+03
2.160352994796567145e+03
2.725092191730843297e+03
2.696036872949797271e+03
2.568243157242227426e+03
2.781636500535184950e+03
2.163348059039509280e+03
1.626006866560899425e+03
1.390103211371550969e+03
1.553221971079863806e+03
1.415471312210564520e+03
1.627132027788580899e+03
2.210918395445321949e+03
3.367722024006100582e+03
3.754665170187092826e+03
3.482017317000829735e+03
3.494263147560113794e+03
3.276936236915723384e+03
4.073728824836700824e+03
4.152647050137362385e+03
4.008970714910098195e+03
3.686083373440548712e+03
3.820917942141910771e+03
3.481342491984690696e+03
2.673021229113400750e+03
2.221346297741169565e+03
2.773776024643545043e+03
3.162194770049554336e+03
3.605277863882844031e+03
4.083650583212478068e+03
4.970247132869744746e+03
5.867702902398677907e+03
6.453814307317727071e+03
6.879994609386504635e+03
7.590918042054879152e+03
8.385489178904783330e+03
8.773050183664250653e+03
9.360427930387273591e+03
1.042869584684124675e+04
1.090824251108919452e+04
1.097645711373588347e+04
1.115228492373404333e+04
1.103894829242215565e+04
9.888284891386298114e+03
8.748726662755274447e+03
7.517005399518156082e+03
6.652365313450492067e+03
6.728912663664904358e+03
6.406571929075363187e+03
5.798179242914960014e+03
5.465436343648576440e+03
5.321154054883943900e+03
5.844427484502902189e+03
6.445996218597764710e+03
7.048258808030896034e+03
7.212349388499792440e+03
7.387015842457636609e+03
7.864116620029616570e+03
7.588451071492206211e+03
7.272824295691696534e+03
6.473191810105429795e+03
2.736848078934322530e+03
3.876640549711234144e+03
4.685237214808761564e+03
3.835562356685515624e+03
1.303697643176720248e+03
-2.516398225332025504e+03
-3.094798806212323598e+03
-4.158511498906120323e+03
-5.113441387465095431e+03
-3.245726317427941922e+03
-5.794593072530202335e+03
-1.004495485749247746e+04
-7.844560211127623916e+03
-5.787313238454673410e+03
-2.610179359225057397e+03
-3.938911878164175505e+03
-6.533562327559494634e+02
9.477573085571300737e+01
-8.053772226452658742e+02
-4.339886650936523438e+03
-1.888406075000614919e+03
-2.792506712140013406e+03
-6.050240844387770267e+03
-5.601698504977730408e+03
-7.340611317863742443e+03
-7.596731744700979107e+03
-1.036877731685709296e+04
-8.241449358909219882e+03
-8.487493499381393121e+03
-8.835902491647068018e+03
-1.254239070447946506e+04
-1.226161432531779792e+04
-1.343049250285822382e+04
-1.143384850456397362e+04
-9.550351548226555678e+03
-1.148858205431927308e+04
-7.719006881752968184e+03
-7.423286465909148319e+03
-1.226423053299756975e+04
-1.438350976513942624e+04
-8.807620510095282953e+03
-8.871247674522721354e+03
-1.140220872097553183e+04
-1.326123861141806083e+04
-1.269197899362796670e+04
-1.053409237394411502e+04
-9.848022445404703831e+03
-1.048557979175755827e+04
-1.129053735114670053e+04
-1.130252900606945150e+04
-1.113320957278655987e+04
-1.105828133261933908e+04
-1.104530741058080821e+04
-1.034463651365197438e+04
-9.521932188052776837e+03
-8.783745120149524155e+03
-9.002720849976256432e+03
-8.684815008355464670e+03
-8.241668588712000201e+03
-6.400687070390114968e+03
-4.225499472167125532e+03
-3.341980831892477909e+03
-3.243802517605809498e+03
-3.714382874483190335e+03
-4.393397752028921786e+03
-4.772836630265666827e+03
-4.835258315254080117e+03
-5.131322567135600366e+03
-5.107627300428168382e+03
-4.713738009301248894e+03
-4.124011588046919314e+03
-2.978070082265922792e+03
-1.948733254472345152e+03
-5.416067671902815164e+02
7.116941449186185764e+02
1.708495068030961647e+03
2.396480063359846554e+03
3.582053589747165006e+03
4.738523451609582480e+03
5.186360571028093545e+03
5.512090304700207525e+03
5.749496066473152496e+03
5.391480058035866023e+03
4.556726723010925525e+03
3.907137783648177901e+03
4.039734410569043575e+03
4.122951473387907754e+03
4.273668080440759695e+03
4.500155290383975625e+03
4.782052539648719176e+03
5.592138097472088702e+03
5.893945043996349341e+03
5.690873311333761194e+03
5.940782287142133100e+03
6.272850361634817091e+03
6.642147351394572070e+03
7.531005618496222269e+03
8.541239910471005714e+03
8.892146463618068083e+03
9.755340877221988194e+03
9.878360324932733420e+03
9.901123358244953124e+03
1.017467059833157509e+04
1.010434781308367565e+04
9.780142691995784844e+03
9.153197242852278578e+03
8.254138085128137391e+03
6.589673140146849619e+03
5.830191209323956173e+03
5.951317351182666243e+03
5.976124982298831128e+03
6.371927401131859369e+03
7.322947247564004101e+03
8.433924984919382041e+03
9.075218423412079574e+03
9.726535778793335339e+03
1.089905219942431904e+04
1.128627636857459220e+04
1.134667110614711055e+04
1.167793046442985906e+04
1.252459514119326741e+04
1.268786574030901465e+04
1.234402250438664669e+04
1.172394182840038229e+04
1.093043949142790734e+04
1.032190489409025940e+04
9.280982064235762664e+03
8.667700017229377409e+03
8.611959921521523938e+03
8.322469718272530372e+03
8.414459585908634836e+03
8.953441537809059810e+03
9.038124716081369115e+03
9.692143087000244122e+03
9.904301261413002067e+03
1.035125232262913232e+04
1.064832406559458468e+04
1.092189769336725294e+04
1.117748121484635703e+04
1.046265027515285692e+04
8.499922408487153007e+03
5.362698357361730814e+03
1.434756060061854441e+02
-2.603128462475516699e+03
-4.384656616318748092e+03
-5.923404256674354656e+03
-6.358864058287088483e+03
-4.424679417412196926e+03
-2.411215551556516402e+03
-1.390697442844294756e+03
-1.989649745582553805e+03
-3.546416056123659473e+03
-5.080286508363908069e+03
-6.454374344217642829e+03
-8.381057883481660610e+03
-9.966539766029834936e+03
-9.373793695378002667e+03
-7.812038394017821702e+03
-7.339408469265807071e+03
-9.052018257763296788e+03
-9.855018488541700208e+03
-9.076459890486714357e+03
-8.303485429696502251e+03
-9.562193263778011897e+03
-9.193665512375537219e+03
-8.926007119525027520e+03
-1.018534657184572279e+04
-1.306578006915866172e+04
-1.513336815675941398e+04
-1.734311988702539020e+04
-1.672692623165251644e+04
-1.194778444061851042e+04
-7.443671695118438038e+03
-6.535514587117770134e+03
-5.386235957197935022e+03
-3.174846688328008440e+03
-1.030106285795030090e+03
2.413252103240803535e+03
6.567354485992020273e+03
7.413285935673788117e+03
5.701254871324917076e+03
4.825479497056043328e+03
5.605252362234456086e+03
5.978902130376896821e+03
4.496588097471040783e+03
2.385545424498022385e+03
6.581003234585915607e+02
-4.516219550211579303e+02
-2.189344419228766583e+03
-1.865746498468126674e+03
-2.150465763756506931e+03
3.807202757291577200e+02
1.663998389422127957e+03
-3.237390448810343514e+03
-1.186611867234286728e+04
-1.930496018540391015e+04
-2.360760834664085633e+04
-2.497387282179991598e+04
-2.592157209602500006e+04
-2.617528111341777549e+04
-2.614869753641480202e+04
-2.152957194093226281e+04
-1.942751901025736879e+04
-2.165529271920087194e+04
-2.732972607366595184e+04
-3.189770240038476550e+04
-3.253894854906563705e+04
-3.607318212330216193e+04
-3.972823395554049057e+04
-4.018493182533457730e+04
-3.472194599484597711e+04
-3.231207065247648279e+04
-3.425510742924983060e+04
-3.984766573361190967e+04
-4.573065061582437920e+04
-4.916206920818433719e+04
-4.780275492306105298e+04
-4.435659660912029358e+04
-3.693757179876664304e+04
-2.942652384675206849e+04
-2.346637146061799285e+04
-1.412115083851107738e+04
-1.180385405602553510e+04
-1.223241276943976482e+04
-1.046976776683670869e+04
-5.813900061085628295e+03
-9.968299016733673170e+02
5.004520506596471932e+03
6.655177979213720391e+03
8.124139651539354418e+03
1.169228766950105273e+04
1.166054721029694156e+04
1.702592137680077576e+04
2.759139584659006505e+04
3.299680362708630128e+04
2.705304115219255982e+04
2.092807861426842646e+04
2.374482067021150215e+04
2.734309014617235880e+04
3.004373760611217585e+04
3.236869819922901661e+04
3.597689119677508279e+04
3.377601377998050157e+04
3.326685317286085046e+04
3.305328193842522887e+04
3.084100187955730871e+04
2.899873221392762207e+04
3.070023401163130256e+04
3.305018480834367801e+04
3.594239308181093656e+04
3.948248959565647237e+04
4.072523730007265112e+04
4.137344004931418749e+04
4.097080944208634173e+04
3.929207114185645332e+04
3.749493215890513966e+04
4.010621997848152387e+04
4.224797240524896915e+04
4.096552895765189896e+04
3.920270132410239603e+04
3.910333304328463419e+04
3.826223293370385363e+04
3.720928286237570137e+04
3.700582847070963180e+04
3.810554787805832166e+04
3.728915652784272970e+04
3.323843489935995603e+04
2.888839239265314973e+04
2.634600636372280860e+04
2.412348857442851659e+04
2.117650805396796204e+04
1.886359084501365214e+04
1.647908447690473986e+04
1.632627277936235623e+04
1.663225596852831950e+04
1.402720475891514980e+04
1.335235295082824632e+04
1.568398557105813416e+04
1.551004243357543419e+04
1.258051570578122482e+04
1.031698604445567798e+04
8.748333628668442543e+03
7.584783179998429659e+03
7.804558095385145862e+03
9.493165597428249384e+03
8.250555557510948347e+03
7.105922922195565661e+03
7.748078568657584583e+03
6.318007222166693282e+03
3.549812033557140694e+03
5.184666397690940585e+02
-1.707002370481792241e+03
-1.227410541383820373e+03
-1.057075325466881708e+02
-1.069448888599635893e+03
-2.419170845216148791e+03
-1.028991216546558007e+03
1.024196585226122806e+02
-5.174123676421064602e+02
-1.772341584339308611e+03
-2.812735916317723877e+03
-3.819153647896916937e+03
-1.931007844481682696e+03
-1.919264172015572967e+03
-3.402743759538683207e+03
-4.843265091930380549e+03
-5.474720733788444704e+03
-7.607997402358571890e+03
-9.817946648707242275e+03
-8.510291622262348028e+03
-7.527924667453796246e+03
-5.423622287521568978e+03
-2.615059884221250741e+03
-4.407933686802819466e+03
-6.212913857942186951e+03
-4.558677487092921183e+03
-2.535021205667594586e+03
-3.747618250663660092e+03
-5.975966902113025753e+03
-5.131615368591130391e+03
-4.718051010781505283e+03
-8.851795725640011369e+03
-1.259344635239829586e+04
-1.682457223435769629e+04
-2.148165436360585591e+04
-2.651915373020796324e+04
-2.752852658355890526e+04
-2.728825075215408651e+04
-2.919273787697654552e+04
-3.091233381958231985e+04
-3.414951770631858381e+04
-4.021469896716804215e+04
-4.382018503366448567e+04
-4.309628127141354344e+04
-4.171533936357248604e+04
-3.596561989675350196e+04
-3.229933453284347343e+04
-3.635667644180053321e+04
-4.126391501047028578e+04
-4.052634743775989045e+04
-3.888615166599358054e+04
-3.603547182992371381e+04
-4.106556995448843372e+04
-4.436269313181612233e+04
-4.833607597220910975e+04
-5.654001541077508591e+04
-7.237972824999288423e+04
-8.609233911167753104e+04
-8.251203444282904093e+04
-8.003595066043513361e+04
-8.276528494526573922e+04
-8.242422484051217907e+04
-7.086794656809901062e+04
-6.231974819847637264e+04
-6.395683123848620016e+04
-5.780429038850853249e+04
-4.204537414495230041e+04
-3.679519767231016158e+04
-4.423700455823727680e+04
-4.807609880604912905e+04
-5.199669578487327090e+04
-5.319098356372376293e+04
-4.364119893570058048e+04
-3.351056577320540964e+04
-2.687329237612369616e+04
-2.135574486630957108e+04
-1.093132672924646431e+04
-3.571361456356767121e+03
-3.063251881796155885e+03
-2.836382470340362943e+03
7.115821511667257255e+03
2.054501187854993623e+04
2.873269556629033104e+04
3.523938797617186356e+04
4.033965652987652720e+04
4.662202588368337456e+04
5.264892794412081275e+04
5.321477472727074201e+04
4.845305138498458837e+04
4.573019355293857370e+04
4.535958075931572239e+04
4.164153671193950140e+04
3.589338375564014859e+04
3.425339219948239042e+04
3.657279985697584198e+04
4.096075567972012504e+04
4.144144570201999886e+04
4.162104789275965595e+04
4.325064846196350845e+04
4.534927933241889696e+04
5.088992026728065684e+04
5.876465659434783447e+04
6.417050235326155962e+04
6.741943704405718017e+04
7.098642572618974373e+04
7.487633913097139157e+04
7.872603873512482096e+04
8.095936551256234816e+04
8.312019055296639272e+04
8.541265146230145183e+04
8.683858688777177304e+04
8.928765696956981265e+04
9.099052996486051416e+04
8.940380532602321182e+04
8.743406498509467929e+04
8.655239588359120535e+04
8.356426963045091543e+04
7.912520475897818687e+04
7.487373793279554229e+04
7.168133204219164327e+04
6.769736962065607077e+04
6.313126002892933320e+04
5.952033777581054164e+04
5.513779113118824171e+04
5.193780975448500249e+04
4.902068193061712373e+04
4.543883434117442812e+04
4.285840963645822922e+04
3.972247576664273947e+04
3.629411140378964774e+04
3.335154474416291487e+04
3.047871147616169037e+04
2.712967527479460477e+04
2.334461432397787939e+04
1.902771466823131414e+04
1.446094160844689941e+04
1.140735529116563157e+04
8.499718121670353867e+03
5.220589398864306531e+03
1.199911558103069638e+03
-3.055182658113708385e+03
-8.742750442583090262e+03
-1.329394363467937546e+04
-1.664194298839811745e+04
-2.086105010547309575e+04
-2.546353264656478495e+04
-3.054320858863954709e+04
-3.486505481631915609e+04
-3.872919391263144644e+04
-4.277980320843010850e+04
-4.731704186815839057e+04
-5.048293736057756905e+04
-5.281651659880344232e+04
-5.649085594621874043e+04
-6.008810134266408568e+04
-6.298237727513287246e+04
-6.457291535640340589e+04
-6.600971556493362004e+04
-6.700413548218045617e+04
-6.758921703658245679e+04
-6.851947648337473220e+04
-6.910252481473407533e+04
-6.890630000335656223e+04
-6.929794512942242727e+04
-7.082766804889366904e+04
-7.095544875422045880e+04
-7.063530123051715782e+04
-6.998321803809597623e+04
-6.831053362180724798e+04
-6.641305106430638989e+04
-6.504939953878355300e+04
-6.487507018276851159e+04
-6.469285815009803628e+04
-6.356588018420259323e+04
-6.269472739221702795e+04
-6.167817015312533476e+04
-5.964914360357897385e+04
-5.814394055395849864e+04
-5.630515646558558365e+04
-5.165733886121500109e+04
-4.603941960643089260e+04
-4.247786786553385900e+04
-3.845629836529053136e+04
-3.451866897060752672e+04
-3.107258176012852346e+04
-2.719831410118449276e+04
-2.385101393546023974e+04
-2.182606141502438186e+04
-1.975255213234506664e+04
-1.777358018454887133e+04
-1.564919595899214255e+04
-1.376680409577983119e+04
-1.210975035050822407e+04
-9.511684072801386719e+03
-6.673758235365429755e+03
-3.666681076478696923e+03
-1.415781863795375102e+03
5.025307469695165992e+02
2.719820923572914126e+03
5.933254599506201885e+03
8.813508962989786596e+03
1.115111601045812495e+04
1.412791100822055341e+04
1.772614534694030226e+04
2.064611078817019370e+04
2.223571146815419343e+04
2.459994261771726451e+04
2.781684599058648018e+04
2.963544569464963934e+04
3.202602963849691878e+04
3.515868865357122559e+04
3.694793039599125768e+04
3.807218950900381606e+04
3.909197309207725630e+04
3.958252589586912654e+04
4.091051813076045073e+04
4.076697177173636010e+04
4.022470798635995743e+04
4.034837322663548548e+04
4.048254561639233725e+04
3.967200710140092269e+04
3.816152491503320925e+04
3.703083377224095602e+04
3.626537897775084275e+04
3.503191672131355153e+04
3.495449641794990748e+04
3.509594452947148238e+04
3.454792371562708286e+04
3.426331817125254020e+04
3.196590973580239006e+04
2.813150875333946169e+04
2.348486592637587819e+04
2.231596344654506902e+04
2.049095745824242840e+04
1.954579717630818413e+04
1.853521485083940934e+04
1.755311458623237922e+04
1.604547459486598564e+04
1.897417361984426680e+04
2.242814517427610554e+04
1.586410381107241119e+04
1.237388965994897262e+04
1.194760928674960815e+04
1.182894123647299239e+04
1.135088133660618951e+04
1.136551646432647613e+04
1.302181692551873857e+04
1.459257063255638423e+04
1.033956538741783515e+04
8.364558959320489521e+03
7.497292077763309862e+03
6.461443396379994738e+03
1.090503094474509089e+04
1.237788468092215771e+04
6.124569279682694287e+03
2.529827538370754496e+02
-1.708954164496961312e+03
-1.344492553771623761e+03
-7.129926401924985839e+02
-5.506968992165483542e+03
-7.244839379066128458e+03
-8.202716587633214658e+03
-8.306880308580499332e+03
-8.418999171612431383e+03
-6.157508882471027391e+03
-4.275659687438718720e+03
-7.411821226457843295e+03
-2.878468212477831912e+03
-1.634092947850246674e+03
-1.856472293463353253e+03
-2.413033329393092572e+03
-2.566268097072133514e+03
-2.393670357231017078e+03
-2.575932777307275046e+03
-3.321617738169738459e+03
-3.207342828852595176e+03
-3.841065558574215629e+03
-4.591510353558213865e+03
-4.560576397967744924e+03
-5.311154611892168759e+03
-5.361642048267643986e+03
-5.297801875290719181e+03
-5.482710346414583000e+03
-5.457269984740873952e+03
-4.914075636413025677e+03
-4.485927664781065687e+03
-3.570037519159919157e+03
-2.528344528680615895e+03
-2.122400561937484326e+03
-2.315190999758449834e+03
-2.893644129918554427e+03
-3.316721509642194633e+03
-3.587313612119219670e+03
-4.373827412630972503e+03
-4.599546134961290591e+03
-4.095471834976253831e+03
-4.262878822864946414e+03
-5.106812054003989033e+03
-5.752201609482329332e+03
-6.493028358637923702e+03
-7.314753736025893886e+03
-7.646627676563988643e+03
-7.715355486335479327e+03
-6.802186300818493692e+03
-5.895578204570289927e+03
-6.253223493787840198e+03
-6.665231242847569774e+03
-6.056743491826344325e+03
-5.139027371490215046e+03
-4.540792216415569783e+03
-4.126538557858024433e+03
-4.923427402232371605e+03
-6.188438489563753137e+03
-6.125756755046682883e+03
-6.482295823627190657e+03
-6.824663886957924660e+03
-6.962828418847968351e+03
-7.031708299805736715e+03
-6.855858345443081816e+03
-7.492697099304382391e+03
-8.076484581596480893e+03
-7.930400730360163834e+03
-7.704712724867615179e+03
-6.780934212263913651e+03
-6.117913553287258765e+03
-6.125119881587123018e+03
-6.247267045839920684e+03
-5.939737094684546719e+03
-5.753270209681970300e+03
-5.387257207430063318e+03
-5.063445293243758897e+03
-4.949274220593321843e+03
-5.172255460358022901e+03
-5.404407710465383389e+03
-5.979118544261327770e+03
-6.099410376969121899e+03
-6.291722971533397867e+03
-5.910418092118018649e+03
-6.128452709229123684e+03
-6.004036249064777621e+03
-5.867510109858108081e+03
-5.633285145547032698e+03
-5.594918747827214247e+03
-5.324802519719833072e+03
-4.683895230040277056e+03
-3.863045295600832560e+03
-3.069601210186787284e+03
-2.654988484411715035e+03
-1.896214774345219212e+03
-1.756278029451589646e+03
-1.456684273284616211e+03
-1.503008279392341819e+03
-1.848689504635803360e+03
-1.501687146315087148e+03
-9.311874952701947450e+02
-1.432507900809298008e+03
-2.427962651513378205e+03
-3.171068071459010298e+03
-3.408298918785548722e+03
-3.435725948800242350e+03
-2.786311890809956367e+03
-2.148200965550352521e+03
-2.404543814638482672e+03
-4.283517017739929543e+03
-7.613024263463879834e+03
-9.919077555563952046e+03
-9.486832319940735033e+03
-8.810214152782162273e+03
-7.818263142227999197e+03
-5.716929714562353183e+03
8.005993899202788100e+01
1.609904721997723755e+03
2.382672625571919980e+03
2.216577614544730295e+03
1.935864545899119094e+03
1.870709666491269672e+03
1.546206676244365781e+03
8.555642122206612612e+02
2.206744516010537538e+01
-2.321473608938082407e+02
-2.117417045307702494e+02
-3.654895218085955548e+02
-6.522303649798651293e+01
3.853788226435939350e+02
1.460484980001472422e+03
2.282338646104099553e+03
2.692225043447691405e+03
2.723447136053850045e+03
2.715261256105075518e+03
2.762884206647270730e+03
2.709646770053358523e+03
2.226837394707537896e+03
1.863702992848589929e+03
1.325525414423409757e+03
3.675479515258940637e+02
1.859896877133760427e+02
-4.258213459124739870e+02
-3.484943898540853411e+02
5.144250917119589985e+02
9.491229539378073241e+02
8.957390463819682509e+02
4.076597056457787858e+02
1.039282275306607517e+03
8.028723107056594017e+02
9.767403743823679179e+02
2.233160682717993495e+03
2.998431151856605993e+03
3.053836349557477206e+03
3.210576959763866398e+03
3.867815089462167634e+03
4.524861312210297910e+03
3.995945091465392579e+03
3.558232575990198711e+03
3.698760013472496667e+03
3.438648074095199263e+03
2.720046000963639926e+03
2.194117489270191527e+03
1.684050412320831811e+03
1.489954445753874779e+03
1.413910656050817579e+03
1.033037590173347780e+03
1.009527658335641263e+03
1.181431798912595013e+03
1.324849145379493621e+03
1.778847624331849374e+03
2.303437691635763258e+03
2.029723485483753848e+03
2.272749544282420175e+03
3.268684911121925779e+03
4.177621540673453637e+03
4.710578172655851631e+03
4.474602829447089789e+03
4.715734691372511406e+03
4.394940544745213629e+03
3.316252006097958201e+03
-1.131279647333895355e+03
-1.711946768722291608e+03
-2.356896761970259377e+03
-2.167002246118344374e+03
-2.611373695069944461e+03
-1.154968303898183422e+03
-4.637789601936944564e+03
-2.234916709563655331e+03
1.749716429657590197e+03
2.630191282388168474e+03
1.185536756970211172e+03
2.527665772355670128e+02
-1.851859553896808563e+02
1.944710228210145260e+03
-3.055278662298343306e+02
-1.040074059061173983e+02
2.462245459078864769e+03
2.493153041363661941e+03
4.217186232236934984e+02
2.677900013080582539e+03
-2.839151934965896018e+01
-8.193130247298313407e+02
1.031103331610611349e+03
6.348136480547188967e+02
-7.072935020852673915e+02
-6.133330965739100975e+03
-1.438332526439418416e+03
5.487785141884140785e+02
-3.840937520788691018e+02
-3.837107608699448519e+03
-1.206257287668729759e+03
-7.956112631123012306e+02
1.165710945684642638e+03
7.517289923562361764e+02
3.915067565457924843e+02
6.897549292391943254e+01
3.002084390018784234e+03
2.437053624873421143e+02
1.803882534510163396e+03
2.385604014213634400e+03
1.845763733616252921e+03
1.748295959823246449e+03
1.080213310174776552e+03
1.256120182341162028e+01
-2.807409419432190703e+02
-2.667370381217328372e+02
2.265477413712843600e+02
6.069717800107832772e+02
8.534445400598962124e+02
1.375983546490491790e+03
1.023532592951056699e+03
1.103261665706893382e+03
1.556282596446654452e+03
1.979613883504729984e+03
2.523915323634508695e+03
2.927219145543691866e+03
2.532379467326000849e+03
2.200307294872854072e+03
1.742886373283766716e+03
1.178074428660949934e+03
5.483667072900019548e+02
-4.235161832969488387e+02
-1.606866830275808752e+03
-3.357957661902386462e+03
-6.725237711130776916e+03
-5.462600757185277871e+03
-3.018069797800880224e+03
-1.742620311111322053e+03
-9.378909972582202954e+02
-3.647979573970213778e+02
-5.554327201038498742e+02
-4.414413758118207625e+02
-1.592593435516306783e+02
2.452140279028657233e+02
1.274067260675325542e+03
1.630601669830779656e+03
1.774160960672659257e+03
2.536991205586968135e+03
2.814496938084169869e+03
2.425294344527626436e+03
1.870141284443402355e+03
9.266735993350257559e+02
8.951580271036234535e+02
1.449868713492345933e+03
1.267569371413433601e+03
7.907016120254318139e+02
9.492535996071295585e+02
1.409097807000319335e+03
1.955477471413081958e+03
2.524538221243646603e+03
2.992759159573626675e+03
3.504929847726043590e+03
3.382950858644496293e+03
4.318675504072260992e+03
5.067950320912007555e+03
5.105718331522208246e+03
5.173946273729293353e+03
5.284427101370266428e+03
5.320063780759889596e+03
4.808779949621710330e+03
3.844471028098348597e+03
3.240109609460948832e+03
2.629551864287701392e+03
2.263702722165468913e+03
2.163470664381447023e+03
2.724739201160407447e+03
3.381423104909169069e+03
3.466516247238438609e+03
3.554932069354907526e+03
4.239621850513124627e+03
4.712540310776147635e+03
5.102685514359687659e+03
5.201076112006993753e+03
6.276725456442460199e+03
6.979672297698329203e+03
6.972943613781912973e+03
6.477436900677177618e+03
4.009089194265645801e+03
4.999648211675817038e+02
-4.542878696062414747e+03
-6.004435398230121791e+03
-6.431649018568944484e+03
-5.575518525347097238e+03
-4.497073686101838575e+03
-3.230297742653509431e+03
2.249773349978850092e+03
1.838190102459054515e+03
-3.969883002089090496e+03
-6.775299028366025595e+03
-6.674021977844016874e+03
-5.825069743832234963e+03
-5.367370790874191698e+03
-2.789804538486170713e+03
6.198479375668980538e+02
-3.413225143055018179e+03
-2.474943407138764996e+03
5.068119596942999578e+02
-2.945883835679484491e+03
-4.858945001272275476e+03
-4.879253785152231103e+03
-3.593694323202577834e+03
1.440908098363856425e+03
2.302744750859109899e+03
2.000918187122252903e+03
1.250587077936624837e+03
1.189892724794768583e+03
1.562047168501705528e+03
1.480278232797151531e+03
2.040806133379049015e+03
1.778839587667942396e+03
2.057632528031561378e+03
2.485351713625036155e+03
2.389273129842121762e+03
2.448702370348402837e+03
2.577913542320828128e+03
3.078130490471316989e+03
3.440623651796117429e+03
3.797607384963454933e+03
3.315345518178254679e+03
2.337955193371947644e+03
1.226697355082135800e+03
7.978457525497058214e+02
-1.452969852770847865e+02
-1.204497870424900157e+03
-1.706401881081990041e+03
-2.164757616436077569e+03
-2.615264241743849198e+03
-2.641656233797888035e+03
-2.394628928692662612e+03
-2.498817988258937021e+03
-2.385963353473676307e+03
-2.287710053964498911e+03
-2.354746724551720945e+03
-2.111763009142575811e+03
-1.745433443843643545e+03
-1.284561746450676537e+03
-6.598405858187495596e+02
-8.338901821141548680e+02
-1.258433929823221888e+03
-2.054174853513286507e+03
-3.184853578188185566e+03
-3.769239897605878923e+03
-4.013241108362373780e+03
-4.054584518013081379e+03
-4.841514332127274429e+03
-4.875525559418951161e+03
-4.246192632584359671e+03
-4.861251589515522937e+03
-5.186626182097923447e+03
-4.853002531406839807e+03
-4.547099373680040117e+03
-4.708751818285499212e+03
-3.986737237282886326e+03
-2.418801172109700929e+03
-1.582834629123312652e+03
-1.179560087329027738e+03
-7.977275123840836386e+02
-6.039929519735917438e+02
-1.176049406722062258e+03
-1.707628471440847079e+03
-2.683399052717514678e+03
-3.320159490272027142e+03
-2.972759483802341038e+03
-3.118983642509509991e+03
-2.884507115372143744e+03
-2.524014723290495112e+03
-2.708250517305714311e+03
-2.885205077917583367e+03
-1.932700409715431306e+03
-6.503898249724679772e+02
-2.650055608722385045e+02
5.015491423248018350e+02
8.454210690299513544e+02
2.007781088687302145e+02
9.836344041885131446e+02
1.715053614734457369e+03
1.374050812956478694e+03
6.385916175980535172e+02
7.489027157234072547e+02
1.283863835581496005e+03
1.332355270368216907e+03
5.212631257125397042e+02
-8.046394329919579036e+01
1.532290116161431683e+02
-6.748797291244111420e+02
-7.098269998123648747e+02
-3.587350874298999202e+02
2.021354613747681412e+02
4.536352777601595676e+02
1.402734327382384890e+03
2.473285432855234376e+03
3.390015130353880977e+03
4.423665677561642042e+03
5.595161441436666792e+03
6.100363164786049310e+03
5.955034032716079309e+03
5.873939355401929788e+03
6.248017870550550469e+03
6.782164580108463269e+03
7.236151703424678999e+03
7.902586056014830319e+03
7.925181052596572044e+03
7.376674855808418215e+03
7.027724258626944902e+03
6.905936067142718457e+03
6.670804874482766536e+03
6.501092859038801180e+03
7.138410921611593949e+03
7.086528980579514609e+03
7.027136018082027476e+03
7.086891656455743032e+03
7.516489598867335189e+03
7.655513839845173607e+03
7.800801474338190019e+03
8.127267826356447586e+03
8.016794130097041489e+03
8.652499202202576271e+03
8.560695501784066437e+03
8.163525379721644640e+03
7.815313435302451580e+03
6.697733012379305364e+03
6.311489595032222496e+03
5.670194900213990877e+03
4.662499099070518241e+03
4.244918697667531887e+03
3.665978699384600532e+03
3.531342729248630803e+03
3.631014218497116872e+03
3.180677953432661525e+03
3.050045492783706777e+03
3.127885788045760364e+03
3.143907138766194294e+03
3.698844665480135973e+03
4.220110394561797875e+03
4.788839184784231293e+03
5.117395325891873654e+03
5.213368956257452737e+03
