-5.467129741228461171e+03
-5.173418904446000852e+03
-5.365579512371978126e+03
-5.032665896602631619e+03
-5.388512595515308021e+03
-6.449888815123660606e+03
-6.738002298173840245e+03
-6.847944040378142745e+03
-6.982823049751059443e+03
-6.810557116489894725e+03
-7.189066629829512749e+03
-5.786326669405674693e+03
-2.718338207543661156e+03
-5.327074213241624420e+03
-5.834447855260574215e+03
-4.735458984712297024e+03
-4.173057599780780947e+03
-3.753153744439815910e+03
-3.352686235403598403e+03
-3.747657921001202340e+03
-3.710014054625620247e+03
-3.788673930455994196e+03
-3.416638118613828283e+03
-3.957897664460949272e+03
-4.853448451222470794e+03
-5.438210493385138761e+03
-2.100154270177958551e+03
-1.372246181898599161e+03
-5.255428619895466909e+03
-5.305701924386215069e+03
-5.486061243240596923e+03
-3.001450696223710111e+03
-1.938160932014471314e+02
3.507914043422072609e+03
4.712787280868375092e+03
5.180868788761236829e+03
5.611262442561901480e+03
6.002046746423338845e+03
6.223240054198478902e+03
6.279882621516834661e+03
6.069012934340757965e+03
5.808676902955746300e+03
5.694961642332619704e+03
5.491865916899721924e+03
4.993335881509784485e+03
4.168472016192746196e+03
3.418314291231140032e+03
3.164913472854332667e+03
2.620366978094393744e+03
2.544667635613133825e+03
2.189806840430220745e+03
1.822791276397449110e+03
2.047727513653617279e+03
2.723618092133441678e+03
2.678529756372859538e+03
2.639524873372152342e+03
2.931725171143833904e+03
3.597162267918945417e+03
3.674842438716470042e+03
3.688691893916180561e+03
3.294773604002063166e+03
3.731069729602369080e+03
3.754852954191815115e+03
3.048466135518635838e+03
2.580157929246353888e+03
2.008982223773072292e+03
1.429680808079725693e+03
1.049202430442561763e+03
-3.955628693035889114e+02
-1.805436366717410237e+03
-1.666371299363340086e+03
-1.270396747308392605e+03
2.024974238848484447e+02
1.097356224290089585e+03
1.671107024866836809e+03
2.095988976834923051e+03
2.286858118879105859e+03
2.428476794428489484e+03
2.405986340330190615e+03
2.447320046353478119e+03
2.352875333794549533e+03
1.891581578588458569e+03
1.237402427185899342e+03
6.665117477142341613e+02
1.211197053135375938e+02
-2.867149694591486195e+02
-4.819359252808307019e+02
-1.235604891208059684e+02
5.138541444567960070e+01
3.489819031448633382e+02
2.742775060328926315e+02
2.818563110555421147e+01
-2.353287047625349260e+02
6.071348558255083105e+01
-3.097746255432285807e+02
-3.357539398112045888e+02
-2.671561143269501031e+02
1.380294899770109396e+02
7.598040754349588042e+02
1.361235543692647525e+03
1.652419995387708468e+03
1.166300787519247706e+03
7.577868960052492184e+02
3.058116080798104122e+02
-8.170567987824080092e+01
-6.087615988079196541e+02
-1.091334945717982009e+03
-1.137419117404536564e+03
-6.580635328642717923e+02
6.072466771475981773e+01
3.099288345204793700e+02
-2.764736313867184663e+02
-9.075356452410520660e+02
-9.662622480885837604e+02
-1.966005364373762987e+01
7.662552553550219727e+02
1.453576888787627468e+03
1.797397557919568271e+03
1.882670042601477917e+03
1.478289562038833992e+03
1.236273461677735440e+03
1.100604867525388499e+03
9.042876352990716669e+02
-2.127025690946109933e+02
-2.383473123252671940e+03
-6.553985878868573309e+03
-1.032620355310597006e+04
-9.963134850654745605e+03
-1.006981731903748187e+04
-1.011320797910689362e+04
-9.814335160026856101e+03
-7.432254804061523828e+03
-8.712869656745142493e+03
-9.664179694056932931e+03
-6.133345330370909323e+03
-2.586317823397226675e+03
-1.950670145357833860e+02
1.211574370183166820e+03
1.705636497557065240e+03
1.795109846701049491e+03
2.024899913267225884e+03
2.390030057851861329e+03
2.665483799495900712e+03
2.314210628361031922e+03
1.862253667624485161e+03
1.008588151908235204e+03
3.082430152841856739e+02
6.472250308616464736e+02
9.025249976287534537e+02
4.730844525420144464e+02
2.688314283407550676e+01
6.900340563170915686e+01
-8.951171126023025693e+01
1.223076816170934080e+02
3.265070049058519999e+02
9.531144166080175637e+02
1.356134930797899415e+03
1.882579454148723244e+03
2.147466338572162840e+03
2.603792990537510832e+03
2.758636448088055658e+03
2.672134440104460737e+03
2.439291486481859465e+03
1.765038462911847546e+03
9.393638170816806223e+02
9.291931798994469318e+02
9.646369099760468089e+02
5.097800824225012093e+02
3.096195137322733331e+02
2.181209309309954563e+02
1.653928045383466952e+02
-4.775491835355414310e+02
-7.396346570627464416e+02
-9.488461551046434579e+02
-9.481550584543522291e+02
-3.175366701424695179e+02
6.270663528283849928e+02
1.685587180136542884e+03
1.716918645706921779e+03
1.665214916783831995e+03
1.915453330363207670e+03
1.774672838814663692e+03
1.433869277437889650e+03
8.980755652541740801e+02
1.134034379185041388e+02
-6.690341451773092558e+02
-1.763188727181038075e+03
-2.126234644480155566e+03
-1.694165656648971890e+03
-1.928891092288408572e+03
-1.792448637116163354e+03
-1.141785251609111810e+03
-7.027060250553192873e+02
-7.240235767781744016e+02
-2.888071475978641729e+02
5.380373978473365071e+01
-9.028559785679238558e+00
6.221965130538707172e+02
7.942163883981124854e+02
9.050216619644796765e+02
1.213676190369021469e+03
6.411625220168857595e+02
-1.415432201192222124e+02
-6.685714094560355534e+02
-4.659779148331626857e+02
1.152977245657005199e+02
1.582022319446297729e+02
1.896940192166836425e+02
-5.354030348811407976e+02
-9.020706120620934598e+02
-1.529193686311271449e+03
-1.475667284942313927e+03
-1.005386058275253959e+03
-3.664670914785432387e+02
-1.356145516940586617e+02
2.492856488874228091e+02
9.077203702612595180e+02
1.651638880186584174e+03
2.325957705435834214e+03
2.147646313215983355e+03
1.859803959335002219e+03
2.105956478365468229e+03
1.989217112558653980e+03
1.415203499689674572e+03
7.737292748649116447e+02
8.371983736271359930e+02
4.828443382276815896e+02
3.158929244821056272e+02
8.092600048452250405e+01
-2.100535959990461947e+02
-5.361320981414845619e+02
-7.151007439374085379e+02
-5.782640582710174613e+02
-6.985885189065182885e+02
-2.988676745811793580e+02
-1.366592685955973820e+02
-6.030078342786539451e+02
6.248516448411635338e+02
1.542045280118030632e+03
1.999571675650006000e+03
2.317453011712791977e+03
1.987647409439905687e+03
1.793023012062136331e+03
1.305204197044021839e+03
1.014972840641201515e+03
7.459542305543425300e+02
3.169276748990973829e+02
5.196922119952274244e+01
-1.694565994993293145e+02
-8.236329267799284537e+01
-2.330552677370870356e+02
-1.165769120525783933e+02
7.494378136708686498e+02
1.072379237882401185e+03
6.252550810107401276e+02
8.589756580589908026e+02
1.463424921457848995e+03
1.858979498465500455e+03
2.226293835601727551e+03
1.733958595542772400e+03
1.898363342213273654e+03
2.018922900423342526e+03
1.940037352531940087e+03
1.316902056732565370e+03
1.201788479369562538e+03
1.194551907548137024e+03
1.059730850757823418e+03
1.067200177776027431e+03
7.319091781645075798e+02
6.160852475078962698e+02
7.631753711478955893e+02
9.703006442838324119e+02
5.519869857669621069e+02
7.118961922247336815e+02
1.149213957525870455e+03
1.343008966424786649e+03
1.991565864411878010e+03
2.637363896842301983e+03
2.596638022520372033e+03
2.513255679107703145e+03
2.009290956982153830e+03
2.184917492479103657e+03
2.147274837130040396e+03
1.902215503646139268e+03
2.033917208275875964e+03
1.789709373444721678e+03
1.164414941574901604e+03
8.349660248245794492e+02
3.801181166358211385e+02
1.659176082248720263e+02
-1.163329296189633055e+02
-4.369338797495630615e+02
-2.961122517824876468e+02
1.849575960804719728e+02
8.602383964488187758e+02
1.353886504480112762e+03
1.812443365976008636e+03
2.255255092272623187e+03
2.674257053429570988e+03
2.898994683909936157e+03
2.275141124614940509e+03
2.037734184162058455e+03
2.042753152156331225e+03
1.737186488416097063e+03
1.795141754314940499e+03
1.225720662059666211e+03
6.790158997357508497e+02
1.090182729334339911e+02
4.071346285624383654e+01
-4.918904693538992206e+02
-1.080808221657398462e+03
-1.337934017139082243e+03
-7.311246362472202236e+02
-3.583311961021747720e+02
-6.596191646858860622e+02
-1.839936762276742684e+03
-2.853233379404657626e+03
-6.138416003872162946e+03
-7.769394763707230595e+03
-7.723037134681804673e+03
-6.974205372331380204e+03
-6.302759200936574416e+03
-6.111498421239039089e+03
-6.217285465934511194e+03
-6.527020578164433573e+03
-7.635608971508513605e+03
-8.321013598139870737e+03
-8.419967464552242745e+03
-8.802906073439982720e+03
-9.050177614656706282e+03
-9.378036231310470612e+03
-6.449556906931225967e+03
-5.930607463634661144e+03
-8.630038401664431149e+03
-8.298762597659726453e+03
-7.085636324983940540e+03
-6.834572816323074221e+03
-6.439473258874657404e+03
-5.134154350163847994e+03
8.045524445607849202e+02
3.296658875819803598e+03
3.552153342270271878e+03
3.280984661150313968e+03
2.438168204290512222e+03
1.316728270100418968e+03
1.210737904417799427e+03
1.849280088343033640e+03
2.187498281394724017e+03
2.126511401411173665e+03
1.608368144096947617e+03
6.751186567423662837e+02
-1.280289129276009703e+02
-3.689900958929552530e+02
-9.415910836590328472e+02
-1.276754759066230008e+03
-3.363792085196575385e+02
1.570713641229931682e+03
3.089690127385501910e+03
4.250740154759365396e+03
4.530051179856886847e+03
3.925805609308659314e+03
3.714168800078723507e+03
3.506379993292238851e+03
3.122636938164698677e+03
2.258072803764994205e+03
1.827823818061253633e+03
1.592020608258982520e+03
1.213842049112534141e+03
5.026134979621893990e+02
-3.048118752750461624e+01
-6.403088370941233052e+02
-1.390832727117315471e+03
-1.055940260406071729e+03
2.564843513433124826e+02
1.229627871869719002e+03
1.538586339288099680e+03
1.881528683005661605e+03
1.980611645838174127e+03
2.287976842489040337e+03
2.444730409579316984e+03
2.170920792455060109e+03
1.859666645755399486e+03
1.277187894722884266e+03
5.858296322347661089e+02
-2.485515379483218545e+00
-1.426750340102530856e+02
-5.107444110032291178e+02
-1.274721286488167834e+03
-1.284795654664689664e+03
-1.165762302863847481e+03
-1.943573571559530592e+03
-2.222216700740324541e+03
-2.985075621969164786e+03
-2.345291293898637832e+03
-9.348585994762549944e+02
2.062223186592832178e+02
4.839431064026662170e+02
6.962804038614452793e+02
1.099130624819286140e+03
1.048488194051084747e+03
1.573376931681875931e+03
1.809725911422698346e+03
2.006445014592482721e+03
2.223544142842467409e+03
1.963860350432640871e+03
1.303265324432234365e+03
4.976974665870798731e+02
5.330384154861575325e+02
7.882089707801328586e+02
5.461798204686492682e+02
4.798309070949502484e+02
6.400109929646126830e+02
7.055602658165038292e+02
8.153731731636271434e+02
8.263549781830294023e+02
1.634377000703333636e+02
3.252154723078824361e+01
1.103489005729790733e+03
2.322195816212980844e+03
2.789504072358603480e+03
2.964287438666562139e+03
1.974421363201804297e+03
1.294847531148760254e+03
1.022451191696805495e+03
2.596990325459799820e+01
-5.868684763987145061e+02
-3.862985859169372702e+02
-4.695163453024357523e+02
-2.035975070217862424e+02
7.492482171194815237e+02
2.096858484634909928e+03
3.439051252561931051e+03
5.138585858255813946e+03
6.114203756103774140e+03
5.406703174161373681e+03
5.936940446301113298e+03
6.173744415512089290e+03
5.776901899335985945e+03
5.152315447720068732e+03
3.935875754300128847e+03
3.143321078998199937e+03
2.907455203682978663e+03
3.948070595659935861e+03
3.785026862452458772e+03
2.187060501817656132e+03
5.518674583022442448e+02
-1.836743965794707265e+03
-4.768047556992022692e+03
-5.607302238471381315e+03
-4.391718048667193216e+03
-4.225466228821855111e+03
-6.587790234585201688e+03
-9.840911605955887353e+03
-8.771977298634066756e+03
-5.077210277053802201e+03
-3.144846344457074338e+03
-3.190873622847622073e+02
2.371861713066067750e+03
4.307891227356082709e+03
5.351830020951619190e+03
5.554436326175592512e+03
6.524436557726723549e+03
7.026616443950109897e+03
6.364772973347075094e+03
3.875765510988347614e+03
1.182460811210477459e+03
-1.150374665566998601e+03
-2.556873996155700752e+03
-2.378261182292884769e+03
-3.735736236263709543e+03
-1.114433211607565909e+03
4.290515099647832358e+03
4.242947704664509729e+03
2.618730107386320014e+03
-9.642748845701515847e+02
-5.712211550340122812e+03
-1.081713368322616952e+04
-9.477107325148408563e+03
-5.735269944157701502e+03
-6.496664174556181933e+03
-9.841343669582776783e+03
-8.660358812391499669e+03
-3.655822848486061048e+03
6.679263718916397920e+03
1.492378712851977434e+04
1.200665008586964723e+04
8.280837560911542823e+03
7.191352637195981515e+03
1.838194448768568236e+03
-4.197691801978779040e+03
-8.449309302307774487e+03
-7.070654038208419479e+03
-5.601685629076652731e+03
-6.557340807974542258e+03
-5.001723046660647924e+03
-2.894714686999073820e+03
6.567721837382931653e+02
5.684759137374183410e+03
1.081042804380277448e+04
1.319284227287150679e+04
1.406810471726079413e+04
1.074731371110944201e+04
4.187598039267068998e+03
-2.740907993753493884e+03
-3.288137750477392728e+03
-3.580971524763364869e+03
-7.452315044099037550e+03
-1.175097018434975871e+04
-1.165976551443910648e+04
-7.048658319392001431e+03
-1.733467100961779806e+03
2.661098662446323488e+03
1.128018291704635703e+04
1.588692909518651322e+04
1.758353379427143227e+04
1.445819949921990519e+04
3.201304023240264542e+03
-4.972995300794678769e+03
-9.639487461786315180e+03
-1.107887475797280058e+04
-7.723865601787418200e+03
-4.468268801362885824e+03
-5.590873554849245011e+03
-8.475441999723894696e+03
-9.704741636823573572e+03
-4.280487247220224162e+03
4.025611024779483614e+03
4.913825210643488390e+03
2.122391444585170575e+03
-5.810381159421333905e+03
-1.241523905507213567e+04
-1.898196005799449995e+04
-2.338624638983424666e+04
-2.076780184614112295e+04
-1.318635726752045230e+04
-3.829559566408779119e+03
9.324925524048630905e+03
1.461246245598008863e+04
9.908300128458158724e+03
7.487777560044026359e+03
5.463198772178313448e+03
2.740815762875073688e+03
1.178971879487274464e+03
-1.297994881170644021e+03
-4.037839297210219229e+03
-5.127279930086031527e+03
5.129941810133337867e+02
1.810307454444205860e+03
2.093360821645056902e+01
-4.391891100931678011e+03
-1.029389188638116138e+04
-1.554482193893614749e+04
-1.436442425301987350e+04
-7.906363242787770105e+03
-4.404012169341436902e+02
2.813733990919024109e+03
2.183332137512404188e+03
1.546736517491538507e+03
-1.478135931459291044e+02
-2.720042830948264054e+03
-4.160692902172983850e+03
-5.146556501707321331e+03
-4.821319093789272301e+03
-5.174777331991989740e+03
-6.274708128077312722e+03
-7.285962905375768969e+03
-8.580312850580192389e+03
-9.911584091917695332e+03
-1.006361467846368396e+04
-9.697381998348331763e+03
-1.024076828426519933e+04
-1.142653995202202532e+04
-1.301814380445461029e+04
-1.503535732018390809e+04
-1.621875997257196286e+04
-1.710434857899555209e+04
-1.811208155240369160e+04
-1.824188390540034379e+04
-1.674267331223139263e+04
-1.397227549692757930e+04
-9.842604614397336263e+03
-5.596622236821939623e+03
-9.321934189385187892e+02
9.695795821785361113e+03
1.652042522794966135e+04
2.084279302103076770e+04
2.144840344298177297e+04
1.997941249876859365e+04
1.894775621911339840e+04
1.853755759736518303e+04
1.814101704235078796e+04
1.839692187919350908e+04
1.887421857966934476e+04
1.954794012364467926e+04
2.136304148347169757e+04
2.455128220232600870e+04
2.750744798866829660e+04
2.976465575467745293e+04
3.066965659130906715e+04
3.091930780860245795e+04
3.093159060631535613e+04
3.053445123189572769e+04
3.006267271108325076e+04
2.975102357914806635e+04
2.940738878801004103e+04
2.810566482161682143e+04
2.629371277508384810e+04
2.469541890590711773e+04
2.262962926672655885e+04
2.102714321466862384e+04
1.891281409701165830e+04
1.641346548183965206e+04
1.426481520761304273e+04
1.198655467205349487e+04
9.160468427353063817e+03
6.442370061931751479e+03
3.640098559974521322e+03
5.895498583541098014e+02
-1.947498111495236344e+03
-4.236268895875330600e+03
-6.632982781537035407e+03
-8.875835152522133285e+03
-1.121407835934027025e+04
-1.381299588248739747e+04
-1.519384633164986917e+04
-1.628183315629204844e+04
-1.691623897041174132e+04
-1.761629879434593386e+04
-1.846327295956689341e+04
-1.939252920947914026e+04
-1.969239021611194403e+04
-2.046709978965009941e+04
-2.111485062315389951e+04
-2.102293260617822307e+04
-2.015260074918328246e+04
-1.890912271065195091e+04
-1.910077295212513127e+04
-2.050482375198665250e+04
-2.346954099497049901e+04
-2.401113069966437251e+04
-2.255782423661836947e+04
-2.078791015787910146e+04
-1.926264811646687303e+04
-1.790732368401017811e+04
-1.671516615400408045e+04
-1.666042219746864430e+04
-1.624041458314466399e+04
-1.024235078078388324e+04
-7.205513673568641934e+03
-5.871129679509327616e+03
-4.644566795841262319e+03
-3.760103587322942531e+03
-2.970986252614418845e+03
-1.849384966174646934e+03
-1.354560658823584845e+03
-3.877217756738066896e+02
9.959368697266216941e+02
2.114169353071803471e+03
2.277747240206577317e+03
3.377475001979882109e+03
4.439148929712058816e+03
4.909598227387942643e+03
4.876661063962087610e+03
4.096177985613639066e+03
3.657911875637093544e+03
3.737640640202290797e+03
3.917210474751681431e+03
3.467436798055545751e+03
2.705203872526367832e+03
1.696338248235083029e+03
9.796912158760809461e+02
6.461238798198920676e+02
9.255579778111745100e+02
1.232794098164019942e+03
1.242656168685917237e+03
1.084032783919609301e+03
5.208323837557903744e+02
-2.279938180063765003e+02
1.050541316666182638e+03
3.460334266531716366e+03
4.554336490606341613e+03
4.685576383001542126e+03
4.066941730915696098e+03
3.039312633790879318e+03
2.499623481975963387e+03
1.749738702790204570e+03
1.163540890201300044e+03
7.650139009279422453e+02
3.960780477571242955e+02
-3.853327259675373853e+02
-1.002206970942633006e+03
-1.973420311209070178e+03
-2.871074418726453132e+03
-3.795112122206023741e+03
-3.829435057081818741e+03
-2.721980126724638012e+03
-2.406829564820538053e+03
-2.256995995961060544e+03
-2.215280185583809271e+03
-1.707268226997033707e+03
-1.128742970540907663e+03
-7.395934607370890035e+02
-5.940791677324574493e+02
-8.320735251069564811e+02
-1.058379582655881450e+03
-1.351050408124237720e+03
-1.563197157182906722e+03
-1.703713025802792117e+03
-2.027262696067371735e+03
-1.948645370413224782e+03
-1.189038277684814375e+03
-1.054564530364451457e+03
-8.880518232610442055e+02
-4.445180644164851742e+02
3.860506762185138996e+02
1.381778185578859848e+03
2.054889411285878396e+03
2.488544941503467726e+03
3.199852854672418289e+03
3.300054028743733397e+03
3.988359153087377763e+03
4.516040521891870412e+03
4.509324170211047203e+03
4.526341979900535080e+03
4.301187624423640955e+03
3.895883171979070084e+03
3.946722345585795210e+03
3.817512440334789062e+03
3.550040014703019551e+03
3.600861930560787187e+03
3.764274100744221414e+03
3.689634068728280909e+03
3.496275736846069321e+03
3.571462293318119009e+03
3.638912649346853868e+03
3.985586473044384547e+03
4.192951841124416205e+03
4.530374171171326452e+03
4.984626380731214340e+03
5.900458676008323891e+03
6.291491955766006868e+03
5.850880025920084336e+03
5.419601202757079591e+03
5.155904584120034997e+03
5.155763279203968523e+03
4.841743340949304184e+03
4.103125750569764932e+03
3.721060539016428720e+03
3.379262046098280280e+03
2.714726321078367164e+03
1.864767578461346602e+03
1.809315622109118067e+03
1.923383738792367694e+03
1.419925595645807107e+03
1.648923129956729326e+03
1.776495766542221418e+03
1.716877807662871191e+03
1.774268020168752855e+03
2.145059421697294511e+03
2.658703439876665925e+03
2.613520100345966057e+03
2.398120325498151942e+03
1.821653280144396604e+03
1.572538955583282132e+03
1.822932841394787147e+03
1.410608948270781639e+03
6.092211434229827773e+02
3.346893481426638459e+02
1.230652342311383194e+02
-3.220639020740466094e+02
-1.038472789543905265e+03
-1.959891952252791270e+03
-1.748928732154697855e+03
-1.703867811936063163e+03
-1.886715626003785019e+03
-1.389170199195866417e+03
-6.872175897644125371e+02
-7.421442622658523192e+01
2.728491620558383488e+02
3.272570410131514222e+02
1.622544775713446086e+02
-1.672195128329076965e+02
-7.970885289960497744e+01
3.504532254600658234e+02
4.567671195960202226e+02
2.935174985380048156e+02
2.872660240188633907e+02
-2.428995647474714872e+02
-9.796799925559223539e+02
-1.218577479293025135e+03
-1.709262381683838385e+03
-2.214909443288377133e+03
-2.416776935155268347e+03
-2.301404017180792380e+03
-2.187407797148318878e+03
-1.703987309367741545e+03
-1.316242554476971236e+03
-1.122108719554710433e+03
-6.885461922044836456e+02
-1.296315433720127430e+02
5.803134090097783471e+00
-3.121946154049857682e+02
-3.215816683133479046e+02
-3.096159646871699422e+01
-4.738483434674348871e+01
-3.417510036741800832e+02
-4.078467717750506267e+02
-6.384489470832720599e+02
-1.323596360575321569e+03
-1.258781191805872822e+03
-1.601549626546282298e+03
-1.926223635188204298e+03
-2.136583124674052215e+03
-2.250350878228286092e+03
-2.351565126520378726e+03
-1.892148647700066704e+03
-1.516992558419745137e+03
-1.133191009569425205e+03
-2.377943055402456025e+02
4.360802267755012736e+02
1.166467582180076079e+03
1.652441060450023087e+03
2.009002086646567705e+03
1.884081209463319738e+03
1.554646175062797283e+03
-2.044937624066371029e+02
-3.493418374628285164e+03
-7.620069626896927730e+03
-8.481390062695858433e+03
-8.765304340056913134e+03
-8.355850092375503664e+03
-8.644176418248336631e+03
-8.594299793934398622e+03
-8.233154920819803010e+03
-8.027874919746506748e+03
-7.077662306017985429e+03
-6.230693072772636697e+03
-6.044090800596321969e+03
-5.980959497819219905e+03
-4.887514936814578505e+03
-2.458425211644928822e+03
1.196435293078807490e+03
-1.726868231451258907e+03
-3.682088408551706380e+03
-3.178071981806225267e+03
-2.967866598879573758e+03
-3.643521538170170516e+03
-4.272979254206803489e+03
-4.225296694991611730e+03
-4.015488091691931913e+03
-3.461600690786775431e+03
-4.174739828085092086e+03
-8.950201742436215682e+02
3.493562000694058042e+03
4.575038266685773124e+03
4.602443716315128768e+03
5.003856015635638869e+03
5.719326318275803715e+03
6.165924309306374198e+03
6.129723539108387740e+03
6.168760203698964688e+03
6.371083913512438812e+03
6.180790397658516667e+03
5.881990327050359156e+03
5.544713658292731452e+03
5.179085027797759722e+03
4.686100593779712653e+03
4.328858355823684178e+03
4.105489293119186186e+03
3.736035833143694617e+03
3.157604976047686705e+03
2.728307238692626470e+03
2.148216569079321289e+03
2.018429444358032015e+03
2.202044698238235014e+03
2.462119370631219226e+03
2.710703071276737319e+03
2.933913028244432553e+03
3.397816341321438358e+03
3.599480643177795628e+03
3.505994328330519238e+03
3.606311500007447648e+03
3.403485040516384743e+03
3.278519188467739696e+03
2.815418636016651817e+03
1.911159709452614379e+03
1.310759622462137486e+03
8.671525566186035121e+02
8.692487697007638872e+02
7.339742063018168210e+02
5.945609493357727615e+02
7.851579774369949973e+02
9.046687559906796423e+02
5.532153193645769989e+02
5.993715712345982638e+01
-5.501409728114431630e+01
6.921864214493585621e+01
-1.075477031621440602e+02
2.185804846192377795e+02
5.263681311076636860e+01
-2.333511455093792222e+02
4.205854898984276247e+02
5.585016557665326218e+02
3.975177799529652702e+02
2.386895640067181716e+02
-2.525535975686303800e+02
-1.009016577445440817e+03
-1.244134543031116891e+03
-1.508983701977872443e+03
-1.611546473915956994e+03
-2.135955271558369532e+03
-2.188164210001100855e+03
-2.275277604782528670e+03
-2.032367291353254359e+03
-2.126444098423120977e+03
-2.013479818459815760e+03
-1.764521778232883889e+03
-1.572550219293087366e+03
-1.447570489810954768e+03
-1.241542486799388598e+03
-9.184137000269519149e+02
-8.602249141069715961e+02
-1.095991560267849536e+03
-1.538829035878387231e+03
-1.207754620251964752e+03
-1.167722582057388991e+03
-1.085736698929030808e+03
-1.075818860755790638e+03
-1.141054753147081556e+03
-1.830510500329224215e+03
-2.058251057113880051e+03
-1.846341285988109348e+03
-2.006806288632430778e+03
-1.758552510143078280e+03
-1.775602090480990000e+03
-2.012194048519431362e+03
-1.599458721916457534e+03
-6.483559474888919567e+02
5.512999064788537140e+01
9.061047369235666338e+02
1.472624069737427135e+03
1.269661339928892403e+03
7.711615248397146161e+02
1.102001498145043797e+03
1.058079243739518461e+03
1.084381325694145517e+03
9.339585453768232810e+02
6.447426470441083666e+02
2.069556001675514167e+01
-4.122741329215842256e+02
-6.211978517358253384e+02
-8.190684025091817375e+02
-3.795111244308772257e+03
-8.325338498587714639e+03
-1.155674979882019034e+04
-8.907281829323257625e+03
-4.419055762787593267e+03
1.818636500753541156e+02
7.904433378150287126e+02
9.126121773195964124e+02
1.435348376713730204e+03
1.999661880582488720e+03
2.287540059232880139e+03
1.948915046410235163e+03
1.862771165592848092e+03
1.431025220711298971e+03
1.432588157754024451e+03
1.841309437138012754e+03
2.155829753322309443e+03
2.384617825951253963e+03
1.829712096473482234e+03
9.530674954301766775e+02
6.753292161618592218e+02
-3.949233181152600736e+01
-3.121213426950399707e+02
5.341964823978198638e+02
1.306158889607524088e+03
1.651791771259458073e+03
2.307125964044786087e+03
2.644235406675564718e+03
2.845383997084018119e+03
2.940093268509074733e+03
3.318814131605815874e+03
3.575065090543762381e+03
2.984181842912027150e+03
2.756963172160137219e+03
2.513161886372690333e+03
2.187020346113552932e+03
1.864374098329355775e+03
1.233224668235507579e+03
9.316440462877635582e+02
1.316477118807088118e+03
1.843711247013320644e+03
2.185568913912346943e+03
2.024571228945962957e+03
1.338976983008508114e+03
1.150768656207014601e+03
1.388966360090702210e+03
1.891586618637263882e+03
2.067827423506467312e+03
2.024519054986194760e+03
2.326687412488919108e+03
2.295273686124478900e+03
2.977561656023970954e+03
3.763437966053725177e+03
3.382773410488657191e+03
2.966571001219513164e+03
2.541646303750530024e+03
1.574311372586206744e+03
3.605971387211549199e+02
-2.736062729625914471e+02
5.316297565539509833e+02
1.245311021643396089e+03
2.113451398322501063e+03
2.137102540182015218e+03
1.964270362461970990e+03
2.440976462658463788e+03
2.048248379395932716e+03
2.511069328558313373e+03
3.241468559108171121e+03
3.505527150657411312e+03
3.746268449459435033e+03
3.736787687546175221e+03
3.761157838429553067e+03
3.884318987137139175e+03
3.690222420147467346e+03
3.061895304670041696e+03
2.737367465776968402e+03
1.281507395221306297e+03
-2.593297741969148774e+03
-8.072069324557190157e+03
-9.494876490151416874e+03
-9.111753935208807889e+03
-8.769698453882645481e+03
-7.935702664198317507e+03
-7.974729576354615347e+03
-7.585736689593281881e+03
-7.180643590161076645e+03
-6.827404797495366438e+03
-6.299008466163468256e+03
-5.750435193128118954e+03
-5.719615564145225107e+03
-5.214510247922095004e+03
-4.132077132223818808e+03
-3.211980407634161452e+02
-1.925876652587868648e+03
-6.020126585057925695e+03
-6.562864971097822490e+03
-6.381094941387453218e+03
-6.279790129590539436e+03
-6.738972607234608404e+03
-6.915642974019709982e+03
-7.054764720519978255e+03
-6.414272225942057958e+03
-6.383130911817877859e+03
-6.605343576224094249e+03
-5.842837749227232962e+03
-4.952557913516478038e+03
-1.484446653333208133e+03
2.948528803906574012e+03
4.466342903617389311e+03
4.754053879827843957e+03
4.811719859989948418e+03
5.451352323772534874e+03
5.373986541021365156e+03
5.436740910506960972e+03
5.344581038596885264e+03
4.373537994774662366e+03
3.733639015250890679e+03
3.488890381419259029e+03
2.962303079754101873e+03
2.411898419332195772e+03
2.225710465413936163e+03
1.878755074471986973e+03
1.445995091976771391e+03
1.168374016882175511e+03
1.151901937548197566e+03
1.750648304613509936e+03
2.959648039813057949e+03
3.469880843530961101e+03
3.865425367911506783e+03
3.343324763811797311e+03
2.757670667957209844e+03
2.412585222878035893e+03
2.436170691669661210e+03
3.318444524650620224e+03
3.504589638471871240e+03
2.647566925230998550e+03
1.942408524411496273e+03
2.180067465213167907e+03
1.967535380789682222e+03
1.369861448174545558e+03
6.589884167288749950e+02
1.033786978106512834e+03
1.857336067669518798e+03
1.986692790276684491e+03
1.798726490972893316e+03
1.931395424282136446e+03
2.036708375049284086e+03
2.395810378599224805e+03
2.664654684896071558e+03
2.463292620553093457e+03
1.974710138473404868e+03
2.062971512702893506e+03
2.018075364381814325e+03
2.038960709025109963e+03
1.658647493390375530e+03
1.148988839561838859e+03
9.360529116190142531e+02
1.135697393968935785e+03
1.555781338527008529e+03
1.207278458985316774e+03
9.470879115718677212e+02
7.241431990381921651e+02
5.014087668359172199e+02
6.269252675480986454e+02
9.197203223146461823e+02
1.412742712245271832e+03
1.620936490005288761e+03
1.966378578918388030e+03
2.084065370443385291e+03
2.485972088814002745e+03
2.432075385682705928e+03
2.165421340415267423e+03
2.125986485530499976e+03
1.924769250313790963e+03
1.961734114452874337e+03
1.791884357602613363e+03
1.518167326977182711e+03
1.245604057192541859e+03
7.920666617663711122e+02
4.255522153951972086e+02
-1.038411893624619466e+02
-2.100858737584099458e+02
-1.722363979331867085e+02
-1.884109793251099632e+02
-1.816587971699365482e+02
-2.539858642700395137e+02
2.245956606319211630e+02
1.026076527635865659e+03
1.742443960983767965e+03
1.826760037602062994e+03
1.755056501217126197e+03
1.173285777511767037e+03
-1.665560745103618956e+03
-6.578523645025778023e+03
-8.834642801694792070e+03
-8.580957019615987520e+03
-8.972506058925095203e+03
-9.202289883866738819e+03
-9.089272723752299498e+03
-9.139481085056597294e+03
-9.004998090999797569e+03
-9.016841200186796414e+03
-9.652946800258026997e+03
-9.660287488449548619e+03
-8.904748573937442416e+03
-8.051355506765768041e+03
-7.096253984724572547e+03
-3.393447500735614085e+03
-4.945020508154032541e+03
-2.453027975425356090e+03
2.591607234591150245e+03
3.221930619610910981e+03
3.089910260515994196e+03
3.578612102113620494e+03
3.191955889532612218e+03
3.159959144441810167e+03
2.613599556380274862e+03
1.950878310082938015e+03
1.274717921603800960e+03
1.780900711735742448e+02
-4.090037015304010311e+02
-3.214530771608393138e+02
-4.541975188973175364e+02
-2.573089407110364277e+02
9.712277235371585959e+01
4.899826852123768504e+02
1.664264180935361082e+03
2.010022724982985437e+03
1.824322859092813133e+03
2.117178144695402807e+03
2.312615425138797946e+03
2.763642657201338352e+03
2.832236000003080335e+03
3.125433351759395009e+03
3.165267633894776282e+03
2.469672112777923758e+03
1.487642003901443104e+03
1.538253688741173619e+03
1.398369138965057573e+03
6.390270554652377086e+02
1.272793566755611465e+02
-3.939310765572516289e+02
-1.235627870116042686e+03
-1.175826966602650600e+03
-4.484869490685588289e+02
9.964654113921417320e+02
2.220110709520226919e+03
2.592473855599868784e+03
