-1.614187498778329939e+02
-2.602858622905336574e+02
-9.948682309998015398e+02
-3.800487181603938893e+02
4.461499556747373276e+02
9.487502136370831067e+02
1.687904481790169712e+03
2.513593046797346688e+03
3.442919160330884552e+03
3.824230113533927579e+03
4.236664728046765958e+03
3.801220808103043964e+03
3.525173212078972938e+03
3.319773383929410102e+03
2.693787737722500424e+03
1.713119418610739103e+03
1.049003404026292174e+03
4.353564608297462541e+02
-3.355306425171186788e+02
-1.074282503126557685e+03
-1.357501240796773573e+03
-1.110184315654220200e+03
-7.243091732668237910e+02
-3.088709995508000361e+02
1.858518759151389190e+02
5.916407627309589543e+02
1.010089688141929742e+03
1.736390379440157858e+03
2.608515279318865396e+03
2.926346882708220164e+03
3.327938335934981751e+03
3.433273607165969224e+03
3.930532519325652629e+03
3.982213983114012535e+03
1.494114474329611994e+03
2.337007328921548833e+03
2.491886420387611906e+03
1.734765610590932283e+03
1.016653581813863070e+03
6.197386465964436866e+02
5.920345655968632315e+01
-2.989893913703013482e+02
-8.171241352760984000e+01
4.484660102338146430e+02
2.223787749065460275e+02
-1.649502070865707708e+02
2.225764047829592869e+02
4.669567025029299998e+02
4.182693065810136659e+02
3.384805927752301500e+02
3.709200411034873923e+02
9.757066562271467092e+02
2.747945223873001396e+03
4.015008114207941162e+03
4.246930877240258269e+03
3.697468940203825241e+03
2.973711602871798277e+03
2.081743351686523511e+03
1.688758018333490782e+03
1.317778353652460510e+03
5.195584910045087099e+02
8.592914054751302899e+01
-2.312133323645438168e+02
-2.329228284612851780e+02
-1.361506749442303033e+02
8.921432934896915867e+01
3.343317980450421487e+02
6.122560520929131371e+02
6.848104273007297706e+02
1.347919915012460706e+03
1.064650303893843329e+03
7.909298557937017904e+02
1.372835329081257441e+03
1.593683231421309301e+03
1.746428026484208658e+03
1.675768546081547584e+03
1.283718697736566583e+03
4.853088357941681465e+02
-4.496463664393994577e+02
-1.095213997024993887e+03
-1.307429635343391965e+03
-2.126323774080469320e+03
-2.270915700178110001e+03
-1.948142788292760088e+03
-1.279310886409784416e+03
-3.115202417680747544e+02
4.414757733264903550e+02
1.167422209279742219e+03
1.865422620169928905e+03
2.478508487075149787e+03
3.265546728776357668e+03
3.793482508315078121e+03
3.970308647456215112e+03
3.863937376578478961e+03
3.115313389299905793e+03
2.784285464671963837e+03
2.054688039536332781e+03
1.194528040924197512e+03
1.428041666237237166e+02
-5.764840346758086298e+02
-1.319517477412520293e+03
-2.128641658162531257e+03
-2.040978096661171321e+03
-1.351506403189973298e+03
-1.094418954151693015e+03
-9.960053675678194622e+02
-7.922273432492108896e+02
2.631874953170063236e+02
1.316995791827739822e+03
1.810017832823984691e+03
2.164306679100793190e+03
1.830838329496103142e+03
1.403611029461648741e+03
1.411579382151724531e+03
1.566807866594029747e+03
1.917144159656955026e+03
9.354164559413017059e+02
1.926249639956137116e+02
-2.402986020160195153e+02
-4.954772736832042028e+02
-5.590576674112038518e+02
4.070542348713593128e+01
5.145382910065744682e+02
1.554668196356331578e+02
-1.314654958103222384e+02
-3.153668809724488042e+01
3.742125279604767343e+02
6.728382700230306455e+02
1.169507327728649898e+03
1.933248827378054102e+03
3.258124145200479688e+03
4.047187025512911077e+03
4.014236678848512383e+03
3.516081537254309751e+03
2.696787075659715356e+03
2.329264852062415684e+03
1.418372778929008518e+03
1.510866638778611559e+01
-9.665183621744893117e+02
-2.661582772651662708e+03
-3.906170435707015258e+03
-3.397333866773661612e+03
-3.096103309449081735e+03
-2.723390866956207901e+03
-2.043131596550182849e+03
-1.071344378178981060e+03
1.280901017788585818e+02
1.333260460941225119e+03
1.218023915874310887e+03
-1.801779295365760618e+03
-2.355071793170510773e+03
1.620311448523483762e+02
3.554524275688377656e+03
3.140674776826369452e+03
2.256447994741984985e+03
-1.457447654027038425e+03
-2.140897818148216174e+03
-3.059762150520479736e+03
-4.405919363110669110e+03
-5.260329697795584252e+03
-5.326902203633307181e+03
-5.699662953376218866e+03
-5.857733144817575521e+03
-5.574907355629690755e+03
-6.666051285632503095e+03
-7.800188843743414509e+03
-7.100199953250610633e+03
-3.868964546466633692e+03
-2.443343926506508069e+03
-2.266174379191342723e+03
-4.514353746958341617e+03
-8.005795072776389134e+03
-7.675341853912999795e+03
-5.802003529551899192e+03
-3.491848123913133350e+03
-2.775759315283563865e+03
-3.171584389382871450e+03
-3.835218337279240586e+03
-4.138577100388096369e+03
-5.191551452708202305e+03
-5.877063222123224477e+03
-6.073075606439775584e+03
-5.225412404353418424e+03
-3.967841157996128004e+03
-1.646296761028115270e+03
-2.418133032951157873e+02
1.384760933006780533e+03
1.567565375788623896e+03
2.844828545830688654e+03
3.133691225184546965e+03
3.284281341778535079e+03
3.838702163329071027e+03
4.089130517402031728e+03
4.512760306897508599e+03
6.024647832145513348e+03
6.819948785663287708e+03
7.945724500282880399e+03
8.592991860680920581e+03
8.052124709561393502e+03
6.824358335679485208e+03
4.921743162255982497e+03
2.385273137036269418e+03
5.700100687321503301e+02
9.399250788532769718e+01
-3.176467628372788568e+02
-1.301893108217509052e+03
-3.134708133618043121e+03
-3.614041680254215862e+03
-1.939649174954579394e+03
-3.422321927308513523e+02
3.806938771220645776e+02
2.526543556071716921e+03
6.639567317567758437e+03
8.802846724974313474e+03
7.250482428956183867e+03
4.127379160565748862e+03
1.631449779272173373e+03
1.052904429245079427e+03
1.606162152627928492e+02
-1.469942028262595613e+03
-2.715552109450333319e+03
-3.950101943037647288e+03
-5.150732077774666323e+03
-5.432178263079776116e+03
-5.894182799876449280e+03
-8.036893126208472495e+03
-1.078359922250671116e+04
-9.431242260124974564e+03
-3.610223520893345267e+03
9.522565282752174198e+02
3.298103871830111075e+03
3.550925487928517668e+03
2.698546003018040210e+03
2.301383912929440612e+03
1.278575745422895125e+03
1.328004163869068407e+03
9.783834263015738770e+02
2.280074511329651159e+03
4.747751192197697492e+03
4.821468842773699180e+03
3.188257708826911767e+03
1.373824927422304881e+03
1.359985501862497131e+03
2.099875905778380002e+03
1.633420026111736661e+03
5.910997349238845118e+02
2.233227504130383068e+02
-1.863012830522370677e+03
-3.036708556697993117e+03
-1.119084727865315017e+03
2.027151229877428477e+03
3.993937000182471365e+03
4.586617626608248429e+03
5.622403823261481193e+03
6.389881554884750585e+03
7.309577896825728203e+03
7.002364143923008669e+03
6.457006078570499085e+03
6.788233739858804256e+03
6.597355529345326431e+03
5.756619338873650122e+03
5.050024004379635699e+03
4.046887796934116977e+03
2.822273202638102248e+03
1.327854265815916051e+03
7.792132017768457217e+02
1.033460417674416931e+03
1.901958877596410048e+03
3.853799766823737627e+03
6.634197642181259653e+03
8.105966384836983707e+03
7.617837878162392371e+03
6.374735617357594492e+03
2.866575494953005546e+03
8.906343813158706268e+01
-1.956186173405586260e+03
-1.927907537078777523e+03
-1.889037601533108500e+03
-1.976124179037213935e+02
2.217809869840218653e+03
1.083794930860203067e+03
-3.121789576297378972e+03
-3.653368409479307957e+03
-5.043334080791624729e+03
-5.827665822112634487e+03
-5.776361124993711201e+03
-5.519694082029347555e+03
-4.418286999604268203e+03
-1.266447861700474959e+03
4.108010911607791058e+03
7.875532138382741323e+03
8.928615140186331701e+03
8.537009457489968554e+03
7.115989022563680919e+03
6.044589481132038600e+03
5.372515023485540951e+03
4.616548305001068911e+03
2.845438414561145692e+03
7.331346417090711611e+02
1.005727666700451209e+03
8.260611882513527462e+02
-3.587945764047981925e+02
-1.842819050758608455e+03
-3.241602969917293649e+03
-4.729649196686358664e+03
-6.385023460131771571e+03
-7.302086157867253860e+03
-7.892922070400623852e+03
-8.939432481927995468e+03
-8.748990590445760972e+03
-6.881725070315467747e+03
-6.557339534715395530e+03
-6.472933222031242622e+03
-6.182661261188509343e+03
-4.057303220076058096e+03
-1.106199992033067929e+03
1.481651556476051041e+02
1.128948376485343630e+02
-1.544460546627012150e+02
-3.473889869765318963e+02
-1.676398608268590351e+03
-2.749675713120849196e+03
-3.212326111101232982e+03
-3.882507918003663690e+03
-5.018173885231620261e+03
-6.803288338349276273e+03
-7.901249498287916140e+03
-8.133103686641115928e+03
-7.308293568613607931e+03
-5.113473481257259664e+03
-2.756415014226484345e+03
-1.504166066481013104e+03
-5.245566617150718685e+02
6.405740126815761215e+00
-4.979479306360872783e+02
-1.451543981945764244e+03
-1.417905979686846422e+03
-1.079148048211938885e+03
-1.521637445370741489e+03
-2.304849025153849198e+03
-3.593401689928536143e+03
-4.964608291122590344e+03
-6.071578805326194924e+03
-6.519955070878350853e+03
-6.336981003286789928e+03
-5.804190560800867388e+03
-5.117869785491698167e+03
-4.138360708333992989e+03
-2.819162321061721286e+03
-1.627784894697028676e+03
-7.943152852078649175e+02
-6.311629047896232123e+02
-7.161768954827882681e+02
-1.053554041354705987e+03
-4.601088853898691582e+02
3.857963406585532198e+02
1.233568550051763395e+03
1.060753674147071706e+03
6.273383037941867997e+02
6.293680081874625785e+02
6.938657338372860295e+01
-9.164943516717728471e+02
-2.030892140053511639e+03
-2.178631396706187388e+03
-2.569791127855397463e+03
-3.091114224119515256e+03
-3.341312467446001847e+03
-3.641368012939881282e+03
-3.962121825520041057e+03
-3.475309063747303753e+03
-1.759802860032278204e+03
-1.875858174759430597e+02
5.405223965628666747e+02
1.809896294108606526e+03
3.381695759423904747e+03
4.160913005622273886e+03
4.512629298741235289e+03
4.039933417918386112e+03
3.344800539894594749e+03
3.142375887902377599e+03
1.844810652367859575e+03
-1.443018275012991580e+03
-3.375367976166328390e+03
-4.139042777790024047e+03
-3.914290597461773359e+03
-3.107871926900518247e+03
-1.176192971532055935e+03
2.194408951824955238e+03
3.959288904949997232e+03
4.141192668725706426e+03
5.128901553305710877e+03
6.193017979745158300e+03
7.019356001521819053e+03
7.172896937610709756e+03
6.833002473105814715e+03
6.381061512826377111e+03
5.617214028598200457e+03
5.047325374042403382e+03
4.366670723297820587e+03
3.591181200356263616e+03
3.625989774453174050e+03
2.888291081347659656e+03
1.968840688134846687e+03
1.459655226850803729e+03
1.543611083862688702e+03
1.914266264012386728e+03
2.483844929586565286e+03
3.180513364091149924e+03
3.962908742507906027e+03
4.982901945169735882e+03
6.112152894986127649e+03
6.411076876618472852e+03
6.662604385483983606e+03
7.086137973804107787e+03
7.320599754724956256e+03
6.965457424251999328e+03
6.451879129610675591e+03
5.827184087141842610e+03
4.699875547525078218e+03
3.910676085561147829e+03
2.888523458577031306e+03
1.216450387345651507e+03
4.260464789504618466e+01
-7.895352900881233609e+02
-3.145645631627853618e+02
1.315238093853979080e+03
3.641777071645127307e+03
6.112526106325601177e+03
8.286806501209472117e+03
9.869631117891523900e+03
9.979151993064517228e+03
9.898697014247505649e+03
1.002341435570408248e+04
9.716989687935552865e+03
9.752098478262083518e+03
9.640647864179894896e+03
8.975375453705812106e+03
7.931035089250262899e+03
7.202666940323817471e+03
6.990072890586059657e+03
6.893909912279920718e+03
6.556134997215174735e+03
6.553919153988893413e+03
6.510002089615990371e+03
6.405392003832182127e+03
6.135849716534184154e+03
6.399069555674119329e+03
6.647687655301857376e+03
5.942415577792516160e+03
5.560331522506800866e+03
5.054814139726934627e+03
4.609583592947504258e+03
3.480360297511924728e+03
8.693743496526664103e+02
5.249051649426652375e+02
1.433757149163288659e+03
2.668501485684762429e+03
3.678246189228949788e+03
4.208202918147816490e+03
3.654127161583644011e+03
3.146686531189714060e+03
1.176159758239934490e+03
-2.163481586044328651e+03
-7.692185664987689961e+03
-1.327965613409624530e+04
-1.806291598109610277e+04
-1.920922148294265935e+04
-1.691836085869025555e+04
-1.380640842449981938e+04
-1.156079364871943471e+04
-9.190768971486249939e+03
-6.923901464468885933e+03
-5.624598375134989510e+03
-2.516529190079835189e+03
-9.439169543202066279e+02
-3.664778071484095562e+03
-2.688903917603312948e+03
-4.801524011160876398e+03
-1.378879552024240911e+04
-2.004047468208290593e+04
-2.294510410210183181e+04
-2.507728263352382419e+04
-3.329276013167929341e+04
-3.480652916320481745e+04
-3.006802913201937918e+04
-2.515756750809432560e+04
-2.082468520504961270e+04
-1.974100877180063981e+04
-1.912724696984515322e+04
-1.608607986733511098e+04
-1.070133898524029064e+04
-4.352535202000138270e+03
6.292212236477759006e+02
-4.080592182100158425e+02
-2.545264825748435214e+03
-4.699471087594262826e+03
-7.344290635983316861e+03
-1.423408118865659890e+04
-2.490172092437405081e+04
-3.587040360257543944e+04
-3.536891777738119708e+04
-2.678268523334681595e+04
-2.346777504227980171e+04
-2.037725349422307409e+04
-1.247246187370621738e+04
-5.807110330103867454e+03
-7.107154287085077158e+03
-8.378677122721221167e+03
-2.778394554504558528e+03
1.042406048535856462e+04
2.303175508322127644e+04
3.399614177086486598e+04
3.525049870608180936e+04
2.099493391825410072e+04
1.451267342039045798e+04
1.194306606741263749e+04
1.162395612985307935e+03
-1.031814381013664388e+04
-1.866760797100406126e+04
-2.612796014646950061e+04
-2.350086353903438066e+04
-8.965038862191822773e+03
-1.399538888168907761e+03
1.496599326845522228e+03
8.016524485408635883e+03
7.390306886596871664e+03
-8.563757812927560735e+03
-1.679102769319956496e+04
-1.217828897982436138e+04
-4.931995873150121042e+03
2.464224937385618432e+03
8.516784735156265015e+03
2.274421761516004699e+04
4.531727990337907977e+04
4.804398018362449511e+04
3.160986124019750787e+04
2.142380308332725690e+04
2.383649346484838316e+04
2.330540672062768499e+04
1.947744721453013699e+04
1.780093901303112216e+04
1.848802549937998265e+04
1.724466665494535118e+04
8.920738579689555991e+03
1.027506164806434390e+04
1.754639034766907571e+04
2.051965371985795719e+04
1.582268491716062817e+04
1.164023644337235783e+04
1.158341837474970998e+04
1.281036690693729179e+04
1.171009023873274600e+04
9.048536310252598923e+03
3.229429854286032423e+03
-3.424053728900746592e+03
-8.640801783556978990e+03
-1.086761145007622190e+03
1.034513357961835391e+04
1.182844377826204254e+04
7.205887547902557344e+03
9.677295729718942312e+03
1.275139393286723316e+04
1.243417481560509623e+04
1.187177036590240459e+04
1.425601763892136842e+04
1.435956271429073058e+04
1.318399009108285281e+04
1.568965459087251475e+04
1.707037359650175495e+04
1.663023853783758022e+04
1.925103000263706781e+04
1.828933927143467736e+04
9.967696596976122237e+03
-4.969862986710564812e+00
-4.536519005297919648e+03
-3.732168176505769225e+03
-9.597284351673981291e+03
-5.730119625649803311e+03
1.226706083751553888e+04
1.820592698579887292e+04
1.143638871182083858e+04
2.301149801880820178e+03
-7.070634560976295688e+02
7.565490396557019267e+03
1.078539326035265185e+04
5.323086554517773948e+03
1.721057183394976562e+02
-8.524721361137631902e+03
-1.898756103935630745e+04
-1.989875456967532955e+04
-1.844049136463876857e+04
-1.752098540573854552e+04
-1.085464290308978343e+04
-5.170803618692007149e+03
-5.756657344999940506e+03
-1.468738553061162020e+04
-2.199314622420232627e+04
-2.275934898121005244e+04
-2.682937864933522360e+04
-4.376450934750845045e+04
-5.674204484327298269e+04
-5.416325203854559368e+04
-4.252546784532908350e+04
-3.434504963121456967e+04
-3.346815459284774261e+04
-2.765401111808658970e+04
-9.087845034148960622e+03
6.089228913608711991e+03
1.163086790214791108e+04
1.338363943197246590e+04
1.610845469228282491e+04
1.188025737647898495e+04
1.059185026038954675e+04
1.484006343225445380e+04
1.799986371641020014e+04
2.189394390461096918e+04
1.923014704463829912e+04
1.525441169408092537e+04
1.379459154351918914e+04
1.284535279565055680e+04
9.805366389125969363e+03
8.163526095780949618e+03
8.084737046697623555e+03
6.439775913419923199e+03
4.105428403138365866e+03
3.028909807747113518e+03
2.244178427520372225e+03
1.003060341351623741e+01
-1.562569064277105099e+03
-1.288670937382532884e+03
-8.233771539024374420e+01
9.037250113860301326e+01
2.214603796766113248e+02
5.459503359771931628e+02
1.768804865318056727e+02
6.554462421612868184e+02
1.433810170108043394e+03
-4.639924461605326655e+02
-7.354798236329570500e+03
-1.401748345062288536e+04
-1.255405147223697168e+04
-7.639751457146800931e+03
-7.539560663380147162e+03
-1.216258974681302789e+04
-1.390463572492094499e+04
-6.563410109229130285e+03
-1.322849790821692750e+03
-1.303952726752920398e+03
-3.960523580788784329e+03
-8.725277476017743538e+03
-1.064523673961409804e+04
-7.325203180550111938e+03
-2.091901510926762057e+03
3.006885300693875706e+03
1.144581539758888312e+03
-2.030522772853719061e+03
-3.571314703114378972e+03
-1.669557057921129854e+03
-1.629040493192241911e+03
-6.758891349834568985e+01
1.255965009199304632e+03
-4.111086372276512520e+03
-1.076527934022515910e+04
-1.379240115912842703e+04
-1.834538911779343834e+04
-2.333599894068626963e+04
-2.302887158503183673e+04
-1.616853552678072992e+04
-1.103874321747969225e+04
-9.078192841025544112e+03
-6.794526794632008205e+03
-1.106941295157669992e+04
-1.240559815608808276e+04
-7.074711532731270381e+03
-6.241002459319112859e+03
-7.375114654894205160e+03
-7.484941440227067687e+03
-7.042144820956220428e+03
-2.798531341788714144e+03
-1.008777110609957617e+03
-2.002430892318324140e+03
-6.828369545963416385e+03
-1.379032798102531342e+04
-1.704404800962013178e+04
-1.690428150004136114e+04
-1.063068627787111109e+04
3.974101123517841643e+03
1.636547714055649158e+04
2.076987439286335939e+04
2.289560689706611083e+04
2.266793080799826203e+04
2.353307162080299531e+04
2.195949049440237286e+04
1.864458655212100712e+04
1.752869222334028746e+04
1.658026555028435905e+04
1.314045756949632596e+04
1.180229438921789006e+04
1.405003150161484336e+04
1.574402703809369814e+04
1.854364956236771104e+04
2.195310385669273819e+04
2.274455660083204566e+04
2.000218578852617793e+04
1.433912012662162670e+04
9.381717138504509421e+03
1.021835105607948208e+04
1.001954309766599181e+04
6.356511196492517229e+03
6.766252576136315838e+03
1.217995083471496582e+04
1.595573409206526594e+04
1.436979302540387107e+04
1.346413516263285055e+04
1.474668575664643686e+04
1.362649936534588232e+04
9.001711738193092970e+03
7.485537362404606029e+03
4.548286878688826619e+03
2.971557478518026869e+02
4.563787434563412830e+02
2.995901242410836403e+03
2.831822782495462889e+03
4.904141237577362517e+03
8.287785110772296321e+03
9.160698622371672172e+03
4.737149207675513935e+03
5.091462880495898844e+02
4.444416494671542637e+02
4.231941924431748703e+03
6.655545432598653861e+03
7.961421141159953550e+03
1.041494900510832485e+04
9.034571778708912461e+03
3.250277687971063642e+03
-2.435452436390508865e+03
-3.790854871319955691e+03
-1.586968270958043831e+03
9.391158952631751617e+02
1.125953922768912662e+03
-2.484088145105918102e+03
-7.487955946981480338e+03
-9.219885460950183187e+03
-9.722048769107095723e+03
-1.045737273459486642e+04
-1.050502304143323818e+04
-1.027042928167942046e+04
-6.244074026690238497e+03
-4.163271843123353392e+03
-4.468136735891708668e+03
-3.888454612879433171e+03
-5.124159794828395206e+03
-6.234495480339212918e+03
-3.290786145252509868e+03
-1.315875408869987268e+03
-2.766481622807745680e+03
-3.539601791707350912e+03
-3.602643700879135622e+02
-1.174499161438298415e+03
-5.725243629658002646e+03
-7.363817392518887573e+03
-7.777143566842493783e+03
-7.110536971727812670e+03
-8.433658440349125158e+03
-9.701729142252634119e+03
-1.030663701134181247e+04
-1.254737431101112452e+04
-1.200748640216517379e+04
-9.940201252208074948e+03
-1.012100252958279270e+04
-1.053473844928926883e+04
-8.012198018387641241e+03
-4.123855129634450350e+03
-2.912511037402395786e+01
1.540022463293274768e+03
7.342527182756159618e+02
1.347350152975354831e+03
2.902342635318375869e+03
2.350843624009376072e+03
-5.440418809096495352e+02
-3.693323778455319825e+03
-7.494748758511853339e+03
-8.768092401456700827e+03
-4.082188980859419189e+03
8.944211481704720654e+02
-2.552451004255455700e+03
-6.834343304867671577e+03
-8.327643076457659845e+03
-4.013593368525706865e+03
-1.525214456400332438e+03
3.993265491165816456e+02
-3.042807006556166925e+03
-9.112102132124244235e+03
-1.192789855375058869e+04
-1.401431886324205334e+04
-1.559233203430261347e+04
-1.494482229180377908e+04
-1.227103810365360187e+04
-9.021325222370192932e+03
-6.664686827818500205e+03
-5.243650211361429683e+03
-4.048001691860278697e+03
4.186683643866436455e+02
3.544432049103287682e+03
1.920780930552656173e+03
3.496489816562587976e+02
-5.363248632185151337e+02
-7.983332835523852964e+02
-8.212626125684395220e+02
-4.207948663622272761e+03
-6.418080820227865843e+03
-7.316564880497852755e+03
-3.780421193376530482e+03
2.916308602607655757e+03
5.593069844205749177e+03
6.133497354971864297e+03
6.121171287441266031e+03
3.765438255531727009e+03
2.308072964237149336e+03
5.353313232136806619e+03
9.745281597119321304e+03
1.230372194757285251e+04
1.377475487651829826e+04
1.149447972136279532e+04
7.567623995429723436e+03
6.860268493020243113e+03
6.347659779997973601e+03
5.561666980033373875e+03
2.827564746231926165e+03
4.609550281594140984e+02
1.805155411845179287e+03
3.752986339096074971e+03
4.693104948413467355e+03
4.550177449426921157e+03
4.346529389822509984e+03
3.710899301639853547e+03
5.252019269183047982e+03
6.250981245402433160e+03
6.562287419682313157e+03
7.808728285284809317e+03
8.407484492985409815e+03
6.629838915428446853e+03
3.884447299993736124e+03
3.038473477284278943e+03
3.142492787304935518e+03
2.639952478108928062e+03
3.276352416758257732e+03
4.130651811522281605e+03
2.869016735984000206e+03
1.553095836620942464e+03
1.773876416663846840e+03
2.775761691975118538e+03
5.465684629835166561e+03
6.301055391183973370e+03
5.455613212895029392e+03
4.445900471652586020e+03
3.327957147815071949e+03
2.717788099730240901e+03
1.484353430842738589e+03
-1.100086723772824143e+03
-2.347407523673180094e+03
-2.851065274529928502e+03
-2.951396753662477749e+03
-1.316561490658599951e+03
-1.404604093410819132e+03
-4.823845655095804432e+03
-7.699892937626902494e+03
-8.043781925855398185e+03
-7.890800607367320481e+03
-7.052925048131231051e+03
-4.743381815474151153e+03
-3.999948916598586038e+03
-2.356622590276844676e+03
5.962438226928799168e+02
3.901957889002358570e+03
5.042566485084375927e+03
4.696078664446408766e+03
4.286629664206146117e+03
3.890173436435255098e+03
1.939707247786606786e+03
-2.406477752790854538e+03
-3.667171168284540727e+03
-3.802443650505425921e+03
-4.237219747769229798e+03
-4.156254461635961889e+03
-4.754406861202842265e+03
-5.043661744938527590e+03
-5.183028292156214775e+03
-5.768358161439932701e+03
-6.523477377406749838e+03
-8.118103186566300792e+03
-8.112153352951858324e+03
-5.795721843077195444e+03
-4.415795432360600898e+03
-3.998064982849351509e+03
-1.792878196262787924e+03
9.038860941850421113e+02
5.845822916466360084e+02
-2.810617984895695542e+01
-2.284856803613707143e+03
-1.469189481929214026e+03
9.147822354584460527e+02
1.390169091633038533e+03
9.539340132315548999e+02
1.330452654487010022e+03
3.558010377080652233e+03
2.868896402681630661e+03
1.525021695193815958e+03
6.699973220577649045e+02
-8.454446630829222613e+02
2.815890043498890236e+02
2.415645703495167254e+03
3.123875036218480091e+03
4.861187837991466949e+03
5.608371605442560394e+03
5.006500671172086186e+03
3.126454359285229657e+03
1.684257890518412069e+03
3.029369793054645015e+03
4.175923336650771489e+03
2.719686676623825406e+03
4.448023533754332561e+02
-1.074650814640128146e+03
-1.290772651340508332e+02
-5.541355944391792718e+02
-1.262989813204124857e+03
-1.306360294478148489e+03
-1.333041223785415468e+03
-3.137684633831779138e+03
-5.185723098319314886e+03
-1.948542698282734818e+03
1.795064738292422589e+03
3.458218982897008118e+03
5.200672466678022829e+03
4.297519365497818399e+03
3.177058261524564386e+03
3.612598584853425564e+03
2.591193620031310729e+03
1.974919519088160541e+03
1.538127899483485635e+03
6.755939209386050379e+02
1.199037431025634248e+02
-1.864109783809261955e+02
-9.894600636076188493e+02
-6.425087082623277865e+02
-4.291945185329262813e+01
-6.819792831739533767e+02
-2.458277080667207429e+03
-2.703806004045616646e+03
-2.378723422299834510e+03
-2.154647973758496391e+03
6.850004803786878256e+02
2.855415758654758065e+03
2.044623398431095438e+03
4.035740049655464645e+02
-3.114800488746765339e+01
9.734330107215287171e+02
1.504246226185734940e+03
8.128957751743314475e+02
-3.334957930595792845e+02
-3.249518494552534321e+03
-6.213102937322348225e+03
-7.507313589578825486e+03
-4.802602680988999964e+03
-1.015932007773269675e+03
1.269784319348035098e+02
-5.071871468280745034e+02
3.130357876358867770e+02
3.483643793458261371e+03
6.340991458173666615e+03
7.108023849591054386e+03
6.808515301446684134e+03
5.527617655975070193e+03
5.422657847730009962e+03
6.476422559876072228e+03
7.186010170392957662e+03
6.728476641499476500e+03
2.760536608915504075e+03
-2.223029571173075510e+03
-5.941123562157402375e+03
-8.049963033685931805e+03
-1.006768007982147537e+04
-9.004126320515890257e+03
-6.570933660291924753e+03
-6.277185186328852978e+03
-7.501180930101690137e+03
-7.371239180978899640e+03
-5.144347260045518851e+03
-9.634986853647002363e+02
1.179149212653351242e+03
1.183892128235974951e+03
-1.481076350909767214e+01
-2.776859748610709175e+03
-2.843532722585217471e+03
-2.352107432410358342e+03
-7.069825086284193105e+01
1.934837958713253556e+03
5.758255684745430472e+02
-5.925989832585252088e+02
-1.419662617158170406e+03
-1.751459194918276580e+03
-2.244955909960808640e+03
-3.129231523033061421e+03
-4.607343150219442578e+03
-5.411590149526812638e+03
-5.073935498245109557e+03
-4.815196086118069616e+03
-2.183380543417841182e+03
1.606925410052105008e+02
4.140528919238045660e+02
1.223721329406263436e+02
4.186808442510143209e+02
8.932679993198937609e+02
1.726131442121929240e+03
2.152929280302680581e+03
3.285020247928754543e+03
4.673752953985070235e+03
3.973976261462020375e+03
3.106603159868246621e+03
2.534558728040214646e+03
2.062968536636502904e+03
7.918634401132026142e+02
-6.573373911993380148e+01
-2.241677273566346685e+03
-3.105127450537844652e+03
-2.347137474690098770e+03
-5.915155202987909888e+02
-5.642193316011429260e+02
-7.424561008474779555e+02
-1.043369747472804363e+02
7.471115903137709893e+02
1.326107577112699346e+03
1.404873627581416486e+03
1.916382579935913100e+03
2.250624167286403917e+03
3.329755830177423377e+03
4.452982178728613690e+03
4.032403912449659856e+03
2.947205235930630352e+03
2.044301470440737376e+03
1.537213996296149844e+03
9.588545177875705576e+02
4.459144249553534110e+02
-3.174083163879183189e+02
-1.311236642538197657e+03
-2.266074807781928939e+03
-2.841812507064987130e+03
-2.866241661108406333e+03
-2.259733154098413706e+03
-9.609130765378682781e+02
-1.758225510709141588e+02
5.156361816433768581e+02
9.005477878283525115e+02
1.524800828637356062e+03
1.875241974319343399e+03
1.970862161357581726e+03
1.400745374915494722e+03
9.559510844638725757e+02
1.516520467011581559e+03
1.539261924537218874e+03
1.247376407736338933e+03
5.470499753897937580e+02
-2.657205051410827537e+02
-1.281933603321646615e+03
-2.456581878576885629e+03
-2.898615296500252953e+03
-2.849658280564311099e+03
-3.350653095157618282e+03
-3.602602394416187963e+03
-3.507759732649633406e+03
-3.598394810456487448e+03
-3.331229438064682199e+03
-1.536043780171042044e+03
-7.316885929798371535e+02
-1.281922181651532355e+03
-1.880707903227036923e+03
-1.279355695358064850e+03
-7.229940374440948290e+02
-6.634974452976090333e+02
-1.046791608200491055e+03
-1.523552564796510069e+03
-2.139519650304816423e+03
-1.830842432520718376e+03
-1.784890948366135603e+02
1.420636079330507528e+03
1.726783825383560497e+03
1.326027460886019981e+03
1.385163867790552331e+03
1.115172722744432576e+03
1.278132727319775086e+03
1.467249860480222878e+03
1.595570251889912015e+03
1.152214316132302201e+03
6.570802721715056123e+02
9.542054428403037036e+02
2.109734830942457393e+03
3.914647896651049450e+03
4.946987417476376322e+03
4.157955390673607326e+03
2.771729261123904507e+03
1.764247565594020216e+03
6.184031962861830607e+02
-4.897828949290863534e+02
-1.219331598444925703e+03
-1.501244597147620198e+03
-8.733473306830832144e+02
-1.134586749498735117e+03
-3.657043126332634074e+03
-5.926743871774140644e+03
-5.119833813426079359e+03
-3.286157444043732085e+03
9.724327169912202180e+02
2.360044699177767143e+03
2.821718944446931800e+03
3.033415208231580891e+03
3.627210437456983072e+03
3.895215538615223068e+03
3.816372789272905266e+03
3.959601170838624967e+03
3.843858878841178466e+03
2.607002558140007750e+03
1.319072163118569279e+03
3.563207882267404898e+02
-1.517265038757930824e+03
-3.559864602921804362e+03
-5.220505738641755670e+03
-5.806299899237316822e+03
-5.316402809345527203e+03
-4.622725760839859504e+03
-3.425377006910307500e+03
-1.707502510416604082e+03
1.485815173094961892e+03
4.257680108179691160e+03
5.170183771319449988e+03
4.941289902310313664e+03
4.548982375399198645e+03
4.727398193369246655e+03
5.167702463353694839e+03
4.167640989576460015e+03
2.617086237461281144e+03
7.140095086193724683e+02
-8.367144110026592898e+02
-2.001130240266794772e+03
-3.619329736391633560e+03
-5.750333196907236015e+03
-7.162148765378395183e+03
-5.689870160292617584e+03
-4.467447596150698701e+03
-4.322023092126226402e+03
-4.398834065853538959e+03
-4.120919825154261162e+03
-2.055222768238096251e+03
-1.179762141034069742e+02
7.786997242152380068e+02
1.631940872563469838e+03
2.201735247680104294e+03
3.449146630260715938e+03
5.357873418158554159e+03
5.676694190717867059e+03
4.738615329721520538e+03
3.570610045119143706e+03
2.532571134339222681e+03
1.710252474815045161e+03
1.462746806685257070e+03
1.576092277176196603e+03
1.238181683791702199e+03
6.180035415083594899e+02
3.863233232384129110e+02
6.595299993349182444e+01
-3.960492239426988021e+02
4.218327642621494533e+01
7.567559424257859746e+01
5.784235993607667297e+02
2.063463914032003231e+03
2.811759674414143319e+03
2.875062268383312130e+03
2.746268889250764460e+03
2.373515644185765723e+03
1.769783216131638255e+03
1.124000289480628908e+03
-6.012855453469784095e+01
-3.446565565469144985e+03
-5.564369142199942871e+03
-3.530606850440917697e+03
-2.820407902266372730e+03
-4.954687462928600326e+03
-4.323471795473370548e+03
-3.810237151194228773e+03
-2.810130330649837106e+03
-3.278105924766701719e+03
-8.712485390763088162e+02
-2.073378778605990192e+03
-1.150104036920807893e+01
1.349227119232632731e+03
-4.811692410558747923e+01
1.323812591410536754e+02
8.686686972278795338e+02
2.957346862290763170e+02
1.825537561485087281e+03
1.288978898745933066e+03
