-7.996842990964392811e+03
-7.929390204788643132e+03
-7.497463263310966795e+03
-7.949132673945043280e+03
-6.748332694428126160e+03
-1.940996231656429472e+03
-1.667073918034983535e+03
-6.214461356473748310e+03
-4.161099794059250598e+03
-6.559335604136202846e+02
-5.002925665998256591e+03
-5.726001473225631344e+03
-6.356140825046280952e+03
-6.628296324675395226e+03
-6.005452687427692581e+03
-5.538569677820309153e+03
-5.154547796775527786e+03
-5.707333284154258763e+03
-6.155896517115077586e+03
-6.069251454951893720e+03
-4.669319669349863034e+03
-4.110490656859319643e+02
-4.010300984444916594e+03
-5.662999450960793183e+03
-5.440095493395038829e+03
-4.827551229529430202e+03
-4.556307008009793208e+03
7.647504688969314657e+02
6.562713684852723418e+03
7.524586993567510035e+03
7.407346457217737225e+03
6.955053869611510891e+03
6.168827476852410655e+03
5.770691793356828384e+03
5.102679223149239078e+03
4.927804760802440796e+03
4.803079682948686241e+03
4.572596059558351044e+03
4.738445231489229627e+03
4.876668588153470409e+03
4.873292358272706224e+03
4.557283475326463304e+03
4.067726503096412671e+03
4.104773980733677490e+03
4.565609746844958863e+03
5.055217263386785817e+03
5.025749295813516255e+03
5.264468954751938327e+03
5.250365813514292313e+03
4.778429119832692777e+03
4.572672610260263355e+03
3.968223729982480108e+03
1.278024439774859502e+03
-6.900369966947243938e+02
2.970020072683758826e+03
3.059276291884001694e+03
2.454905061859877151e+03
2.412874104114008333e+03
2.777860588860712596e+03
2.882109541235682627e+03
3.246745500251388876e+03
2.505322387625797546e+03
2.530146867935902719e+03
2.796225653407526352e+03
2.577615795075959340e+03
2.703313199820676800e+03
3.072268673397898965e+03
2.916509794585715099e+03
2.896052315528506369e+03
2.892863260806561357e+03
2.494982179855206596e+03
1.916421688979609371e+03
1.660060856107538029e+03
1.489624647437002068e+03
1.713686495454311626e+03
1.369860996001459398e+03
1.510906133058447040e+03
1.640102971916437582e+03
2.041144950367480078e+03
1.827759388469991336e+03
1.164362741178914575e+03
5.385983725923059637e+02
7.073581307900825550e+02
1.398583770999290209e+03
1.653221506725421705e+03
2.007281581179826162e+03
2.376750393358385281e+03
2.620630736216180139e+03
2.607970010221716620e+03
2.786712911409867047e+03
2.338809008321321471e+03
1.527221839167956432e+03
1.368916875842549416e+03
1.021822642956964842e+03
1.316957969779781251e+03
1.327226031111942575e+03
9.535556522664745671e+02
8.239865931388326317e+02
6.845264655125904483e+02
5.211339092313123729e+02
3.087441077204156272e+02
3.552590010484263985e+02
3.967219936792890849e+02
6.811245329076858752e+02
5.144231104675934603e+02
7.905605608182014521e+02
1.131564754074285474e+03
1.370443307766399585e+03
-7.128508165620274895e+02
-3.877342669347325682e+03
-9.659041353300604897e+03
-1.076102388713098117e+04
-1.050528455830988605e+04
-1.063782431050261948e+04
-9.766709577315985371e+03
-6.636987731373139468e+03
-7.114652840122763337e+03
-9.222698696193556316e+03
-1.055410261912720307e+04
-1.093712191870824245e+04
-1.041481585263703892e+04
-1.015758475800685665e+04
-1.016269557755905771e+04
-9.018284459265196347e+03
-5.498416638781554866e+03
-3.505060871431218402e+03
-7.709284385549084618e+03
-7.943057686583150826e+03
-7.404348858874331199e+03
-2.877153840592722190e+03
2.530462943156682741e+03
3.231553465756756850e+03
3.135158490927197363e+03
3.130206001617439142e+03
2.756779054561208795e+03
2.417770149023513113e+03
2.275189080382075190e+03
2.387010128367803645e+03
2.408211402550999082e+03
2.621808135449201473e+03
2.701823006909723517e+03
2.342245970312779718e+03
1.999068030589902264e+03
2.139313512839374198e+03
2.467015023670549908e+03
2.485139687533045617e+03
2.277787687040241508e+03
2.421010395759260973e+03
3.006858662018211362e+03
3.100332401697376554e+03
2.985472325608194296e+03
2.728279130375154182e+03
1.715781811310259400e+03
1.098993299436863254e+03
1.113951189287493435e+03
1.200614694203263753e+03
8.590848163504199420e+02
8.613698382160729352e+02
1.168485189986197383e+03
1.347478612228709380e+03
1.000371764602616850e+03
1.018193965498370403e+03
1.282003922991419813e+03
1.175823169454399476e+03
1.489720910463163364e+03
1.915720793439015779e+03
1.952881777582554605e+03
1.895281455435574117e+03
1.672942804106537778e+03
1.579910617884839439e+03
1.730218043549218237e+03
1.282866642055995953e+03
5.217644902551772930e+02
3.190984789876066543e+02
7.223642134479139258e+02
6.519667068932152461e+02
4.686383263906065508e+02
7.423629317557529248e+02
6.011263681376550494e+02
1.169862312638736483e+02
-9.050256718961885554e+02
-4.978968665188159321e+03
-3.065926194535639297e+03
-1.059987420327265909e+03
-2.882136371557639904e+02
1.434013973785385474e+02
1.268508749581218069e+02
2.271815989877543700e+02
8.885780359307512981e+02
1.388009447864315462e+03
1.374437598404387245e+03
7.529288016538733928e+02
-2.846243392142312345e+01
-2.737359696007716252e+02
-3.829110241598634730e+02
-3.599918006973389311e+02
-4.338779444354094608e+02
-2.595296154681395251e+02
-4.559528424752396631e+02
-6.781364661003606216e+02
-8.569783070781953711e+02
-8.995510101310078426e+02
-8.699030080126004805e+02
-1.013950954933688422e+03
-7.156912806571092460e+02
-9.491771947595605070e+02
-5.793613493161366250e+02
-1.762372553768001069e+02
1.041745189469907871e+02
2.009792611791177990e+02
1.552521878246233484e+02
2.479596403240950053e+02
5.505211235842069328e+01
-2.214935697599691196e+02
-2.457189973544579971e+02
-3.736022765322360897e+02
-1.961140735597969922e+02
-8.328145895911623597e+01
-5.811317513603596581e+02
-4.196957092718311060e+02
-1.089863032941730125e+02
-3.689988604905032048e+02
-4.407095752377572921e+02
-7.313598784108025086e+01
5.796797717906066509e+02
7.377245946986990930e+02
8.059585090396750502e+02
7.863516339076999202e+02
8.718853560487431196e+02
1.238562468610280803e+03
1.502389336570558271e+03
1.441341626014413805e+03
4.673760336012747985e+02
3.205102944737387247e+02
3.056305358118618187e+02
-2.013021538670052166e+02
-3.333582826079333472e+02
-2.785812046102857380e+02
-3.149426735996805178e+02
5.064753710858216778e+02
3.745831851975610789e+02
2.234130987542976641e+02
4.658464330550276600e+02
3.997866136277194187e+02
4.101914525153377440e+02
3.760913148464744040e+02
-1.343508125879624458e+03
-3.933642609706013445e+03
-1.521850961193647436e+02
1.167012922111525313e+03
1.353964400466936013e+03
1.504602123104050861e+03
1.225934459832092216e+03
1.278738163586148175e+03
1.115924737170645585e+03
1.079412335428052756e+03
9.191162109810296670e+02
1.014099614269961876e+03
1.294198451843142266e+03
8.543080605899392594e+02
7.554664713295792353e+02
1.079451064668856816e+03
1.316119183571654503e+03
1.383569921546219575e+03
1.252612478663314505e+03
1.631224286325420735e+03
1.754946123568213352e+03
2.140323730524884013e+03
2.548254553578552986e+03
2.910695289311355737e+03
2.728564941472671762e+03
2.438727761176427521e+03
2.428130081868897378e+03
2.524717548311463361e+03
2.284524295736327986e+03
1.788416304152215844e+03
1.926207462403124964e+03
2.105923217081672647e+03
2.082384784560314074e+03
2.138568186193360361e+03
2.260597778025093248e+03
2.115448016031450152e+03
2.019131682556188935e+03
2.152614442578057151e+03
2.655301755807578502e+03
2.494984309920840133e+03
2.088214285879430008e+03
2.513629807954784610e+03
3.343099259991708095e+03
3.460736947413986854e+03
3.882517364295405059e+03
3.760485137734015552e+03
3.200442327125233078e+03
2.936207392573144716e+03
3.077803308968202600e+03
2.938241734811449078e+03
2.739518069379848384e+03
2.561502962589125218e+03
2.439169504974054689e+03
9.577545740266706389e+02
-1.924702162041143993e+03
-7.637120563108722308e+03
-9.587222138684366655e+03
-8.840945249089105346e+03
-8.122455995870801416e+03
-7.430157921749463640e+03
-7.354053598730005433e+03
-6.428037068539212669e+03
-6.181189595924908645e+03
-6.274349079818896826e+03
-6.912486939148038800e+03
-7.072079668235429381e+03
-6.454875966585142123e+03
-6.069862111962841482e+03
-5.579073879639984625e+03
-1.135381232233033188e+03
-2.042634220321188195e+03
-6.199867044399496081e+03
-6.638028569286658239e+03
-6.903110080755022864e+03
-6.545034528556979240e+03
-6.159644743628276046e+03
-6.119740377267872645e+03
-6.066222707430792070e+03
-6.043804887074522412e+03
-6.080983898485510508e+03
-5.657554478568871673e+03
-4.909028602486754608e+03
-4.629940993510805129e+03
-2.839612333734423828e+03
2.309077092503221593e+03
-7.500743093187357999e+02
-4.679728673193540089e+03
-4.780602425299976858e+03
-5.265050971463633687e+03
-1.916089144973976772e+03
4.020671026183540107e+03
5.322499836508425687e+03
5.755317583112881039e+03
5.887549069431797761e+03
5.722189762849871840e+03
5.920438961830520384e+03
5.789946140913581985e+03
5.370686742030810819e+03
5.480798497281977689e+03
5.340133447625733425e+03
5.428736853212592905e+03
5.335465200856524461e+03
5.492530420018797486e+03
5.611160484072760482e+03
5.767630948537153927e+03
5.338064258746047017e+03
4.690347379571103374e+03
4.061235692172529070e+03
3.789879928865320380e+03
4.116754451493584384e+03
4.405187737536680288e+03
3.892497032321705774e+03
3.773484067939663419e+03
3.764624800368098931e+03
3.708360509011472459e+03
3.216922413647547273e+03
3.135384790617752969e+03
3.267468204308065651e+03
3.113933194277414259e+03
2.576606903602488273e+03
2.466429550215664221e+03
2.504829099413846052e+03
2.850048706611412854e+03
2.881153811093309287e+03
2.808212224401157982e+03
2.604071125962874703e+03
1.961191647016471734e+03
1.812665737485613818e+03
1.567363258566629383e+03
-3.815721735657468798e+02
-4.056813081506331855e+03
-2.142096990556304377e+02
5.973794207888223582e+02
1.016461130443382217e+03
1.351966700852601207e+03
1.397984479597943391e+03
9.149122975955913262e+02
9.272207582089491780e+02
7.337015382284884026e+02
8.445213221127164616e+02
1.019513082003627687e+03
7.138153905797107655e+02
7.970429724927040525e+02
4.817803271943067784e+02
8.097840913060089179e+02
4.415222111855062508e+02
8.076301820532921738e+01
-5.106259524641747021e+02
-5.398011199247943068e+02
-9.083047545471822559e+01
1.921071262701607907e+02
2.768313242028956438e+02
-4.383367290828585539e+01
-6.056517636092499970e+02
-9.272830928126016943e+02
-1.403923911850578861e+03
-1.526472667776507706e+03
-1.598968108093782121e+03
-1.245493373158400800e+03
-1.101891536659165013e+03
-1.035924083537431443e+03
-1.025642055737415376e+03
-1.050987093748727830e+03
-8.728224894239667719e+02
-6.543288148366339101e+02
-1.107403861788840004e+03
-1.029991935493613482e+03
-1.475167609167466935e+03
-1.840903742351318442e+03
-1.802846960824148027e+03
-1.926893590668862998e+03
-2.378987191907012402e+03
-2.208170894463230070e+03
-2.302342160324701126e+03
-2.043551122702121120e+03
-1.852972758678905848e+03
-2.028660327667350657e+03
-1.884360311802005299e+03
-1.643370278597679317e+03
-1.598568073987523348e+03
-1.623421124825190191e+03
-2.121010207823106612e+03
-5.025371804233027433e+03
-9.428545658717703191e+03
-1.215368928525371302e+04
-1.229896803099393401e+04
-1.204606658984663773e+04
-1.214879444372364924e+04
-1.252325516977505322e+04
-1.237331808787681803e+04
-1.186676441733126921e+04
-1.116559049144570599e+04
-5.534899562536908888e+03
-1.525306578000535637e+03
-4.736312765126886575e+02
-2.196996225868793999e+02
-2.516651656926147211e+02
-2.985761273958090669e+02
2.066272450139354078e+02
5.166896966971522716e+02
7.386421207940793465e+02
7.686606096491051403e+02
1.112681292179515367e+03
1.113521922467662307e+03
1.305062760513347257e+03
1.116261507507155784e+03
8.962969468697195907e+02
6.980370243023313606e+02
2.989778482560624866e+02
4.671638111641293563e+02
1.184665651315257492e+03
1.361393519350769566e+03
1.001183549198404990e+03
1.086728825060127747e+03
1.552980505980460066e+03
1.556338676139274185e+03
1.895024840039462106e+03
2.000618203368393779e+03
1.610644754837092478e+03
1.571176845483403213e+03
2.010112797468890676e+03
2.427430235919530787e+03
2.644988385201571418e+03
2.743645429468126622e+03
2.593474934883212427e+03
2.846428227869434977e+03
3.076479952155291357e+03
3.297537387549722553e+03
3.406218108202319399e+03
3.483494018897988553e+03
3.225638971756277442e+03
3.022780820780846625e+03
3.129859288817685865e+03
3.178500099818126273e+03
3.191141420309552814e+03
3.368675348522592230e+03
3.431259875137318431e+03
3.500877265164994242e+03
3.399487922474563675e+03
3.364939937132018258e+03
3.684084103481143757e+03
4.441890723280193015e+03
4.811340869257497616e+03
5.110499407535046885e+03
5.120137754924247929e+03
5.910291307911938020e+03
5.980952925208895067e+03
5.389948446046289064e+03
5.384099911685961160e+03
5.522352056353571243e+03
5.330574527666535687e+03
5.626667353178530902e+03
5.543580318870569499e+03
5.734152009046532839e+03
5.458326292821984680e+03
5.591011124427735012e+03
5.109097599935628750e+03
2.324772698320148265e+03
-2.540064162614864927e+03
-6.020065690209665263e+03
-5.816103401030007262e+03
-4.703205564148169287e+03
-3.421464987861616919e+03
-2.516945460323775023e+03
-2.208767879142591482e+03
-2.122971538821195281e+03
-2.112634087473121781e+03
-1.654806193520838178e+03
-1.788557407829717704e+03
-2.102004124953738938e+03
-2.050176700195043395e+03
-2.341131790830767841e+03
1.153002872058382763e+03
3.642083696305887315e+03
-1.225998412789454733e+03
2.327637611283466299e+02
-1.244616223442144019e+03
-3.384163038926502850e+03
-3.414055085082031383e+03
-3.311414232047873611e+03
-3.219367369897498520e+03
-3.145887535400853722e+03
-2.988005281476534492e+03
-2.692754592276063704e+03
-2.054155605507742166e+03
-2.390241026940043866e+03
-4.187102732608118458e+03
-3.598818366319065262e+03
-5.304791809699432861e+02
-5.066074826849901910e+03
-6.949623998648874476e+03
-7.111221872863387034e+03
-5.840874208569295661e+03
-4.245609006989910995e+03
-3.614512763656861807e+03
-3.009651073302428813e+03
2.010008458207162903e+03
2.663521204589890658e+03
1.659788528330335794e+03
2.012806735861294101e+03
2.886577728822958761e+03
4.726002574860499408e+03
5.134092254838434201e+03
3.467865258919213375e+03
1.901348206379481553e+03
8.814719089746835152e+02
-1.357108209577614559e+02
-3.195193992136886664e+03
-7.719046506754219081e+03
-1.021431132209061434e+04
-1.216982657601952997e+04
-1.283445839850350785e+04
-9.288899549742891395e+03
-4.171294198106423210e+03
5.050990032729658310e+02
4.942255345668316409e+02
-5.480354535115287007e+01
1.082075180137405596e+03
8.376137059970154723e+02
5.465141109524149243e+01
-3.943311974769160315e+02
-1.293265513982371658e+03
-2.330081412516050023e+03
-4.443575230530434055e+03
-7.308369818847471834e+03
-8.771011280550785159e+03
-8.895233935552618277e+03
-9.429359545698089278e+03
-1.096503412089644371e+04
-1.236057157315579207e+04
-1.304288380813832737e+04
-1.250705060249675444e+04
-8.819028989118785830e+03
-2.540809541147388700e+03
9.012584373831447010e+03
1.659547072678662516e+04
1.450307995896790635e+04
3.402001207262194839e+03
-4.908644768150385062e+03
-5.885620247380888031e+03
-5.832370185909046086e+03
-8.791860982216845514e+03
-8.855837560514351935e+03
-4.758830980640943380e+03
-5.198825130835267373e+03
-6.159622593882127148e+03
-2.922898067120541782e+03
4.086468637443282205e+03
1.137330743749100111e+04
1.271724246863287226e+04
1.465320846539658669e+04
1.928614729274055207e+04
1.986108917390678835e+04
1.987913595363633794e+04
2.137542049902687722e+04
2.034003148510790561e+04
1.934406079590664012e+04
1.455656427460607847e+04
1.019066620864489414e+04
7.780450458331989466e+03
7.692961747672777165e+03
9.377286567665498296e+03
8.860575713902622738e+03
3.280963653144411182e+03
-2.395479454647295825e+03
-3.711635935827079720e+03
-1.544424155932798840e+03
4.972210994268493778e+03
9.947423815201211255e+03
7.839221436426431865e+03
1.110570426549394688e+04
1.745105184402941813e+04
1.171337191043706480e+04
-6.253053506789075300e+02
-6.459963217062292642e+03
-5.804406455536833164e+03
-8.913495317624183372e+03
-1.203420264009758830e+04
-9.165422481768926446e+03
-3.989057436719823727e+03
2.413008793278879239e+03
8.893873390270255186e+03
1.173762306317256480e+04
1.222443906087492542e+04
7.821474317369949858e+03
3.720794975036378219e+03
3.180670414877810799e+03
4.882383562392850763e+03
8.144391305247567288e+03
3.972026464761352599e+03
-1.876601040738089296e+03
-5.688398071820153746e+03
-6.675268271601641572e+03
-9.479086860994462768e+03
-1.333479900320657180e+04
-1.598228810264637650e+04
-1.759046859600102471e+04
-1.618724917958348124e+04
-1.083354191626333341e+04
-1.190124446465381334e+04
-1.787718020331536536e+04
-2.031333770791670031e+04
-1.326051185727000666e+04
-6.893531453965958463e+03
-1.572364724331736170e+03
3.380960535786816308e+03
6.604496082889872923e+03
7.218424436184414844e+03
4.069856000595440491e+03
2.573870872251809487e+03
5.393614465430056953e+03
5.687140280295211596e+03
6.526538545135627828e+03
6.032905629210697043e+03
3.836298767296766982e+03
3.203776371134166766e+03
4.745462652614539365e+03
5.077405484355655972e+03
5.498597888792987760e+03
6.380145443382748454e+03
4.460156296514656788e+03
3.518702005947800444e+03
2.638865383017262047e+03
-7.113310377235558235e+02
-4.901743776173734659e+03
-5.303265864957906160e+03
-4.917865596358088624e+03
-4.736507501880612836e+03
-5.265065513147844285e+03
-4.578555797144838834e+03
-5.268916162617194459e+03
-8.667138591269585959e+03
-1.406816722957299680e+04
-1.816695709272921158e+04
-1.363844368486055100e+04
-6.508577104930145651e+03
-4.304268311177918804e+03
-2.548444171309721696e+03
-1.697123015842430277e+03
-1.842157363054519010e+03
-3.954392606017710477e+03
-8.500444058570916241e+03
-1.032035379761179138e+04
-1.008613236677686291e+04
-1.078572533536576884e+04
-1.019607655908868037e+04
-6.604154097718755111e+03
-2.573054239605638486e+03
-2.920855889511275564e+03
-5.643829437885601692e+03
-5.529706006976223762e+03
-3.486279806357350935e+03
-2.949016651211642966e+03
-3.020996254713844792e+03
-1.648166228250053564e+03
-2.402580427629802671e+03
-2.434226342245379783e+03
1.568773535594096131e+02
2.386775085732910611e+03
2.846416436966175752e+03
2.827814305545035495e+03
3.011899180913333566e+03
6.814732064923976395e+03
1.053329735398144294e+04
9.106657918643919402e+03
8.386784812214587873e+03
9.342563014994142577e+03
1.022291256205120590e+04
1.007781703133534756e+04
6.455342580024089330e+03
1.821446463635591044e+03
3.271063041830066595e+03
8.911172643103629525e+03
1.188167429734487087e+04
1.006354714270137811e+04
9.914825204805780231e+03
9.262441514813885078e+03
9.141265083194466570e+03
8.298223111993836937e+03
5.997353592568616477e+03
5.167688426808505028e+03
4.870108263895167511e+03
5.240436144165572841e+03
6.005589388553447861e+03
2.616573608292213521e+03
-1.682626805986629734e+03
-1.234077902878870191e+03
2.797187737747362007e+03
7.863128315718977319e+03
1.049164425336544264e+04
7.571658011458600413e+03
4.060130885942748591e+03
2.763889735604804173e+03
2.122867500821549129e+03
1.988049741643495508e+03
1.076392721738624914e+03
-5.511814728623930932e+02
-1.767806917938889455e+03
-2.618575816322087576e+03
-2.618618375747452319e+03
-3.861004576740068842e+03
-3.468768803702053901e+03
-2.344094141349471556e+03
-1.747011733284825596e+03
-2.020494337063771127e+03
-1.919640659187635492e+03
-1.235523698946290097e+03
-1.446277163349749117e+03
-1.164096925416273052e+03
-1.358046949960676102e+03
-1.417225789663328669e+03
-1.432537205983712056e+03
-1.784175978097912093e+03
-3.503967172374779580e+02
-2.883465939313686590e+02
-1.012256426152097106e+03
-8.020411793063485675e+02
-7.380867538033378423e+02
-7.541497655913627796e+02
-9.841123688914518652e+02
-1.493836804420084491e+03
-1.791596774913251920e+03
-2.019461085595387885e+03
-2.062409183614739050e+03
-1.705023873768730482e+03
-1.550093239859120331e+03
-1.527267881678336153e+03
-9.190161989257204596e+02
-4.051702402384638049e+02
-8.075871098489033102e+02
-2.054899961168461687e+03
-2.802217736282866554e+03
-1.967719017765095714e+03
-4.973587435143790003e+02
1.037836131515946647e+02
1.535818931982434208e+02
-7.021682692935381738e+02
-1.158213955061810339e+03
-1.572308186657602619e+03
-1.537692490053267647e+03
-8.787409931713772266e+02
-1.619098202198103138e+02
-2.649400275559913212e+02
-1.685893512991341652e+02
-6.234341626165281696e+02
-6.318443567145567386e+02
-2.103749697154893283e+02
-3.843940053591657033e+02
-4.556518739536712701e+02
-4.224685545310227326e+02
-8.999960366257412261e+02
-1.516750064638606773e+03
-2.136551547393951751e+03
-2.113736445508271117e+03
-2.231846528771087378e+03
-1.465265314728030944e+03
-8.255900865360609941e+02
-7.671797882041699950e+02
-8.853087538644981578e+02
-1.181920525122420941e+03
-7.958933232283817460e+02
-7.332649891883186228e+02
-8.709523846654701629e+01
8.046191117491082423e+02
9.690197741722956835e+02
5.922580076477212288e+02
6.852314552137844430e+02
4.879059686715976909e+02
1.841258738273909330e+02
7.974928816975115069e+02
6.587697966173684563e+02
-2.001309929867312007e+02
4.110852517355948521e+02
1.426314945512269333e+03
5.044212800550345577e+01
-4.934672977898571844e+03
-4.951577594151416633e+03
-4.996242714094700204e+03
-3.906796987651970994e+03
1.163749692089791552e+03
-1.907430513835717193e+03
6.897113698500731971e+02
-1.908918907360267667e+03
-1.348381936539586604e+03
-3.846593917213236296e+02
-6.886472128701765314e+02
-1.992917858638620316e+02
-5.466146893594545872e+02
-7.847231152547301463e+02
-1.888901025800068510e+03
-4.283509112529756749e+03
-3.397071080871288359e+03
4.095270239793786686e+02
-8.210395291861115084e+02
-8.088561466988275015e+02
1.592079172745728101e+03
-5.886843164733687672e+02
1.166790629892857623e+03
-2.778184636627519012e+03
-3.950782823012458266e+03
-2.358297488008635355e+03
1.198641796415260387e+03
-2.259182522427464050e+02
3.126683602071607766e+03
-2.779031945269582593e+02
2.723209158328988906e+03
4.328456581716739493e+03
4.118877604659443023e+03
3.600251281596775243e+03
2.920841409430793192e+03
2.417743115678268623e+03
2.446890318135728194e+03
2.341516616429797978e+03
2.056727536971892278e+03
2.065907475069119755e+03
2.350185961686309383e+03
2.095563633995463533e+03
1.824951771399415748e+03
1.665262745926469506e+03
1.696742970691689152e+03
1.257950536039872304e+03
1.347012649078396180e+03
2.002701852347177010e+03
2.345844337709617776e+03
2.734079811804524979e+03
2.308470970548128662e+03
1.943588462263973270e+03
2.647080686972187777e+03
3.155681599705892495e+03
3.231344895429191183e+03
2.405710637136864079e+03
2.450484618975550347e+03
2.586370097036470725e+03
2.112016549272697375e+03
1.768600536840629047e+03
1.712713457167883007e+03
1.588160873543306252e+03
1.263841500069817812e+03
4.516630092310219311e+02
-4.119059503997517879e+01
5.474942581503994461e+02
6.461987446956579788e+02
9.990185146223549282e+02
1.355876695478222700e+03
1.032613597622192401e+03
1.317243608158667257e+03
1.605299127638688788e+03
1.934606418634680722e+03
2.075486613389826289e+03
1.995874871336718115e+03
1.773924679590970754e+03
1.522844869679048088e+03
1.381631373214093173e+03
1.253290274339137341e+03
4.045936250865647139e+02
-1.798437918597081762e+02
-2.213213290301700340e+02
-7.554180516659631621e+02
-6.073625296414011245e+02
6.467880712531205063e+02
9.918963220925975293e+02
2.509239080021180541e+02
-6.581777935122746612e+02
-5.383451508780597123e+02
-2.254366914902876147e+02
-4.240894387234441183e+02
-2.143746375233431820e+02
-2.596657916443637646e+02
-5.157980220504599629e+02
-3.197644626126685239e+02
-3.824763988413687912e+02
-2.407786195623008325e+02
4.612380520776387698e+02
8.934023915714467421e+02
1.867990202010048506e+02
-3.126232608664268469e+02
-1.858944027199164282e+02
8.524567776936920893e+01
-1.832529942781087016e+02
-6.633934389447035755e+02
-8.189668190950017106e+02
-4.408100920988227358e+02
-6.211026441573951118e+00
-3.026663830071003147e+01
4.510339316394278626e+02
6.547600480973693493e+02
7.157927011809574651e+02
5.392680061025404257e+02
3.433363673232207702e+02
-4.257567787702001283e+02
-8.480275283895243774e+02
-1.207218318658824046e+03
-1.233692914497099082e+03
-9.281595395537377726e+02
-2.062642715004880756e+03
-5.260156223827186295e+03
-1.056564632440855712e+04
-1.149197129938573380e+04
-1.129589809719803270e+04
-1.118755036328714959e+04
-1.105605982593267618e+04
-1.082838760238796021e+04
-9.835682826384690998e+03
-9.762457800635809690e+03
-1.069944253817837489e+04
-9.533253276742700109e+03
-4.662879675745130044e+03
1.908410669581097181e+03
2.727479085817366922e+03
2.231345108038527087e+03
2.274032308562756498e+03
2.211400896052549342e+03
2.217547573635472872e+03
1.960445449075594979e+03
2.161819302374021390e+03
2.189632139086894767e+03
2.199012477994934670e+03
1.585993388881230430e+03
1.436531914926325271e+03
1.127309699974966861e+03
1.866310869608290432e+03
2.368883077835165295e+03
2.267005399541975294e+03
2.076549009974145520e+03
1.483514254627008768e+03
1.456976496687619147e+03
1.708224266776544937e+03
2.067452263647710879e+03
2.295224678714259881e+03
2.078138792754066344e+03
1.857330076171571363e+03
2.062160217876185925e+03
2.312523375883480185e+03
1.979462119005888098e+03
1.265922149786817045e+03
1.481995786804393219e+03
2.895870959787368065e+03
3.462480596034207338e+03
2.877839431581425742e+03
1.777925740995718115e+03
1.343714581834103683e+03
1.348575703382559823e+03
1.275668477407717774e+03
1.216660514089016033e+03
1.473267919208078865e+03
1.663323350290195094e+03
1.733998349724189211e+03
2.262791199291328212e+03
1.673838633082899378e+03
9.019910563106562904e+02
8.122188830966726982e+02
9.685399158656041436e+02
1.221058591072209083e+03
1.183830116597076767e+03
1.625840053527034115e+03
1.200143290593524398e+03
8.437228180120403067e+02
8.107539648320137076e+02
3.170682240636674578e+02
-2.374279585600740461e+02
-1.385949060309368122e+02
3.896776526054846954e+02
1.481343017969600623e+03
1.853361304959327299e+03
1.346828106493249152e+03
6.727039959946807812e+02
8.080534080460942903e+00
1.366992504941610150e+03
2.069492368667381925e+03
-1.714646048451270417e+02
-7.058953300463651431e+03
-6.849828185597881202e+03
-3.592076339912800449e+03
1.442053907919674032e+02
-3.457950843860976875e+03
-4.381491922755294581e+03
-2.188354324352420008e+03
-2.421512028173734961e+03
-2.476964811303742408e+03
-8.506393605567641316e+02
-5.312556114695510587e+03
-7.187756159476914945e+03
-3.305215268409068358e+03
-3.356930675457552752e+03
8.404314238678242077e+01
-1.822209065466310221e+03
2.309395779290892733e+03
-1.334067000834106921e+03
-5.446207694653612634e+02
-8.253296391174035307e+02
-2.281273608590204276e+03
-2.554429469403292387e+03
-4.395776518060022681e+03
-1.672236755941498814e+03
-7.927839783834835544e+03
-3.407601705155454056e+03
-1.517571044313342099e+03
-3.970787013026244040e+03
-3.139258321915515353e+03
7.910830652479041873e+02
1.217223796185085348e+03
9.632011957489135057e+02
-5.399729447894879968e+02
-4.673364197996209441e+03
-3.518958380377004232e+03
-3.781758188105891804e+03
-4.445765908419582047e+03
2.183019889210951987e+03
-8.839473773776732912e+01
-1.043000339776688634e+03
1.315139860933979662e+03
-2.310983305765238583e+03
1.296544732372053204e+03
2.358686618200613339e+03
2.062423012572368862e+03
2.016782202546560484e+03
1.952747527992586356e+03
1.678241506597400985e+03
1.394285716810328040e+03
1.459820198256756157e+03
1.343816009162102091e+03
1.254263611188977166e+03
1.551125927320637402e+03
2.031363727398308356e+03
2.079976652907633252e+03
2.140964213376406860e+03
2.387229538346057325e+03
2.870781922805738759e+03
3.589709512535168415e+03
2.655838147553952695e+03
2.077963690655282335e+03
-1.929968460906107111e+03
-1.009235863694095087e+03
1.006039711706193316e+03
1.172669039549736908e+03
9.312183024821480331e+02
1.562670589308762828e+03
1.590087798246388957e+03
1.274377265258258603e+03
1.332717415298173137e+03
1.144895425377800848e+03
9.807295977353039689e+02
1.263744803098435113e+03
1.787695808784333167e+03
2.211630696859837826e+03
2.744850490860108494e+03
2.452761557144668132e+03
2.871229595357105609e+03
3.093318700041564171e+03
2.632479072459063900e+03
2.728257347874210154e+03
2.717584325747659932e+03
2.670078371800944296e+03
2.326304365875753319e+03
2.155568253771318268e+03
1.816621079387600275e+03
1.971883718476518425e+03
2.487466500589636780e+03
2.509287655734347936e+03
2.150294428344755033e+03
1.791893729981910155e+03
1.476727910838205617e+03
1.229647530498994001e+03
1.850365274484882093e+03
2.645950910288218438e+03
2.815435953606160183e+03
2.968788273530049537e+03
3.174032061549752143e+03
3.081079787819631747e+03
3.269874581425555789e+03
2.970435372541997367e+03
2.615771910312857472e+03
2.428773680495415647e+03
2.219400260957893352e+03
1.977669893729125306e+03
1.983557789775602942e+03
2.530022196539773176e+03
2.371122284350330119e+03
1.860788744935752902e+03
1.881965528522210889e+03
2.005637914768289647e+03
2.126810455839716724e+03
2.039545032654575152e+03
2.107831183854777919e+03
2.267521731281231951e+03
1.750634166170468006e+03
-7.897754430875676235e+02
-4.657629456776072402e+03
-8.299989089592587334e+03
-9.028849740779500280e+03
-9.188178261257264239e+03
-9.416969212504152893e+03
-9.542244718429283239e+03
-8.883995495642213427e+03
-8.224260962138236209e+03
-8.319917153756370681e+03
-8.410961161819048357e+03
-8.537461175069622186e+03
-9.093401647028453226e+03
-8.374760237790762403e+03
-7.823553159658771619e+03
-5.098691600339168872e+03
-3.094187029729040660e+03
-7.190023077229948285e+03
-7.528215024628725587e+03
-6.983714552267570980e+03
-7.201452441701929274e+03
-7.097366514210060814e+03
-7.040461049593741336e+03
-6.691705361599616481e+03
-6.496052071606950449e+03
-6.668370690043018840e+03
-3.551672540062899316e+03
-2.140028929394800628e+02
3.408702833555256348e+03
4.030455489264825246e+03
3.975140616966583821e+03
3.797833127834072457e+03
3.849720996731118703e+03
3.955916745089922188e+03
3.604319126630563915e+03
3.651982618874388208e+03
3.741037243927290092e+03
3.410444499857876508e+03
2.902238270431755154e+03
3.066541764188010802e+03
3.049425618727930214e+03
2.913879370475757696e+03
2.750919869874889628e+03
2.653536595234019387e+03
2.688773310272731578e+03
2.220761579133959913e+03
1.930578627368543494e+03
2.065229021333662331e+03
2.262719035694427021e+03
2.365133165711628408e+03
2.224533833622590919e+03
2.501982696670966106e+03
2.471474610457266408e+03
2.126065589183645898e+03
1.924837554869067162e+03
2.066770213907674588e+03
2.173952736250867019e+03
3.016438663622724107e+03
2.896270010053684928e+03
3.061519308172802994e+03
3.477320490367475941e+03
3.445679463947014483e+03
3.188628402317443943e+03
3.280029569156218713e+03
3.456871906098367162e+03
3.161374658482610812e+03
2.847151415372297834e+03
2.241566908284006331e+03
