1.645760494375630060e+03
1.360797670681326508e+03
1.379872748378862980e+03
1.434623832540846024e+03
1.199125297814004853e+03
1.649705581120063925e+03
1.614617404547434262e+03
1.442713062119031292e+03
1.407082764737293473e+03
1.310357278481548974e+03
1.308276072740138261e+03
1.588296048261735223e+03
1.531786595454210783e+03
1.706323034844489712e+03
2.465805423455263735e+03
2.322723771413982377e+03
1.786050437776183571e+03
1.118685187245361249e+03
-7.547288943181706600e+01
-1.069426051316499979e+03
-1.915272558433608538e+03
-1.812504240875283131e+03
-1.101946895876945291e+03
-5.466170926265134540e+02
4.225211757962816819e+02
1.990295558148216060e+03
2.131135438212221288e+03
2.617693595143172388e+03
2.524992847513232391e+03
2.224256569020760253e+03
2.285059258077096729e+03
2.472280972091431067e+03
2.005078702330709575e+03
2.335458575594742342e+03
2.142123986646398407e+03
1.699497523114254591e+03
1.393532821668766701e+03
1.636415809614993805e+03
1.996404019018609688e+03
1.195627981574286423e+03
2.716438741509840042e+02
-5.933217699746312519e+02
-1.396859533879023047e+03
-1.130439224252341546e+03
-8.096574344261463239e+02
-8.241144841508296395e+02
-5.943951816218184376e+02
-2.330887345663170436e+02
4.374798147099582479e+01
8.430382788276273232e+02
1.927549730637890434e+03
2.144932707308988938e+03
1.712971346790038979e+03
1.800895676493427572e+03
1.582925349518972553e+03
1.637942080180597941e+03
1.246575213383842765e+03
7.619352333627458620e+02
8.022597527436493010e+02
6.811395354702874556e+02
4.974866764773115051e+02
5.594202014271313601e+02
7.471693281565486586e+02
1.122802862001937683e+03
8.983108895968969136e+02
2.718232739438064414e+02
6.231653352517002986e+01
-8.195348419284211872e+00
3.390282615287904946e+02
2.305760398351815184e+02
5.843675527323830465e+02
6.802860875931098690e+02
6.274114014780743673e+02
4.599110936203449000e+02
1.959093676726624835e+02
-3.777108852869559996e+02
-1.104923896125044394e+03
-1.631674558180810664e+03
-1.426931598483346761e+03
-1.988645578819100365e+03
-4.131760759424975731e+03
-8.216162081910864799e+03
-1.259500442391396973e+04
-1.216461370321432150e+04
-1.121585353816433599e+04
-1.026165479916046388e+04
-9.092760825075147295e+03
-9.046291780133540669e+03
-9.038662155442087169e+03
-9.194773224305228723e+03
-8.264027753115389714e+03
-4.666785370458025682e+03
-2.836201192268576506e+03
1.756700842742671284e+03
3.580727812082750006e+03
3.636633884119324193e+03
3.617473510155220083e+03
3.236382842438322768e+03
2.490619017249358421e+03
2.054093923035790795e+03
1.556930289120999987e+03
1.221029018823496244e+03
6.762567203292941258e+02
4.085203380130762412e+02
1.518943460307985163e+02
9.593271512169746273e+00
1.105170850970628322e+02
-4.148506336011072904e+02
-1.776790364248110166e+02
-1.896718538048104961e+02
-5.448938900951734610e+01
8.470811570951482281e+02
5.767094433068831449e+02
1.014411191862066062e+02
6.694830107120242246e+02
1.807882826604495904e+03
2.284365721887162181e+03
2.408828493187806998e+03
2.508408426733965825e+03
2.246120469560009496e+03
2.014011354085577523e+03
1.638159525207500110e+03
1.384540998223378892e+03
1.979145024281370979e+03
2.599014910985415099e+03
2.757073954170371508e+03
2.647144075514363522e+03
2.728313333977533603e+03
2.645832436233222779e+03
2.901722468479455074e+03
2.709982304531822138e+03
2.141760246102828660e+03
1.994135399481667491e+03
2.201126842540636517e+03
2.503528108740671087e+03
2.269210916126708526e+03
2.278568388262020108e+03
1.813720036992061978e+03
1.546483086212554781e+03
1.967883318666890318e+03
2.157929313794154950e+03
1.716659087595789288e+03
1.212177012332959748e+03
5.686713199757319899e+02
1.362429597846063416e+02
-5.010992956549189614e+01
7.844238400829273417e+01
6.168868237677695561e+02
1.191485162141666478e+03
1.562353236132541269e+03
1.366599908991477150e+03
1.923403702378456728e+03
1.798854427782170205e+03
1.597449613645832414e+03
1.941923004305333961e+03
-2.696621375648951471e+03
-4.087219827813029042e+03
-1.220754458682431050e+03
-1.647748199538747258e+03
-4.154320470798361384e+02
-3.426605887525493017e+03
1.957248350742403602e+02
-3.544419020483981512e+03
-1.731983314791625162e+03
-3.458912188986488218e+03
-1.198042001481887837e+03
-2.895417803378342796e+03
-1.771279545828485425e+03
-6.314699415417815544e+03
-4.223407498955380106e+03
-3.895212267967914613e+03
-3.421158130917276594e+03
1.051694078907647054e+03
-2.045044319166251796e+02
-1.938659618736100128e+03
1.631203191782086151e+03
-2.359810414813922307e+03
-3.462604546162353017e+03
-2.624305492698180387e+03
-6.248642551045976461e+02
-5.089258995468704597e+03
-5.317540004925380345e+03
-6.937266680686484506e+02
-4.333697693366360909e+03
-4.950400277817450842e+03
-1.747904668258358470e+03
-3.937319394141029989e+03
2.792773486198017281e+02
-6.478909785152616223e+02
-2.567624299711391359e+03
-1.441204002596888586e+03
-9.147109137100221687e+02
-2.117267890609956794e+03
-2.790817292668450136e+03
1.212736457458607902e+03
-1.689615592431683126e+03
3.112587713204728743e+02
2.833386793340461736e+03
2.310664125551500547e+03
1.748943801968060143e+03
1.139027707761398915e+03
1.483878152333046955e+03
9.037900299810597744e+02
8.151293408559267846e+02
1.177692875545504876e+03
1.202167969294501063e+03
1.496828928444849907e+03
2.084823997843395773e+03
2.089019404208889227e+03
1.876277056943716389e+03
1.361387739020879962e+03
1.552492024237122450e+03
2.002526466896309557e+03
2.304308939695937170e+03
2.858321986187530456e+03
2.943141135042051701e+03
2.665778755066270151e+03
2.568925100096963433e+03
1.229982232401638612e+03
1.462143364131870612e+03
1.214268572469498395e+03
9.161034969539433632e+02
1.703672433564576977e+03
1.909380645108500175e+03
1.818081107473835573e+03
1.514520293386496178e+03
1.519175683353834984e+03
1.451264133900656589e+03
1.274402097557215484e+03
1.255290691930636513e+03
1.579064963538872007e+03
1.794340376217739731e+03
2.247420759749145873e+03
2.259614171073946636e+03
1.619101949452013287e+03
1.008559579226243613e+03
1.472460285527117094e+03
1.768274006041358916e+03
2.257777970877762073e+03
2.171393535076475018e+03
2.013274460300747478e+03
2.026714474121780995e+03
1.874487652818017523e+03
2.059036105245900217e+03
2.143409325988932324e+03
2.503971780090413631e+03
2.682838726969843719e+03
2.289123635148944686e+03
1.897346636730987711e+03
1.798662076345521200e+03
1.352092415223183480e+03
8.895815541544395728e+02
1.581033516530251745e+03
2.611379557589804790e+03
3.550669794310426369e+03
3.053878319649302739e+03
2.617921524825907909e+03
3.443839946975121620e+03
3.719649645097335906e+03
3.096212770916559293e+03
2.933429118064439990e+03
2.815301053199333637e+03
2.813759813075241709e+03
2.359791962513666022e+03
1.737355322358630701e+03
1.907398528100636440e+03
1.952920825967303017e+03
1.680931980359893032e+03
9.754437824245052298e+02
2.964623397449101958e+02
1.160867985958445615e+03
1.042593908373734848e+03
-2.336301096848309953e+03
-7.365826504138744895e+03
-9.899989069304851000e+03
-9.066741462214613421e+03
-8.757041409380030018e+03
-8.298882306286308449e+03
-8.680320982975154038e+03
-8.916471219634453519e+03
-8.690395935675571309e+03
-9.552097938282471659e+03
-9.672596229425129422e+03
-8.978789075982351278e+03
-8.611582028609534973e+03
-8.658035406375031016e+03
-7.739286840008106083e+03
-3.596260965649692025e+03
-3.378960905784787883e+03
-7.250298757173775812e+03
-8.090309479796343112e+03
-7.576916773812599786e+03
-6.638065810592154776e+03
-6.432784949114036863e+03
-6.085130470703894389e+03
-5.527058134664323006e+03
-5.068488446243161889e+03
-1.825357427805945235e+03
3.984414146579385033e+03
4.344875728592358428e+03
3.746004680309644755e+03
2.795906661369978792e+03
2.579603874420155080e+03
2.428939915691466013e+03
1.941896575533457508e+03
1.194596829350245798e+03
5.139960377806701217e+02
1.611105095391319537e+03
2.832008553201617360e+03
2.959757700583401402e+03
3.017400687882985039e+03
3.488035367230321754e+03
3.702663744123427023e+03
3.819390514940612775e+03
3.571271093531579481e+03
3.252336755333067686e+03
2.488685071102311667e+03
1.721319189700734796e+03
1.478292369291988734e+03
1.783615820082319033e+03
1.893271459396506316e+03
2.001409304543541111e+03
2.176141284238616208e+03
1.891418562408490061e+03
2.284271383940542819e+03
3.531787001964793035e+03
3.784092630448900763e+03
3.247212294510102311e+03
2.257181296443657629e+03
2.096011537234251591e+03
2.126739782160143022e+03
1.967496064467044562e+03
1.654419643307703382e+03
1.165605922051599919e+03
8.561031433346383892e+02
8.558671423764960764e+02
7.360430619855618488e+02
1.720832621298996401e+03
2.753428619958571744e+03
2.426837155237271418e+03
1.595682670599001540e+03
1.267016420956189222e+03
1.357297488766881997e+03
1.395527483067959338e+03
1.389729615510944086e+03
1.159060092578179820e+03
-2.242551147461830041e+01
-3.915827171022124276e+03
-1.740342072436458011e+03
9.374674327418595112e+02
1.405323067805632036e+03
5.940236411474057832e+02
5.306914705649546704e+02
9.403445801171476433e+02
1.810951664361889470e+03
1.741575841104084702e+03
1.737288026877975199e+03
1.274095664468954510e+03
8.630290156892215236e+02
5.817494993398762659e+01
-7.204860937505809488e+02
-8.849924135609387577e+02
-1.348277072721797367e+03
-8.234021645699943974e+02
-9.529757318662416310e+01
-5.469388061901589708e+02
-6.742649123345108819e+02
-4.793006613396197508e+02
-2.180845628526846838e+02
1.421433515296179895e+00
-1.697557057708763466e+02
2.483850446865045285e+02
8.428143883538210730e+02
1.350565994648604146e+03
1.619724011038621029e+03
1.171268218249101892e+03
1.137147883352023655e+03
1.279387429881554908e+03
8.829422656680324053e+02
4.488672727390353998e+02
3.270508158373472725e+02
1.254786639887231274e+02
-3.478364760965918663e+02
-7.518919126396169759e+02
-1.231713444297978867e+03
-1.353239991103705052e+03
-1.166542753883991736e+03
-1.195590285468229922e+03
-1.252336976639127215e+03
-1.566826389458414496e+03
-1.568110749570702865e+03
-1.300197594223366195e+03
-6.390205147696276526e+02
-6.226679396208430717e+02
-7.311604564371186825e+02
-7.755399111296385399e+02
-7.808596877918698738e+02
-1.069118840074525906e+03
-1.031319557256730604e+03
-6.463913725700359691e+02
-6.393751967036438373e+02
-9.943315226375202656e+02
-1.277272629748767258e+03
-1.010314845565335759e+03
-1.052516236413516253e+03
-1.143924100792267154e+03
-6.865811097659062625e+02
1.235601209154841627e+02
8.233929249126604191e+02
5.349221428823735778e+02
4.711820121863707413e+02
-4.199408811433581832e+02
1.508995229262436339e+02
6.175117050874196138e+02
7.395879691867739893e+02
9.512858267729762929e+02
1.030414720565077914e+03
7.282871687147212469e+02
-3.576905082807138001e+02
-7.399757355052387311e+02
-4.839953846470435224e+02
-1.554508753939980537e+01
2.459999049732001595e+02
1.829184236589931913e+02
-2.003987906172951128e+01
3.645286189240093790e+02
7.120351403014806237e+02
5.145816725500652637e+02
4.113941171675122632e+01
-1.736391290254314015e+02
-2.873981680018258089e+02
-1.413672148832014130e+01
9.870491374869942547e+01
2.016867181006649332e+02
-7.540291606897640975e+01
2.202958476596250819e+02
9.787224413021809823e+02
1.604345876566156221e+03
1.414801020024699028e+03
7.705503327686536750e+02
2.771901964433943704e+02
-1.754960497719126238e+02
-7.128534566908891748e+02
-8.385115172531013741e+02
-9.240312358006896147e+02
-3.860402453744428612e+02
4.364951706982417363e+02
6.923460446517597120e+02
-1.535182076070012727e+02
6.504462031763078755e+01
7.860124539517209996e+02
1.515988002751921613e+03
2.091449017360787366e+03
1.563032551666973632e+03
8.976994683163874242e+02
9.125887294649276100e+02
-9.663037950049518940e+02
-2.837997875455172561e+03
-2.839575443710937634e+03
2.040248856853131940e+02
9.507607763239336691e+02
2.977264742701972864e+02
-2.031721835279386426e+02
-3.709606746631065448e+02
-7.357060827477090470e+02
-3.583802663833700421e+02
4.340636576294941165e+02
6.586430009722157592e+02
6.231077767540956103e+01
-4.859432869728614719e+02
-2.420770348865143546e+02
6.568982303974456727e+02
7.820581079456406997e+02
4.774340709119854864e+02
-2.531622067160736549e+02
-5.431606686958884893e+03
-6.432497061262632087e+03
-3.689059393614211785e+03
-2.112391275548657177e+03
1.586433520452615994e+03
-2.088504690034374562e+03
-1.195190250385827994e+03
-2.886594428858774336e+03
-1.408677022696847189e+03
-3.367425750924206568e+03
-8.538658438518419871e+02
-3.151919884634450682e+03
5.484104458299440239e+02
-8.248933839257969112e+02
-2.167808813905819079e+03
-1.601317706665330206e+03
-2.233463333181751977e+02
4.062009104740676548e+02
-1.175750203008154585e+03
1.574803961631508173e+03
-2.285118707630609606e+03
1.590520437545160348e+03
1.676707454053603286e+01
-1.187421542000591671e+03
-1.099935891957943113e+03
-1.232687945765805125e+03
-8.407162546855074652e+02
-3.482048129899972537e+03
-7.096511016981214652e+02
-1.894911048897784838e+02
5.114777830312763172e+02
1.318249149060206491e+03
1.552901712847979752e+03
1.131515792674845443e+03
8.320345644344264429e+02
1.132412496994746562e+03
1.217647409232988821e+03
5.008573701727218008e+02
8.180518453004243611e+02
2.094188351838904509e+03
2.583326146564247665e+03
2.331579332710158269e+03
2.198950956200136261e+03
2.332412178809062425e+03
2.291023518040977706e+03
1.880859465646787839e+03
1.143985044337863883e+03
4.883285266999247938e+02
2.528538320208993184e+02
8.445620900916389928e+02
1.689533122528664990e+03
1.620807370462063773e+03
1.650285039558259541e+03
1.878044120534510739e+03
1.718375222023782271e+03
1.294386342947516823e+03
7.479512648887742898e+02
7.349666642718011644e+02
8.657906131436222950e+02
1.315457468849246879e+03
1.157972228010578192e+03
1.193043048336868708e+02
-5.215174716784255224e+02
-5.554468262890803771e+02
-5.055764694915179120e+02
1.396984778947232144e+03
2.304384881504077384e+03
1.055642917677363812e+03
7.986248789739649965e+02
4.439719680231224288e+02
3.031705196330105991e+02
2.902703856418485771e+02
5.847473675140827254e+02
1.139834142696952995e+03
1.211538234532713432e+03
7.959247789310677490e+02
8.100227069169387732e+02
2.487241238587113514e+02
-3.149978376303271830e+02
-4.753924467856314777e+02
-5.468086341496875775e+02
-2.508401555579133060e+02
1.410925902452368746e+03
3.116300045473522914e+03
2.874894245870736540e+03
2.046610189705236508e+03
2.276446837101002075e+03
2.146398022239785405e+03
2.194427632700922004e+03
2.124408062662553220e+03
1.406251798079270202e+03
1.104015199386357835e+03
1.143704817621351367e+03
8.562415674258879790e+02
7.936084663411868405e+02
6.067969737587436612e+02
6.678635433614750809e+02
1.289772380310089375e+03
1.317549902362864032e+03
1.688156480877035392e+03
1.793625143951479913e+03
1.227871938079950723e+03
1.293858865163688961e+03
1.689510931770824754e+03
1.077818378959911115e+03
8.084028834369286187e+01
-1.785006970731563172e+02
9.767342941853527805e+01
6.014030349458283808e+02
7.707085830150717811e+02
2.196255424928465629e+02
-9.078896366821923039e+02
-1.421851084713126511e+03
-1.305253523146801399e+03
-8.981540367777523670e+02
-3.825331574313067904e+02
-3.283504096349934116e+02
2.063499843130076670e+02
9.265290967138744236e+02
8.360707115950923480e+02
-1.483077588743421529e+03
-5.774760016288671068e+03
-1.046493981979551791e+04
-1.016569438425486987e+04
-9.859049060007198932e+03
-1.089200925540700700e+04
-1.061861060273302792e+04
-1.028784088141345637e+04
-1.058474226689182615e+04
-1.073993159507594100e+04
-6.272591483424366743e+03
-9.849596292726209867e+02
1.649329877276829279e+02
1.188306170922609226e+03
2.193140127140879031e+03
2.069328148040751330e+03
1.778795029296548591e+03
2.176619372557051975e+03
2.167837480328947095e+03
2.261493553345139844e+03
2.918590351576713601e+03
3.332182175724705758e+03
2.913281008575889700e+03
3.126812966637612590e+03
2.477862605256743791e+03
1.620396186907083120e+03
1.454352489745880575e+03
1.662837259482836544e+03
1.552872977212395881e+03
1.696396907827114774e+03
1.027382228575459067e+03
5.687054628552110103e+01
-1.071127477581251100e+02
4.941351584881928005e+01
1.394527001432796851e+02
1.114068410463674581e+03
2.043269597472964278e+03
2.042134776912497045e+03
2.367693450506171757e+03
1.903960289969452788e+03
2.210974587257148869e+03
2.063794042978722246e+03
1.969464987999325558e+03
1.730995763943612928e+03
1.285402478019671889e+03
6.817355992415562014e+02
7.710644227933626098e+02
4.283807206388421491e+02
1.377035206119918769e+02
1.000357558111053180e+02
1.841247910604596782e+01
-1.871116662420165540e+02
-1.055445212262638250e+02
6.691180974560190862e+02
9.309011507068622677e+02
6.868787140669844575e+02
2.180727131617231578e+02
5.696632799342130626e-01
-6.257525710740728186e+01
-5.503186488571877817e+02
4.935274714704762999e+01
3.204353618877015606e+02
3.079733705632510805e+02
7.680341539157215038e+02
4.836482076236683838e+02
3.208494854074854743e+02
1.186321585345119729e+02
-3.649842115585954048e+02
-4.130059867300086012e+02
-6.204239292202657907e+02
-1.021245730058617482e+03
-6.513750134624897328e+02
-6.658540389698773652e+02
-1.408491008549913886e+03
-1.819291563505620161e+03
-1.198233146737399238e+03
-8.953279479513396382e+02
-7.045505313392133075e+02
-3.968553572526395783e+02
-4.551518561721318861e+02
-3.983480814131244756e+02
6.158572649793254783e+01
2.336193484977561070e+02
1.857314648920117577e+02
3.840040721454038817e+02
7.034645003880975764e+02
6.591256658472252639e+02
-2.290554484393053372e+02
-9.310233301444284280e+02
-1.391690722704271366e+03
-1.208050084231917708e+03
-1.265159307128887122e+03
-1.796017448576958031e+03
-2.092676888961219902e+03
-2.451128159712679007e+03
-2.991351673129465780e+03
-3.067276667209617699e+03
-1.798965796401605758e+03
-5.304819410976232348e+02
3.872241688096786447e+02
3.832199412517490487e+02
3.165600441298362853e+02
3.262863019981169259e+02
4.834159032067396993e+02
5.570831352062192536e+02
4.521937222017633644e+02
7.956534458547702116e+02
5.395359050230658795e+02
5.677990977112516475e+02
5.628353225028956786e+01
-2.780510627270327291e+02
-4.102454599165600371e+02
-2.852098982602844330e+02
-5.777718565554994257e+02
-5.847239251867819121e+02
3.288999076742509828e+02
5.590834322349525110e+02
7.540963338648124363e+02
6.341179894722449717e+02
4.590420706113064284e+02
1.522645391285610685e+02
-3.177464941572818020e+02
1.102396815911158001e+03
1.290558236975590717e+03
1.562464551317331825e+03
1.419045405693478642e+03
1.066467419771194727e+03
9.974393694325380011e+02
6.646102444599191585e+02
2.400146292455887931e+02
-1.499716689504899136e+02
-1.929448736564176272e+02
-1.198130268078355272e+02
5.092804098473384329e+02
1.193433771040743750e+03
-7.238192105801836078e+02
-3.233232687740579877e+03
8.848683609016638911e+02
2.146233351618746838e+03
1.998078456087697987e+03
1.818340937393757258e+03
2.017111001758670227e+03
1.932307281125605186e+03
1.676880731020034091e+03
1.972737014107239247e+03
2.161803124168694012e+03
1.577183206479308183e+03
1.806654750941153907e+03
2.209162181223671723e+03
2.093407345478433399e+03
2.319267662049894625e+03
2.101690190773234463e+03
1.709359021910009687e+03
2.101446142802685245e+03
2.371064509550159528e+03
2.336565109817024222e+03
2.530152350370220574e+03
2.377949544917456024e+03
2.353206582725460066e+03
1.477030038486947660e+03
1.352008145814354748e+03
2.491894115000000966e+03
2.943817489753819245e+03
3.128500240056525399e+03
3.337292371773780360e+03
3.036409765625461205e+03
2.823332641316074842e+03
2.331542167265118678e+03
1.992322290832817544e+03
2.208094481694106435e+03
2.645332950851791338e+03
2.829658592919333387e+03
2.867361246551835848e+03
2.711582607268419451e+03
2.214795505987717206e+03
2.094269874154610079e+03
1.993766663476965505e+03
2.114007075164490743e+03
2.389009512866485693e+03
2.003128531406265893e+03
2.195546718880459593e+03
2.653984043213765290e+03
3.569040127799320544e+03
4.276733559343522757e+03
4.303086328482002500e+03
3.712980069876404741e+03
3.246345149187505285e+03
2.837910178114449536e+03
2.426782995350839883e+03
1.827201025742147749e+03
8.734782340325629093e+02
-2.112001355564196274e+03
-6.285362193295536599e+03
-9.765878683636405185e+03
-9.561434234454578473e+03
-8.616113832744360479e+03
-8.359903383319200657e+03
-8.476021059151244117e+03
-7.717009408909347258e+03
-7.415435421094960475e+03
-7.689706136327736203e+03
-8.614820592975100226e+03
-7.812918719968440200e+03
-6.860511831075776172e+03
-6.282257881854403422e+03
-6.270134239728124157e+03
-2.817640409488111345e+03
-2.719980448177479047e+03
-7.426605819754279764e+03
-8.451044071812924813e+03
-8.805795934928290080e+03
-8.808253502247753204e+03
-7.953701700427505784e+03
-7.857970517798235960e+03
-7.877648188874129119e+03
-7.603624295463568160e+03
-7.870525690803519865e+03
-7.351843699530013510e+03
-1.498683216398413151e+03
2.941551880343862194e+03
3.955470258044886123e+03
4.169098713701332599e+03
4.287497632664415505e+03
4.212988884735570537e+03
3.801316948472435797e+03
3.853652861186400969e+03
3.487016602174976470e+03
3.149681546509578766e+03
3.112744991189765187e+03
2.808628436857604356e+03
2.326466962534252616e+03
1.861464126306989328e+03
2.001950634357161107e+03
1.839782492845391516e+03
1.698082827325035396e+03
1.048184936852281453e+03
1.502147138026032962e+03
1.857136131154291661e+03
1.960446622356824719e+03
1.377100522258992896e+03
9.449258863514855875e+02
1.057131386652921719e+03
1.198153864385481029e+03
1.145130361318247878e+03
1.078227482706431374e+03
6.539080891582065078e+02
1.772479197127648831e+02
-8.596623322841651316e+00
3.566105444830216697e+01
2.204323847789100626e+02
-3.543537499755096860e+02
-8.719206173796993653e+02
-6.030244967362874604e+02
-3.456038243045209128e+02
-4.984057543601833231e+02
-7.842485703734197386e+02
-1.362277385394570501e+03
-1.079238124099068273e+03
-7.459053040851250671e+02
-8.836380008610382220e+02
-8.325972350351701152e+02
-7.406794847936242832e+02
-1.063627648973158102e+03
-1.485377412274781818e+03
-3.876634675922246970e+03
-5.139271069710700431e+03
-2.685210463902203628e+03
-1.623679042203668359e+03
-2.727995212928872661e+03
-2.425647792775233938e+03
-1.596061661734868949e+03
-1.508258762204172172e+03
-1.811998739337842608e+03
-2.059213199297137180e+03
-1.854923517343936737e+03
-1.624094238743082997e+03
-1.458659440142882431e+03
-1.192299442327242332e+03
-1.002815313796317582e+03
-1.422356209716459489e+03
-1.308828232606658958e+03
-6.796206284164419458e+02
-5.248082522492717317e+02
-2.763364167931305815e+02
4.496121085266688056e+02
6.199784624283895482e+02
3.447245355603405983e+02
3.608420637374206876e+02
2.926072848431542184e+01
-2.710107133729051156e+02
-5.828749982949867672e+02
-3.294485739953792631e+02
-3.929942321618110554e+02
-5.544068102829434110e+02
-3.253487077050567109e+02
-3.912504995154383547e+00
-8.942027623025369110e+01
4.472498406673395266e+01
7.331395561411947028e+02
1.158814618302063764e+03
1.074759273184328094e+03
1.188720328315968800e+03
1.665504222164264775e+03
2.005891564917836149e+03
2.610739873625298969e+03
2.725957331508320749e+03
2.850250094428842203e+03
2.961397171393182816e+03
2.790458180968663328e+03
2.459130810138224206e+03
2.459083983076009190e+03
2.374293272191827327e+03
1.880719753886628041e+03
2.013196925072216573e+03
2.482347534220214129e+03
2.808966115839407394e+03
3.214012178181494619e+03
3.600140593007780353e+03
3.829001077458723103e+03
4.104281609421132089e+03
4.354746363807724265e+03
5.276410551144264900e+03
5.538065622193527815e+03
5.565335560636170158e+03
5.671930515558387924e+03
6.026547677421475782e+03
5.957930794978783524e+03
5.700854869468922516e+03
4.428087873457611749e+03
3.996374635298220255e+03
4.479404260651688674e+03
4.985694177585881334e+03
4.672467119989139064e+03
4.316493637670912904e+03
3.947564826678896679e+03
3.873250770715689669e+03
3.578611685819555987e+03
3.795716571566754283e+03
3.942138009066527502e+03
3.782542815455974051e+03
4.286247601844600467e+03
4.647523269000089385e+03
4.772662371790738689e+03
4.687819423579559043e+03
5.171748139306940175e+03
6.216341402643205583e+03
7.024991752504114629e+03
7.200907138116407623e+03
7.321982408810197740e+03
7.007607554063506541e+03
6.464791993957718660e+03
5.937992897519235157e+03
5.724708925239290693e+03
5.092193360353474418e+03
3.957874209785407857e+03
3.205067262172964092e+03
2.302402236696107138e+03
1.258214293202428507e+03
5.135160318997490094e+02
-2.783925216140942780e+02
4.817903449793424784e+02
5.367927461230246990e+02
-6.557123105015416513e+02
-1.914209067795360966e+02
4.960692897929322385e+02
-1.264077096991809867e+03
-5.307699207177174685e+03
-9.844664224961456057e+03
-1.350568568518443135e+04
-1.528832557776302019e+04
-1.429991817930724756e+04
-1.452545786805743228e+04
-1.510869748411525688e+04
-1.085492852931664856e+04
-4.709194894498829854e+03
1.670567484506771507e+03
3.504313079419870519e+03
2.626084924731655519e+03
5.812995875718815114e+03
7.044947130777426537e+03
5.333026609533291776e+03
3.088215349890114339e+03
3.083621691294899847e+03
4.013619586121841394e+02
-6.864459226095244958e+03
-1.558871036682537488e+04
-2.170430565470660076e+04
-2.313414135326068936e+04
-2.206815942938483568e+04
-2.113922856071579372e+04
-1.843625582245069381e+04
-2.153613288686971282e+04
-2.176235150552460618e+04
-1.721570629106759952e+04
-1.016959228152974538e+04
-6.972716822827639589e+03
-3.337805725320596139e+03
7.112381490576508440e+03
1.223696939728347934e+04
9.469200850016715776e+03
2.607328344991025460e+03
-2.595510710890151131e+03
-1.070612360345839443e+04
-1.822915712238474953e+04
-1.849143415475250367e+04
-1.505176850408502651e+04
-1.678787186789083717e+04
-1.912853853478118253e+04
-2.370150912410225646e+04
-2.483348695064336789e+04
-2.415424450742033150e+04
-1.971052264207377084e+04
-4.608050505959246038e+03
1.034645552629072699e+04
1.416031948732702040e+04
1.613181207139933213e+04
1.395127477894530966e+04
1.009096805789095197e+04
7.993108450066404657e+03
3.015025387736380708e+03
-9.499883835809511083e+02
4.484371805503710675e+03
2.914420557147467207e+03
-5.338494410615821835e+03
-1.054305797322550279e+04
-1.065698828628065166e+04
-3.657043121212644110e+03
8.120088963035013876e+02
1.257750329770956341e+04
1.600573541963145908e+04
1.262403579128315141e+04
1.427274495686085720e+04
1.511812427757814658e+04
1.228948801129428102e+04
8.821033352168147758e+03
1.032802992816768528e+04
1.596981212678235897e+04
1.964261657388766616e+04
1.862971141264029939e+04
1.760028116496693474e+04
1.697254004015622559e+04
1.519483174429165592e+04
1.322635042772432826e+04
7.435151653234996957e+03
7.205345782818410498e+02
-4.349761354990851942e+03
-6.079425777442911567e+03
-3.188172645012898556e+03
-1.803649014774258603e+03
-4.551645737108944559e+03
-6.149983035263480815e+03
-9.659732514548240943e+03
-1.401172344170812903e+04
-9.277717077380297269e+03
1.941484266221748840e+03
7.863948176236192012e+03
9.634886356703667843e+03
1.149754863955731344e+04
1.367424908467484238e+04
7.532336088487650159e+03
1.255075058387495119e+03
-6.595218371746565026e+03
-1.064938289216760677e+04
-5.076655966169581006e+03
9.334249656284460798e+03
1.964684725658998286e+04
2.506394487520130133e+04
2.478950474523180310e+04
1.845655702935534282e+04
1.190300082037182983e+04
7.352910206099456445e+03
1.425310852228848944e+03
-1.971590909481818471e+03
-4.198170353396810128e+02
-1.162815258642155641e+03
-7.982016857342651747e+03
-9.129491414737469313e+03
6.808311307314164651e+02
1.167291871734739652e+04
1.527045236789001137e+04
1.394685967088362850e+04
1.307095328575373969e+04
1.015656183875957868e+04
7.552625300667481497e+03
3.880032986518162033e+03
3.594649298627786720e+03
2.678368048408609866e+03
2.544073474730048019e+03
4.906642631410481954e+03
3.929879468432110116e+03
3.015641574526066506e+03
3.936777657305439334e+03
4.207149414692792561e+03
4.535540731593639975e+03
6.221854003348814331e+03
7.139933656585412791e+03
3.979656186665493351e+03
-5.301888989094506996e+02
-2.940839775579597699e+03
-5.718465463130398348e+03
-8.585272304282956611e+03
-7.421537488848813155e+03
-7.383322521539170339e+03
-8.202812605239456389e+03
-8.219218181658690810e+03
-3.919724264477628822e+03
-8.685618058982641969e+02
-1.899030695795006523e+03
-1.451331959087123096e+03
-2.451714009863945194e+03
-1.382473748555371685e+03
1.142167928809976502e+03
-4.670074609251603874e+02
-3.609201413458570642e+03
-9.477720650168395878e+03
-1.124175942581216987e+04
-1.255351546506993873e+04
-1.427521697772861444e+04
-1.595608157170750565e+04
-1.733330456040480567e+04
-1.607304874059598478e+04
-1.462041559685914035e+04
-1.278476824953315736e+04
-8.945577722224450554e+03
-7.334038268816800155e+03
-2.485226849015446987e+03
-3.218492342252429808e+03
-5.085092084435487777e+03
-5.930167436405934495e+03
-7.000857970876400032e+03
-8.549355174222175265e+03
-1.102095255127365635e+04
-1.363091372748873982e+04
-1.194736911489447448e+04
-7.225546732486304791e+03
-4.411606996119122414e+03
1.305298303188666978e+03
2.027939924016549867e+03
1.600163454056379805e+03
2.808793886545396163e+03
2.538621611277440479e+03
1.484464624373359584e+03
4.582195275746549328e+02
-1.310298481309226418e+03
-4.456245427102953727e+03
-6.786716051779259942e+03
-7.040821681894576614e+03
-8.062692014224219747e+03
-1.094248866659614760e+04
-1.165729292693522802e+04
-7.174271853065622054e+03
-7.935226074507888825e+02
3.453801468155686507e+03
5.649634343960779006e+03
4.202923419650906908e+03
4.173579583284365071e+03
6.113519023299339096e+03
6.714730483916378944e+03
6.553170883630888056e+03
6.166771410778807876e+03
5.453506050827386389e+03
5.646295880068026236e+03
4.387160382767204283e+03
2.073076089206983852e+03
2.488046732028117276e+03
1.672027433962641908e+03
-4.950164995435025048e+02
-1.191115115403336631e+03
-2.701977488273510630e+02
1.154809326882502319e+03
7.398546508452417356e+02
4.799508183400766370e+02
2.216103814973339922e+03
3.950170710982015862e+03
4.146196648008134616e+03
2.904302893772641255e+03
1.847385004162707673e+03
3.337296262354078408e+03
5.780625341270359968e+03
6.860394791813950178e+03
7.146704805345078057e+03
7.081685571835215342e+03
6.621359142792205603e+03
6.025863443839965839e+03
6.355213046848414706e+03
6.279638229732399850e+03
4.281192024766653049e+03
-1.629368041146661199e+03
-1.215614678468205057e+03
-7.181947480553890273e+02
3.518149945531467893e+02
-8.584773782611947581e+02
1.599010920679399987e+03
-5.359632852351555812e+03
-1.970327476080558881e+03
6.920901844575025734e+02
-2.810212038111977108e+03
2.738334790387325484e+02
-2.678600862941453215e+03
-1.391413450491721505e+03
-1.301429866819608151e+03
3.273993750172073192e+02
-3.376847536517197568e+03
-1.433044661772704103e+03
2.221933478799345721e+03
