9.289953841385619171e+02
4.853432222291859034e+03
6.540774847412713825e+03
9.579117214697844247e+03
1.052255247211947608e+04
7.895106026043440579e+03
-6.231475676563113808e+01
-5.231678892451843240e+03
-3.157999306243828414e+03
6.610840676341440485e+03
1.147281695927591136e+04
1.017495322581171240e+04
8.856336431834519317e+03
8.888892618852352825e+03
7.172650341669408590e+03
2.525556038265012376e+03
-4.394371256094740374e+02
-2.593785930432879354e+02
1.401093284060436190e+03
2.571710397202434251e+03
-2.974719659379677950e+01
2.479806928639863145e+03
5.647433822392696129e+03
3.908858498415829672e+03
5.590871409692157613e+03
9.432484031094138118e+03
8.803737787104466406e+03
3.280619963646178803e+03
1.010658046255042706e+02
1.935093663340632702e+03
4.513695693207679142e+03
4.288800266738982828e+03
1.323309905081418492e+03
-2.083044969483724344e+03
-3.999194602355332790e+02
2.715730846383287371e+03
1.305889970575382222e+03
-2.046674629755920478e+03
-7.853050260754311239e+03
-8.655331928490773862e+03
-7.129634955316775631e+03
-1.255901841876241997e+04
-1.840046438400040279e+04
-2.129609716639972248e+04
-2.707501057640655199e+04
-2.388924899038912554e+04
-4.436940510287512552e+03
6.888746840680858440e+03
4.330786232155861398e+03
8.184166290143496553e+03
1.013574319021211522e+04
8.871435844555939184e+03
7.391280595074703342e+03
5.229175593846432093e+03
2.623033829050250915e+03
-5.092254175804298484e+02
-2.251806467379918104e+03
-1.858761950229164313e+03
-1.433180954279741172e+03
-1.340757406134893245e+03
-2.704789767753304204e+03
-3.866384385453976847e+03
-6.864570768222983133e+03
-9.579463851346645242e+03
-7.947309631637464008e+03
-3.450913038771739593e+03
-3.180532120310747359e+02
-2.072134514152684005e+03
-3.061096654172915805e+03
2.850879377168141673e+02
-1.465830565613414592e+03
-3.073041390711829536e+03
5.473277066342718626e+02
3.086210378047689574e+03
7.172669460033824180e+03
7.024568807946962806e+03
4.831802973450665377e+03
2.176358283455761466e+03
-3.580891645027955292e+03
-5.299012499658555498e+03
-3.042977888844273366e+03
1.254188484364792885e+03
1.366450140572848341e+03
-1.081171004580208091e+03
-4.493736249972690530e+03
-4.983273878839076133e+03
-2.154777107121646168e+03
-1.117247739612070518e+03
-1.717817640559937217e+03
-7.683216509065169930e+01
1.113799435249775343e+03
2.773503970247277721e+03
4.742996870467651206e+03
3.698097994973174082e+03
1.021825262229615987e+03
3.030116037111191417e+03
1.837317006921366271e+02
-4.426938706562067637e+03
-1.185484833162049290e+04
-2.037316367404360062e+04
-1.665805157064512241e+04
-5.586486108750454150e+03
2.451516233988232216e+03
2.780890640163150238e+03
-2.862286925150926436e+03
-4.245008377694247429e+03
-7.648299030137020054e+03
-1.013611999447616836e+04
-7.590479122308943261e+03
5.186951947935210683e+02
4.650433827640561503e+03
2.763653309352624547e+03
4.737254871752912550e+03
7.617237313679022009e+03
1.035568115246335401e+04
8.141638406807480351e+03
2.092092284532755912e+03
-2.772934461015473971e+03
-3.674336235885083397e+02
5.705985402471629868e+02
-9.179317507073761817e+01
1.494451206027042872e+03
6.296301435162315101e+03
8.645746328809431361e+03
6.978791907102675395e+03
1.226521102347325268e+03
-5.034082990233481723e+03
-9.012009108948019275e+03
-6.063151305164714358e+03
1.221596494366755906e+03
8.160395823222534091e+03
9.758430693146567137e+03
6.821590398747976906e+03
6.019810646328843177e+03
8.164078695874162804e+03
1.100745110747916988e+04
7.701938140845816633e+03
3.639567543150530582e+03
2.110284757342183639e+03
1.194955500949048428e+03
1.086397585473683876e+03
-6.728703750879431027e+02
-8.243281773496677260e+02
-1.512715751173259946e+02
1.020129940832092359e+02
-4.496294693736601857e+02
3.150519233854860772e+02
-1.047611051661108149e+03
-3.501766075998428278e+03
-3.198568322985699979e+03
4.122081449095994685e+02
3.475398046062496633e+03
4.044333348253153417e+03
2.919668963866362901e+03
2.485755155655454473e+03
2.685689912613160686e+03
2.161802825030554686e+03
1.089251211692931292e+03
2.743701479337742057e+02
1.744413766875839428e+03
2.004416953058843546e+03
2.783452113270731729e+02
1.560354867920518416e+02
-1.758809090257358037e+02
-1.602214860635516288e+03
-2.776535664003335455e+02
4.704793622048218822e+03
6.610899763900122707e+03
5.934696573257812815e+03
4.603295751592616398e+03
2.639708776842776842e+03
-2.873291930513488524e+02
-4.762916076726364736e+03
-5.852795107482148524e+03
-4.112732939126966812e+03
-2.045744201756356006e+03
-3.596514001099642996e+02
3.987499379922651315e+02
1.168291780086482277e+03
2.672757713196975146e+03
5.992011358978348653e+03
5.390080911260981338e+03
1.943930692669051268e+03
9.228589711430430498e+02
1.753090689659052032e+03
1.387614587127918412e+03
1.822844608115141227e+02
-4.560075988872496850e+02
1.247425259985400885e+02
6.160888842495147344e+01
1.734108998157150836e+03
5.481926652532765729e+02
-2.199058646866032632e+03
-5.620385866036849620e+03
-6.124732069736795893e+03
-1.830256556019975960e+03
-4.838026242475551044e+03
-8.473912290460462827e+03
-1.161758402863622723e+04
-1.025615676055984841e+04
-6.301797991721448852e+03
-5.092685410632628191e+03
-7.419965647561199148e+03
-1.029634736857211465e+04
-1.055648422247499911e+04
-7.918328678329941795e+03
-5.070884589127488653e+03
-1.474657236978172477e+03
3.389949553363661835e+03
-3.822056920696423443e+00
-3.162752634407258938e+03
1.192118423564331579e+03
3.117436371674049951e+03
2.517057819527969968e+03
9.113724613763089337e+02
3.693587842941030431e+03
3.387049447482642790e+03
1.841221562467206240e+03
-1.048855985443843110e+03
-2.188511557463800727e+03
-3.556543545703397058e+02
-1.176742234232446208e+03
-1.448864859338737233e+03
1.032918281444343165e+03
2.866501233900037732e+03
4.016165659357396180e+03
4.830575700677593886e+03
4.343452797441648727e+03
4.135445500403490769e+03
3.681767123446271853e+03
3.222264095907993578e+03
3.021006746656874839e+03
2.409477664748686948e+03
1.292495296776020950e+03
-6.135462915704707711e+02
-1.862475980121613247e+03
-1.168262211730225772e+03
1.177064969122323532e+02
1.774159172826823578e+03
1.935209213847358114e+03
7.158733087564937705e+02
4.742704624972689089e+02
1.314060359793661519e+03
1.618216274160314242e+03
1.214892908847010858e+03
7.904522853503558508e+02
1.312559364306845737e+03
2.111572945970638557e+03
1.347906293450384965e+03
-5.250221042028550755e+02
-1.267529387230188149e+03
-5.601224759916225366e+02
-2.652468593174700118e+01
-7.701008969649176379e+02
1.622747102159526094e+02
1.157141212535936120e+03
6.441651655158871108e+02
3.135748812141287090e+02
-3.638031313507669040e+01
4.037919975447033494e+01
2.527070254500035560e+02
6.376873273524345223e+02
1.516454044767004632e+02
-3.626029148918695455e+02
-1.149253448533019537e+03
-1.690917620752243920e+03
-2.180222142671826532e+03
-2.296940810665003028e+03
-1.809798712604208276e+03
-1.845383389148365495e+03
-1.554831871115158947e+03
-1.270094843561698099e+03
-9.609106204895174415e+02
-2.079251714960420031e+03
1.747668068828222658e+03
2.893698375909152219e+03
1.865887153132614458e+03
1.436590927828571012e+03
2.118465882940207848e+03
1.666398823753813986e+03
8.537890810156941370e+02
1.604662472462869687e+02
-2.068444758452390602e+02
1.331841018109030585e+02
3.000064729366256415e+02
2.085700995819685204e+02
8.352666584191338472e+01
-5.252824558729638511e+02
-1.516647835377908905e+03
-6.053352775350384945e+03
-6.002340630318498370e+03
-4.425896223390012892e+03
-1.178145154332094080e+03
2.032427270675157160e+02
9.304839745543562231e+02
1.412886340899782908e+03
1.238128478362066062e+03
1.082019221948046152e+03
1.643112810362562186e+03
1.658596071910192677e+03
1.748341414007344156e+03
2.099640124482304145e+03
1.733821166873286984e+03
1.187392247668503842e+03
1.073635459594491522e+03
9.005432114662685308e+02
5.786279327648675235e+02
-5.901522858341147781e+01
-6.612524358097728339e+01
2.723375606327459764e+02
4.084836708217990804e+02
3.033968540261712405e+02
-4.507704916613149635e+02
-1.241096520835588990e+03
-3.870818928166831483e+03
-1.286961258928771713e+03
-8.775161105537436015e+02
-1.314318144877897794e+03
-1.260365206277691868e+03
-1.546508474581754626e+03
-4.629739357009313608e+03
-5.881386769720185839e+03
-3.135773798635631920e+03
-2.632844653933934296e+03
-1.142235464948985964e+03
2.121998441680883843e+03
4.125549410533350056e+03
4.454711517207097131e+03
3.592545147702354825e+03
2.652632228318754642e+03
2.079920234541462378e+03
1.005212594791661218e+03
1.095801258835078897e+03
1.444837949992715949e+03
6.923698001997649953e+02
-6.227852173167937622e+01
-4.493109550121767484e+02
-1.049054201580670451e+03
-1.514739608227051122e+03
-1.311103811393698152e+03
-1.197964766495853837e+03
-8.812719787221732304e+02
-6.835982545857670800e+01
1.511421278749704697e+03
2.828517099883235915e+03
1.091444444162946752e+02
-2.066860801650464964e+03
1.536444262129161416e+03
2.353254840626705573e+03
1.670151089638398162e+03
1.167161396636789050e+03
3.996699417238247634e+02
-2.783480709730554736e+03
-1.798142674351239293e+03
2.804889912806274879e+02
7.250931753230122467e+02
2.359540983303452322e+02
3.890910801540658781e+02
7.160378985119178878e+02
6.458026390531773586e+02
7.085098945008631972e+02
7.126647292959813740e+02
2.390198674416394056e+02
1.787247805460000052e+02
-6.238085788055364844e+01
4.411715926026509464e+02
1.168943757493555040e+03
1.433370129859233657e+03
1.572976773018405311e+03
9.886611763947709051e+02
7.008940280987402502e+02
3.354996684551047679e+02
1.518221865018954304e+02
4.962330461427244472e+02
1.227315573490986651e+02
-2.602475660383166201e+02
-1.506264084324749888e+02
5.097599046523548623e+02
5.057330281804581205e+02
1.438906297377592125e+02
1.384069807522927533e+02
5.575409473828914315e+02
2.886550429487995189e+02
2.319282989525739822e+02
9.412834803068012661e+02
1.119145167542547597e+03
1.063071957867345873e+03
1.016951738251032907e+03
5.790959451986734621e+02
4.238505092507843983e+02
3.280790536434578257e+02
3.585573689293447046e+02
-5.185171721735844130e+01
-4.696534949706822886e+02
-5.407134036452912369e+02
-1.700163737947337040e+03
-5.892018650730022273e+03
-7.654333148154832088e+03
-3.127996439262440617e+03
-9.101377353308569127e+02
-7.837243075124932830e+02
-1.017792747197488438e+03
-1.223289190791975898e+03
-8.543199723607376654e+02
-1.936715540158997726e+02
-1.990262991521853110e+03
-8.163359221839468773e+02
-2.112151404702395212e+03
3.733125138102946039e+02
-2.623797471038466483e+03
-2.394317927922160834e+03
-8.592879829468207618e+02
-3.513692757001318114e+03
-2.817455658057711389e+03
-2.215871018272221704e+02
-1.050178913673594820e+02
6.631338396815299348e+02
1.365937120457322635e+03
9.746398824926247073e+01
-1.628407321491404900e+03
-1.161601178111708350e+03
4.139937676104821094e+02
2.562162455260514889e+03
2.573580739460152927e+03
1.914408653081465218e+03
1.861844718392919276e+03
1.542002043250250381e+03
1.309944132638087012e+03
7.928028538490539177e+02
7.718256520663881020e+02
8.348540020433600830e+02
5.474441447635636848e+01
-5.626150260911439318e+02
-5.213250629231741868e+02
-1.027308197474952749e+03
-1.201544737726286940e+03
-6.231631095393317992e+02
-9.623296193021889167e+02
-1.097638649208862489e+03
-3.658163530051659222e+02
1.220163124485842587e+02
8.416777139788206341e+02
1.964258751029277391e+03
2.380911322851501609e+03
2.099625703298160261e+03
2.057464531824209189e+03
1.907544039368108997e+03
1.594656755058825183e+03
1.202916438584595426e+03
9.924330181136483588e+02
8.803068753769924797e+02
1.032370685425468992e+03
7.041856628594473477e+02
1.142681571795387612e+02
3.268921125839920592e+02
6.451604043917039917e+02
3.895913320314101043e+02
-4.795179113536792102e+02
-1.072005681487102493e+03
-2.469509055560640718e+02
4.556664388414926634e+02
6.450233419200803553e+01
-1.583277899645463833e+02
-1.053771055845023511e+03
-6.829189161980197014e+02
-6.676300760218354071e+02
4.604669633540905807e+02
1.796813687517022572e+03
2.036191266795962520e+03
2.070895510876051048e+03
1.760110877325741285e+03
1.321927319468577252e+03
1.333088935005512667e+03
8.428175435119020449e+02
-2.419337669525832837e+02
-2.829938031279400548e+02
-2.252253279138757591e+01
3.522964439777920802e+02
-1.083447369926107910e+02
-6.464652176174507758e+02
-9.242841715538590961e+02
-9.818137985828456067e+02
-5.239692730921407247e+02
-2.926211175142016714e+02
-2.247479928486749543e+02
-1.484634658656045190e+02
-5.174488563940057873e+01
1.673811533981953517e+02
4.389179128775777485e+02
7.169131310450683259e+02
9.123820275379473514e+02
9.164095757579661949e+02
8.560156995838694911e+02
7.180366662750802789e+02
-1.375778447476132271e+02
-7.518571395744531856e+02
-6.496880837926538561e+02
-7.599472590220512984e+02
-1.351732179472646521e+03
-2.047123030210404522e+03
-2.029070359377660452e+03
-1.613542462314907652e+03
-1.351543601939087466e+03
-9.751524830784495634e+02
-1.024376117732882449e+03
-9.731130802409844591e+02
-8.112846787938716488e+02
-5.949567314081687073e+02
-1.482596689070537082e+02
-2.321862539026696197e+02
-3.926537376636881618e+02
-8.198317140958937443e+02
-9.097659857021399148e+02
8.965164466652529995e+01
5.983883985062246893e+02
4.734393858173999092e+02
1.448326726858928168e+02
-1.148419137582108533e+03
-2.713298496334100037e+03
-7.337727784254464041e+02
-9.385805739899819855e+01
-6.575293277345099341e+02
-2.418460959969225144e+02
-6.977512007088691348e+01
-2.670306181165735779e+03
-7.305164611846853404e+02
7.885836132451922822e+02
9.009106350881338585e+02
2.664021978182288990e+02
3.410676567724744928e+02
2.100121556196573920e+02
-4.622284242966108536e+02
-1.034523746820982979e+03
-1.341700226404463365e+03
-1.232739504451589937e+03
-1.426844673371526142e+03
-1.495971632715483338e+03
-4.700273700823396439e+02
-1.680425383846318823e+02
1.029050897130313587e+02
3.158981372162880348e+02
9.339271902463335664e+02
1.928927237962100662e+03
2.188912402130519695e+03
2.534916105066485216e+03
2.337948180906887046e+03
1.252309981430913012e+03
1.048754056772579133e+03
1.132135710954220940e+03
9.972703434006699581e+02
9.002206636798861155e+02
9.829247092192331365e+02
1.008326726491882141e+03
9.445075968417027070e+02
4.205370968810583463e+02
3.132384736318628029e+02
4.025969179609389812e+02
2.976431407348302400e+02
3.033662005010905318e+02
5.188395252570707044e+02
3.200444755157509462e+02
3.796280681316007843e+01
-4.338136589878985916e+01
-1.339371428729074580e+02
-8.168696800634086230e+01
-1.777526018016160094e+02
-7.218028445671302507e+01
2.907907766770813751e+01
9.320732560313664408e+02
1.842872070284030542e+03
1.825452142286273329e+03
1.687987277892178099e+03
1.389099461071611813e+03
1.661917042506476491e+03
2.002445028535045594e+03
2.030621483737559174e+03
1.811499516535379144e+03
1.682317864258423924e+03
1.142909401572558409e+03
1.012950098382594092e+03
9.556049914679230142e+02
6.777474599015282593e+02
1.273202727591841040e+03
9.359830258387909225e+02
1.216183069702953389e+03
1.902902471221666246e+03
1.888144938395539612e+03
1.903884083307220635e+03
2.105125008025726402e+03
2.038832215997165804e+03
1.532830987467734531e+03
1.009388929335534158e+03
1.040716001917890026e+03
1.142556647283678558e+03
1.428922783565744112e+03
1.765872613218376046e+03
1.810353177768556179e+03
8.453905716428133701e+02
-2.345047866896282812e+03
-7.289008365036220312e+03
-8.420554869639556273e+03
-8.334660533430855139e+03
-7.738010849551169485e+03
-7.719599999697117710e+03
-3.654878638090290679e+03
-3.478651476312548766e+03
-5.981814620354651197e+03
-5.826387633703198844e+03
-2.467266116660216994e+03
-1.401229801115116743e+03
-5.832606460736858935e+03
-6.375507302026902835e+03
-6.242813263766802265e+03
-6.864453525127946705e+03
-3.495449312066295079e+03
7.451619451177100473e+02
7.924134648941754904e+02
9.223059064939238851e+02
1.573866185051021375e+03
1.914146438514673719e+03
4.961385496138500457e+02
-3.061117768908342896e+03
-5.854682948982521339e+03
-5.544587697350165399e+03
-3.737767362657873946e+03
1.777808055563888502e+03
3.147214181671037295e+03
3.243454277643234946e+03
3.039546492205402956e+03
2.805479714651671202e+03
2.432241568417806320e+03
1.834896517260568999e+03
1.275427588420425081e+03
1.415795768081832193e+03
1.911001092371124969e+03
1.477159391623645888e+03
1.920250866587991823e+03
1.948258917191190903e+03
1.662183281424982397e+03
1.703070245378546360e+03
1.901962547834276393e+03
1.700786314891802249e+03
1.666590488059611971e+03
1.880498458167191529e+03
2.012471744745864271e+03
1.947487910779752156e+03
1.801550813579645364e+03
1.951699111478143323e+03
1.718948206366563227e+03
1.603364049509547840e+03
1.471933107697469723e+03
1.445593028156924447e+03
1.582536692993193356e+03
1.765990915669906826e+03
1.502666727094504267e+03
8.464816758441735374e+02
1.537132938142622606e+03
1.577138542754343234e+03
1.469490953808878658e+03
1.308883331303461546e+03
1.717426901336239553e+03
1.610181456600321098e+03
7.445474772306791920e+02
1.421432158459260791e+02
1.812263133465583920e+01
-3.748527971332209745e+02
-6.033488835431783173e+02
-1.030641114196320586e+03
-7.878227703979722492e+02
-3.395186775820906178e+02
-9.069423200228966380e+02
-7.372963129657707668e+02
3.395558471422762636e+02
1.503550836476775430e+03
1.443693519805990945e+03
9.961463047426419735e+02
1.085985751942738943e+03
1.185076441364745051e+03
1.142208703701039440e+03
1.300389690220372131e+03
1.186964258397306821e+03
9.708357872960290251e+02
1.075913756069862302e+03
6.992086609993926913e+02
9.076980476367710082e+01
-1.473414479536947681e+02
7.188801301204692606e+01
1.427428267812904323e+03
2.325317525525360907e+03
1.953539372181363433e+03
1.718099762127286112e+03
1.732116283679890785e+03
8.104804987570772710e+02
-2.859227708609359979e+02
-9.603570460932202479e+01
2.807995153347326323e+01
2.423693440083061148e+02
-3.271683445138030493e+02
-1.300541085152958658e+03
-1.802797764242427093e+03
-2.503932268410815141e+03
-1.366866695122710553e+03
9.103896704264117261e+02
2.800843457022488565e+03
3.489518210770863789e+03
3.388429981594757464e+03
2.818541519207506099e+03
2.169866208891070528e+03
7.364134642086318081e+02
-1.920835798483064309e+03
-3.285864446175545254e+03
-4.209722732481590356e+03
-7.823439407573828248e+03
-4.542993882889778433e+03
-4.503321794540441374e+02
-7.094499780602235433e+02
-2.338491997185110449e+03
-7.179472737705878899e+03
-8.258450340137454987e+03
-8.003236796863150630e+03
-7.394752902280728449e+03
-1.983036612017201151e+03
1.077106187269358998e+03
-4.113673194899344708e+03
-5.471467253437170257e+03
-4.914134312393982327e+03
-4.382665448394779560e+03
-4.059069307047509483e+03
-2.385349345285149866e+03
-2.815309539149936313e+02
-1.086198033251827582e+02
2.864851626973269276e+02
-2.803267792091479009e+02
-3.121046623464100094e+02
-5.128748355356137836e+02
-6.855393541082810316e+02
-7.360662117865302889e+02
-1.168491112863419858e+03
-9.158134303970002748e+02
1.138947559187041179e+03
2.594748742308586316e+03
2.955597912222663581e+03
3.320512380085893255e+03
3.211481447487653440e+03
3.279478641209566376e+03
3.453501889128240691e+03
3.047531900586016945e+03
2.409577936566694916e+03
2.168643761853939395e+03
1.614732879221296798e+03
1.161815871842565457e+03
1.037973602741591776e+03
1.129185985880813632e+03
1.354396414319820678e+03
1.151678909201185206e+03
1.090045330822683582e+03
1.356504306162327111e+03
1.406992129872567602e+03
1.332464279277314517e+03
1.255899665002688153e+03
1.657283664631278725e+03
1.979686946345379056e+03
1.993114434669903630e+03
2.066548180721462359e+03
2.034983052858538031e+03
2.233373413585476555e+03
2.363749743559411399e+03
2.138107351120830572e+03
1.686481887793893065e+03
1.188804886437025289e+03
2.910229923018576415e+02
-9.218549851319173740e+02
-1.481831837835332635e+03
-1.667858910175377332e+03
-1.199796506515590181e+03
-9.576868465300348134e+02
-8.886755703150420231e+02
-7.526607754689367766e+02
-1.177646159063264349e+03
-1.127741420657653634e+03
-3.558291744657612981e+02
4.893280216494278534e+02
1.141388399794932184e+03
1.416300975733676523e+03
1.180145532213459092e+03
1.378063075864278062e+03
1.678025510267081472e+03
1.557968084391986167e+03
1.236991059513318532e+03
1.127074075466876366e+03
1.951191572618250348e+03
1.570292341428837972e+03
6.854109086360861056e+02
5.275888302723049037e+02
4.721849334722683089e+00
-1.386144189382651575e+03
-9.409980069759824346e+02
-3.988512433075636636e+02
-7.166565934943770344e+02
-7.705520575525716822e+02
-7.915554580179648383e+02
-1.131675575766368866e+03
-1.801850569591602380e+03
-1.482989738734677985e+03
-9.421315496303964210e+02
-5.728889002928777074e+01
8.175264494861277171e+02
8.333334918250490091e+02
1.441048026719529673e+02
-6.418132340935237323e+01
8.675308827396510196e+02
5.492527926665934501e+02
-4.390616957655036572e+02
-9.973764881799320392e+02
-1.356664430964632857e+03
-1.411933650558856698e+03
-1.956204101210754743e+03
-2.392428872368661359e+03
-2.577644137646084346e+03
-2.176839228151535281e+03
-1.767987868073239724e+03
-2.274030320582760396e+03
-3.041883754954597862e+03
-3.360565636704133794e+03
-3.234131247403850011e+03
-2.808711200311079665e+03
-2.769361312415831890e+03
-2.669040032202095063e+03
-2.016739819583742701e+03
-1.200441874344509188e+03
-9.331471371439515679e+02
-8.888974050626553662e+02
-3.685992728621124002e+02
2.187821046891660899e+02
8.325476762790337659e+01
6.578564715175362210e+01
5.083794645172768583e+02
7.470404464293900446e+02
1.314766011821119491e+03
1.638406772617040360e+03
1.920164847193413834e+03
2.330168652898809796e+03
2.576301086427997689e+03
2.720549355328442743e+03
2.174947804613013432e+03
2.145366397854879324e+03
-1.143758586438873408e+02
-4.449751590472189378e+02
1.981553932095738901e+03
1.599382187951890273e+03
8.692688782628983972e+02
7.520971473190243159e+02
5.210931540074064969e+02
5.170514115714798891e+02
2.861145937732180187e+02
-8.502329607017989233e+00
-1.597070255075356329e+02
9.246911091778630976e+01
1.189064281861261350e+02
3.141588534892602524e+01
3.242803067529309402e+01
2.834783271577495043e+02
3.227338316888113923e+02
-1.099722022621297945e+01
4.778825261446721697e+02
8.767714683296260318e+02
9.057678648376602268e+02
9.134093943388347725e+02
1.061106111264181209e+03
1.082629642404592005e+03
1.346176768221298744e+03
1.266400577964394870e+03
1.087696910442553190e+03
8.621748425297022322e+02
7.486036164863390923e+02
5.857686057687856191e+02
4.805394860593895032e+02
5.084096315575237099e+02
3.767294320955512035e+02
1.810228858446748035e+01
-6.242763456053080517e+01
-1.876847539220681260e-01
1.022476766002520634e+02
2.993075581948639297e+02
4.463366741639053998e+02
4.115406823353435470e+02
6.285344693705919781e+02
8.470677242578879031e+02
5.685660971320983208e+02
-3.329684966363702614e+01
-2.573681103602527855e+02
3.050002401675316719e+02
8.343755919186872916e+01
-2.887496598108566559e+02
-4.193136428208179609e+02
-8.700716513547912427e+02
-8.267188623750778333e+02
-1.078873403252440085e+03
-1.359606856780405224e+03
-3.486235666609143209e+02
2.035335611446112409e+02
-1.185951532386677201e+02
-4.274673671865483016e+02
-4.064133162092735461e+02
-1.903858381355737208e+02
3.337927446079280003e+02
5.219583007023163645e+02
1.485085841574262666e+01
6.214060481978892767e+02
3.344470878646715732e+02
-2.533330845740001678e+03
7.128956475961668104e+01
-2.764366560408572241e+03
-9.764762375725052834e+02
6.845612994154444095e+02
-1.844788247733271874e+03
-2.931128571328226826e+03
-3.097828469063426382e+03
-5.072031809335899197e+02
4.487907691328711621e+02
1.031249782313992682e+03
1.242031753394177031e+03
1.485173091112329757e+03
9.622076414670467557e+02
6.203508898313438067e+02
6.839301669010570777e+02
1.129703100030879796e+03
1.368057025477303569e+03
1.218723979401387624e+03
9.286963722637320870e+02
7.245201984277623524e+02
4.588946121159269182e+02
2.258853980457355135e+02
2.253161030381079399e+02
-1.319125137312963034e+03
-2.043321772459190015e+03
-6.512864778924264897e+01
1.695582651447660396e+02
-3.070071891240508535e+02
-1.168258855257807681e+03
-1.574442462015173987e+03
-1.664502251473247043e+03
-1.117459564004645017e+03
-7.544545917454721575e+02
-7.974342554254841389e+02
-1.114294659772598152e+03
-7.513563004705207504e+02
7.906291994168889232e+02
1.518598966595229058e+03
1.746255590816223730e+03
1.939273494343342691e+03
1.503766925807986354e+03
1.278860160532598911e+03
9.405487402915822486e+02
8.910883002636213632e+02
9.013242590246495638e+02
4.738408260954643083e+02
3.306593780876237929e+02
2.779108905067675437e+02
2.018760847118631716e+02
2.448962228336422982e+02
3.968736359084333571e+02
2.212953831785793000e+02
3.194295371749011565e+02
9.662989169043435140e+02
1.021802221024186679e+03
9.864766275490908356e+02
1.147597704841339919e+03
1.219678592533409073e+03
1.053190864197279097e+03
8.453572332093707473e+02
8.272668586246016957e+02
4.238159601525990752e+02
-1.372157486647300288e+02
-2.866358300496498032e+03
-3.478231436634229794e+03
-3.990089839597268110e+03
-3.779476814726681823e+03
-9.114721245452545872e+02
-7.987327775267638117e+02
-1.328064053218638492e+03
-8.762697531125450041e+02
-2.833011331816922507e+02
-8.762785447449777720e+00
1.107175359151637934e+02
4.198291709630293553e+02
1.661770711366785349e+02
4.891356255428054851e+02
3.888020509089744223e+02
8.793149322399163026e-02
-5.871624051868146807e+02
-8.030326242657326929e+02
-7.772883643864091709e+02
-1.019639549694806874e+03
-1.046096366071656576e+03
-6.349078031139084715e+02
-8.194417436994351647e+02
-1.017444492400259151e+03
-9.209058707601614060e+02
-8.389360278175262238e+02
-8.724492560590869061e+02
-7.523209086904406604e+02
-7.344852030491985033e+02
-5.450361102418431756e+02
-3.823513886918964886e+02
-1.516935592505042791e+02
-3.584113609449335627e+02
-3.618175521850860719e+02
-5.609742204215474430e+02
-8.631553112491657203e+02
-3.600941831407790232e+02
-1.413465256349293213e+02
8.636544512990258937e+00
3.441452430075928248e+01
-1.358655032396862161e+01
-4.147879154119352734e+02
-8.864717223252033591e+02
-8.634013771445283965e+02
-6.155139773943981254e+02
-3.705373533277938236e+02
1.962317096755324997e+01
2.427778998171086471e+02
4.500034911674338218e+02
5.440888648838397330e+02
8.169380012893136609e+02
4.877078672729409732e+02
6.763074268804509757e+02
7.237280341683319875e+02
7.110561087181463336e+01
-3.715993250283585212e+02
-2.483075578457462882e+02
-1.467033952947875150e+03
-1.073921077167454087e+03
-2.109741079798128567e+02
-5.340246274657347385e+02
-1.497079139918904502e+03
-1.236440364408572577e+03
-9.731078866927836089e+02
-5.817555834188499375e+02
-8.113291970747130790e+02
-1.343220887734641337e+03
-9.364389669689530820e+02
-1.350733435224526318e+02
-3.362118499620111720e+02
1.012174058646072154e+02
2.612664630660484022e+02
2.327436106747202871e+02
-1.433689771471013046e+02
-5.170325384569812286e+02
-3.193224828874419927e+02
-2.342962717413414282e+02
-1.167955647635806429e+02
2.115102377599857562e+02
4.294524428009451071e+02
1.963693997848715071e+03
2.558986702224369765e+03
2.371278716021394757e+03
2.137737665786380148e+03
2.091389842502516785e+03
2.100158099408763974e+03
2.312013104756761550e+03
2.663867778027093209e+03
2.644585793710115468e+03
2.866280060670314924e+03
2.911889234681880225e+03
2.557177207856188488e+03
2.767326697785097167e+03
2.546218567140344931e+03
1.915846647440367633e+03
1.807268790077949689e+03
1.795470598396681225e+03
1.726276608493907588e+03
1.569546074401559963e+03
1.538290849111054513e+03
7.454002745227330706e+02
-4.210459108490792524e+00
-6.826085524076314641e+02
-5.787526733500449154e+02
5.554226733595269252e+02
1.969837235212203041e+03
2.994420965927207817e+03
3.452150245916070617e+03
3.485992190004109943e+03
3.185827270996628613e+03
2.714788407289969200e+03
2.095679683355854195e+03
1.896364124684816488e+03
1.152904929580371345e+03
1.223141362406367762e+03
1.478041961183303783e+03
1.946974037674974625e+03
1.466949607344677361e+03
1.256579486548760087e+03
1.077619303160962545e+03
4.801907084323887602e+02
-1.481779604406586486e+03
-2.116342907601862407e+03
-3.722061797756838359e+02
7.614692319190505714e+02
1.331694485973895553e+03
2.615462701736098097e+03
2.615811663492562730e+03
-3.496521121536171108e+02
-3.176082243751546912e+02
-6.741877394755859996e+02
1.959406420605396534e+03
1.951752384870374726e+03
5.076550432342900763e+02
2.149880058024611117e+03
9.954151655966549015e+02
3.263857829286072842e+02
-5.252612873033275491e+02
-3.474596396135473697e+03
-4.245665335572414733e+03
-5.696555761401566087e+03
-9.621075272235601005e+03
-8.873246985846235475e+03
-9.438047140599539489e+03
-1.149437881922813358e+04
-5.600301513765248274e+03
-1.073832464591202097e+03
2.810599781977492739e+02
1.675369919224917339e+03
4.768050656655528655e+03
3.980143583925063012e+03
4.886969556770735039e+02
-1.908277377127766613e+03
-4.994744521267938580e+03
-8.596432986242614334e+02
2.102034274626531897e+03
2.815264459616947988e+03
1.437111245153639402e+03
-2.364341045034255785e+03
-2.089133691168472978e+03
3.667580729643823929e+02
-2.229671891167732610e+03
-1.586429296536686024e+03
-3.373136103612799161e+03
-8.683568818946952888e+03
-1.290800322817517917e+04
-1.452853269609791641e+04
-1.394418895221820640e+04
-4.135897102888028712e+03
4.806464128618036739e+03
7.734936845881949921e+03
6.795498347046463095e+03
8.794334492673986460e+03
6.907554754452356065e+03
-1.917906621051688035e+03
-7.748962844813768243e+03
-1.201567552808953042e+04
-1.523603658794793409e+04
-1.455990188745915293e+04
-7.766238411996615469e+03
-3.400251552428113655e+02
-7.972537940906453287e+02
-8.995912601860673021e+03
-1.164705792603021291e+04
-7.224461270647861056e+03
-6.389928026778876301e+03
-4.160503368339377630e+03
1.048907025583357836e+03
5.655316876414029139e+03
7.951584140230720550e+03
1.030577835623034662e+04
1.118990166136173684e+04
8.152592192164698645e+03
7.083933649087642152e+03
1.010524484487756854e+04
1.318797611589332519e+04
1.086832092003789148e+04
-7.880368149043441406e+01
-8.494326515366223248e+03
-9.398181445828218784e+03
-9.589322832553847320e+02
9.749854089998727432e+03
1.055705824680382830e+04
1.010770951802480340e+04
9.826974309912748140e+03
2.780927287756104306e+03
-3.468542011458989236e+03
-6.001015368791016954e+03
-1.257025452197324921e+04
-1.665726361268709661e+04
-1.044303926282079192e+04
-1.266799995289731214e+03
4.419465916133496648e+03
6.169658794290421611e+03
8.948070036452923887e+03
1.057840225980375544e+04
8.176987820607796493e+03
6.645070439879217702e+03
7.052582513107132399e+03
8.815263081687658996e+03
1.471245302284030186e+04
1.635924173562249598e+04
1.429836976169776062e+04
1.202261754692929389e+04
9.007990899310305394e+03
3.453592270948698115e+03
