4.669190215410234487e+03
4.793865592189319614e+03
5.620457962676438001e+03
4.439390218476331029e+03
2.905548930807445231e+03
1.578957728752301591e+03
9.515215983056349387e+02
9.142546135563188727e+02
5.078952635949482328e+02
5.844073278862213101e+02
2.249794104008597344e+02
6.234757866086616787e+02
1.569639951685300048e+02
-4.553980898773166928e+02
4.605006964775268443e+02
1.414746309779402964e+03
2.160790150811767035e+03
3.203596465025075759e+03
3.700962435808077771e+03
3.841920530161874012e+03
3.893514927946077933e+03
2.531582796940605022e+03
4.551984411342068597e+02
-1.283283810184625054e+03
-2.949738189805222646e+03
-4.490227668631823690e+03
-5.181741924448461759e+03
-5.944322634445406038e+03
-6.154962147397071931e+03
-5.982549648156602416e+03
-5.851974638660092751e+03
-4.537929079546894172e+03
-2.868284468872379875e+03
-1.075052377710519977e+03
5.788649557951622171e+01
8.887399780449360378e+02
3.218443384642870910e+02
9.855304389639685496e+02
1.111816674944655233e+03
-3.714490647610047290e+03
-8.704290832588088961e+03
-1.005652063468613233e+04
-8.023040596030660708e+03
-3.928815686882624505e+03
-2.866912393042994154e+03
-5.726500146922425301e+03
-6.447926050962148111e+03
-7.924437764391956989e+03
-6.514652877367709152e+03
-2.757365016074321829e+03
2.650506171349393298e+03
8.030037575670993647e+03
7.352203769340510007e+03
8.320033359923365424e+03
9.850603199841447349e+03
1.079298730826820611e+04
1.169283140988117157e+04
1.181241905607047192e+04
1.223379910663049122e+04
1.184951289730145254e+04
1.037560651614199196e+04
8.702129222639588988e+03
7.323125303709944092e+03
6.458476016028165759e+03
5.365901212468464109e+03
3.546279894233776304e+03
2.031869372219138768e+03
1.668912324741926113e+03
2.108444176086190510e+03
2.509951127429781991e+03
2.662023164147905845e+03
3.051536588265923911e+03
3.965350207456746830e+03
4.466813636012850111e+03
4.965996822085337953e+03
5.707897690934335515e+03
5.784590987297303400e+03
5.667847064464591313e+03
5.238002355227985390e+03
4.501850474734216732e+03
3.523446924536373444e+03
1.934158858104459568e+03
2.634448901481454186e+02
-1.531541730566892738e+03
-2.427827407303999735e+03
-2.057613064248590035e+03
-1.470992411804390031e+03
-2.040458470160788465e+03
-2.458772721485990587e+03
-2.953003730497671313e+03
-3.059039528595877528e+03
-2.598016157616898909e+03
-2.350827977054490475e+03
-1.518919203325680655e+03
-8.800186491904978539e+02
-7.932506510970407589e+02
-1.341442848081025204e+03
-6.669034706145001792e+02
-3.123070844292859078e+02
-1.668665235208310378e+02
8.628900071689005244e+02
7.943215616958688088e+02
-3.239928410482452250e+02
-1.134325725163576863e+03
-1.914700093063425584e+03
-3.305838787817903722e+03
-4.733189915867820673e+03
-5.184700240819646751e+03
-5.137454114390679024e+03
-4.533187479647026521e+03
-3.935935950124612646e+03
-3.016767282267350765e+03
-1.465518712607896532e+03
-1.363465143219149525e+02
9.344359823414467883e+02
2.583716418988635269e+03
5.023407976732903080e+03
5.808773071262579833e+03
5.336282670821257852e+03
4.406820667772420165e+03
3.080342710781152164e+03
3.487596728707213174e+02
-3.277494773538047866e+03
-6.761414335546004622e+03
-8.567686166796871476e+03
-9.054436501216780016e+03
-7.010587922391398934e+03
-3.142622390853490742e+03
-2.867560145687484237e+03
-6.060981421524151301e+03
-8.187022088997090577e+03
-6.828550925886122059e+03
-6.527617828905844362e+03
-5.431084915583834118e+03
-2.953709958819023996e+03
-1.796513805670318334e+03
-1.798537138576025882e+03
-2.333848324823106395e+03
-3.863353028886184802e+03
-3.264731568228184187e+03
-4.770679560835589655e+03
-5.935158613377736401e+03
-5.479219126477158170e+03
-2.608755407019601535e+03
-2.703656915180877604e+03
-6.991915183818739024e+03
-8.961560380386617908e+03
-9.183655343018408530e+03
-8.280214688275480512e+03
-8.777152571690774494e+03
-6.492352809611466000e+03
-2.410703179302777244e+03
2.136372186370453619e+03
6.389192469428180630e+03
8.225846882128691504e+03
8.304472506144687941e+03
8.191434972033912345e+03
7.989034011832926808e+03
8.380856138787874443e+03
9.010088603031841558e+03
8.380325663743738914e+03
7.256664606385636944e+03
5.439339747471303781e+03
1.744637417316333995e+03
-1.421387494429058961e+03
-2.469649865060790944e+03
-2.791440397322111494e+03
-2.430857481444344558e+03
-2.551857552196734105e+03
-2.687499747930351077e+03
-2.964660790396482298e+03
-2.609093764691293927e+03
-1.109288845684432545e+03
-1.219779807903388757e+02
-3.119089507479988015e+02
2.069076215161073378e+03
4.384203397765142654e+03
5.040296315603818584e+03
4.579241391160590865e+03
2.440391735707129556e+03
2.865377633683955082e+03
3.812917212561835186e+03
3.865944411699742886e+03
2.272840830331932466e+03
1.626882832096327775e+03
6.641329535647945477e+02
-1.053066378974329609e+03
-1.480162584529170317e+03
-1.971317201163504933e+03
-2.236692661409624179e+03
-1.469635228025034166e+03
-4.264075588174824816e+01
5.784790404434133961e+02
5.796250095394343589e+02
1.578032159944177238e+03
2.501906959479024408e+03
3.672322964783509633e+03
5.689336414018225696e+03
7.058359480639648609e+03
7.976435710817068866e+03
7.231733852033676158e+03
6.031902452724003524e+03
4.012409820369275621e+03
5.937341012868618009e+02
-1.760567896443802965e+03
-2.750449823341647061e+03
-2.539404470636700808e+03
-1.886086558931606305e+03
-1.134544424798928731e+03
-6.713415744569266508e+02
-8.477721723771514917e+02
-2.784203261629784834e+02
-1.908007911156115810e+01
5.901270628116574812e+01
1.509104379223590968e+03
3.334565839414268794e+03
4.953418153863427506e+03
5.649673713487012719e+03
6.390347077141514092e+03
7.106122631059243759e+03
6.977704415060286919e+03
6.032516743071209021e+03
6.039003130840004815e+03
5.525246400335429826e+03
4.255293884843145861e+03
2.367193281156298326e+03
8.946316070523084818e+02
7.958069989281734991e+01
-4.627280537015122377e+02
-1.009689046436761259e+03
-1.333043960001006553e+03
-2.969730289851594307e+02
2.249477724880136122e+02
-3.715939390499611363e+02
5.265453185042363202e+02
2.809021095919421896e+03
6.218121119109338906e+03
8.408103192701186344e+03
7.487071141871191685e+03
7.288828797181671689e+03
8.199248150470471955e+03
8.168649854120021701e+03
8.193537465396238986e+03
6.238887345767506304e+03
3.491423167363300763e+03
2.328645058513676304e+03
2.157023052974344409e+03
1.504820126750564668e+03
1.778400674655558191e+02
-2.186839916932994583e+03
-5.330372550656256863e+03
-6.051276011106679107e+03
-1.482832448443687326e+03
-3.559342858039901330e+03
-6.803893730705291091e+03
-5.613781686453204202e+03
-6.733953830218498297e+03
-7.023933286335153753e+03
-5.747624667355974452e+03
-2.699183530170967060e+03
-2.271752669669821898e+03
-3.476448926678409066e+02
-2.979743709288262608e+02
2.753265745516980019e+02
-8.218393814201945133e+02
-3.394949817656887717e+03
-6.038128369833421857e+03
-6.610810618242559030e+03
-6.519323109998539621e+03
-8.070229982845099585e+03
-9.251724641624619835e+03
-9.782622001896463189e+03
-7.318694327304596300e+03
-4.411284896136071438e+03
-1.924979106029377363e+03
-6.955000612584657347e+02
-7.635866924704072289e+02
-8.787626388644929420e+02
-1.270955151987551744e+03
-1.104293041037789635e+03
-1.272474127064949471e+03
-5.424379510365437227e+02
8.785531316003928168e+02
-1.966865804329558785e+02
-2.279938654372959263e+03
-4.456216149208555180e+03
-7.366872618594013147e+03
-9.207113069141754750e+03
-1.007492291678463516e+04
-1.024780200526925546e+04
-9.567727192170681519e+03
-8.442566948981038877e+03
-6.520937383531580963e+03
-2.638824920662281784e+03
4.251594816909516084e+01
6.340287041825966980e+02
1.838820072005139764e+03
2.171568350673752775e+03
3.195915612967448396e+03
3.978809104813021349e+03
4.052381884492229347e+03
3.798106060129720390e+03
3.001677938905584597e+03
2.699243752189343923e+03
1.631516216403292219e+03
4.217188147674720540e+02
-1.821806310865210037e+02
-7.793202600027541394e+02
-7.702687575890257676e+02
-2.281868382299530253e+02
1.860212146297010065e+02
6.443821320325238275e+02
1.530413501916248833e+03
3.907756762121225165e+03
6.355659306957867557e+03
7.948409657902428989e+03
7.929212386142850846e+03
8.556900369024526299e+03
1.090503452459596156e+04
1.075147762915067142e+04
7.893453213948568191e+03
4.390194202404018142e+03
2.138202047426840181e+03
8.690884985703113443e+02
-3.809715059832557472e+03
-4.353025330081819448e+03
-5.107242991112002528e+03
-5.938962716631913281e+03
-7.834647330330157274e+03
-7.820854885096839098e+03
-8.410732422073138878e+03
-5.075809294277027220e+03
-3.355794563213877154e+03
-5.868343214488360900e+03
-5.620724923842931275e+03
-5.916666791433569415e+03
-7.270581576455009781e+03
-3.703853763531156801e+03
-2.323260421188546388e+03
-6.292112444784442005e+02
2.933494396116598637e+03
2.528920350486385360e+03
5.479457294801004537e+03
1.910299472997793600e+03
-7.133943958898178153e+02
-4.733073046269698239e+02
-6.983992961293604367e+02
6.626658287938077763e+01
6.065422857723410743e+02
-1.657402651763835820e+03
-2.552665634113017859e+03
-5.660171545364689337e+03
-9.836795021468367850e+03
-8.592604831971619205e+03
-4.682327295131025494e+03
-4.888210176920034428e+03
-4.202739499753200107e+03
-6.313445004463018449e+03
-8.199520040575944222e+03
-6.048242628203011009e+03
-4.871073039697789682e+02
3.435909215563566249e+03
4.469088251641974239e+03
4.067786678102644146e+03
1.687988492933454609e+03
3.990971489470126926e+03
7.116271400495062153e+03
1.013600563734078787e+04
1.463266847464642524e+04
1.866272674465083037e+04
2.069833448855325696e+04
1.979853985671657210e+04
1.667355424966505961e+04
1.564568252293681508e+04
2.072862747154083991e+04
2.507129223352331974e+04
2.836836891314858804e+04
3.041050086515072690e+04
2.839931779534984889e+04
2.505458860818077665e+04
2.427824799499169239e+04
2.211104634469341545e+04
2.015553220194989626e+04
2.370776136515952021e+04
2.917988557737606970e+04
3.058861779318876506e+04
2.899130572185623896e+04
2.794602342116515138e+04
2.720636931510468276e+04
2.767683758267898520e+04
2.995455045585728294e+04
3.064641451870141827e+04
3.022358154151966301e+04
2.727886677365001378e+04
2.267317837639529898e+04
1.963262770913149870e+04
1.957844155656180010e+04
2.014817343989809888e+04
1.970527709346932170e+04
1.991641719972530700e+04
2.264356424369014712e+04
2.344806914135234547e+04
2.128679492972921798e+04
1.656355302601011863e+04
1.039254130854303367e+04
3.654576328709344580e+03
-3.624530373666963442e+03
-1.079024916966724049e+04
-1.315895021499612267e+04
-1.376140755585103761e+04
-1.476413741923816997e+04
-1.580469050694527141e+04
-1.530591878187399743e+04
-1.348431108407017746e+04
-1.820748916729413759e+04
-2.511003637366888870e+04
-2.838846998396453273e+04
-3.058946120499223616e+04
-3.220444421408278140e+04
-3.107878401826095433e+04
-2.819676529885062700e+04
-2.469184541149421420e+04
-2.347570721174745631e+04
-2.379870860058032486e+04
-2.272890760542324642e+04
-2.302726160747914037e+04
-2.617210233269824312e+04
-2.653579825721905945e+04
-1.892572079894821218e+04
-6.399213611078048416e+03
-3.873142673680767984e+03
-1.483555556439810607e+04
-2.685393747790670022e+04
-3.181746341491049316e+04
-2.667081838284224432e+04
-1.590483785466011432e+04
-8.882512828795443056e+03
-4.226864053269464421e+03
4.323416767154743866e+03
8.758665940911523649e+03
2.367236256187874915e+03
-7.649590916972238119e+03
-1.562047109802732120e+04
-1.816097708000117564e+04
-2.080692691822516645e+04
-2.654008136169891441e+04
-3.880311304195765115e+04
-6.060344798658041691e+04
-8.521980039236943412e+04
-1.040555488135306223e+05
-1.106801536248210614e+05
-9.787336415970770759e+04
-8.123896762275201036e+04
-7.990668832048762124e+04
-7.554343655613927695e+04
-5.333894037437150109e+04
-3.174284307516910121e+04
-1.989277153606234424e+04
-1.290367865775574137e+04
-9.787691878203995657e+03
-1.088375757783653717e+04
-7.326540141957021660e+03
7.255405420183564274e+03
1.493815434992076189e+04
9.749707267780102484e+03
-3.269647399609397780e+03
-1.913288841277202664e+04
-2.956612850731967046e+04
-2.340146249598195209e+04
-1.312377088002287019e+04
-1.278003770848943168e+04
-7.754530751291656088e+03
-6.237728004636782089e+02
-3.002939597706554650e+03
-1.772433542775302703e+04
-2.627741262645741881e+04
-2.655653210075673633e+04
-3.323703702781531319e+04
-3.266422849475487965e+04
-2.883475999643206524e+04
-2.183725643962277172e+04
-1.002137897267874177e+04
3.634161162657613204e+03
8.964474953120634382e+03
9.118563990702932642e+03
2.232844593031783006e+04
3.094311242748842778e+04
2.818565517678976903e+04
2.050497608506190954e+04
7.615084636462724120e+03
-4.439054846341605298e+03
-7.970716307214613153e+03
-6.622259776451362086e+03
-1.519715798795278351e+04
-2.415774518831033129e+04
-2.320611796839803719e+04
-7.814673530232041230e+03
-1.008303242033187598e+04
-1.798994714872961049e+04
-1.333212348820373518e+04
2.945739522629695784e+03
1.713370046811232896e+04
2.898779786004695779e+04
3.911504478239984746e+04
4.170545457539794006e+04
3.679484555957564589e+04
3.402878728718229831e+04
3.670513815317831177e+04
3.701493452552943199e+04
1.778464618932083249e+04
-7.140810118494149719e+03
-1.512057816773367449e+04
-8.366016915795235036e+03
-5.424324309290836936e+03
6.725035841102740051e+02
8.169650897532736963e+03
1.433920024320203811e+04
1.778201225593732670e+04
2.119695835639363577e+04
2.793695189816500715e+04
2.177331942440952480e+04
6.757331755906098806e+03
1.591987229868857503e+04
3.611190888873919903e+04
5.899129532412182016e+04
8.006586394742455741e+04
7.536167606109019835e+04
5.947660497192978801e+04
4.275453859924896096e+04
4.559610525587649317e+04
7.090207629411848029e+04
1.077472940115327219e+05
1.300205598163213872e+05
1.219437937621428282e+05
1.108537575529294845e+05
1.079691100366951432e+05
1.083885730949060526e+05
1.092009741607169271e+05
1.057430933630727523e+05
9.871169262906706717e+04
9.191879336004921061e+04
8.264425124057347421e+04
7.969778838906747114e+04
7.181947618437893107e+04
6.219661957224427169e+04
5.661104160304703692e+04
4.888219990104221506e+04
3.882662504696386168e+04
2.958518358674996125e+04
2.908560635221433768e+04
2.412461502588058647e+04
1.425142393547853135e+04
9.180365409951893525e+03
8.721524895375328924e+03
1.866905412686623458e+04
3.274195999484477579e+04
3.950043344108371821e+04
3.572886486526741646e+04
3.424071340798340680e+04
3.428125532169043436e+04
2.675968957878751462e+04
2.142048555225707241e+04
1.526220837404596205e+04
6.197209802863336336e+03
-1.145824786157554565e+00
-4.353269696822798323e+03
-9.126522078435673393e+03
-1.639417072281212313e+04
-2.099041570552159101e+04
-1.972125917513848253e+04
-1.755766406210416244e+04
-1.235881124796531185e+04
-5.685377743859909970e+03
-3.085703673660574168e+03
-8.897457779911757825e+03
-2.057438404289026585e+04
-3.417006298824115947e+04
-5.094891278438481822e+04
-6.863896100574520824e+04
-8.476839698486473935e+04
-1.003316894058239850e+05
-1.040834974294523854e+05
-1.018220065478805627e+05
-9.470367296362783236e+04
-7.850641604081676633e+04
-6.596926613449474098e+04
-6.775100422533317760e+04
-7.849773457164138381e+04
-8.837544518109766068e+04
-9.733905260520262527e+04
-9.886965606391881010e+04
-9.752697387063557107e+04
-1.024900899986283330e+05
-1.151137183373856387e+05
-1.291745261601950624e+05
-1.390515172239481763e+05
-1.491889182269571756e+05
-1.602505834633999330e+05
-1.667741859283480153e+05
-1.711036302398750558e+05
-1.746302651290875219e+05
-1.731963018277950177e+05
-1.693987094456923660e+05
-1.631899594198950799e+05
-1.544552649287504028e+05
-1.382541784171423351e+05
-1.149296278856433637e+05
-9.501656451980551356e+04
-7.896499660281067190e+04
-7.077689696606826328e+04
-6.527465694011276355e+04
-5.759115219907352002e+04
-5.031200299215260748e+04
-4.261818326892314508e+04
-3.149172006563299874e+04
-1.717122595016121340e+04
-1.778890161346277239e+02
1.315195972699061895e+04
2.493364222462204998e+04
3.658884776484048052e+04
4.404820499416495295e+04
5.020346565554617700e+04
5.881978310481714288e+04
6.398171276345827209e+04
7.072088537791365525e+04
7.967449644494154199e+04
8.601200334746249428e+04
8.727020410960714798e+04
8.530107845633701072e+04
8.087855259915949136e+04
7.608739428292114462e+04
7.367507588002165721e+04
7.178943404274189379e+04
6.969425827889202628e+04
6.556250958315508615e+04
6.093535700200547581e+04
5.905270395930740051e+04
5.992288159871610696e+04
6.129036643948725396e+04
5.781091407007874659e+04
4.903592335289047332e+04
3.484869048583426047e+04
2.174300837052505085e+04
1.053668212141460208e+04
-2.083547566720903433e+03
-8.482284031365912597e+03
-1.049741133921466826e+04
-9.276681552378289780e+03
-3.583596791928073799e+03
2.509383365474512175e+03
1.071794873867419847e+04
2.370068005965034899e+04
3.335310612847878656e+04
3.836947908780430589e+04
3.810566060261280654e+04
3.549884263480758091e+04
3.550480543560328806e+04
3.787622007380302239e+04
4.805927108269152814e+04
5.977207619597331359e+04
6.404362222289790952e+04
6.712572849755396601e+04
8.006108439328192617e+04
9.153730711956408049e+04
8.694697734752792167e+04
8.335721648732641188e+04
8.351941603434256103e+04
8.470582658631412778e+04
8.240143232090334641e+04
8.194319085033248120e+04
8.151713136686563666e+04
8.208990192902243871e+04
8.418569026148860576e+04
8.363598468472101376e+04
8.328746892057549849e+04
8.334576706286547414e+04
8.291128177672789025e+04
8.139427881003012590e+04
7.689991050301912765e+04
7.168348529553473054e+04
6.964435514962859452e+04
7.146755782530723081e+04
7.281422092708671698e+04
7.240250076459982665e+04
7.019206507128152589e+04
6.646702028880795115e+04
6.559046690584876342e+04
6.430271111070688494e+04
6.012452455461964564e+04
5.369379136076408759e+04
4.906267125149443746e+04
4.435788129812090483e+04
3.581110212565627444e+04
2.646874232855985974e+04
1.871725249372271355e+04
1.142260054128530464e+04
3.402233966810460515e+03
-4.026071110397863322e+03
-1.137095126435394559e+04
-1.828746293780009728e+04
-2.605530022454175923e+04
-3.565862381311318313e+04
-4.618221425528374675e+04
-5.329969648749288899e+04
-6.054838702631731576e+04
-6.480921104961192032e+04
-6.644285351183783496e+04
-6.701737043136222928e+04
-6.784382527267959085e+04
-6.762043085586793313e+04
-6.784520299254472775e+04
-6.754630113840685226e+04
-6.511680900126486813e+04
-6.120078965250648616e+04
-5.887938675298850285e+04
-6.159384972439421108e+04
-6.895897581882923259e+04
-7.517746004404612177e+04
-7.728744350596555159e+04
-7.899812797522952314e+04
-8.157315984738028783e+04
-8.095539638378868403e+04
-8.019601197172619868e+04
-8.134362320808888762e+04
-8.264444229261894361e+04
-8.164161435171381163e+04
-7.857230858499443275e+04
-7.447640358992844995e+04
-7.312231651201793284e+04
-7.025883261605397274e+04
-6.770941699071011681e+04
-6.613775289837314631e+04
-6.390385243920031644e+04
-6.093506748349891859e+04
-5.588364577677891793e+04
-5.052388714758379501e+04
-4.519276605576896691e+04
-4.010744427010328945e+04
-3.532031381846660224e+04
-3.156429268145643437e+04
-2.949491045939574906e+04
-2.885594222527692909e+04
-2.991801628350989631e+04
-3.058674327335829366e+04
-3.116098294897509186e+04
-3.119899855649049277e+04
-3.128787463576429218e+04
-3.102794824747986058e+04
-3.039922432263762676e+04
-2.999842705299125373e+04
-2.968413865133040235e+04
-2.791147317207201559e+04
-2.371731978203909966e+04
-1.801230608351295086e+04
-1.368051758226116181e+04
-8.490530040618856219e+03
-3.775561452859422388e+03
-1.379950673487191580e+03
1.491133277624809580e+03
5.239568299250012387e+03
9.436302332633011247e+03
1.184185220447380198e+04
8.437074547147070916e+03
2.604934027116508787e+03
1.011104531617147359e+03
1.851018334218973678e+03
-6.654070942680198186e+02
-2.533778658074120358e+03
1.009372669721884449e+03
7.351255658913724801e+03
9.716763628298300318e+03
1.154220034212078644e+04
1.262498750282511355e+04
1.977278012151704752e+04
2.545710925865111494e+04
2.658867433251189141e+04
3.109777960568435446e+04
3.711415057136295945e+04
3.971944835959375632e+04
4.108803755575585819e+04
4.246374429932095518e+04
4.282265330965596513e+04
4.289750881546673918e+04
4.237296028307112283e+04
4.215855646016888204e+04
4.211180444383002032e+04
4.228734532212190243e+04
4.307224950689285470e+04
4.306129762477930490e+04
4.354437547973744950e+04
4.374892519171417371e+04
4.189690986499222345e+04
3.939705150263051473e+04
3.667204731408658699e+04
3.447222026431953418e+04
3.266605533635734901e+04
3.121135526388607104e+04
2.885837703088461785e+04
2.412298990016227253e+04
2.042514726429579969e+04
2.349033235474607136e+04
2.824923747832990557e+04
2.951649478558566989e+04
2.744104430361487539e+04
2.535677994546497939e+04
2.143857443315534329e+04
1.628914530239077067e+04
1.279271702133065264e+04
1.114167517616610166e+04
1.058312837575154117e+04
1.011047763596463119e+04
8.774655806181386652e+03
7.390857622733181415e+03
7.543966233861981891e+03
1.031423492341568453e+04
1.270554839772620835e+04
1.391074935054115485e+04
1.531212082754283256e+04
1.817059551031383671e+04
1.988048858725428363e+04
1.881943897704832852e+04
1.734358627514839827e+04
1.522131075007571053e+04
1.194332229203262796e+04
7.328591272710183148e+03
3.366686900130210233e+03
1.282709236635437719e+03
-4.076998631442271289e+03
-8.561185374084499927e+03
-9.295518957283766213e+03
-8.672121482999638829e+03
-6.919564895126295596e+03
-7.399615963129759621e+03
-1.057238598031734728e+04
-1.077195129680854916e+04
-8.365499323505739085e+03
-7.823298930473099063e+03
-4.315403280177267334e+03
2.919024989762663608e+03
5.438801186062650231e+03
8.688593489622217021e+03
8.739622784728990155e+03
1.066211602170541119e+04
6.320421791452446996e+03
-5.129374743324110142e+00
-3.583881193441199571e+02
-7.793314681030575457e+02
-3.845522471536841294e+03
-5.658956783258984615e+03
-2.396756633398666963e+03
-3.350477377538175006e+02
1.035564862106486544e+03
-3.869240012348034838e+02
1.007822796495756393e+03
5.551440805148089339e+02
1.462975157188297544e+03
-6.037420814556952564e+02
2.153870250888766805e+03
1.716551271082067842e+03
-4.004867556090562886e+01
1.021527133223004739e+03
-1.568102941109257472e+03
-4.106865757175993167e+03
-3.297818169639470852e+03
-4.141411141348548881e+03
-6.683995104821437963e+03
-1.037019401929399828e+04
-1.071993303673678747e+04
-1.181073305437962699e+04
-1.462708982829233355e+04
-1.095733255229723363e+04
-5.086897007172035956e+03
-4.542024352904858802e+02
2.311284361615328748e+02
-7.432236025239370747e+02
-1.181566619490542735e+03
-1.353156870552596502e+03
-9.939131954141789720e+02
-1.169899199498196822e+03
-1.286593570036395988e+02
2.259760325700550766e+03
1.630011619804288330e+03
-1.486350771536559023e+03
-5.253502628539806210e+03
-9.281177356136569870e+03
-1.461792956678980954e+04
-1.920763903295268392e+04
-2.145062519362402236e+04
-2.241316000520480156e+04
-2.308206043506725473e+04
-2.141541727833096229e+04
-1.757627253161610497e+04
-1.236548195969336484e+04
-8.943028365110127197e+03
-9.847075979969262335e+03
-1.033861891236684642e+04
-8.315173449719131895e+03
-7.226260599387172078e+03
-6.886342842301522978e+03
-6.816182778159311056e+03
-3.878790381082512340e+03
-1.951049491779499249e+03
-3.702464493779531040e+03
-6.620298599850499158e+03
-1.068874392491486469e+04
-1.491829285634792723e+04
-1.869406516394262144e+04
-2.245830057739053518e+04
-2.254076517800143847e+04
-1.880348550751804214e+04
-1.722250531714211320e+04
-1.466624559101817067e+04
-1.420414790717538017e+04
-1.458520433874673290e+04
-1.259266727778994027e+04
-9.503280813253268207e+03
-6.304696971128155383e+03
-3.729517440216113300e+03
-2.112390076843400038e+03
-1.863114271320243688e+03
-2.142602191496128853e+03
-2.654469444929071869e+03
-8.539207785948617584e+02
7.029133495990828351e+02
-5.288179054206830187e+02
-2.624956093544205032e+03
-3.486466058968708239e+03
-2.293181148565266540e+03
-3.459505722040297542e+02
3.512671319316207246e+02
1.302868411945371690e+03
2.589005473340790104e+03
5.216847932812415820e+03
8.304681930565448056e+03
1.054282596192483470e+04
1.153975709947473479e+04
1.300790226114885445e+04
1.496133671950602911e+04
1.686595567948022654e+04
1.795293706561142608e+04
1.837370632333333560e+04
1.835770685242592663e+04
1.718033888590349306e+04
1.540050860334531353e+04
1.319039485047751623e+04
1.050743823934767352e+04
7.865191571185733665e+03
5.918832959498211494e+03
2.538510782151493004e+03
-1.519265501421405133e+03
-4.284092715170906558e+03
-4.166543254029762466e+03
-1.556304721768272429e+03
7.898867299486207116e+01
1.381648214690967734e+03
3.290911794838130845e+03
2.511196744275839137e+03
1.419896638362775548e+03
2.461278505166300420e+03
3.999716837265466893e+03
5.719303322840920373e+03
5.434240509722482784e+03
2.530399784513936083e+03
1.676615064287750783e+03
2.399712794481221863e+03
3.889716728681051791e+03
8.015379259979871449e+02
-5.469549248683158112e+03
-8.934459563992842959e+03
-1.196361519593145567e+04
-1.266038289099734720e+04
-8.185680838847804807e+03
-4.941005669123429470e+03
-3.075944104749874896e+03
9.746064975039173532e+02
2.136433996492613005e+03
2.696446636489591128e+03
4.412754159241428169e+03
5.796164177715420919e+03
4.549450508013119361e+03
1.183497513159730943e+03
-2.431669558399787093e+03
-3.160038059867954416e+03
1.868171310185813581e+03
7.628367645355250716e+03
6.890422464556810155e+03
2.586019069981243319e+03
-1.510061699929449333e+03
-4.725924936489889660e+03
-7.335690797286331872e+03
-9.617635620387896779e+03
-1.141225307071614588e+04
-1.101969234432770463e+04
-9.987203304113061677e+03
-8.779046654741523525e+03
-3.153423006293613071e+03
8.585909056304190017e+02
2.809370859700077290e+02
2.836421022732019992e+03
4.996052908245983417e+03
7.009754000913550044e+03
7.337324683564341285e+03
5.797516371234876715e+03
3.942111363612964851e+03
1.595801020215310700e+03
7.835496501555270754e+01
-1.833443913869588641e+03
-3.261826846896964526e+03
-2.773076749332165036e+03
-2.420560605726224821e+03
-2.754640083964962287e+03
-1.582455180844176994e+03
-1.351174554255185058e+03
-2.233982818690097247e+03
-2.368899259433898351e+03
-2.590021818468461333e+03
-2.597662228096813578e+03
-2.778149671800918895e+03
-1.121532594772290622e+03
-6.559316838909522858e+02
-1.782382889955980545e+03
-3.003784999977671760e+03
-6.163008928772455874e+03
-8.095829587876983169e+03
-9.674460621135400288e+03
-1.300098208161292496e+04
-1.409001118082486755e+04
-1.379442786659513695e+04
-1.199632538667026711e+04
-8.630761061977877034e+03
-7.987368761149142301e+03
-6.397234547453986124e+03
-5.743132773535401611e+03
-6.086434000130379900e+03
-7.930404041999813671e+03
-5.925896391278135525e+03
-2.506876736650426210e+03
-1.678386439507807609e+03
-2.773686053770938997e+02
-2.456801969366623780e+03
-1.826237532679030835e+02
2.120168820976341522e+03
2.750592473404861721e+03
1.936663417464839767e+03
1.635367062602980241e+03
1.864808036025421188e+03
1.570017868878372838e+02
-4.497016196214623562e+01
-3.347856183375566616e+03
-5.574795427642010281e+02
1.441318944390918659e+03
-1.544356851942248568e+03
-7.088396057984130493e+03
-5.687685796978569670e+03
-4.718003996581509455e+03
-7.386973736974009626e+03
-5.148465568339932361e+03
-5.770870023464183760e+03
-4.173262392757486850e+03
-2.102287332590371079e+03
-1.107523346272304025e+03
1.473232021258700343e+03
-4.826529151250204563e+02
-7.058213017231643107e+02
1.696858399704488875e+03
-2.405294609686499143e+02
-2.334867802030260009e+03
-2.684968561802728345e+03
-2.022557238626322260e+03
-3.635409198758457023e+03
-9.239434310191203622e+03
-1.202566444025299825e+04
-1.203391590470074880e+04
-1.323892071379377740e+04
-1.068450332381008957e+04
-6.545984994029630570e+02
6.348063442690023294e+03
8.877922837941354373e+03
8.878272302218130790e+03
8.243435313231493637e+03
7.992794738892439455e+03
8.489773481036501835e+03
8.198646184881994486e+03
5.957565529906311895e+03
3.032098705945385973e+03
-5.674870563024636567e+02
-3.615197421976234182e+03
-4.511905070043135311e+03
-4.467490171225599624e+03
-4.609559764918400106e+03
-6.348635338226262320e+03
-9.439683890599797451e+03
-1.216170252520733811e+04
-1.162634884633746515e+04
-8.031668118369185322e+03
-4.377833387811829198e+03
-2.197350005525963297e+03
-1.335105996386183506e+03
-9.566596546312451892e+02
5.920479020207557141e+02
6.331750600756881795e+03
1.053492903234866935e+04
1.158539758902583344e+04
8.980374662512178475e+03
6.619302015580492480e+03
6.687326579987455261e+03
6.502227394608277791e+03
5.041227729377899777e+03
3.258526559290333807e+03
1.958517072354709853e+03
7.161498983455682037e+02
7.607226371392896453e+02
1.230282202232931695e+03
4.582226870925404114e+02
1.952305584185313592e+03
3.455892901891550537e+03
3.095239942177171088e+03
3.752256835781976406e+03
5.006357578155862029e+03
7.010696300888076621e+03
7.410126544778269817e+03
5.576864861337466209e+03
5.209156910201096252e+03
6.708224404851510371e+03
7.427907716999900003e+03
4.852327963530207853e+03
1.416698327080606532e+03
-6.574654586579299576e+02
5.885928466384520164e-01
1.457863655701263497e+03
9.396200136016901752e+02
-4.170109157153363526e+02
-7.890665505869890239e+02
-2.915812922537719487e+02
1.645372260382122477e+03
2.814795125301511234e+03
3.349535665218500526e+03
4.036396972361043481e+03
4.728530280218733424e+03
3.706092419294613592e+03
2.905118777678738752e+03
5.859612303813788458e+03
8.914661860463023913e+03
7.564190000003583918e+03
4.620951216201046009e+03
4.602734875182425640e+03
3.496381029680327629e+03
-8.074653334255168602e+02
-5.196200877932701587e+03
-7.567202991096679398e+03
-9.219604826723623773e+03
-9.603285790348583760e+03
-8.150461526434443840e+03
-6.469549078834392276e+03
-5.378720250068739006e+03
-2.636150595577874356e+03
4.595071276586595843e+01
8.170973793424950600e+02
-5.459198537037202641e+02
-1.649060007230875954e+03
-1.589434532452271469e+03
-1.960139894736508950e+03
-1.450344026922392231e+03
6.507263796378871348e+02
9.838666353492271810e+02
6.565416988462317249e+02
-3.699876256345919046e+03
-6.513570509551565010e+03
-5.525958585753564876e+03
-2.069210453627689276e+03
1.145433784113206229e+03
4.476465121870626717e+03
3.343436285779556329e+03
5.109635668101859096e+02
4.917252300596791201e+02
9.654416086469602760e+02
3.277888306706500771e+03
7.534794417418172998e+03
8.079873118577008427e+03
8.708617935466438212e+03
1.108370061777866977e+04
1.020702294432702183e+04
9.073374797460890477e+03
7.655378995315419161e+03
6.806561596049087711e+03
5.972523048271707012e+03
5.349027543014582079e+03
4.209735372549019303e+03
2.911297689539425846e+03
2.011273867687840948e+03
1.131278010888550625e+03
-2.169646600840394512e+02
-9.026717445174913337e+02
-1.072181018305370799e+03
-1.390835762826427072e+03
-2.234936288248485653e+03
-1.947708022283701212e+03
-5.143667888596916100e+02
1.619871098890616395e+03
2.616868002421492747e+03
