-5.061363520940886701e+03
-4.832043724806187129e+03
-3.929266033225228057e+03
-2.752497705380657862e+03
-1.256843307652388148e+03
8.034374741064521004e+02
3.181496599526093178e+03
4.784378160917015521e+03
6.494206290363091284e+03
7.484958325060310017e+03
7.343551386097833529e+03
6.013151269495437191e+03
4.396535721452280086e+03
2.516213943757373272e+03
2.407467993192692006e+02
-1.688212581359746309e+03
-3.079168774865260275e+03
-3.547769950552749833e+03
-3.958950022553105100e+03
-4.508670910586729406e+03
-3.851074639982746703e+03
-3.202872798422430151e+03
-2.510287956554243010e+03
-1.317462279714878150e+03
3.982659407504415867e+02
2.534247486874902734e+03
4.640727763865136694e+03
5.221980184720269790e+03
5.594407472199043696e+03
6.440371392128468869e+03
6.754289376725654620e+03
5.820240951411916285e+03
4.308395661605115492e+03
2.527027283038671612e+03
-7.198015602293507982e+02
-3.125942517357273118e+03
-3.873134954319371900e+03
-4.436231618908476776e+03
-5.416971446897876376e+03
-8.722153871327174784e+03
-9.911735340901870586e+03
-8.149628917273352272e+03
-6.465509624358124711e+03
-4.782118389599087095e+03
-2.928360827008442357e+03
-2.069096113008379234e+03
-8.462914810668607970e+02
6.561747224868516923e+02
1.829761737681947125e+03
7.493520801499411391e+03
1.167448095734617891e+04
8.890584276041141493e+03
4.320706635937521241e+03
3.396673315719813218e+03
2.120713858775768131e+03
3.054927749284700894e+03
3.472079755210211715e+03
4.299489568222119260e+02
1.415216923828900804e+02
-5.701681244055440629e+02
-8.522570038293807784e+02
1.828005000336305841e+01
1.474571292469378932e+03
3.262583707720735674e+03
4.878219650535430446e+03
5.579359062640604861e+03
6.303058543676953377e+03
9.726047002905010231e+03
1.409513023598814834e+04
1.107235691786120515e+04
9.133660161269335731e+03
1.033870554029211235e+04
1.294421077672098181e+04
1.176884456605476225e+04
9.177410487380488121e+03
1.034464433016359726e+04
1.063522531454474847e+04
1.004988379303384863e+04
9.331341025466610517e+03
8.290349997379758861e+03
6.420453064697728223e+03
5.183282280378560245e+03
5.662526380306040664e+03
6.362002289060225849e+03
6.513351831591840892e+03
7.266114567624528718e+03
7.888081503859407349e+03
7.838123172511726807e+03
7.978943923581132367e+03
7.908248270094667532e+03
8.660586087873396536e+03
9.557654720125639869e+03
8.674234198666419616e+03
6.907985334962072557e+03
4.749235182029724456e+03
3.057438687019233839e+03
1.096349608485300678e+03
-6.214522040632068638e+02
-2.579484989312233665e+03
-3.920112270690425248e+03
-4.300659429609395374e+03
-4.445569457553851862e+03
-4.388216434949011273e+03
-3.390950165101713537e+03
-2.198951921603528262e+03
-1.636978181336962450e+02
1.760296289017222307e+03
2.423507488840510177e+03
1.996547500138978421e+03
1.389039789756080836e+03
9.946248525843329844e+02
5.157880243986925279e+02
-1.049097512969973877e+03
-5.345217904832915337e+03
-7.222999186302097769e+03
-9.150830812634259928e+03
-9.602972901618262767e+03
-1.139306873019209161e+04
-1.247197228369676486e+04
-1.287282699454569774e+04
-1.307350426441279888e+04
-1.313258231017695653e+04
-1.146046504195071066e+04
-9.286546089918936559e+03
-7.954254302151080083e+03
-6.654414489103853157e+03
-5.466750074650452916e+03
-4.246538283434195364e+03
-3.567910708998302653e+03
-3.496112406513496808e+03
-4.038370684621780129e+03
-4.358065425351891463e+03
-5.135677833988748716e+03
-6.407441771513414096e+03
-7.098674414269042245e+03
-7.374818771790796745e+03
-7.939255574138262091e+03
-9.551229118498522439e+03
-1.065897301256936225e+04
-1.051264689537282538e+04
-9.999479523672367577e+03
-8.925746909784620584e+03
-7.711459722148989385e+03
-6.569688533494099829e+03
-4.825581721157094762e+03
-2.261312294171405938e+03
8.114579680682592766e+01
5.767424922275932886e+02
-6.916604534272082674e+02
-1.657314148487492503e+03
-1.914259425090615196e+03
-2.517459775310000623e+03
-2.830050825332627028e+03
-2.917289776547826932e+03
-4.062302313783223781e+03
-6.254218615119389142e+03
-8.387987070605131521e+03
-9.925845214972940084e+03
-1.005692276269047215e+04
-9.085232331116847490e+03
-8.584732251145311238e+03
-7.864247614838709524e+03
-6.197713110742581193e+03
-4.010105846496961021e+03
-2.579363605035336604e+03
-1.830394983751175005e+03
-1.255176417563268160e+03
-1.645745615824759398e+03
-1.929004688861699606e+03
-1.471795173819565434e+03
-1.354131395638273034e+03
-1.973762922408321401e+03
-4.552546923877180234e+03
-7.464546291530958115e+03
-3.772785377796815283e+03
-2.411223914101235096e+03
-1.019569583838038511e+03
-1.955048180544230263e+03
-2.475460714653912419e+03
-1.595581917350564026e+03
-8.613573850344596394e+02
4.944381772943983151e+02
2.341049373556794762e+03
2.809594994974941983e+03
4.308382802118755535e+03
5.728573532709661777e+03
7.029281242225154529e+03
8.812618318112798079e+03
1.063497695749858030e+04
1.123468088096815882e+04
1.080175532303190448e+04
1.062955102945669205e+04
1.082422251757579397e+04
9.626926353746479435e+03
8.188649888509268749e+03
7.879335473992037805e+03
7.456228152185914041e+03
6.542515702068963947e+03
5.269297722443871862e+03
5.182779469300032360e+03
5.384286318585808658e+03
6.032097291987137396e+03
6.980220142807716002e+03
7.500898268165185073e+03
8.799334151665803802e+03
1.026973373748367521e+04
1.138136970152463618e+04
1.277431897783166460e+04
1.401898846616481023e+04
1.434981966515858221e+04
1.435983727092625304e+04
1.440052082109431285e+04
1.387797940552002547e+04
1.283214330011211496e+04
1.090793450670443235e+04
8.723557206878842408e+03
6.721206962083321741e+03
4.664001772238437297e+03
3.288186012058069537e+03
3.032953792028662974e+03
2.318407071674436338e+03
1.998479041605461816e+03
1.808274903111559070e+03
1.418952039563507697e+03
1.715694941356965273e+03
2.248635164823980176e+03
2.839123023892128913e+03
3.113360163253546489e+03
3.915841860538656874e+03
4.335549795234273006e+03
4.239449435941992306e+03
4.106614997139166917e+03
4.426304483884025103e+03
4.700571446527531407e+03
4.097362729079960445e+03
4.156533843118343611e+03
3.466413421911502155e+03
1.758063578730751715e+03
-9.677525713469078710e+02
-4.735148815136727535e+03
-6.215998442570094994e+03
-5.111077346509191557e+03
-1.230503184914064832e+03
-1.402171023662018570e+03
-3.052128861462597797e+03
-2.467114337098736087e+03
1.000109813387957161e+03
-6.106246076157876814e+02
9.224603126577783314e+02
-8.748427149414450241e+02
-3.680474717553627670e+03
-1.143118996779929603e+03
-2.818822448356246241e+03
-8.078812510980497791e+03
-7.759239965719915745e+03
-7.518119829067612955e+03
-9.830324126429057287e+03
-1.185983239145310654e+04
-1.123356926401234705e+04
-9.443729719499651765e+03
-1.142471300924700881e+04
-1.004550905570546274e+04
-1.046598239552515952e+04
-8.703207440672746088e+03
-8.859020023107002999e+03
-5.784418456209726173e+03
-4.473514080318488595e+03
-2.963595534753782431e+03
-1.176591834191897533e+03
4.032639146956420291e+02
3.982359697145173527e+02
-1.012701057579259668e+03
3.761125240069518441e+02
-9.646806973557410174e+02
-3.880592099527837945e+03
-8.462398941973058754e+03
-9.220359348870249960e+03
-1.130611992020164143e+04
-9.992409531743141997e+03
-1.189601255190544543e+04
-9.935441962826746021e+03
-6.083565975087301922e+03
-4.031874792216862261e+03
-2.399301270826616928e+03
-1.236277664796022691e+03
-2.294925200561232259e+02
1.673217955071525466e+03
3.084098874923827225e+03
4.072944250250729056e+03
4.755075117173446415e+03
4.562743845901979512e+03
4.866451872830345565e+03
5.207948906160123443e+03
3.968787748843242753e+03
2.555146971466372634e+03
1.981506146253977022e+03
4.408804744944415575e+02
-1.352036775517317210e+03
-2.178274236019266937e+03
-1.644072916514007602e+03
-1.044504014017063810e+03
-8.982179913423213691e+01
-7.360906971462477486e+02
-2.867262043688358972e+03
-7.373005398233904089e+02
3.025171739724450617e+03
6.780141869576403224e+03
8.895598976691031567e+03
8.871899543510111471e+03
6.261074490977935056e+03
5.794982829861287428e+03
6.292757272639008079e+03
5.382517653615094787e+03
2.750324036704384525e+03
-2.411359018191481880e+02
-2.937427817914047409e+03
-6.435875531716848855e+03
-9.249243671987036578e+03
-1.006818194705773567e+04
-1.039289217964417912e+04
-1.011827519877544182e+04
-9.765225525956560887e+03
-8.508497490291136273e+03
-7.245676520353117667e+03
-6.172822873136958151e+03
-4.459199056588451640e+03
-2.080652293457381802e+03
-7.510565011641911042e+02
4.238288430593809721e+02
1.518080805657968767e+03
1.934882071786825009e+03
1.267730609072634707e+03
5.784934937979003280e+02
4.593027183801402771e+02
6.830582544216567840e+02
1.004777486054156611e+03
-7.643990694770203618e+02
-2.410261335850192154e+03
-2.961751401704190357e+03
-2.321191789325332593e+03
-1.696701582910034631e+03
-2.251319747218184602e+03
-2.498207846833849544e+03
-2.141206731969292832e+03
-1.280218210534809714e+03
-1.840131448456644705e+02
4.257250089019726715e+02
1.638687802109111544e+03
2.754553532198067387e+03
4.156316612341238397e+03
3.794926801427969167e+03
2.953588423984765996e+03
3.068933730605335313e+03
2.282017821167708462e+03
1.117446299525268159e+03
5.246024231856091546e+02
2.567257638170977998e+02
1.531077225600723978e+03
3.935088609968149285e+03
5.925372428277682047e+03
7.925075607199261867e+03
9.851172296924321927e+03
1.125737351675654645e+04
1.210792058197726328e+04
1.235351018095135805e+04
1.274545879594675171e+04
1.364045735575544677e+04
1.345996446944361014e+04
1.148678819108964126e+04
1.073188147259214384e+04
8.399303440394663994e+03
5.467068169438207406e+03
3.403576381388245863e+03
5.662604268872357807e+02
-2.344161223204815542e+03
-2.482890638724203654e+03
2.001155542055260184e+03
1.302205885097033388e+03
-4.533705909835859529e+03
-5.656673386517467407e+03
-3.719803826735439543e+03
7.339278446371941982e+02
6.144760853583466087e+02
8.758175267376594775e+02
2.623891257044841041e+03
4.068681511629611578e+03
6.374329174360399520e+03
9.320170280302563697e+03
1.047435856667085136e+04
1.125688229665598919e+04
1.214786544844704622e+04
1.180430500900935294e+04
9.829060000620327628e+03
7.387068173394187397e+03
4.752354380805712026e+03
2.710860529613257313e+03
-8.829044899214473219e+01
-3.831822103993072687e+03
-5.240783219878192540e+03
-5.131214903102785684e+03
-5.019971680959010882e+03
-5.656846916158143358e+03
-4.112718230665818737e+03
-1.614319002858600470e+03
4.797539925169680828e+02
4.477610907542992891e+02
-5.914647085710667795e+01
8.852734192320167494e+02
1.825438755855793943e+03
2.710757238227335165e+03
2.441691026670432166e+03
2.945150457469770231e+02
-4.977550209230058726e+02
-2.597966118922888199e+03
-5.037737944620333110e+03
-7.474841433186388713e+03
-9.736140367953139503e+03
-1.067449623294473895e+04
-1.091871371720100251e+04
-1.056057836525058519e+04
-1.004182659688625972e+04
-9.383153770535125659e+03
-8.018254858163300923e+03
-6.885801569354268395e+03
-5.459937220054272984e+03
-3.769446708174960349e+03
-3.919147431920702275e+03
-2.699650595852650440e+03
-1.117324484035432988e+03
-1.078140496604371947e+03
-1.966161069441282052e+03
-3.373346056709875029e+03
-3.180066454855618304e+03
-5.029202684453713118e+03
-6.544472945480402814e+03
-7.765423788520968628e+03
-9.812734359519976351e+03
-1.173030206544809516e+04
-1.234814986527271139e+04
-1.233604497393400743e+04
-1.120869278985211713e+04
-1.054889584942134752e+04
-1.025535791572414746e+04
-1.087577606119641860e+04
-1.020291955114982193e+04
-8.233761366471850124e+03
-7.761929206443449402e+03
-6.281055615542942178e+03
-4.720890423565294441e+03
-2.232142288629885115e+03
-8.265034757905455081e+02
-1.595745351229750213e+03
-2.434863130494235520e+03
-3.351746152822879594e+03
-5.489168262357568892e+03
-7.262887881865452073e+03
-7.353822425780865160e+03
-6.569994910043107666e+03
-7.602252638405749167e+03
-7.752548846513481294e+03
-8.256716437914863491e+03
-9.268654109149281794e+03
-9.059360350604538326e+03
-1.004863962347937741e+04
-1.044330179659991700e+04
-7.762273607659332811e+03
-7.362417971721571121e+03
-3.414691161643494070e+03
6.240892540093467460e+02
2.352033876451578180e+03
1.422212503543813227e+03
5.016127738766162452e+02
-5.647501624800955824e+02
-1.969868343834059033e+03
-1.983732263934598677e+03
-8.194203442309678849e+02
4.218253724658583792e+02
-8.030771452166432027e+02
-2.841184742971866854e+03
-4.532495143371145787e+03
-6.021018777751302878e+03
-8.278896585319147562e+03
-9.284213311524161327e+03
-1.007210520114866449e+04
-6.384679276017541270e+03
-3.970054143786088389e+03
-4.084370106029422914e+03
-3.304820000571085529e+03
-4.427674358635278509e+02
1.853465639062189439e+03
2.931664737343520301e+03
2.167654308610098724e+03
4.434130671879245710e+03
7.344804215006397499e+03
7.029449004364476423e+03
4.990817055694959890e+03
3.773709148877469033e+03
4.483555243524949219e+03
4.257056700049842220e+03
4.635782578439561803e+03
4.707586291558886842e+03
8.023498300420760643e+03
1.401659467313658388e+04
1.892907078512464432e+04
2.133800674818976040e+04
2.099784853275695059e+04
1.966033031906625547e+04
2.190245345292899219e+04
2.519704770344031203e+04
2.543444137040466376e+04
2.369328982796418495e+04
2.153738388248094634e+04
2.139697521542389586e+04
2.230537009834688433e+04
2.431987762997679602e+04
2.524165584360867797e+04
2.142315770398038512e+04
1.762629741952109907e+04
1.612246309352014578e+04
1.434584847464881204e+04
1.441704046362751797e+04
1.541668883031357291e+04
1.492216810098038513e+04
9.096749046611726953e+03
1.205328525348608537e+03
1.728102805363673497e+03
5.755578019790156759e+03
9.879353308349236613e+03
1.037624878908181199e+04
6.279270971786719201e+03
9.405461516463230510e+03
1.721340246866117741e+04
2.384072555009800999e+04
2.494537814510902172e+04
1.641179545136957313e+04
9.312718279297434492e+03
8.663461298133002856e+03
1.133240810634084301e+04
9.138033851452188173e+03
8.375846618076591767e+03
1.492933646941719235e+04
2.853010874986609997e+04
3.522869896077093290e+04
3.299770904749925830e+04
2.612884793972237821e+04
2.146079792558918780e+04
1.883415533458118080e+04
2.090860270767042311e+04
2.055884719245547603e+04
1.545356790385612840e+04
1.196357175724218541e+04
1.428568034883676592e+04
1.470245028119688322e+04
1.296058075983505478e+04
1.425087181302082718e+04
1.327716974427268360e+04
1.191007613293166833e+04
7.495145802749240829e+03
3.840563507038007174e+02
-7.179201902644012080e+03
-1.561549848563324667e+04
-2.090940006948078735e+04
-2.177616604664955958e+04
-2.332192525587631826e+04
-2.796464278423620999e+04
-3.686921929612058739e+04
-4.738144726865283155e+04
-6.011338787876303832e+04
-5.794321352787263459e+04
-4.007195172919730248e+04
-2.591620816089479558e+04
-1.316284438527668681e+04
-1.840823225047082587e+03
2.157898665474179779e+03
-5.858097271335843743e+02
-5.901955765380112098e+03
-1.031842821760000334e+04
-1.407514346897858741e+04
-1.595396674268235256e+04
-1.194885116717962228e+04
-3.778576422781062774e+03
5.405230249590349558e+03
-3.321227913054287455e+03
-2.706376343603897112e+04
-5.102510901413684041e+04
-6.437207794190227287e+04
-6.874837315389189462e+04
-6.964951073745264148e+04
-6.901490554585833161e+04
-6.732124700563232182e+04
-6.791341025181679288e+04
-6.901200603672403668e+04
-6.920073167565657059e+04
-6.788501647439939552e+04
-6.514443633657554165e+04
-6.451065062754081009e+04
-6.499531928230233461e+04
-6.665611179900252318e+04
-7.031244298078343854e+04
-7.257977094095681969e+04
-7.466562016481612227e+04
-7.362150446782223298e+04
-6.760705520036912640e+04
-6.299774074284361996e+04
-6.097508819526433217e+04
-4.520752328642200882e+04
-2.619349615975753841e+04
-1.342128444228236003e+04
-1.282308596955933126e+03
1.563388918959243165e+04
3.288372278051757894e+04
4.688969209207421227e+04
5.572035709625550953e+04
5.883847786847790849e+04
5.641257547605419677e+04
4.943636777851465013e+04
4.540994415712515911e+04
4.193040436440130725e+04
3.611361947833241720e+04
3.404824522912131215e+04
4.205386754281057074e+04
4.259711507980628085e+04
3.979557358549685887e+04
4.443467455868977413e+04
4.881714540290619334e+04
5.368787378253997304e+04
5.830640613948477403e+04
6.784544426708841638e+04
7.226570791901549092e+04
7.244755314307034132e+04
6.806633643658862275e+04
6.108879825240190257e+04
5.501529598682309734e+04
5.174212934953267541e+04
4.911865337967539381e+04
4.747633829738380155e+04
4.572856790825985809e+04
4.409283313925619586e+04
4.224334835805714101e+04
4.021532190951060329e+04
3.743347637862421107e+04
3.347001348430329381e+04
2.990319064542498381e+04
2.942729719987415956e+04
3.108558324623395310e+04
3.216857215947274017e+04
3.423957256354269339e+04
3.688889880503735912e+04
3.812585589239120600e+04
3.779786168755360268e+04
3.552934751936805696e+04
3.108155245308933809e+04
2.746459819333647101e+04
2.628768329377077316e+04
2.370213330682468586e+04
1.886583672464251867e+04
1.345676727652160298e+04
8.894082576920542124e+03
4.483907508992839212e+03
1.129122979029554699e+03
-1.172308607717367067e+03
-4.812303221135900458e+03
-9.790572972841107912e+03
-1.468712648090265247e+04
-1.817195259792434445e+04
-1.936792472597865344e+04
-1.687117372211352995e+04
-1.401466603105091053e+04
-1.490618252781084448e+04
-1.760983555160379910e+04
-1.867966831509003896e+04
-1.870281262056607375e+04
-1.878636599684005705e+04
-2.072039404041022135e+04
-2.356510813187755775e+04
-2.640175939342713536e+04
-2.887073438178973083e+04
-3.186231577156688218e+04
-3.575982294489668857e+04
-4.013258628716297244e+04
-3.845873696547497821e+04
-3.733460970887345320e+04
-3.657654605098788306e+04
-3.444862894160486758e+04
-2.756014369257485669e+04
-2.518935088141581582e+04
-2.851841923793372189e+04
-2.882756216228803532e+04
-2.614000530239443106e+04
-2.472423939374836118e+04
-2.562443002556530337e+04
-2.412197782837760678e+04
-2.000724245511673507e+04
-1.726546347230171887e+04
-1.718111441793221093e+04
-1.673178662276308751e+04
-1.715492903477686923e+04
-1.740304316112890592e+04
-1.705754527678692466e+04
-1.587162261250422853e+04
-1.385363188413321222e+04
-1.414015686211345019e+04
-1.389368271394488511e+04
-1.307645071768120761e+04
-1.179090326525764431e+04
-8.965430148033794467e+03
-5.955643850301507882e+03
-2.667880999931499446e+03
-4.813294606330022134e+02
6.916024156704030474e+02
1.856555171381964783e+03
3.398311172901249392e+03
5.128447943506252159e+03
4.870455161240290181e+03
5.049857473453888815e+03
4.308389449617196078e+03
3.421575361303378941e+03
2.947016247791581918e+03
1.113336896243768024e+03
-1.259427202991692525e+02
1.978873304981418926e+02
5.084443335540500470e+02
8.651903569991047789e+02
5.650254827047471053e+02
2.000314211370936391e+03
4.060685783689715663e+03
6.416981678444474710e+03
7.532097301412739398e+03
8.188740426622855921e+03
8.853707751110834579e+03
9.515818952714907937e+03
1.003267882316064242e+04
8.926987898522971591e+03
6.551399616870051432e+03
4.054686576933916513e+03
2.237687168745545932e+03
9.211579883864620797e+02
-3.861417835133710241e+02
-1.031325921862112182e+03
-1.540617272375661969e+03
-1.711207302654261412e+03
-4.034665483138555828e+02
1.694527028410159801e+03
3.972771847648410130e+03
4.642073821101022986e+03
4.664296044390380303e+03
5.121463648360347179e+03
5.822606279846384496e+03
6.888007588243809550e+03
7.196355993831692103e+03
7.078205540593879050e+03
5.965585178560894747e+03
4.133704485334431411e+03
8.142781850172862335e+01
-1.596511011319151521e+03
-9.510677915354497145e+02
-9.752684620070934898e+02
3.042905154361799305e+03
2.773233672233140169e+03
3.504720740898006284e+02
-1.162463654565961406e+03
-1.575363471464367649e+03
-3.643785128548158355e+03
-1.763449845934327186e+03
-3.971507450181506556e+03
-3.478560192621601743e+01
1.630034253832578770e+03
-1.470869633157053158e+03
5.281778836082298767e+03
7.755985819038798581e+03
7.734834799569992356e+03
5.491410806282785416e+03
3.633003103126711267e+03
3.069222922646541519e+03
4.608229067812142603e+03
3.440587198507852804e+02
-1.005131056406320454e+03
-2.301379694037601439e+03
-1.467637397622849676e+03
-4.932562043923193414e+03
-2.727303136385860853e+03
-3.356286702990756112e+03
-3.668905297846238682e+03
-4.089283808342339398e+03
-1.655178753949534666e+03
-2.518049445051563453e+03
1.251674963765823577e+03
4.904816683565690255e+03
8.533199971943611672e+03
8.623900240971519452e+03
5.706450748418821604e+03
9.067954616181003075e+03
6.618659226832789500e+03
5.755282283861607539e+03
6.784611765789487436e+03
6.384162977350565598e+03
4.948056016703349997e+03
3.507979388467834724e+03
1.118339025360735150e+03
-3.833308369795515773e+02
-8.670963755725462079e+02
-6.631528902770893410e+02
-1.001175643917916318e+03
-1.796093137841861562e+03
-1.498209542743564043e+03
-8.340567462455804844e+02
-9.593647720274798019e+01
2.116281764626716267e+03
3.404342326325354406e+03
3.295557237468464336e+03
3.284211406495580832e+03
5.385221905394556416e+03
7.209968171920391796e+03
6.475633138619249621e+03
4.365455599590006386e+03
2.381691018262340549e+03
2.043087036568879284e+03
3.109339814765324377e+02
-1.100658003063733304e+03
-2.104095138851571392e+03
-2.581176282137082580e+03
-2.856463242552182237e+03
-2.770531002392948267e+03
-1.060685562854740510e+03
-2.092615088609464991e+01
-7.762026977083519341e+02
1.274453847589623365e+03
4.210982651426413213e+03
7.325295039734663078e+03
9.200381781343143302e+03
8.343359737093900549e+03
7.424141283816855321e+03
6.567756892698440424e+03
5.402530453527198006e+03
3.821233530795206207e+03
1.215899579262209500e+03
-1.338773083563152568e+03
-2.106479519689087738e+03
-2.298576582674487327e+03
-2.007297646192120510e+03
-2.194277754125654610e+03
-3.608980037858101241e+03
-5.199900522800787257e+03
-5.308426786291413009e+03
-2.949397554785944067e+03
-5.871262867015609572e+02
-4.027277834695370302e+02
5.322688479952767011e+02
7.468203898896309738e+02
9.706982803277462608e+02
1.105677671852025469e+03
1.019543080835738010e+03
9.234277310947103388e+02
-7.185891958558491979e+02
-2.304374867707339490e+03
-3.043843688108406695e+03
-3.336210312359372892e+03
-2.978534463749160295e+03
-3.851050310102864842e+03
-4.922277519054565346e+03
-5.980239803107945590e+03
-6.371858443309582981e+03
-5.899373107123840782e+03
-4.423362603783963095e+03
-2.684454831597149223e+03
-7.296748264830116568e+02
-1.327636346387765798e+03
-3.622803607334792105e+03
-6.170255210605474531e+03
-6.272839369706721300e+03
-5.064251883302493297e+03
6.960121880307111724e+02
1.422533595664063114e+03
-3.850726605972186007e+03
-5.662804689420278919e+03
-6.769440773264406744e+03
-8.188887244902647581e+03
-9.598087092360032329e+03
-1.079857342914942637e+04
-1.346005559426350192e+04
-1.550594534980796379e+04
-1.557133066676967428e+04
-1.462925001825509025e+04
-1.323166905686473001e+04
-1.004009542556936140e+04
-8.003227909189741695e+03
-9.185694923613382343e+03
-8.044970123733340188e+03
-5.690732118953917052e+03
8.230776506549366331e+02
2.370329730827197181e+03
-2.199001698010316886e+03
-4.567924904538526789e+03
-3.028385996675050592e+03
-8.845072392273344519e+01
-3.722099953255201854e+03
-3.070296328562280451e+03
-2.794969589887110487e+03
-3.876013538199078994e+03
-4.640497476320822898e+03
-5.413702017412950227e+03
-4.935776902209357104e+03
-4.490669237805229386e+03
-3.268513361008938318e+03
-2.659355090426187417e+03
-1.830084975216466546e+03
7.684800215098915714e+02
3.319516506115918219e+03
5.319099257093605047e+03
6.435044851124921479e+03
8.086061377215598441e+03
8.233165183045241065e+03
7.592472644459886396e+03
7.379943139099156724e+03
6.509322223097812639e+03
5.001488009779161075e+03
3.160288772569941102e+03
1.419483003952518857e+03
6.809951981105682535e+02
-1.402161009815331909e+03
-2.344058306869773332e+03
-1.309868071497241317e+03
-1.340880994621497393e+03
-1.540569153751311660e+03
-2.632203594109716960e+02
1.935240012462777031e+03
3.559784441455425167e+03
4.247074150328056021e+03
4.816800351968411633e+03
6.183698943915059317e+03
8.229637956517275597e+03
1.039639700457609615e+04
1.103367314332240312e+04
1.103121058481278124e+04
9.865813595732503018e+03
7.979259113648987295e+03
7.259224039320391057e+03
5.820881149895987619e+03
3.547962321540200264e+03
1.494378412976777781e+03
4.987145000338054501e+02
4.944848168567269227e+02
9.093723384257524458e+02
1.690046473988627895e+03
3.169213014732632473e+03
4.389622185684685064e+03
5.966308048611872437e+03
7.144144444413265774e+03
8.592306993444413820e+03
1.092818304947699107e+04
1.207843243567336503e+04
1.161393120376771731e+04
1.075937888373373062e+04
9.506563932670131180e+03
7.318046488174689330e+03
7.330349611268720764e+03
6.919929117332352689e+03
5.233390087780780959e+03
3.758577111972974762e+03
2.927183628668141409e+03
2.772932950514657932e+03
3.375592690693857094e+03
2.788696568609308088e+03
2.370886915264056370e+03
2.598921670486340190e+03
2.470802063809707761e+03
2.552456606015232865e+03
3.473498073769525490e+03
4.131569157796505351e+03
4.950360017350074486e+03
5.912819651114153203e+03
6.875686185205212496e+03
7.635801195721642216e+03
7.862095529521372555e+03
7.362456872198278688e+03
6.380782355436163016e+03
4.702999056714250401e+03
2.613883570297369261e+03
9.880450118790856777e+02
2.722215138631731861e+02
-4.146065859704706895e+02
-7.196004286025391821e+02
-6.428202322548406755e+02
-5.673375058206628410e+02
-7.321109208526014527e+02
-2.190687669959452251e+02
1.097867177910385863e+03
2.309676231622790056e+03
4.816337939727235607e+03
7.097988714673617324e+03
7.413846744047499669e+03
7.400982170239819425e+03
6.868366025933405581e+03
5.462009051923630977e+03
3.431971009217478240e+03
1.211284434407595654e+03
-1.935935859220338443e+03
-3.511615998871852753e+03
-5.040839209090380791e+03
-7.604553934758122523e+03
-1.086828327889412503e+04
-1.257392866447126107e+04
-1.286732552219994977e+04
-1.246331027489806729e+04
-8.737621757128821628e+03
-3.842017538247509492e+03
-1.748157300862535294e+03
-1.291588403499495826e+03
5.251533982180870908e+02
1.655415883787540679e+03
1.501621487176409119e+03
9.598688642134392239e+02
4.332978413552518759e+02
-5.906784627132914238e+02
-1.415070773028470512e+03
-2.297416460742926574e+03
-5.163165900301972215e+03
-8.656883970636226877e+03
-1.080522548967592047e+04
-1.233463287310762462e+04
-1.388895078844547606e+04
-1.306442125477128684e+04
-1.216022810833252879e+04
-1.288093661411231005e+04
-1.294466382587790758e+04
-1.321259476517179246e+04
-1.335789966554534112e+04
-1.304091841198756447e+04
-1.173796205928101881e+04
-9.558519609065913755e+03
-8.225166943852776967e+03
-6.874574223739607078e+03
-6.428728916899344767e+03
-7.455363449105210748e+03
-9.798089119833581208e+03
-1.249461432532227082e+04
-1.365110309366515139e+04
-1.428455259404794197e+04
-1.551936542309169272e+04
-1.746313276797002618e+04
-1.833232748606111272e+04
-1.829462906087144802e+04
-1.902719432307925308e+04
-1.785178465025334299e+04
-1.530390214872982506e+04
-1.352112065874380096e+04
-1.202372045253469332e+04
-9.504921716995973838e+03
-6.756535655123009747e+03
-4.501555346350222862e+03
-3.936625527795806192e+03
-4.457470690292029758e+03
-5.502445940873406471e+03
-5.506938811164290200e+03
-6.501497356173478693e+03
-8.200575410358471345e+03
-9.690749513033155381e+03
-9.916676589056387456e+03
-8.017991264237125506e+03
-6.548121680193413340e+03
-7.043563705136302815e+03
-6.484008526973170774e+03
-4.859096664564590355e+03
-3.299423763739230253e+03
-1.488690634969080293e+03
8.296129018367483923e+02
2.569933166138295746e+03
4.301514019608323906e+03
6.962564332521118558e+03
9.764480150315956053e+03
1.009476499803868137e+04
7.081913930971132686e+03
9.221212775128116846e+03
1.076492086183130414e+04
1.399240338778405567e+04
1.453878191890350536e+04
1.537722828630600452e+04
1.684990922686594786e+04
1.661907110721185381e+04
2.047398395116545726e+04
1.828581269460330805e+04
1.594189983280019624e+04
1.782868762336611326e+04
1.902816433525160755e+04
2.076341467682925941e+04
2.388361737742676632e+04
2.254707129569543758e+04
2.573709206980994350e+04
2.523668124961066860e+04
2.811871751634783504e+04
2.729737506450615547e+04
2.740155250290227559e+04
2.961327517978427204e+04
2.832663178046719986e+04
2.461954996221786496e+04
2.481776611886670435e+04
2.258315398522249961e+04
1.984467712160357405e+04
1.542629094995924243e+04
1.165488443465184173e+04
1.250526797759870897e+04
1.094411460824406640e+04
9.068288659394303977e+03
1.145683681885215628e+04
1.348155563861321752e+04
1.404939595344721965e+04
1.387634433360260118e+04
1.326007404620438683e+04
1.307745152725625121e+04
1.333512782360241363e+04
1.458796548429967334e+04
1.506672267941785867e+04
1.395214937428062149e+04
1.194385410937119559e+04
1.011138822952052033e+04
7.629479295552974691e+03
4.807805286915468969e+03
1.049071993975891019e+03
-3.006396919890960362e+03
-7.301128649653414868e+03
-9.375581702743778806e+03
-9.152262847285548560e+03
-7.898513062221738437e+03
-7.556525588904800316e+03
-7.398581336678855223e+03
-7.700036282231108089e+03
-8.709292893310848740e+03
-9.232756120607538833e+03
-8.384906646453431676e+03
-6.482993552217845718e+03
-5.352523191880438389e+03
-4.391291963057998146e+03
-3.959370627733979290e+03
-5.048172345333940029e+03
-7.076127660962917616e+03
-9.862844793568505338e+03
-1.099776934808216356e+04
-1.298141837402324745e+04
-1.448343878657310051e+04
-1.513047623476567242e+04
-1.605811977674688933e+04
-1.701682693255699633e+04
-1.740920279793560258e+04
-1.646269849496234383e+04
-1.556277873115127113e+04
-1.474802855541001736e+04
-1.398709584980408545e+04
-1.363310157874907418e+04
-1.284743974342859838e+04
-1.162475831122786076e+04
-1.127852226144627275e+04
-1.113513611392976236e+04
-1.092981096784729743e+04
-1.088144515634723211e+04
-1.120447759536290323e+04
-1.281935155131017200e+04
-1.553151561932512050e+04
-1.798340631276025306e+04
-1.993164883730688598e+04
-2.208360772189947238e+04
-2.337570769193333035e+04
-2.361335515292533819e+04
-2.194095372154860524e+04
-1.873598362721572994e+04
-1.581187687042668949e+04
-1.367096574273690567e+04
-1.166853064848141548e+04
-9.430862087319857892e+03
-6.796135553781078670e+03
-4.312638606238990178e+03
-3.360641865525246430e+03
-2.944343765988715859e+03
-2.306996303308187180e+03
-2.262872738360657422e+03
-3.212295512703354234e+03
-4.423621460738956557e+03
-5.682985627809298421e+03
-6.579663596785860136e+03
-7.078052004095183293e+03
-7.114268504823931835e+03
-6.961464267905075758e+03
-6.364979367093052133e+03
-5.220161452859204473e+03
-3.914014540614244197e+03
-2.113574443453545882e+03
-3.180336321183418846e+01
2.121202940891605067e+03
3.827098794089850799e+03
4.756821067983871217e+03
5.947393070288152558e+03
7.417750344092155501e+03
8.288768996925551619e+03
7.278434183946701523e+03
4.781661287853587964e+03
1.896518040863392798e+03
1.247015349018054849e+03
8.650074972041610408e+02
4.641320917970641858e+03
5.697953601145095490e+03
9.476292636769343858e+01
