-8.243228652963853165e+03
-9.353812817765274303e+03
-9.764387657595156270e+03
-1.000792671113509823e+04
-1.067138324965435640e+04
-1.104079006308885437e+04
-1.104112575822910003e+04
-7.705293800357463624e+03
-4.238093907266383212e+03
-8.873461588904538075e+03
-1.033648460119041192e+04
-9.458089256600072986e+03
-8.322094639512864887e+03
-7.405430570644711224e+03
-6.428992110648836388e+03
-2.748675247443087756e+03
-2.325395448336973004e+03
1.015951834869357640e+03
2.841444706915610368e+03
1.626186774795842666e+03
-4.166777462158597700e+03
-5.753309163662956053e+03
-5.731366389716498816e+03
-5.279935029444840438e+03
-5.861914897019305499e+03
-6.407289029631058838e+03
-2.410996770545071740e+03
-3.109806843632047162e+02
6.796139421787123602e+00
6.244702501589633812e+02
1.264089052576656968e+03
2.232750729520705136e+03
2.924566926684047303e+03
3.501669896416872234e+03
3.949184962584060031e+03
4.515175135132247306e+03
5.350737650328092968e+03
5.763977927871771499e+03
5.838992011364904101e+03
5.619858901573248659e+03
5.647611475847123074e+03
5.402338974238530682e+03
4.616124512515099013e+03
3.937026906999773018e+03
3.243084133166464198e+03
2.587299411262211834e+03
2.264721723673473207e+03
2.373426974139540562e+03
2.407454554456139249e+03
2.825864972737853805e+03
3.463751146438815795e+03
3.815206565534655056e+03
4.398321407081887628e+03
4.990157888204952542e+03
5.486789411717523762e+03
5.905298197223957686e+03
6.026750576389619710e+03
6.670192792493417983e+03
6.982704985367888185e+03
7.052365321900798335e+03
6.613187579523484601e+03
5.949162200915377070e+03
5.099238556204342785e+03
4.327500354120112206e+03
3.251184169188215037e+03
2.660725817283361266e+03
2.266917432660955456e+03
1.548662088462823931e+03
1.131697502895757452e+03
1.008318895860811494e+03
1.160374893036244885e+03
1.129858874562344454e+03
-7.851838569498776224e+02
-8.505463370556824430e+02
-1.302972767859639134e+03
4.236192459866820741e+02
2.357667079054709120e+03
2.371422733122733916e+03
2.415613976263261975e+03
2.544357438756791908e+03
2.278623747282469139e+03
1.533420484334193588e+03
6.696395301536060742e+02
-4.817232227151368988e+02
-1.027702842051383186e+03
-1.610336246910780346e+03
-2.330746977228255673e+03
-2.891974115461546717e+03
-2.841983383337221312e+03
-2.722837025453171918e+03
-2.293608901780890847e+03
-1.941304807777241649e+03
-1.678967629263896015e+03
-1.092550978598018673e+03
-2.980649300288595214e+02
2.834451960452179264e+02
5.449354716471245865e+02
6.213996408199017196e+02
4.978015540978814215e+02
3.591044930623440905e+02
3.242060591764828814e+02
1.650569849303847718e+02
-3.273773714730780284e+02
-1.372158619051303049e+03
-2.441408156000382405e+03
-3.465192720410934726e+03
-4.101621064912435941e+03
-4.132788999042741125e+03
-4.398770334887464742e+03
-3.874598639590568382e+03
-3.429376611491210042e+03
-2.785152660081217164e+03
-2.477957925770101610e+03
-1.885838964079147217e+03
-1.259831086130814356e+03
-5.809818993575287323e+02
-1.083151546998017380e+02
5.405371468350185893e+01
4.660450338682675238e+02
4.106076773004506890e+02
1.056947973546961634e+02
-4.087912582758038980e+02
-9.199557414409036937e+02
-1.678867465231589904e+03
-2.736581213274607308e+03
-3.377235890036177352e+03
-3.961022890836656188e+03
-4.097025742023434759e+03
-3.893279211517037311e+03
-3.755904179715050304e+03
-3.333893369808999978e+03
-2.733305087805611947e+03
-1.929208347926984288e+03
-1.476693686913615920e+03
-1.052801070452460635e+03
-8.536022978278419941e+02
2.248825769377459949e+02
5.986312619986241543e+02
1.033567599615510971e+03
1.346617301651586558e+03
1.096941601235612325e+03
6.073825138516518791e+02
3.519573369750947336e+02
-5.958117950118452200e+02
-1.272043536430603353e+03
-1.663846246399092706e+03
-2.304173427335937959e+03
-2.595105323971237340e+03
-2.501693721569946774e+03
-2.057797470841581799e+03
-1.521619976682849256e+03
-1.186381606559718648e+03
-6.589791797760259442e+02
-9.428124278871129604e+01
4.294361655665506419e+02
1.130244922853324169e+03
1.758991581115210238e+03
2.020821440435779550e+03
2.347362474502788700e+03
2.595953873946158637e+03
2.594448538708473279e+03
2.071636813561001418e+03
1.409578306316230510e+03
7.194404679261391493e+02
-4.612790712094906098e+01
-8.219597711017981965e+02
-1.054224554958550698e+03
-1.327089880807820236e+03
-1.122321454898265984e+03
-7.191015853804734661e+02
-6.686926024499541654e+02
-2.716687290846016367e+02
4.368171615317382361e+02
8.114440770495505149e+02
1.515475422266773194e+03
2.239940925994761983e+03
2.396993450496716378e+03
2.703485121204530060e+03
3.127233213036743564e+03
3.248526231118655232e+03
2.961296907630327496e+03
2.715303484227943045e+03
2.418694576031774886e+03
1.591491566615415877e+03
8.035800140505554054e+02
5.009380585869710103e+02
-6.642866748402852295e+01
-3.715126303191748889e+02
-8.713571295490470447e+02
-7.748730320488085681e+02
-9.310635856285723833e+01
3.519827063790445436e+02
4.524166914681970297e+02
1.180263977965552613e+03
1.703549683609837530e+03
2.286299522587592037e+03
2.926568335901667524e+03
2.954383419045697792e+03
2.996773260513940386e+03
2.457772475077231320e+03
-3.747667306875556648e+01
-1.070828116020446259e+03
-1.949550316117562943e+03
-1.192633006163668597e+03
-6.220071302614637716e+02
3.993125504147828906e+02
-5.570823948073427800e+01
-4.290498329128107002e+02
-3.460679873190187664e+03
-5.738550673351523074e+03
-3.576632681067689191e+03
-1.758860900868420686e+03
1.064761713831466295e+03
1.327295741332204443e+03
1.506819501546468246e+03
-4.316466154628872118e+02
2.256990724742228849e+03
6.747802106910725115e+02
1.730752830013226458e+03
7.479396102150089973e+02
1.448366100018418820e+03
-3.191498157583119166e+01
2.106156205639151267e+03
1.672547373376160976e+03
8.592275880549154863e+02
-3.297253742079683434e+02
-4.721335845852070634e+03
-5.683657486727377545e+03
-1.450645728702639417e+03
-3.918259400130657468e+03
-4.992455515114566879e+03
-1.524208819059581401e+03
1.415322891244070149e+02
3.218166139077065964e+02
1.012629234104154534e+03
2.025023503513177047e+03
2.659047148800440937e+03
2.684726056623719160e+03
2.793133786067345227e+03
3.153310972854821102e+03
3.163265359775901743e+03
2.325010910705295373e+03
1.654565493719391043e+03
1.261903096869258661e+03
4.990000757745281135e+02
-2.581081059628487537e+02
-1.110449554770567829e+03
-1.163059591692969207e+03
-1.392947403802365898e+03
-1.386069338074111556e+03
-9.004254222180342140e+02
-7.799375635238403675e+02
-1.997331495735938347e+02
4.031178975122927000e+02
9.197325024556761264e+02
1.532555267572225375e+03
1.992813326551811087e+03
2.306556543732730916e+03
2.545610073683202700e+03
2.693963753253823143e+03
2.636622731637532979e+03
2.183555281140696025e+03
1.403707508145923157e+03
2.490302205121188877e+02
-1.276723416079746016e+02
-4.873343279695561705e+02
-1.058885895555912839e+03
-2.191650386064548002e+03
-2.098393179640901963e+03
-2.202972113507408721e+03
-1.622564601076234112e+03
-1.115490726706103260e+03
-5.567242008441847929e+02
3.053685231345569573e+00
6.728395676454568957e+02
1.106746999025544937e+03
1.479388532559541545e+03
2.060907652503965892e+03
2.327492412356396017e+03
2.337186033006484649e+03
2.463935669085964946e+03
2.083679285563009216e+03
1.703474480977520216e+03
1.165991072893749788e+03
1.840229884864751853e+02
-2.834397253408582742e+02
-9.604364516064974850e+02
-1.468982994734264594e+03
-1.851147322943006429e+03
-1.780898540524013015e+03
-1.377269403997329619e+03
-8.902329327416064189e+02
-5.008096066773715620e+02
-1.240268998979265120e+02
4.411444439528743828e+02
1.221713296295835335e+03
1.536693996681253338e+03
1.651188904841834301e+03
2.149253350192513153e+03
2.324822794067082214e+03
2.273917403583227951e+03
1.694771565605511114e+03
9.643463409145168725e+02
7.303822889318591933e+02
4.185888922156257763e+01
-9.100446985246227314e+02
-1.406349854967894089e+03
-1.431300516008270961e+03
-1.670863818101681773e+03
-1.665998660998137211e+03
-1.457753402863527299e+03
-8.872442515055706735e+02
-5.344061915920362935e+02
-9.115598711071540095e+01
5.253745052177155230e+02
1.004237795460182610e+03
1.264469686681345365e+03
1.366072035717543258e+03
-9.486838354689588471e+01
-3.066403864963945125e+03
-6.106476318531499601e+03
-6.014955061374408615e+03
-6.052716422816460181e+03
-6.508950476380930922e+03
-5.940787385286565950e+03
-1.038095223052169104e+03
-3.427737835682563059e+02
-1.876782032505740744e+03
-6.695335543253163451e+03
-8.322014144956841847e+03
-6.483934579980793387e+03
-1.895210578457200654e+03
-5.196270661347044552e+03
-2.001101790914080084e+03
8.655379949993107402e+02
2.431988230407175706e+03
3.098157763511003395e+03
3.391902402539562900e+03
3.677431323042144413e+03
3.535957584438501272e+03
3.257450331587747314e+03
3.076728241557475485e+03
2.431179889533565529e+03
1.674357979901424414e+03
1.146709395520018461e+03
3.784865854169844397e+02
-3.172364411425211870e+02
-8.731862966868790181e+02
-1.494293401654934769e+03
-1.428791019574738129e+03
-9.147597003301974610e+02
-3.131234331334981107e+02
2.254939100308551758e+02
3.993935075693882482e+02
7.023536417107003444e+02
1.496257776141106206e+03
1.859239484384102070e+03
2.027388979363908220e+03
2.425644732003801437e+03
2.823274179092972190e+03
2.730538563476307900e+03
2.218271902082719862e+03
1.777539579158476272e+03
1.100073721343309217e+03
3.243195954903219445e+02
-2.366162632112369693e+02
-9.380785354112696268e+02
-1.690379218089311280e+03
-1.965516582731292374e+03
-1.912344541618945868e+03
-1.731891976962878061e+03
-1.291035826407161721e+03
-3.926286288010253998e+02
1.225680496639761117e+02
5.156728799944067987e+02
1.046716732479457733e+03
1.611907104449427152e+03
1.938250974003378133e+03
1.991508654305825985e+03
2.060623493127377060e+03
1.961645251580616105e+03
1.892314014631952432e+03
1.110704206007783114e+03
5.719524028575774537e+02
-6.698304492610508021e+01
-1.723921841104980103e+03
-1.949834819974149923e+03
-2.219955301856618917e+03
-2.463246182810742994e+03
-2.469518990052603840e+03
-2.244913052158227401e+03
-2.223518277438812220e+03
-2.237909610926462392e+03
-2.612243236143091963e+03
-1.171113583243949506e+03
-7.223464147161104165e+01
4.932879074316829247e+02
1.017519933351937539e+03
1.590209030337276090e+03
1.540049278556901527e+03
1.501141132492499992e+03
1.222519397145073299e+03
5.751593210612149960e+02
6.197358195456163621e+00
-8.213878839962249003e+02
-1.647548089833339191e+03
-1.767269963381249909e+03
-2.150711573141682493e+03
-2.715909348039105680e+03
-2.605874570598821720e+03
-2.267673788335657264e+03
-1.942158944644314715e+03
-1.098262012752557666e+03
-6.180648647121201975e+02
-5.005248818533685267e+02
-2.215374322226540471e+02
9.048875658683575693e+02
1.476840956507612646e+03
1.471433646964183254e+03
1.494541584266280779e+03
1.390048593320245573e+03
1.209915043908565394e+03
5.170916641088796268e+02
6.461004673018963729e+01
-5.705333008581975491e+02
-1.151413265028226306e+03
-1.641266667280975753e+03
-2.266121428199601269e+03
-2.744975888591925013e+03
-2.656946016875891928e+03
-2.099034122157252568e+03
-1.545220174674233249e+03
-1.071544566318295665e+03
-5.320877369071121166e+02
-2.663557063883371967e+01
6.006155110456944612e+02
1.307460629524870228e+03
1.816998824232867264e+03
2.003254568446612893e+03
2.482191307889095242e+03
2.455696757962354695e+03
2.140546574470813084e+03
1.612918623727787462e+03
9.978975916701421056e+02
-2.238099509072892772e+02
-4.293661436377964833e+02
-1.169846010000928345e+03
-1.589325495432537082e+03
-1.547758859579497994e+03
-1.039175561358919822e+03
-8.736531783138482297e+02
-6.083616807125232526e+02
8.158869289417854986e+01
6.531056942968131125e+02
1.146147698054868215e+03
1.631815784477591478e+03
1.734143996086061179e+03
2.243212096182288860e+03
3.414926232671944490e+03
3.361157646908551214e+03
2.828962990819002698e+03
2.763801291841919465e+03
2.489689098884519353e+03
2.071790813621762481e+03
1.476207243019185626e+03
6.680467685900601964e+02
-5.055580547374672307e+01
-2.634823668870524784e+02
-6.389035911164149866e+02
-6.517737312784204278e+02
-5.278216339482880812e+02
-2.623624823251565203e+02
3.405599880234216243e+02
6.209183111882135790e+02
1.120228055912059972e+03
1.940939005838620687e+03
2.230971038360329203e+03
2.396413679747464812e+03
2.932039859118527147e+03
3.476589623756483888e+03
3.158303256722824244e+03
3.272413702941504198e+03
3.212677210430586911e+03
2.807184950102582661e+03
2.138472869929762965e+03
1.387278676194535592e+03
7.318581694170067067e+02
3.396777258590803399e+02
3.280819298646399602e+02
4.098551857007700505e+02
1.905843763714074157e+02
2.057921941871779268e+02
9.024446186273374906e+02
1.344632372442343467e+03
1.993301973223974983e+03
2.727479709759458729e+03
3.459210140866020538e+03
3.884344860451678869e+03
4.184116234891462227e+03
4.086941715784184908e+03
3.804627640830413384e+03
3.952649325433266768e+03
3.380819104636069824e+03
2.654334247330926246e+03
1.921325157523966027e+03
1.157714716046902595e+03
2.754204246524075756e+02
3.654035577231535967e+02
-1.418268319067871062e+03
-4.626558069590090781e+03
-7.853337228955979299e+03
-7.682540550673365942e+03
-6.226182777883776907e+03
-5.728278267715896618e+03
-5.440707258246177844e+03
-4.640405598853720221e+03
-3.399397502641310439e+03
-2.817617427820455305e+03
-2.596000860287018440e+03
-2.567638017900086652e+03
-9.674138990979242863e+02
3.401037530246086135e+03
7.527115872271355101e+02
-4.620433534075409625e+03
-5.406365837171993917e+03
-3.585032871117080958e+03
-3.631343900137702349e+03
-7.934475595503517070e+03
-9.218419962326710447e+03
-9.208949997350422564e+03
-5.220961233667964734e+03
8.114900415497576205e+02
-3.364391162891754448e+02
-5.905616268954894622e+03
-6.508898854115678660e+03
-4.872147339028453644e+03
-2.765312867322343664e+03
-1.940360901656471015e+03
8.486169353419430195e+01
3.837431404026035125e+03
4.669415433171009681e+03
4.159031692304054559e+03
3.624359687189407850e+03
3.124465057875474486e+03
2.290389719075039466e+03
1.778092873837928892e+03
8.536909093796774641e+02
2.064197832583332968e+02
-5.138458524568533221e+02
-1.216069112439059836e+03
-1.892088119636401871e+03
-2.870734454759791333e+03
-4.223934325633033041e+03
-4.158520420222134817e+03
-3.548407772681933238e+03
-4.438515401954693516e+03
-5.355624234971936858e+03
-3.262601799890312577e+03
-1.215418797504869417e+03
-2.087955331609215591e+03
-3.007156747816138250e+03
-1.567909599751116730e+03
5.538140479849643043e+02
1.711568872944213524e+02
1.729440094748839840e+01
8.592063257505986940e+02
1.444882480901202143e+03
5.453545963547431938e+02
3.676801965589033898e+02
1.077028842223602169e+03
7.235025062930740205e+02
7.450813855914635724e+02
1.007932927774393647e+03
6.501527989087793458e+02
9.467668867038374856e+02
1.207944387172408796e+01
-6.156854413578016647e+02
-2.515594688632317286e+02
2.242280779115594214e+03
2.645127147087064259e+03
5.832136647364968667e+02
-1.104830525131273760e+02
5.787997067669978151e+02
2.257404238346091915e+03
9.061596912148322644e+02
2.737272610147559135e+03
5.071492559628915842e+03
5.760879766930445840e+03
2.859286947514790427e+03
-1.337061059200688362e+02
-2.616393872166356232e+03
-1.056654065521373923e+03
-5.317923334036586311e+02
-2.751794461678759035e+03
-3.567565850423319716e+03
-2.178156844026308136e+03
-1.777472451305775166e+03
-3.818518358592234563e+03
-1.261356693158507824e+03
9.610007567570370156e+03
1.535462530075905852e+04
1.220250649486178008e+04
9.072610832130963900e+03
9.227936541374094304e+03
1.022245365558195226e+04
7.771112090522965445e+03
3.567729138420837444e+03
-7.017988931762234870e+02
-1.140525838669331051e+03
2.087577083562440293e+03
2.436541419916075938e+03
5.072850415290417345e+02
-5.253205520619735580e+02
-8.942916827662843389e+02
-2.923671105426998110e+03
-2.568495041067383227e+03
4.231821114671737405e+02
1.066329469474359712e+03
2.173891253353057436e+03
-5.832588530479026758e+02
2.583923521002807320e+03
7.570417511054361057e+03
9.543078051759150185e+03
7.183782490101734766e+03
4.139468758384628927e+03
1.672012220501048432e+03
-1.954717435358626290e+03
-5.114783732917262569e+03
-7.298289775284689313e+03
-7.199442777367278723e+03
-6.096320662312598870e+03
-4.336017027063124260e+03
6.134489901643293308e+01
5.109676317348346856e+03
7.372959516152211108e+03
8.960123868777633106e+03
1.094004376553342991e+04
8.721625851311488077e+03
6.824757672266994632e+03
5.923540272106459270e+03
4.208775395378863323e+03
4.717275590464181732e+03
5.470023800282086995e+03
3.097850175394745293e+03
5.956488348118786007e+02
2.422742275466000876e+02
-2.832404702193295634e+03
-8.428570725372335801e+03
-9.973308528875224511e+03
-1.348373639379635279e+04
-1.304194462374873547e+04
-8.412162214668176603e+03
-4.295177675248143714e+03
1.136797337702071445e+03
3.876595695673502178e+03
2.898184553504362611e+03
1.972478903626829151e+03
1.206387263386009863e+03
-1.171673771540362452e+02
-3.722849665452462204e+02
-8.470437093879842223e+02
-4.015004311693060117e+02
8.232535538284228096e+02
3.200669510854712598e+02
-9.740929609021566193e+02
-2.467291963317708451e+03
-5.178751650405823966e+03
-6.389555088823278311e+03
-6.547792104285755158e+03
-7.810591680580254433e+03
-9.065017836058357716e+03
-8.923075178817820415e+03
-8.800781011210325232e+03
-7.431257015452685664e+03
-4.527570701967126297e+03
-2.713685376268850632e+03
-2.055648446922596577e+03
-1.802530830753951477e+03
-2.124349823887506773e+03
-1.246111371500577434e+03
1.171829523143589711e+02
1.757491924313174650e+03
1.174768058830421751e+03
1.489621339489644072e+02
-1.959212419271261467e+02
-1.319942080182595646e+03
-2.512177770758793940e+03
-2.687699502080884486e+03
-2.719554194056744109e+03
-3.902719377729203188e+03
-1.442191235833857945e+03
-2.749692653444851658e+02
-1.406072002251737558e+03
-1.246466076106203445e+03
-2.216612331998826946e+01
1.610899224746940263e+03
2.046769535660569090e+03
-1.325112092085489053e+02
8.451223405210674855e+02
3.757726372927359989e+03
4.236344485561925467e+03
2.992069512224383743e+03
1.772836893399071414e+03
7.426761625691486870e+02
8.696792630064984451e+02
1.186792284405246392e+03
2.214026206428731257e+03
1.914456310592061982e+03
1.053077451880888475e+03
-2.640006008933800672e+02
-2.291649042812884545e+03
-2.508895541081305510e+03
-2.128763561354998728e+03
-2.250176879714639199e+03
-1.714893227612051987e+03
-2.083833984638729817e+03
1.106156792071216159e+03
-1.786880509959227311e+03
-3.599931635443168489e+03
-4.211940584506778578e+03
-2.620801967528690056e+03
-1.579385453563463670e+03
2.809403852475480562e+03
1.568625739516573276e+03
-1.388700578286051041e+03
-1.766486633073212261e+03
1.823047647837259433e+02
-1.080245736589758963e+03
-5.212104845087123067e+03
-4.722157367050064749e+03
-3.733252930364343456e+02
9.414879814361746639e+02
-4.062976146513652509e+01
2.714485694198367582e+03
1.115921129048812872e+03
2.277814873672065517e+02
6.692239959560080251e+02
4.797364924992300075e+03
6.568239229340828388e+03
6.427976648453434791e+03
3.239684527638997224e+03
2.373494966757382372e+03
-1.784530163705563155e+03
1.362676825260354462e+03
1.936228380677658379e+03
-1.271794995336050079e+03
2.285648031525203351e+03
1.024622231443052215e+03
-8.780603605090081487e+01
-2.363497772560253551e+01
-1.020725132981604474e+03
-1.548039842253372626e+03
-9.874953980670127294e+02
-2.616004900735272713e+03
-2.258467183220047900e+03
4.478228940726196925e+03
1.068921405235659222e+04
1.055460206494181512e+04
7.480469516594384913e+03
6.090911337480728434e+03
6.999966063551160005e+03
6.763744648663437147e+03
5.396337098482898909e+03
3.535801333167479697e+03
1.591100283604794186e+03
-9.614216284639057974e+00
-2.962357194700864511e+02
9.354535500313643226e+00
6.786826813027492733e+01
-5.325212533208327841e+02
-9.160316315730152326e+01
8.917193142314264378e+02
1.192471242558312724e+03
1.716612442339051313e+03
2.170292997681398901e+03
1.714959906738628774e+02
-2.194815249482559921e+03
2.729607276428397356e+01
1.964623974688403450e+03
2.668934118345770457e+03
2.312834390727070058e+03
3.008141992858068534e+03
4.129895969902796423e+03
2.907343818264253059e+03
5.367640841605294781e+02
1.600662748685588221e+00
-4.803178620064763749e+01
-1.743370962989058398e+03
-2.887480497957412354e+03
-3.562183654830607793e+03
-3.175598978889023783e+03
-2.095709377059070903e+03
-1.494495766759438311e+03
-1.339015139364762035e+03
-8.052459416230364013e+02
-4.212950450681132679e+02
-5.883697939502500276e+02
3.258239074542321418e+02
1.713092256824532114e+03
2.725338177232938051e+03
3.326505278525720314e+03
2.157615773564627943e+03
1.458514065200953155e+03
3.115167931777493777e+03
2.262513267457883558e+03
3.145072673162693491e+02
-1.150909306174124595e+03
-1.648813293788209194e+03
-2.205208221923146539e+03
-2.283049500236736549e+03
-2.755552317299090646e+03
-3.101838436806254322e+03
-2.038850193559486343e+03
-3.795068199250925431e+02
8.681909363024303161e+01
6.910680467002546266e+02
1.330434578000286365e+03
1.819884720357152219e+03
9.801622069812536893e+02
9.850755571893887463e+02
2.762699869860502076e+03
3.232977434211690706e+03
2.707730762914758088e+03
1.544858426669818755e+03
2.154257086411588489e+02
-3.047262461103222222e+02
-4.157487556822952683e+02
-1.639637626267811584e+03
-1.874458772104510444e+03
-2.005300256583553846e+03
-2.994200751958330784e+03
-2.826234835111030407e+03
-2.696333952778396906e+03
-4.926551337756451176e+03
-8.184000472292224003e+03
-9.114928446122255991e+03
-8.246237412286989638e+03
-7.035761192406922419e+03
-3.868659632456676263e+03
6.608166247962045645e+02
7.273931621491948363e+02
-1.426428769410118775e+03
-5.740929335811067176e+03
-6.906413554125797418e+03
-6.889909448466128197e+03
-7.573125474111296171e+03
-5.703081434525103759e+03
-1.197814778648716583e+03
-9.086748389351078004e+02
-1.209637704462069678e+03
-6.305229308884577222e+02
-6.394264822909115082e+02
2.404725199993740148e+02
1.094239342404313220e+03
1.402029568755620630e+03
1.195462622674158865e+03
1.519784184162179372e+03
2.402190224709931954e+03
2.788310556877283489e+03
3.495204687697913414e+03
4.374618472954483877e+03
5.018483692258102565e+03
4.409071126653530882e+03
3.279566652731992235e+03
1.912022227488896306e+03
1.321205966651428298e+03
1.409757000246236203e+03
1.277829906836351483e+03
7.246200366891791873e+02
2.671041536961732277e+02
-2.437777874691931288e+02
-1.938212656521187114e+02
1.268334108832790861e+02
5.509626831166174270e+02
7.287511109376093827e+02
9.619842825366627892e+01
5.966381896157153051e+02
1.762606318483995210e+03
2.384929754049928306e+03
2.277780683996894368e+03
2.231519453968225207e+03
2.048292716935579847e+03
1.585121866815403109e+03
1.611162727601456709e+03
1.927489753595828915e+03
1.439102693229934175e+03
8.738667997352818020e+02
2.127060492840083441e+02
-6.994503307623205046e+02
-1.514831797857538504e+03
-1.488551395865002405e+03
-1.252398395181415253e+03
-1.248293633941733333e+03
-1.291212960041440965e+03
-1.459779781021039753e+03
4.259994759138299401e+02
1.610168734895255966e+03
1.685895864002578264e+03
1.625429370208478304e+03
2.021038335043075449e+03
2.478636913675059077e+03
2.512235416320996137e+03
2.488682647948423892e+03
1.682205740074702817e+03
7.980587436485150192e+02
-5.466244195286875538e+02
-2.532649476734421569e+03
-4.711386825211443465e+03
-2.910227331539006173e+03
-2.558167692957962117e+03
-2.976377802760240684e+03
-2.328653016618433412e+03
-1.944653149819830560e+03
-1.382286553499533738e+03
-7.154827747380901428e+02
-5.121163090652471510e+02
-1.401813022228392640e+02
3.324112991536258619e+02
6.656513342267270446e+02
8.254898897442798216e+02
1.438069178295633264e+03
2.151545155228066506e+03
1.721977948696908925e+03
1.437496720190575161e+03
9.530589282078311726e+02
2.686151006672166091e+02
-7.597194606948015689e+02
-1.519906786481668860e+03
-1.596009459779081908e+03
-1.430977053842297664e+03
-1.771904175794921457e+03
-1.479914519773807342e+03
-1.039900496484040787e+03
-9.947861688299174148e+02
-6.874723556695499838e+02
-5.079141729572278336e+02
3.538354109594941974e+02
9.997774895468560317e+02
1.484882168944301156e+03
1.757309861060248522e+03
2.239107282812210542e+03
2.318268477956423794e+03
2.160866098531834723e+03
1.778945527606870655e+03
9.284015309383854628e+02
3.312013240683492086e+02
-1.075463468480997022e+02
-5.601484872729698736e+02
-1.180564690168509514e+03
-1.329624070944922778e+03
-1.972397187413116171e+03
-2.268978230377361797e+03
-1.935430884988082198e+03
-1.717666200849460893e+03
-1.252432869980865689e+03
-6.319774012162667987e+02
6.350532067497420030e+01
8.472525160102799191e+02
1.313339964448955016e+03
1.006785685538099642e+03
1.530640584070115892e+03
1.217739913536263657e+03
8.780270876964173112e+02
4.933882827423282151e+02
-7.161553119651152883e+02
-8.945521484371814722e+02
-6.978821387258031450e+01
-2.778265697570793691e+02
-1.745830794450317171e+03
-3.923871858265653373e+03
-3.703034954844622007e+03
-2.356481441745888333e+03
-6.838857967600133634e+02
2.845410232875775591e+02
1.019172645505973605e+03
1.307861899973438085e+03
1.747518962057240742e+03
2.649175681651093328e+03
3.517518531162986164e+03
4.143209398083389715e+03
4.413700927333571599e+03
4.517187029039058871e+03
4.264206287406267620e+03
3.989800782382730176e+03
3.015945026842738571e+03
2.621747723183176731e+03
1.654796130337256955e+03
8.049630311131766121e+02
1.600001571715308728e+02
-1.137199034050620838e+02
-6.925452737105028973e+02
-7.991871700989826195e+02
1.230506819728690289e+02
6.504999459127554928e+02
8.926519680862047608e+02
1.516443802898589183e+03
2.040831479977512345e+03
2.822365534727579416e+03
3.074878753478390536e+03
2.950349039011492550e+03
3.262340547691330357e+03
3.925043893575852508e+03
4.227434474161465005e+03
3.939247240707985384e+03
3.529708329788602896e+03
2.674702057467836312e+03
2.276049698618876391e+03
1.486756073512101693e+03
8.027463114729098379e+02
2.278955419574755012e+02
-3.746628758563147699e+02
-7.031465140909488127e+02
-7.560979776266183308e+02
-5.106327575208626968e+02
3.536671197294049875e+02
9.680925260484425507e+02
9.804768794306817199e+02
1.468628498912171608e+03
2.279665346086816044e+03
2.961648404544586811e+03
3.503594638970236247e+03
3.290512258819087947e+03
1.484383027875215248e+03
-7.659258527297754426e+02
-5.134523403943595440e+03
-7.131444760755053721e+03
-7.995657580580460490e+03
-8.357268258994052303e+03
-8.207356957321386290e+03
-8.254930927021954631e+03
-7.002027989482948215e+03
-6.289798439413016240e+03
-6.417948995719142658e+03
-5.747200343754462665e+03
-4.074825075241024024e+03
1.421999146248404486e+03
-1.701675258498313724e+03
-4.194785444774947791e+03
-3.725396201847370776e+03
-1.306557829055120237e+03
4.949040936814723182e+02
-2.604889866537732814e+03
-3.448095142329142163e+03
-2.639757312879360143e+03
1.614268605966623909e+03
2.541955026795894355e+03
-3.789711711689701133e+03
-6.647834567383180001e+03
-6.963488736908849205e+03
-6.692662969604649334e+03
-6.610330192425394671e+03
-5.800479004295340928e+03
-4.452064893968567958e+03
-4.830073016777187718e+02
8.916552749098054846e+02
1.672871126023800798e+03
2.393680000362996452e+03
3.770201686610587331e+03
4.163589440356346131e+03
4.278799973827649410e+03
4.364648241886417964e+03
4.386353677745332789e+03
4.206081433446799565e+03
3.542834613629067007e+03
2.936567769714502901e+03
2.955300552870752199e+03
2.189995641703918409e+03
1.090720308811683481e+03
-2.825226250851454779e+02
-1.947991147378234871e+02
-9.511577462153475153e+02
-1.243505187096995542e+03
-9.338121072835132281e+02
-3.520122427832755534e+02
4.309660058757368688e+02
9.713005791060600131e+02
1.190980570729396959e+03
1.830912757640599466e+03
2.320225528462062357e+03
2.408009693186544609e+03
2.757359788417961681e+03
2.555360523511252723e+03
2.176007785501154558e+03
1.583275232577682345e+03
1.214258310866388683e+03
7.359780997594712062e+02
-2.195324491489096204e+02
-8.722293424731809637e+02
-1.287138859399894045e+03
-1.576245207678310180e+03
-1.618404941944963866e+03
-1.551462044275780499e+03
-1.118430773685316581e+03
-3.371616066388048125e+02
3.154087618693326931e+02
-1.188176031385473692e+02
-2.447144283168511720e+03
-7.331880829750161865e+02
1.845374614038265690e+03
2.640838366306953048e+03
2.531010463815822732e+03
2.907066895024941005e+03
2.766951289758831081e+03
2.444968516452339827e+03
2.012956756055984897e+03
1.540733602814788810e+03
7.539909980250200761e+02
1.478567897593270608e+01
-4.508187625731359844e+02
-4.729707587853160931e+02
-8.077620067025632125e+02
-1.081100600448745354e+03
-6.229251668455057143e+02
-2.322301375433937949e+02
-5.700242840112080955e+01
2.898395993569813527e+02
4.653136984055372523e+02
9.523928517324126233e+02
1.502105085810318087e+03
2.023596522064603050e+03
2.192895329935365226e+03
2.761047676827772648e+03
2.867059301266841885e+03
2.536833706597892160e+03
2.109412386420659004e+03
1.739832202680053342e+03
8.430622317879559660e+02
3.191270161709322224e+02
-8.100049333234778715e+01
-5.343567172937554233e+02
-7.599544740144463049e+02
-5.137837036637606616e+02
-2.417614207826197514e+02
-1.809421363012902191e+02
3.197031849864939090e+02
6.991715745587417814e+02
1.030502137090702718e+03
1.559765409899098586e+03
1.929992685391211126e+03
1.997189035656880833e+03
2.237318751636338220e+03
2.409303667008758566e+03
2.498196021624938567e+03
2.359003681940108891e+03
1.823727573972313166e+03
1.162366757909556100e+03
2.148661206936047563e+02
-6.568444210280138122e+02
-1.525832564807337349e+03
-2.058092148157944848e+03
-2.830633084460467217e+03
-4.987517184545634336e+03
-7.241997787679732937e+03
-9.863700164851825321e+03
-8.068612948898447939e+03
-2.103816318548531399e+03
-2.504198092801952953e+02
6.485750493409326509e+02
8.632025258743485665e+02
1.003824615195157293e+02
-2.090725632582066282e+03
-9.015168766718380766e+01
1.693078093555428950e+03
1.984085474316859973e+03
1.540856179903836392e+03
1.093008924410177315e+03
2.625966516177045946e+02
-3.863583310859527842e+02
-9.729773738119497466e+02
-1.372277267334885664e+03
-1.675340557855981160e+03
-1.911195850967816568e+03
-1.864839359004821745e+03
-1.557269792691073690e+03
-9.425030135161175622e+02
-3.915894333665325462e+02
-1.144663401567524801e+02
7.248110091026338750e+02
1.439188804897049522e+03
1.658760683248700616e+03
1.902464921164993257e+03
1.978290211281607526e+03
1.807231795149495838e+03
1.310284420273779915e+03
7.363938290430505731e+02
3.325293087249409609e+02
-3.374004965877093127e+02
-1.026414667042628480e+03
-1.272628211744733335e+03
-1.825078931047165497e+03
-1.792719953007834420e+03
-2.127633971813076187e+03
-2.229824133218068710e+03
-1.777340975451566692e+03
-1.168175079236031706e+03
-6.933217711147441378e+02
-4.037522913389831274e+02
2.294794883020357190e+02
8.133801147019398741e+02
1.657993383063252850e+03
