-1.739839738597738233e+03
-2.451828766818191525e+03
-2.233058741102145632e+03
-1.508964451778240118e+03
-8.545858146046065258e+02
-4.783489823463247035e+02
-9.713740490787208159e+01
-1.202864534357318718e+02
-1.682518598306596687e+02
-3.116892160062731705e+02
-6.364435875495628352e+02
-1.386275555977045087e+03
-1.884175583223613785e+03
-1.746520846245371558e+03
-1.889569531313768039e+03
-1.933138724180221516e+03
-1.918023416112928089e+03
-2.197671562208476189e+03
-2.430509599206105122e+03
-1.806421814600227435e+03
-1.745120989495629829e+03
-1.743543359206644482e+03
-2.682680082565449993e+03
-4.134539998276848564e+03
-7.503191195574315771e+02
6.710039039462800474e+02
1.210688873308156872e+03
1.305826412203745804e+03
1.319216612583705228e+03
1.183109888663426091e+03
9.327984291112629762e+02
6.530264359568485588e+02
5.517464538422316309e+02
1.197294669585518392e+02
-2.606173417631687812e+02
-4.893020639875305733e+02
-3.319867572641373386e+02
-2.552524641672290215e+02
-1.636611385981975673e+02
3.167870708713289574e+01
-2.054291262243327196e+02
-4.548317128330335777e+02
-2.056001939670015304e+02
-5.427301209728932463e+01
-2.753136308174938449e+02
7.825953156314835724e+01
7.565136557954317595e+02
1.022564513795714902e+03
1.870602227515023742e+03
2.350578436219382638e+03
2.428032198645261815e+03
1.930952174399649039e+03
1.072643648407831733e+03
-6.880820335085419970e+01
-7.134585082215866123e+02
-1.036394205991002309e+03
-2.310729459710732044e+03
-2.697594951255437081e+03
-3.073022082608972596e+03
-2.382841555345992674e+03
-5.090780418090460557e+02
7.541604308348524910e+02
1.142924224087671746e+03
6.682011738014261937e+02
8.479591371883252577e+02
1.108011843058992781e+03
1.377330389061619826e+03
1.559005663548369057e+03
1.988082181959900254e+03
2.159482944912374933e+03
2.207088745441857554e+03
1.788857886661456405e+03
1.410806230966780277e+03
1.479932664771962436e+03
1.157175773462899770e+03
4.854083675672297886e+02
5.193155142480451332e+02
7.187364312087432836e+02
1.038578374683862194e+03
1.485815672919532517e+03
1.532498081688113871e+03
1.700618002274631863e+03
1.767026282356594265e+03
1.986611586674964656e+03
2.002378701573898297e+03
2.266508916823914660e+03
3.016486115998826634e+01
-3.326795452083730197e+03
-6.838525358616150697e+03
-6.945054046401352934e+03
-6.758769368680246771e+03
-7.038916190273230313e+03
-7.064352398436533804e+03
-7.176041740518832739e+03
-7.028296393895034271e+03
-6.744311903961695862e+03
-7.572143297113577319e+03
-7.310790869694981666e+03
-6.970135175292454733e+03
-7.355149272749733427e+03
-6.682808386385402628e+03
-3.047044089757198435e+03
-2.696760550492750099e+03
-6.571909585110444823e+03
-6.440441742315510965e+03
-6.842837482612925442e+02
7.136553309035965640e+02
-5.408555002101847094e+03
-6.305795264179657352e+03
-6.261917997008259590e+03
-6.096879487544445510e+03
-6.304704992862900326e+03
-6.675342999320346280e+03
-6.582781106349451875e+03
-6.161975035932165156e+03
-5.353817079891080539e+03
-4.270074873987078718e+03
-3.987325527438140398e+02
-2.482866149314353606e+03
-5.616437386633272581e+03
-5.542477032997801871e+03
-5.002877912335284236e+03
-4.859539093172954381e+03
-2.025504811390589111e+03
3.826259974022536426e+03
5.421922608986951673e+03
5.792479290851133555e+03
6.196913668281816172e+03
6.558330859588952080e+03
6.375841830904584640e+03
6.350533668258900434e+03
5.978418622628641970e+03
6.069476943516667234e+03
5.486681585531427118e+03
4.979036138038554782e+03
5.121598007186557879e+03
5.216258702434037332e+03
4.832870957579027163e+03
4.687810376411532161e+03
4.852899960713314613e+03
4.951716285693099962e+03
4.602825280352968548e+03
4.487772848976926070e+03
4.794508431407146418e+03
4.791374622231521244e+03
4.805231316896221870e+03
4.749871208488503726e+03
4.812418715796697143e+03
4.802206302206110195e+03
5.408469396140777462e+03
5.758904370511255365e+03
3.802885100421838615e+03
1.777384073078185907e+02
3.804558760912039361e+03
4.153669632435702624e+03
3.798152373945638374e+03
3.518141326877534084e+03
2.896097680715898150e+03
2.769239182924900433e+03
2.336764039346294794e+03
2.478084890452219497e+03
2.352657311404792381e+03
1.979808182696339372e+03
2.216495338875542984e+03
2.464720372188900001e+03
2.641868591923953318e+03
2.906116352400811593e+03
2.948761152425385262e+03
3.056353021299582906e+03
3.169246510418123307e+03
2.897567387254089681e+03
2.458568467982256152e+03
2.061487458243573201e+03
1.578064819323306438e+03
9.550677040757294662e+02
2.312375283230748551e+02
-2.545245149204904749e+02
-2.621937761169324972e+02
-6.266956848729256535e+02
-7.799362365387243017e+02
-6.621565939466753434e+02
-5.101685375272546707e+02
-4.131217064857713126e+02
-2.440900627501882241e+02
2.049708805201518089e+02
7.040029620527566294e+02
9.909674334855480993e+02
8.118522447657562680e+02
1.064630347152272634e+03
8.003355177097785145e+02
1.105065497659308676e+03
1.055757212808732902e+03
7.143570568081305510e+02
3.697621474907731454e+02
5.192171446346426933e+01
-2.682257881364324135e+02
-4.427519731473744855e+02
-7.746548692010057948e+02
-8.808435351859384355e+02
-7.592440794130920949e+02
-4.158872595115333866e+02
-2.127567205964816992e+02
-4.158872122342783086e+02
-5.423002828983489962e+02
-2.441046834109504744e+03
-5.765212584317392611e+03
-8.978709507603196471e+03
-8.324425809564761948e+03
-7.986332179497211655e+03
-7.451439496769017751e+03
-7.714729758581865099e+03
-8.243203519505863369e+03
-8.195798736570295659e+03
-8.280432993356467705e+03
-8.640992462896314464e+03
-8.940757336660233705e+03
-8.422490535095930682e+03
-8.678169665047757007e+03
-8.816914504159421995e+03
-5.282860146848070144e+03
-4.124010615062943543e+03
-7.516213766610849234e+03
-7.759330250253673512e+03
-7.457292976075214028e+03
-7.256154081801653774e+03
-2.512815447895499801e+03
2.207827700309145712e+03
-6.211620914642921321e+00
2.494073922801507251e+03
3.958747825559692956e+03
4.212905118692347969e+03
4.294639168821351632e+03
3.603969855764599743e+03
3.061972258681154926e+03
2.273720186595032828e+03
1.981288627934515262e+03
1.644746929050249946e+03
1.258107997911060238e+03
1.045495395870724678e+03
1.216002325885627215e+03
1.547553072290274486e+03
1.755194513981085720e+03
2.003004181179621810e+03
2.003093954551362458e+03
1.933582382274800011e+03
2.023430171511899971e+03
1.949602582259034079e+03
2.162211485580587123e+03
2.689348581273671243e+03
2.967123987215730722e+03
2.935534037050628740e+03
3.283736445814613944e+03
3.044837573295413222e+03
2.303866792927674851e+03
1.993803611166511018e+03
1.171741926515977866e+03
6.667592312073111316e+02
7.078871368250312344e+02
5.642271443590968829e+02
5.987132973386096637e+02
6.273690416370556022e+02
7.272945083643951421e+02
7.885683031235643057e+02
8.922800509230721673e+02
1.194530444737802100e+03
1.725357546571489820e+03
1.740835972374413132e+03
1.813918124244219825e+03
1.871667765052221057e+03
2.196217143473316355e+03
2.563835504212014712e+03
2.481528135737720277e+03
2.143399083216401777e+03
2.010530378822606053e+03
1.818970605242151578e+03
1.822772400321305213e+03
6.619734308401448288e+02
-4.004650430271095729e+02
5.467479194449864508e+02
2.926228389961717653e+02
5.440726569729462199e+02
1.185719984399568602e+03
1.392682025954732808e+03
1.335046083361559567e+03
1.476914049212744658e+03
1.668305508424418804e+03
2.050287070401258461e+03
2.145898370236155642e+03
2.419157624157608097e+03
2.910111695816454812e+03
2.976805235973287381e+03
2.733275275686637087e+03
2.046514727339120782e+03
1.616516826890836001e+03
9.412939760775157083e+02
3.688904085491051319e+02
1.462951291971110948e+02
2.035177354143742150e+02
-1.039881161581241109e+01
4.485828694883503331e+00
2.621900097235613316e+02
6.075127335395406902e+01
4.709508652068140577e+01
3.422523548058759957e+02
4.422087225866441145e+02
9.839533648924798399e+02
1.098539892233147611e+03
6.579248045475361550e+02
3.651488884268251240e+02
5.072540896650674540e+02
5.682269883296362423e+02
5.840311832365929376e+02
3.266700678647619611e+02
-8.176038191128373001e+01
-8.783670812786107263e+02
-1.517167253081356193e+03
-1.536281453088034368e+03
-1.418889843235886246e+03
-1.485006474337981444e+03
-1.651668106967987569e+03
-1.403836730231208549e+03
-1.752561389660336090e+03
-1.818917725982417778e+03
-1.307909850188409109e+03
-9.675418173960327977e+02
-5.399206240882152770e+02
-2.740860997962496981e+02
-2.970845106947448926e+02
1.470320669118920875e+02
1.872215909171512749e+02
2.014394677443670787e+02
2.076976317810386377e+02
-9.010323424011401130e+02
-1.032943285258234937e+03
-1.092112250192296869e+03
-1.705612596075572128e+03
-2.153564976559280240e+03
-2.239991494202492049e+03
-2.415925449856073101e+03
-2.473419852080755390e+03
-2.802665251901062675e+03
-3.003878602353059250e+03
-2.611790742590565515e+03
-1.480236237635883072e+03
-8.662724917855596232e+02
1.953096910724233624e+02
2.392777601845463380e+02
-1.535630890304764762e+02
5.468107707406778673e+02
1.205074723005786154e+03
1.287325214155965796e+03
8.503138383399401619e+02
8.087645076942674223e+02
9.919559508357333470e+02
9.523947946898474584e+02
5.354177163773822485e+02
-1.472623946610191581e+02
-5.736399123188933800e+02
-5.582786133338812533e+02
-5.272189855567925179e+02
-4.619853507456982697e+02
-5.910802396680287529e+02
-4.795176799236400029e+02
-2.676946450363003578e+02
-3.772016422319378393e+01
5.291798234430096954e+02
1.071304890585780868e+03
1.265636428627117084e+03
9.673320111877065983e+02
8.292103667700711185e+02
4.192737571108489760e+02
3.314521777301483674e+00
2.131742265318497118e+02
8.289151088967760188e+02
6.280179209737941619e+02
1.166717488087984265e+02
2.530673022023280438e+01
9.504911726606333104e+02
1.822957969991252412e+03
2.202967704281238639e+03
1.691792076965147317e+03
1.606452824402834949e+03
1.859056070485763939e+03
1.794566921076623203e+03
1.546881100328300590e+03
1.724910953167803655e+03
1.945697950212785827e+03
1.791189157197486338e+03
1.691378648140187579e+03
1.337241355002146292e+03
1.344760037277172387e+03
1.531869338193749400e+03
1.450525538612458149e+03
1.211663419206572144e+03
1.472240677267134288e+03
1.460173434337262506e+03
1.532443149305930547e+03
1.664070196501458440e+03
1.238078486579232731e+03
1.143432497668112092e+03
1.299111146679383637e+03
1.614113623290168562e+03
9.544177045541764528e+02
3.249451997195614013e+02
-6.693675192356579373e+02
-4.720397870355690429e+03
-2.771134956496174254e+03
-1.383607979302166314e+03
-2.892663992002460418e+03
-3.141282884365530776e+02
1.380416586117430597e+03
-3.774774496403839294e+03
-5.812633662324936267e+03
-1.573164769016992523e+03
2.206390489083364628e+02
-2.866235043677158956e+03
1.542690032071839994e+02
-2.998678104742009509e+02
-2.733595260740898993e+03
7.681501746424903558e+02
-1.795630716528948597e+03
1.142072012657308733e+03
9.233065096672272603e+02
-2.433901901799851657e+03
-1.488531445339562424e+03
-3.619558117459440837e+03
-2.407932144808914018e+03
1.000488720985007262e+03
-2.217210140080995643e+03
-6.560330356486479104e+02
-2.382962538604917881e+03
-2.206925882494591406e+03
-1.698926599505109607e+03
-2.514952245275013411e+03
-2.838972090509370901e+03
-2.126935983612106156e+03
-2.544807448364675565e+03
-6.265831553204111515e+02
3.237548042719367913e+02
7.551873093591490260e+02
1.099840236810314536e+03
1.544923281594667742e+03
1.561451864973028250e+03
1.204442954461528416e+03
8.270246769277536032e+02
7.092137861848596003e+02
1.153080655843606792e+03
1.511601901786219287e+03
1.454884641520629202e+03
1.157991241034369523e+03
1.910010999237598980e+03
2.649061367022367449e+03
2.232242691411654960e+03
7.356910933091338620e+02
5.623393939337995029e+00
2.390409317599175552e+02
1.418565582213934988e+02
3.408192688351192601e+02
1.022859023546905064e+03
1.210201532909071830e+03
1.029111091751331514e+03
4.868459222753809286e+02
6.856962071718287461e+02
1.250790928473418944e+03
1.548945426825498089e+03
1.805165130615236421e+03
1.899555752735456508e+03
1.939197700016886984e+03
2.273272604188916830e+03
2.040598452648837338e+03
-1.163844621088220954e+01
-3.783477813971392720e+02
1.015651475086280016e+03
1.512395814661763097e+03
4.655419440936827868e+02
-1.003621231416764545e+03
-1.260329637541430884e+03
-6.195159859790035171e+02
8.343071955193775011e+02
1.397962143637196732e+03
6.513747676348717732e+02
5.016226743842035489e+02
1.042392645998843136e+03
1.219860700722731053e+03
1.142533152208655338e+03
6.171034212972053865e+02
3.624453040585491976e+02
4.625958601928107896e+02
4.825207551251667724e+02
6.853181076886685332e+02
5.260646138741971072e+02
1.788950192165649185e+02
2.138165332124297322e+02
6.802459489518160041e+00
-3.751469565692964352e+02
-7.759759284360637821e+02
-1.095698573294341713e+03
-9.353426423436025061e+02
-5.578453559424314108e+02
-4.431733742707322676e+02
-1.835717150582074453e+01
1.536579479687006256e+02
-5.807795349135277974e+01
-2.085220310326588162e+02
1.292901946976109855e+02
4.293214323730014144e+02
7.469185789184962232e+01
1.515477858145982282e+02
2.518086808351442585e+02
6.394439700947248184e+02
5.395097331718797022e+02
7.639630003864488117e+02
1.395832846646067992e+03
1.817152175616794011e+03
1.921936323686901460e+03
1.183162619355531206e+03
3.937971353394431162e+02
7.080916586954639058e+01
-2.598840698311557276e+02
-1.532521728764447460e+02
1.588114252432129092e+02
1.902410265307667885e+02
3.059781979853203779e+02
-1.412889723964892482e+03
-4.249394539575613635e+03
-6.780631258518820687e+03
-6.305657012118789680e+03
-6.808408309281323454e+03
-6.697896547076832576e+03
-6.118122259533949546e+03
-5.842108445951081194e+03
-5.521899110895952617e+03
-4.269433296925047216e+03
-4.499793452855167743e+03
-1.267783426983880645e+03
1.202426112753546249e+03
1.552900170686598813e+03
1.690525835787870847e+03
1.489221263463208743e+03
1.222936468341837099e+03
1.406609107328040182e+03
1.319221155379547099e+03
1.486777440118363074e+03
1.615203945551776542e+03
1.480500386079203963e+03
1.718618138050656626e+03
1.831514300727382306e+03
2.100212151361201450e+03
2.098712445482970452e+03
2.133027186029040877e+03
2.036062640908082585e+03
2.368845506242997544e+03
2.596313940211906811e+03
2.355391792975156477e+03
2.446032151060096112e+03
2.144242179941401901e+03
1.890005704923850772e+03
1.624334494087195026e+03
8.352115540592390062e+02
8.005118965041070851e+02
2.431379927513777659e+02
2.541376793114179407e+02
9.274611926123908461e+02
9.020191069800531523e+02
9.008969208095383010e+02
1.089106752225109403e+03
7.365618977520969111e+02
3.092232686434726361e+02
3.340239496315248289e+02
7.969331396063695365e+02
9.789469310454786637e+02
1.292058146441265308e+03
1.661210211519808581e+03
1.728320080617064832e+03
1.903317909238173343e+03
1.373229801692577439e+03
8.030655359841971404e+02
6.357609356262918254e+02
7.735394477080880904e+01
2.478369557289461156e+01
5.359368641010584042e+02
6.967461948459961150e+02
8.392027810038126745e+02
9.853610128002667352e+02
5.931910077187369552e+02
1.915538270624905977e+02
3.084260393699622114e+02
1.007743623136625047e+03
1.837415890207568509e+03
1.703588747800705505e+03
1.562182540327143442e+03
1.476148643986585512e+03
8.235271442335923666e+02
2.542892509122952163e+02
2.004193437095892989e+02
2.888800779964125240e+02
-1.159384129226071991e+03
-5.422427956599664867e+03
-5.636169552377583386e+03
-5.604672857476249192e+03
-7.488064896976339696e+03
-6.966329956326510910e+03
-5.212526052788784909e+03
-4.281649063311504506e+03
-2.063659403354716687e+03
-2.502483809546787143e+03
-5.190500443782825641e+02
-4.040963891184190260e+01
-2.007685898863968532e+03
-5.319709282474002521e+02
-3.464283453876142630e+03
-8.375292757574173947e+02
-1.217725087844425843e+03
9.300776048622668668e+02
7.488602051284799472e+02
-1.991381037357760761e+03
-2.669680076901733628e+03
-5.698079851905180476e+03
-1.238542038518072104e+03
-4.020030545250706382e+03
-2.636483049772602953e+03
2.000137788760652484e+03
-1.193201527016519350e+02
-1.748865633981627070e+03
-7.584645089687203381e+02
-1.220227287185710793e+03
-1.001830809570974452e+02
-7.231235176433001755e+01
-5.815745671100225991e+02
1.427071811246457401e+03
1.442622056205713761e+03
-1.243855839820923393e+03
6.797387447771686766e+02
1.085400029299491507e+03
-6.670153610116113896e+02
1.570439488121774502e+03
-1.761213988974181575e+03
-5.895917782639777727e+01
8.301997696420726243e+02
1.186321719309722084e+03
1.055453050538733805e+03
4.096019970500370277e+02
3.007564444521630094e+02
2.089524951315649446e+02
1.942961771764024661e+02
9.178443764888596661e+02
1.350626668060532211e+03
1.436544025893364278e+03
2.135603885700269529e+03
2.573386469559957732e+03
2.403275769955652322e+03
1.578695118741333090e+03
9.956302587961821473e+02
8.676520893393866345e+02
8.311024631389980186e+02
7.530493556798245436e+02
1.117198828269534033e+03
1.499286972367052613e+03
1.886687060136476930e+03
1.311348843937366610e+03
-1.203148700073293469e+02
-1.664296791151834611e+02
7.821415023028268934e+02
1.451325728103122401e+03
1.674436521864533916e+03
1.750589116493129950e+03
1.527648196571534982e+03
1.748878377681564416e+03
2.098725386016201810e+03
2.328767407533486221e+03
2.010471838516031539e+03
1.643394801248966587e+03
1.308919813512397923e+03
9.262288687367589546e+02
5.525942946018666362e+02
2.999514464190397121e+02
2.893806195860413482e+02
1.062377518030976660e+02
1.277534424507049380e+02
2.351001422164700614e+02
-2.457341417397540972e+00
-3.802040411247211864e+02
-6.450759478531359719e+02
7.481276388987370751e+01
1.386157468881045133e+03
2.354018215340318420e+03
3.029447096756286101e+03
4.036408563988622973e+03
4.343374771057164253e+03
4.373126383231179716e+03
4.683667112381283914e+03
4.687931846205943657e+03
4.705657012176618082e+03
4.374487138734713881e+03
3.556018571457756934e+03
1.421051144210807479e+03
-1.651307657384323022e+02
4.736526389687281267e+02
9.064009409211739694e+02
7.534127507709363272e+02
1.073879418866497417e+03
1.381962889964975830e+03
1.352798193159686889e+03
7.434227500472218253e+02
2.656097140360605522e+02
-7.438176302140672078e+02
-1.771843124731373109e+03
-2.379608425376468404e+03
-2.729776478592072635e+03
-2.023240257441279709e+03
9.157562860012831152e+02
4.047823292616415529e+03
6.215586142368550099e+03
4.770383305813938932e+03
8.746617223878278082e+02
-2.254774319422052940e+03
-3.328548898182283665e+03
-4.204034794773395333e+03
-4.420025465964038631e+03
-4.564255810469823700e+03
-4.297980759560248771e+03
-4.948271913336243415e+03
-4.730691677749949122e+03
-4.985979588839186363e+03
-3.892270540801624065e+03
-5.392917294216185837e+03
-5.560741284269163771e+03
-5.628603265520289824e+03
-3.847022489238256185e+03
-7.573932941357641084e+02
-3.388185761223875033e+03
-3.179093188518277202e+03
-2.356942418294825529e+03
-3.013838692957992407e+03
-2.928836388017416539e+03
-3.042560455812550117e+03
-4.294994339882753593e+03
-5.452654536246271164e+03
-6.250782685034885617e+03
-3.917665444289069910e+03
-1.625194689145236453e+03
1.692618210227418331e+03
2.984791267913572938e+03
3.527513414196837402e+03
3.036676914700758516e+03
2.339237705461861879e+03
2.038524586136217749e+03
2.667848190107050414e+03
3.542121115445915621e+03
3.708338283958682041e+03
3.352318221518074552e+03
3.436075380171043889e+03
3.404898023025359180e+03
2.866746437492378391e+03
2.700469832745339318e+03
2.775782884615749481e+03
1.874742404737400648e+03
1.133492262011489856e+03
8.250985383756277542e+02
6.196074959237325857e+02
-5.680880926244324058e+01
-1.236124536049763719e+03
-1.367355812412084106e+03
1.218390856836542184e+02
1.198891504812766925e+03
1.360861932876445280e+03
1.570280781300692297e+03
1.465183583409786706e+03
9.425964899064018709e+02
8.812684840396209438e+02
1.582228091470802610e+03
1.953557012134074967e+03
2.170333622846323578e+03
2.069724562567685098e+03
8.998295118143713580e+02
-9.838258124211738220e+01
3.629950137227525033e+02
4.120698971149676595e+02
1.479107279896848581e+02
7.493996292422888246e+02
1.326669756539959963e+03
8.792103785674023584e+02
3.342377822986151870e+01
2.542102882931683325e+02
1.407413082872949985e+02
-1.156256437991343802e+02
-3.517895877839681589e+02
-1.140815010283168021e+03
-7.697517126237519278e+02
-2.710661470575053954e+03
-2.232320664692511400e+03
-1.488738161471340391e+03
-4.658302099870395523e+02
1.659899630224577720e+02
7.685200349367845547e+02
8.597333591375582955e+02
1.997882766877131644e+02
-2.520575535954778559e+02
-2.226834616005049270e+02
-5.280348935405372686e+02
-7.371047662426742590e+02
-1.013903641062241832e+03
-1.184266247990202828e+03
-1.002955037692473411e+03
-6.699953492181859929e+02
-2.295765831366875318e+02
-4.250450584505668417e+02
-2.326206224387368025e+02
-4.563400617414345675e+02
-1.074148156565629506e+03
-1.755938597241318121e+03
-2.354730229085826522e+03
-2.621472267449604715e+03
-1.951109799339249321e+03
-1.320623878779390225e+03
-1.632150006815597862e+03
-2.551649266463950880e+03
-2.680250709278132945e+03
-2.455218063537534363e+03
-3.359714876975800053e+03
-3.448790311653165190e+03
-2.812441995944360769e+03
-2.269664569560587097e+03
-1.681498296272526204e+03
-1.422997698375733535e+03
-1.371236110875512622e+03
-1.115214367489767938e+03
-9.949624281691660599e+02
-1.187506712914329910e+03
-1.530894174685531880e+03
-2.324105478555798527e+03
-2.669124333330064928e+03
-2.626928483874620269e+03
-2.539472505090984214e+03
-2.077760150243208500e+03
-1.628786785619845659e+03
-1.506629703244203711e+03
-1.938303811878714896e+03
-1.956752496230768884e+03
-8.069358233593599152e+02
4.002225104492238188e+02
9.628515425402634946e+02
1.395046604079195731e+03
1.416739224045486253e+03
5.108192788173331564e+02
4.393836805474275593e+02
4.964091032901128528e+02
2.900490096342999777e+02
2.474247777843532674e+02
1.595349496172594002e+02
5.054191897287136612e+02
6.080678471343268257e+02
3.564229085842117684e+02
-8.314960247417691335e+02
-7.957076908882436328e+02
-6.917151853281173999e+02
-1.078241738836193463e+03
-1.426829025760245941e+03
-1.740615789629977598e+03
-2.888134240106903690e+03
-4.173564145905630539e+03
-3.295655971612714893e+03
-7.688353036855664868e+02
1.365786588447338545e+03
1.825507430371760393e+03
1.591275165485720891e+03
1.421414517891409105e+03
2.480818050489676807e+03
3.223121792091303178e+03
3.060943898069238003e+03
2.797306449287643773e+03
2.930092483169235493e+03
2.698255686241544481e+03
1.869837399844845550e+03
1.160693322396532039e+03
1.064541383080808600e+03
2.034347802237418819e+03
3.940990992968433602e+03
4.680959309730888890e+03
5.646715872387625495e+03
7.105004015978981442e+03
6.760734489326214316e+03
5.959823781904488897e+03
4.751184067388630865e+03
3.566958369747873348e+03
3.234041579560268019e+03
3.212966449879829725e+03
3.190759054084244326e+03
4.053931970677661411e+03
5.351830041897609590e+03
6.083606833875131997e+03
6.319477854102892707e+03
6.407265914823508865e+03
5.547045102156285793e+03
4.574062171159317586e+03
4.387580274612169887e+03
4.277084885990045223e+03
3.768818598867524088e+03
3.167882931366355933e+03
2.777143968681732986e+03
3.153267330993586256e+03
4.245116875395739953e+03
5.482642942199709978e+03
5.734775894694333147e+03
6.149403318032306743e+03
-9.959847605131042769e+01
-3.110271665198613391e+03
-5.276878430811065073e+02
2.022185989614819164e+03
-1.226801018425118855e+03
-6.387661996003805598e+02
1.071894897156050064e+02
-3.314044820659359175e+03
3.081425435466973795e+03
2.071452829883360664e+03
-1.491142833886427752e+03
-5.223747920398143378e+02
-2.122136782175032749e+03
-6.803574985645622291e+03
-7.737944940057435815e+03
-4.797302777532001528e+03
-2.942796235993905157e+03
2.040492180032796341e+03
-3.015435876049984017e+03
-1.175366355797742472e+04
-1.243728756239809627e+04
-1.399830395419448541e+04
-1.005275237949039001e+04
-5.378666785386550146e+03
-4.661101198550109984e+03
-3.577138131131841874e+03
-6.104798798878221533e+03
-1.460089132434773319e+03
2.803923633105232057e+03
3.179192921326700798e+03
2.822633141830827299e+03
1.947245400946917698e+03
1.015950321704751673e+03
-3.133291403567856378e+03
-6.696481878538112142e+03
-1.282770126934966356e+04
-1.297005159701032426e+04
-7.354504331919778451e+03
-4.548044417948882256e+03
-6.893699285628092184e+03
-1.286442648563025796e+04
-7.515178402693109092e+03
-1.223982999977134341e+03
4.279192229684515951e+03
4.929384673458617726e+03
2.726603853508694101e+03
-3.806100987473874738e+03
-8.562545159491806771e+03
-1.218166958459940543e+04
-1.679660271146051673e+04
-1.896329136300085156e+04
-1.959065980501750892e+04
-1.828674617675828631e+04
-1.447352044333168124e+04
-8.312878303039704406e+03
-3.622748483054112057e+03
-5.170813803721408703e+02
3.521268897957211266e+03
8.088411477101401942e+03
4.580385764140294668e+03
4.342660396172497599e+02
4.809063157237485029e+03
5.431708960534754624e+03
1.890093967386241729e+03
2.075276092900966887e+03
9.459549089437372459e+03
1.710065638041538114e+04
1.764893889018123446e+04
1.268340020179394742e+04
8.973197620452951014e+03
9.069290112655122357e+03
6.147734191035846379e+03
1.261631071710433389e+03
1.535157176715112428e+03
5.742338948776167854e+03
9.337430782890678529e+03
9.363343318444214674e+03
1.157441995135961952e+04
1.425887035125821603e+04
1.183812593837889654e+04
5.192619760422812760e+03
3.742314112297625343e+03
4.618037618197104166e+03
7.546747596679086200e+03
1.105556704434144012e+04
1.605670328393186355e+04
1.472332196249496701e+04
1.263058890589603106e+04
1.561972880582902690e+04
1.658282782816266990e+04
1.452993424355078969e+04
1.319496038297248924e+04
1.102233160432693694e+04
7.826052933965559532e+03
6.590727781867530211e+03
3.677948091480253879e+03
-9.821720147578522528e+02
-2.126583793929122749e+03
3.648554378023288223e+02
1.816274007365981106e+03
3.816773214159594318e+03
3.216566510601096070e+03
2.121874085964746428e+03
4.571805560539903126e+03
6.910499192902022514e+03
8.004166903982125405e+03
5.266944827680417802e+03
2.001000934044988981e+03
-4.346192192008631139e+01
-2.328340210005276276e+03
-5.508523358127335086e+03
-7.568869837613237905e+03
-9.794196640990252490e+03
-1.343230580552685205e+04
-1.446718119565010784e+04
-9.574852446057604539e+03
-2.823159844241171868e+03
-1.117858956018417302e+03
5.711630108847961083e+02
3.011056837831657504e+03
2.528022131876735330e+03
1.672166028610860849e+03
8.905572937909117854e+02
-6.496954517147139541e+02
-1.112509401406450706e+03
-5.127145090678766337e+02
-9.460455810079785124e+02
-3.084376447526778065e+03
-4.664700809184861100e+03
-6.690895451490587220e+03
-1.170186420599938538e+04
-1.941067354016761237e+04
-2.503229528244502217e+04
-2.772653967707649645e+04
-3.042830755934481931e+04
-3.341860936904684058e+04
-3.225630737788619081e+04
-2.946228623833768870e+04
-2.782946145529462592e+04
-2.710872318623853425e+04
-2.656712185925051017e+04
-2.488230883339429420e+04
-1.912345479112247995e+04
-1.109258486734095641e+04
-9.417713493066386945e+03
-1.104280854200238718e+04
-1.459885866521323624e+04
-1.768877651431864069e+04
-1.805047924174798391e+04
-1.767396019694403731e+04
-1.668723075687151868e+04
-1.588629495923876311e+04
-1.586612343722685728e+04
-1.348072248690666311e+04
-7.429122919471648856e+03
-9.136497974350371010e+01
6.064516454714718748e+03
8.739484145837433971e+03
8.584569450955128559e+03
8.165754671524556215e+03
8.216038432009530879e+03
9.151438271293531216e+03
1.031793988804083892e+04
1.200748596475298109e+04
1.493504217745043934e+04
1.893144716115801930e+04
2.141663311415194403e+04
2.607565789934452550e+04
2.970252837964876744e+04
3.130208373940489764e+04
3.207020324445156439e+04
3.189497382948305676e+04
3.199922754007254844e+04
3.275277037330991516e+04
3.280253018399178836e+04
3.218441204630048014e+04
3.109431889322488132e+04
3.059015434643784465e+04
2.962087468338234976e+04
2.855438544704430024e+04
2.700159986399408081e+04
2.534645218325907626e+04
2.395587471645899132e+04
2.197273247250466375e+04
2.021588593796797431e+04
1.859621998818124848e+04
1.637057749746290210e+04
1.319186059005518291e+04
9.915981915005890187e+03
6.539806175493225055e+03
3.100182572566704039e+03
1.298180254862563174e+02
-2.157573899386904486e+03
-3.522107382860265716e+03
-5.412460623829494580e+03
-8.359749918796596830e+03
-1.003332894406863124e+04
-1.321432334725195324e+04
-1.478594357339036833e+04
-1.463929771432633606e+04
-1.483952022873223905e+04
-1.417571803088698107e+04
-1.248906908361954083e+04
-1.047277734633061300e+04
-8.979100021968853980e+03
-1.082157627521895665e+04
-1.606064940049390134e+04
-1.790052311361591637e+04
-1.533933313402655585e+04
-1.077425354693159898e+04
-1.016743913083053303e+04
-1.178395487859907189e+04
-7.421877972141937789e+03
-9.988609938220875847e+03
-1.110844669828987753e+04
-8.656561424935996911e+03
-8.381007510713650845e+03
-1.321382250175531590e+04
-1.066815483162417877e+04
-5.408224434745692633e+03
-6.309128900102756234e+03
-2.931930304038455688e+03
-1.571756043941455346e+03
-2.774775512602717754e+03
-7.400864228204646906e+02
-2.322764155077662053e+03
1.482130987787684262e+03
-9.235847578284556221e+02
-4.312656640397748475e+01
-5.717130226016473671e+02
-5.723981347385716845e+02
-3.142383216131377139e+03
-3.646847228950990939e+03
-5.885752059133698822e+03
-6.939139450298132033e+03
-6.033092863725717507e+03
-5.843692263599128637e+03
-8.126047038504256307e+03
-1.145924133684737535e+04
-1.049639527232307046e+04
-1.250064116769352768e+04
-1.299008340541549296e+04
-1.188177858131870926e+04
-7.119783532973554429e+03
-5.091162203679626145e+03
-6.721901616729231137e+03
-4.163037268916100402e+03
-7.546708742742571303e+03
-7.582932555871358090e+03
-5.528750337795718224e+03
-3.003245424298226681e+03
-3.333482041990918788e+03
-4.371498116030600613e+03
-4.177435570903225198e+03
-3.800376688361038305e+03
-3.989284183468167157e+03
-3.948268026633675618e+03
-3.365886911439611595e+03
-3.056345063417333222e+03
-1.806150138743209936e+03
-1.083120296700661584e+03
-2.006004407188756318e+02
7.891225950993399465e+02
1.617010977027493709e+03
2.922369446394937313e+03
3.794426953831933588e+03
3.586708871935434672e+03
3.157418775070498214e+03
4.033233132856683369e+03
5.524339487284784809e+03
6.094094537434829363e+03
7.029267511521980850e+03
6.749573527458318495e+03
6.070179694586957339e+03
5.834363059356512167e+03
5.764931102466310222e+03
5.397519729876109523e+03
5.805651350749354606e+03
5.947461621215871673e+03
6.274468048969026313e+03
6.601584599897685621e+03
6.376069793348779058e+03
6.357961315031885533e+03
6.946560140908733956e+03
7.574290294263133546e+03
8.052155662240977108e+03
8.155468560979755239e+03
8.917452487263612056e+03
8.765217532960581593e+03
8.127314241843813761e+03
7.643304367101331991e+03
7.321441173039192108e+03
6.614055804469836403e+03
6.229778171774863040e+03
5.963116614371308970e+03
