-1.377210131242828993e+03
-8.278354412757571481e+02
-6.752545088788640442e+02
-1.150454955569653748e+03
-1.540462502264683962e+03
-1.935299483417489000e+03
-1.698128515456016657e+03
-3.079474154527230780e+02
1.439344122976155404e+03
2.834759977770699152e+03
4.047193773987872191e+03
4.010670294619972083e+03
3.313237865564822641e+03
2.207841330123372700e+03
1.319522237396093260e+03
1.465287073164736512e+03
1.489112671269666180e+03
7.349703758668557612e+02
-5.261808097156364283e+02
-1.429266854624508824e+03
-7.503577504815375505e+02
8.694322037075563685e+02
1.927124700116374470e+03
1.597720814069690732e+03
1.138241229974921453e+03
-8.639161693519817220e+01
-8.261679699641193793e+02
-1.150957638772338669e+03
-1.860957018619132214e+03
-2.767285684248841335e+03
-6.414839623741106152e+03
-6.104646636532464981e+03
-4.381681875997776842e+03
-3.909996446781073701e+03
-8.206526164970573518e+02
1.042365592609605756e+03
1.868080736319530615e+03
1.896431636764150880e+03
1.681459047573649059e+03
1.127143393173037339e+03
-2.698563381358259903e+03
-4.668640486835963202e+03
-2.664137068229040779e+03
-4.381199423545093623e+02
-3.545539288268430028e+03
-4.213425247014151864e+03
-2.973829866134336044e+03
-4.531786634407980273e+03
-1.640332404421607862e+03
-2.491530102121149412e+03
-6.759403652424383836e+03
-2.236933526302463179e+03
1.528487951240195173e+02
1.567978408437817734e+03
7.944393538469226712e+01
-3.196820150148719677e+03
-9.437935590862177833e+02
-2.654425365670228075e+03
-4.721639883346621900e+03
-3.472532059666183613e+03
-4.374196227818316402e+03
-5.047643759696665256e+03
-2.824079995229122233e+03
-3.776639409205489301e+03
-9.802576627889114889e+02
-2.676890381556458578e+03
-1.108567603118202896e+03
-8.452186108155153761e+02
-4.327747599566255872e+02
-6.131148196255005587e+02
-8.312763983799339940e+02
-1.223270061070521024e+03
-2.446220853308024743e+03
-1.897242952134490224e+03
-1.025287683696116801e+03
-1.780372371196345966e+03
-1.546512244997509924e+03
6.918655391092849527e+01
1.659434631985682017e+03
3.013152342583558493e+03
3.563704942115993617e+03
4.557121093376235876e+03
3.963081144156784831e+03
3.174773128475853355e+03
3.295841041682631840e+03
3.779473866663166064e+03
3.822056923449430997e+03
3.260449229814694718e+03
3.077512959615350610e+03
2.698101013462922765e+03
2.489350270995068968e+03
1.962416829756638208e+03
1.921723384997838821e+03
1.729336517305285724e+03
1.646893124516041098e+02
3.318594750969777465e+02
2.554393244134008910e+03
5.089564845942190914e+03
5.429108714988848988e+03
3.754236619717312806e+03
2.077598241547904763e+03
1.289477730993638261e+03
1.856026418429707292e+03
2.069045402892924812e+03
1.929242257499885682e+03
1.940457635041293543e+03
1.881303935526005034e+03
1.638237340148215480e+03
1.346489180591951481e+03
1.791887649670019755e+03
1.978796532919910533e+03
2.022292268026687680e+03
2.042726618388172028e+03
1.708512542491716886e+03
1.583614597168764931e+03
1.788866331652383678e+03
1.342241654285946424e+03
5.253524555131197076e+02
6.384233300797228594e+02
1.186510881493642501e+03
2.288514204588985649e+03
2.090577313755272826e+03
1.124623618079869175e+03
7.816244666327820596e+02
1.485533774854877038e+03
1.092454065508722351e+03
1.393186862176389013e+03
1.232700516063088571e+03
2.289872416165155755e+02
-3.609827490962888987e+02
2.367982504067833531e+02
1.075298880780266472e+03
8.734875078714870824e+02
6.983699109236857794e+02
1.679917208787438767e+02
-1.148775455560479031e+03
-1.304976228883699605e+03
-1.151591158299280096e+03
-4.637133398516535294e+02
1.482725383459771820e+03
3.021789971106382836e+03
3.514731770043026700e+03
2.749547612144972391e+03
2.117913425326785273e+03
1.944675263566145077e+03
1.066886174348845543e+03
-1.935125636662684201e+03
-5.867269396946984671e+03
-6.696752538214871493e+03
-8.380575341789301092e+03
-8.731732873565542832e+03
-7.991248171648539028e+03
-7.081067188081704444e+03
-6.173142142637357210e+03
-5.277453007908550717e+03
-5.137032244317317236e+03
-5.838826316080047945e+03
-4.168648255227331902e+03
1.012632040208165790e+03
9.670297604814286387e+02
-5.354962122371478472e+03
-8.025465795163746407e+03
-7.806430506805333607e+03
-5.302745064171931517e+03
-6.372442510651093244e+02
-8.089041544018435843e+02
-5.132770570883216351e+03
-5.686757698476628320e+03
-3.078865647445419654e+03
1.246924436467270652e+03
1.589633129579361366e+03
2.093248098403401400e+03
2.567978450475070076e+03
2.547827131954871675e+03
2.537647280541278178e+03
2.110490881670395993e+03
1.413395874409685803e+03
2.932551445345416141e+02
-5.209130859911284688e+02
-3.049223104002193168e+02
-5.636983690600287673e+02
-1.017222239504681170e+03
-1.114544212318923428e+03
6.327748820390484141e+00
9.234436004490078176e+02
9.477395796856648076e+02
9.931397038759093903e+02
1.675780036889622806e+03
1.839811321263081254e+03
1.583241408607190351e+03
1.576074350240819967e+03
2.565417144755045229e+03
2.994355388378895441e+03
2.380747944876825386e+03
2.196670201979950434e+03
2.246271396709102646e+03
2.351609174045959662e+03
2.456642821633060066e+03
2.348427833438820016e+03
1.698068924129957395e+03
1.029562285066753475e+03
8.258077433537631578e+02
5.608427653534108686e+02
1.989061864037922476e+02
3.160770070362803494e+02
5.373096460908413974e+02
1.276512481901374713e+03
1.163706684328132724e+03
5.949813163249503987e+02
6.113990239540009952e+02
8.109511310506632071e+02
6.165478729759756789e+02
3.733380922805249611e+02
6.813381191628659508e+02
1.289764082097910887e+03
1.960418916443151375e+03
1.503589085840780626e+03
1.413251002267996455e+03
1.304287247709247140e+03
7.224428865668019171e+02
1.842966657207501271e+02
-1.465280322851169217e+02
-9.860000415476396256e+02
-1.429059907826344670e+03
-3.445558764168399648e+03
-1.684861089052422585e+03
-3.618273682968019216e+02
-4.579740007411020883e+02
5.556719250741956984e+01
-2.274348906478324466e+02
-1.740698534405756277e+02
7.373970571217552106e+01
-2.368522987529149759e+01
1.558920493103925935e+02
2.916337763539786465e+02
1.413458957647734451e+02
2.314995035288123759e+01
1.300462047486170150e+02
-9.035629992167981683e-01
1.651770327173726685e+02
2.012125463071734188e+01
-4.670758945470111030e+02
-5.695126795607073973e+02
-4.512507412595305709e+02
-3.993029727652394740e+02
-4.345018256599683468e+02
-8.735533613785967191e+02
-1.192418609482299871e+03
-7.922351329775929116e+02
-2.878205411592847440e+02
-3.693902684860208296e+01
6.112831270139220123e+02
8.517265345947536161e+02
5.250079955053944332e+02
1.836173284446709175e+01
2.964545511826605093e+02
8.834452611088973981e+02
9.147716970996369810e+02
-9.086623516105003517e-01
-4.073274150539515404e+02
-2.051441449396070595e+02
-2.005156941113790197e+02
-6.372753422146016646e+02
-5.811917373812735832e+02
-7.804512676644867497e+02
-5.562081613841935450e+02
-4.200420512564803630e+02
-6.846894705992131946e+01
-3.131015293049396746e+02
-9.551678999119341142e+02
-6.070514814553347378e+02
-1.383154221107326691e+02
-4.367021417038370146e+02
6.947144959145312271e+01
6.602679079424594022e+01
6.946473835604161877e+02
1.260937089523588156e+03
1.054496204831260684e+03
1.108261434344086638e+03
1.364953452072925302e+03
1.691921588906961233e+03
1.155035304267373476e+03
6.947448103586541492e+02
1.519125737539094189e+03
1.406827504727829592e+03
4.676107604915323179e+01
2.851313834088314820e+02
8.021691409692602974e+02
1.080450448136022715e+03
7.292198737009845217e+02
9.338293550363589475e+02
1.098237197367296403e+03
1.151679495833696137e+03
6.304523402283064115e+02
4.349641120336655149e+02
9.650336183459056372e+01
3.473160185761549315e+02
4.896909605414752491e+02
-3.731828575568179076e+02
-9.371079798664871987e+02
-1.539957938311141845e+02
1.253365662520806836e+03
2.180953840359836249e+03
1.977818760698017968e+03
1.607076628719257087e+03
1.334640795847030176e+03
1.143688279562797788e+03
1.220490829386479845e+03
1.369595032988537241e+03
1.677911576829481191e+03
1.647013520071470566e+03
1.475816641670173340e+03
1.533584862533459955e+03
1.624528864720220099e+03
1.881964118547250564e+03
1.722387161912037527e+03
1.362863334911068023e+03
1.362009360142362311e+03
1.283928154277920612e+03
1.271147680753310169e+03
1.154593149994983833e+03
3.901946941567436511e+02
-1.661676307506360502e+02
-3.522235258585939732e+02
-1.992792711902219196e+02
9.025623489896427145e+02
1.507587448401847269e+03
1.263546284179893064e+03
1.007792550542530535e+03
8.236477922134678238e+02
8.042885129231113979e+02
7.496649593525827413e+02
5.492356209797554811e+02
6.240990532944714460e+02
3.048306952610717531e+02
-2.666187357024157336e+03
-2.210592659296656166e+03
-5.737565053066591645e+02
-2.257050900783863653e+03
3.967982533196818622e+02
-2.641817755628395844e+03
-4.210298699969102017e+03
-4.425296370992598440e+02
9.556262404612193677e+02
7.839953671093602452e+02
3.106412771136280639e+02
-1.687181519522840745e+02
-8.719669128967628922e+02
-3.680559173612095037e+03
-3.573090661283932604e+03
-3.867465546275320321e+03
-1.090534701274123336e+03
-2.990252348428746700e+03
-1.693460093582570380e+03
-2.346675886678367533e+03
-3.444020480040134089e+02
-3.280543544859910980e+03
-3.527151016321697170e+03
-9.209347837065400881e+02
3.518179626131415461e+01
-9.476033438147204890e+01
-1.260636939717375753e+03
-4.618504902051158751e+03
-4.981292964826788193e+03
-2.827828844525670320e+03
-5.258485858132396970e+03
-5.502182078628245108e+03
-2.512861865289088200e+03
-6.319942687032606045e+03
-3.965174515449328737e+03
-2.692890774649417381e+03
-3.534915783130626096e+03
-1.200071463120915723e+03
-6.211693108317714405e+02
-1.136438321343406187e+03
-3.989094202562684131e+03
-3.700882871475355387e+03
-1.607148964459115405e+03
-8.551491949190038895e+02
5.389611081727147734e+01
6.251115741447198104e+01
-2.758883731511224369e+02
-9.386588877852018413e+02
-9.329100277210582135e+02
-1.447842710670339102e+03
-2.110198884263500531e+03
-1.932238009473921011e+03
-1.576228048337310838e+03
-1.777879618806467533e+03
-1.942746021784220375e+03
-1.498783401075585971e+03
-1.944914492181361084e+03
-2.242945649211668297e+03
-1.982849406268771190e+03
-2.450448623338950711e+03
-2.419249465819545094e+03
-1.878968892888133269e+03
-1.293937300949981818e+03
-1.332223238488281595e+03
-1.586789100287840483e+03
-2.433555906754547777e+03
-2.763270645060155402e+03
-1.648566642617301568e+03
-4.687772133687473115e+02
-6.790054856635218812e+02
-1.032379823062096648e+03
-1.157926435949678080e+03
-1.400577961018776250e+03
-8.429219858677694219e+02
-2.051031425620121809e+02
3.811475331202209986e+02
4.034482042898898158e+02
-4.197282507311355459e+01
2.664154803634987729e+02
2.130690632573392236e+02
9.770713713090184456e+02
1.535525766054163796e+03
2.129756926616728379e+03
2.828595507898649885e+03
3.018439209304071937e+03
2.892668936538948401e+03
2.591642544617733165e+03
2.640188283849550771e+03
2.776009629650206989e+03
2.690483591732680907e+03
2.391637598373697074e+03
2.341866047697586055e+03
1.835259271501135800e+03
2.138157440719424812e+03
2.204957326938435017e+03
2.031091910762492944e+03
1.963611763944941004e+03
2.298801475035357271e+03
3.101153093322441691e+03
3.473836627451798449e+03
3.897146038154548478e+03
3.929611715865675251e+03
4.150922750299072504e+03
4.874023442361151865e+03
5.414434272732024510e+03
5.346722557053154560e+03
4.807833002851818492e+03
4.222878708038198965e+03
3.726745695015342790e+03
4.042325159983823596e+03
4.123578647788712260e+03
3.924448386659177686e+03
4.178529689938985939e+03
5.022088658942276197e+03
4.759689110771144442e+03
4.501569002053356598e+03
4.232670608477005771e+03
3.622719156433096941e+03
3.322419378737865827e+03
2.822580937506799273e+03
2.857541016556477643e+03
3.278629458514662929e+03
3.534865003432774756e+03
4.747621745078511594e+03
6.315767232958388377e+03
7.661197422285399625e+03
8.631922851659313892e+03
8.945782736863886385e+03
8.650394254327953604e+03
8.321907349251654523e+03
8.079601024866105945e+03
7.950772421633529120e+03
8.484471778805420399e+03
9.466289164583278762e+03
8.183514016671870195e+03
4.284330104493806175e+03
-2.004268888839563942e+02
-7.538521579902627536e+02
2.510122293030277945e+02
5.776693079790993579e+02
3.737994672755637566e+03
9.446864402153731135e+03
9.834881520238821395e+03
9.139964977699215524e+03
8.080367652215286398e+03
7.017752455104462570e+03
5.757958292839647584e+03
5.201500570039408558e+03
6.212429347557485016e+03
7.023949795046059990e+03
5.868630306105949785e+03
2.326303767672463891e+03
-1.998231594785991547e+03
-3.227848463644527328e+03
-3.716396359474799738e+03
-3.115884790458289444e+03
-9.032838551262444753e+02
8.649480790737575262e+02
2.620812545739926918e+03
6.168381845801814052e+03
7.986229975937882045e+03
6.470533354825095557e+03
5.576209588877846727e+03
3.867122445480852093e+03
6.172693266688079348e+02
-3.777287619830578478e+03
-7.245255512731060662e+03
-7.346192205634634774e+03
-7.827928242711916027e+03
-1.066661501703215981e+04
-1.104175266794154777e+04
-8.537440365511405616e+03
-8.582553394320826555e+03
-1.054390882347101797e+04
-1.592926631115786768e+04
-2.064462548430209790e+04
-1.908095661819412999e+04
-1.537500126624531731e+04
-1.720949690069422650e+04
-2.365147271759048817e+04
-2.829477024692592749e+04
-2.994910446845020851e+04
-3.431738780138234870e+04
-3.751255734472363110e+04
-3.737144139632794395e+04
-3.816399953225439822e+04
-4.036302562022011989e+04
-3.667820697128064785e+04
-2.419632942804563936e+04
-1.782422867747217970e+04
-2.808663418699120666e+04
-3.259820108035765588e+04
-3.157296775249565326e+04
-2.479581884246385380e+04
-5.295539083531793949e+03
1.732606811374846075e+04
2.747149664869628032e+04
3.608403023976394616e+04
4.444467153278821934e+04
4.234762597808476858e+04
3.653722480863971577e+04
3.390863767204715987e+04
2.951102056460177846e+04
1.568179314837875245e+04
1.192935544632584879e+02
-9.252436792610267730e+03
-2.249113461673971688e+04
-3.638044058421165391e+04
-3.937120113838001271e+04
-2.992415161312133932e+04
-1.118397056346468526e+04
3.545590779203298553e+03
-2.853269225712147545e+03
-7.319278287551293943e+03
-8.555101706184050272e+03
-3.931440259211871762e+03
7.075944893550988127e+03
1.082740466580351494e+04
1.668319985636902857e+04
2.956357708518328218e+04
2.549190435171510035e+04
8.761479640097615629e+03
-3.415956057914783628e+02
-9.368298821796908669e+03
-1.725858101435038770e+04
-2.833823351003147764e+04
-2.324104028233082136e+04
-2.447666710360837897e+03
9.998088964304881301e+03
1.578944493356764178e+04
2.154763381199881769e+04
2.310282623167936254e+04
2.140433152367484945e+04
2.115235916720135356e+04
3.098495485343299879e+04
3.000727453625687485e+04
2.106141165589527736e+04
1.473449757771337499e+04
1.377280395495531593e+04
1.458549434944328459e+04
1.269469501388548269e+04
6.041459500555534760e+03
1.212834653226141199e+03
3.134994361485306399e+03
1.355011095300381930e+04
3.638733245945963426e+04
3.555870533203432569e+04
2.345612174501851769e+04
1.874675793795842765e+04
1.750888764497067314e+04
1.934243102364906736e+04
1.129324649866004074e+04
3.413554681938912836e+02
-9.465244170474396014e+03
-2.033849038207455669e+04
-2.486138958473157254e+04
-2.548594154215872550e+04
-2.166795297190656856e+04
-8.942763957894094347e+03
1.985499925718927443e+03
2.829033223806291971e+03
-6.463590245903030336e+03
-9.788085376456863742e+03
1.798669638858370035e+03
3.227533159762975993e+04
5.296794407532126206e+04
5.078053825757943559e+04
4.256514221011826157e+04
3.267690124315927824e+04
2.625233502696457799e+04
2.309021574182924087e+04
1.883918859927453013e+04
1.222847534206842647e+04
4.540758868767085005e+03
-2.044695888361653488e+03
-4.155288123721716147e+03
-3.453078336444061733e+03
-5.527475589959371064e+03
-1.141599672609250774e+04
-1.614017882372180065e+04
-2.169053026541336658e+04
-3.074204367177422318e+04
-4.333291039934197761e+04
-4.795826212930469774e+04
-4.057409210604619147e+04
-3.096989239018192893e+04
-2.636586358146108978e+04
-2.047987990218726918e+04
-1.434064694723875618e+04
7.222242225922468606e+01
5.743597053305754343e+03
5.795742627490004452e+03
6.703132579638511743e+03
8.997460224827755155e+03
1.210033498674617658e+04
1.026992859488531576e+04
3.784315477031922455e+03
-2.207667562306854506e+03
-1.347577519991412146e+03
7.531180929131631274e+03
1.297246714620017701e+04
1.179599899884756087e+04
1.134607610862869933e+03
-6.224896824898773957e+03
-3.631816576254077972e+03
-5.482452473840684434e+03
-6.930921034435689762e+03
7.335647162917257447e+02
6.578752548089967604e+03
2.699388030268595230e+03
1.718251829145154943e+03
-3.367888371169308925e+02
-3.746884748809393841e+03
-7.833114200310735214e+03
-1.292668681064883822e+04
-1.784386895735734652e+04
-1.741261776732441649e+04
-1.194801854287195602e+04
-1.070342026839258688e+04
-1.196401996147908721e+04
-1.545082559853072053e+04
-1.973795913003487294e+04
-2.196763656525874831e+04
-2.113223150647469083e+04
-1.380607216291356963e+04
-8.344301798142183543e+03
-1.538092582942176705e+04
-2.654705541535398515e+04
-2.425883086341990202e+04
-1.391426524076510032e+04
-2.009354672275523626e+03
3.247948031052505485e+03
5.131583471129014470e+03
1.079831075185981354e+04
1.084998726239710595e+04
6.495509018431803270e+03
7.956936822274818041e+03
7.032170307930481613e+03
3.397112774875175546e+03
4.964683898587615829e+01
-9.140188159644250845e+03
-1.125312465992446596e+04
-3.877042579572316299e+03
-3.351084563842785542e+02
-4.109487767410413653e+03
-1.311111533522467653e+04
-1.890381815302066389e+04
-1.595957474176641699e+04
-1.296264114270440950e+04
-1.884098386927912543e+03
5.716083821619177797e+03
8.838037311803149350e+03
1.589406664213083786e+04
1.629431620254575500e+04
1.122776093229606886e+04
8.837335403355747985e+03
1.265812504769916814e+04
1.439433461971391625e+04
1.418895355947628741e+04
1.551588959783118844e+04
1.328120536269951845e+04
8.360154731140741205e+03
4.047916804851973666e+03
2.070643803176319125e+03
7.185893292561605676e+02
1.099942598892511569e+03
3.509705347960471954e+03
8.304059773455295726e+03
1.188100875218745932e+04
1.008943619041417878e+04
3.979548346914397371e+03
1.402800958468142881e+03
6.513824173491151441e+02
-1.055842048370049952e+03
-4.480686875036459242e+03
-8.668941286199080423e+03
-6.333383270728879324e+03
3.936260258727946621e+03
5.707982569239519762e+03
2.298920233092817398e+03
-1.132764052766102850e+03
-4.280971067281873729e+03
-4.678751400917350111e+03
-4.399154849987416128e+03
-5.983880062753480161e+03
-3.772579776074821893e+03
5.552915964295544654e+03
1.085557126019987118e+04
6.897476022243167790e+03
-1.916197938046924946e+03
-6.480059363881992795e+03
-6.385768983573952028e+03
-5.593923348725170399e+03
-3.141132668802699300e+03
6.866155387192582111e+02
1.132380421937501751e+03
2.237325171865128596e+03
3.546277582968108163e+03
1.537097472185459537e+03
2.135216368347194660e+01
3.142081268664739127e+03
4.531364863241723469e+03
3.749326568730085000e+03
1.754146991594536757e+03
1.636835875654498068e+03
4.748319636417978472e+03
4.764663795448145720e+03
2.910866446338568949e+03
-7.806703874862960220e+02
-2.206520206041744132e+03
-1.098863338076702803e+03
1.548302781127557864e+03
6.364983164781672713e+03
6.362286155270096970e+03
7.108385477278989129e+03
1.003319494406609374e+04
7.773375798844290330e+03
8.174986761987704995e+03
7.386621963871829394e+03
3.982289978076023544e+03
-1.561708776926811311e+02
-4.544665806460584463e+03
-6.300968412978374545e+03
-2.589291170086501552e+03
3.682939198681451671e+03
9.032080220978325087e+03
8.744527901800693144e+03
6.338943115495604616e+03
3.909059756210726391e+03
2.940074157833546906e+03
3.667038170442760929e+03
2.599119174021298477e+03
-1.675596164986710050e+02
-6.885206944990392230e+02
1.279883146261549200e+03
1.033985122111041619e+03
-1.087795004293778192e+02
9.575336270635608571e+02
2.167600446811833081e+03
2.237500912973943286e+03
1.954129548593244863e+03
2.471002456532718554e+02
-1.795669114354426029e+03
-1.994755648972131212e+03
-1.882651141209210209e+03
-1.823648102255956246e+03
-1.335551725892480135e+03
8.225582783892944008e+02
1.107384985291343810e+03
3.215359652932387462e+02
-1.582460717575883564e+03
-3.488077356151643016e+03
-2.535189507589415371e+03
3.165710068840439249e+02
7.269455770045427698e+02
-3.636789331265310921e+01
5.992129732138981808e+02
6.310917314110893130e+02
-4.788496151281616449e+02
-4.084313700981983288e+02
9.340917372628077828e+02
1.123810389167739686e+03
5.673668410736597707e+02
-2.488055257476257225e+02
-1.131182488084578381e+03
-1.704481284652154727e+03
-1.636069321433558571e+03
-2.393118798931563560e+03
-3.617188091505102420e+03
-4.957505846100439157e+03
-5.624081854034070602e+03
-6.562646342344247387e+03
-7.730652865705530530e+03
-8.024618400730204485e+03
-7.565287889896487286e+03
-7.022095844572646456e+03
-5.723843774064894205e+03
-3.012134223252783613e+03
1.700697123589974638e+02
2.338555883600824473e+03
2.391429547401458422e+03
1.111532138646051635e+03
-8.298424417170360812e+02
-1.523805781450347695e+03
-2.485864331705595305e+03
-3.212690761649289925e+03
-3.514400663708137017e+03
-3.963016762465634656e+03
-3.062576313203405789e+03
-1.625734441247852828e+03
-1.371675726955485970e+03
-1.111421859674096368e+03
-1.481817420327635091e+03
-2.723393472799804840e+03
-2.765990118952717239e+03
-2.068931854890111481e+03
-1.302572925113323663e+03
-1.240526122981257458e+03
-2.281141388280852425e+03
-3.507570930159807631e+03
-3.966599661452001783e+03
-3.387807370310292299e+03
-2.761959378129107790e+03
-3.332698467558713673e+03
-2.733089633565692111e+03
3.545314737188120944e+02
2.428887366116876365e+03
2.514707033339404006e+03
2.698034879777289916e+03
2.577371325580522353e+03
2.981812140055978489e+03
3.691760401285567696e+03
4.239193783595135756e+03
4.503949048141072126e+03
3.757574335597577829e+03
3.102142515833038033e+03
1.905634718127396127e+03
-1.021655231751532256e+02
-4.295345663357062222e+03
-6.044175435429219760e+03
-5.893796947995509072e+03
-5.868007599232166285e+03
-5.761409792887717231e+03
-4.298174129559340145e+03
1.100336440859321328e+03
2.222496079896253832e+03
-8.916928480525004943e+02
-5.407168716965349631e+03
-6.570611215813860326e+03
-6.852653274357801820e+03
-6.447935686137170705e+03
-6.041238372703350251e+03
-6.262646988372272972e+03
-6.970221413768719685e+03
-4.107586314870103706e+03
-3.148230890363060553e+03
-3.124814673077137286e+03
-1.621943838456145386e+03
-8.313117659502185006e+02
-2.776323741112608445e+02
2.708313143257868205e+02
-4.015809313943929624e+02
1.998903462061590972e+03
4.807454874139803906e+03
3.335798253720274261e+03
-2.830739915184116740e+02
3.164210861269226825e+03
6.973276722167434855e+03
6.804543898847230594e+03
3.040109254204605350e+03
-4.088455470639869986e+02
-6.032025850082659417e+02
2.338388497950853434e+03
3.925393290049169536e+03
4.374998522498020975e+03
4.813728184394411983e+03
5.576926007311784815e+03
6.197920336526966821e+03
6.963290945913771793e+03
8.039922961872423002e+03
7.761812270670743601e+03
6.904386499930982609e+03
6.637046860476506481e+03
5.998973936175865674e+03
5.495434228768881439e+03
4.475455529405143352e+03
2.336972262116360071e+03
5.589288672441271046e+02
-3.275408727837266838e+02
-8.153206488300559158e+02
-1.711302744874388054e+03
-3.472204505007671742e+03
-3.364872742741367802e+03
-1.409693608303847213e+03
-8.490955793056957646e+02
-3.797824603814197530e+02
1.837485537944036196e+03
4.922016247264313279e+03
7.128014929875037524e+03
7.051354935003099854e+03
5.946723383289083358e+03
4.771706547032610615e+03
3.555393022775586360e+03
1.814792399149665016e+03
-7.125764573055919300e+02
-2.881651044753575661e+03
-3.288318812942424756e+03
-1.556906454449420380e+03
1.143946517920365750e+03
1.646326728033131985e+03
5.900946966285782764e+02
-5.853564373120083246e+02
-8.141604764601684110e+02
-8.790189726430620567e+02
-1.873532284339272792e+03
-4.255238511017838391e+03
-6.150994483718762240e+03
-4.919174567159361686e+03
-1.793627458164110067e+03
-4.411484950256029265e+02
-8.444819833519341046e+02
-4.571180833711083551e+02
2.088433428720622487e+03
5.066266511922854079e+03
4.953482997302504373e+03
2.458465020818973244e+03
-9.549772827738740943e+01
-2.454981273100003364e+03
-2.187117990121035746e+03
-5.746551583892629651e+02
6.248613192279021860e+02
8.158874261498789338e+02
8.120997066149744796e+02
2.734915157282608561e+03
3.349325531308949849e+03
1.608336202079786972e+03
-5.332490135051095876e+02
-1.194164765082054828e+03
-1.721210646009615857e+03
-2.548547664076525507e+03
-1.916308012770191453e+03
-2.205980308878601193e+02
1.014353504965962202e+03
3.164240081433350952e+03
3.682697172996142399e+03
1.137600084403606388e+03
-3.708345136322208759e+02
1.085723164873368205e+03
3.534204775401162351e+03
2.452415206257007867e+03
1.047218257925768285e+03
3.076888375454570337e+02
8.789430306112125280e+00
1.923800310574649757e+03
2.544986672136340985e+03
2.995792252913407083e+03
5.020512590531639944e+03
7.667100371754479056e+03
8.262520641434415666e+03
5.919486380120094509e+03
4.445835456720428738e+03
4.642695988520866194e+03
4.968667297516356484e+03
2.572070382976759447e+03
-1.447910869248998779e+03
-5.628770691994985100e+03
-6.852185545067274688e+03
-8.379486639961969558e+03
-1.046907142668182132e+04
-1.158811615148491728e+04
-1.125083037558118667e+04
-1.016133495125124500e+04
-8.936506117343145888e+03
-8.075530672687339575e+03
-6.685629275685721950e+03
-3.576654353707004248e+03
-2.068510426124529204e+03
-1.364625608267653433e+03
-6.260250854434744952e+02
8.294348176241887813e+02
1.889826254325401578e+03
2.621915052035301869e+03
3.229476229444889213e+03
3.757345143029826318e+02
-2.090204660357196190e+03
-2.235225282987812079e+03
-3.422518587972491332e+03
-5.302274607082833427e+03
-7.298594710535734521e+03
-6.836870135529759864e+03
-4.317881186430393427e+03
-2.452516407746401001e+03
-2.753885040221568943e+03
-3.981677642792509687e+03
-1.036055270301366136e+03
2.931100074180878437e+03
4.144199349226255435e+03
4.480505766678496002e+03
5.784925213669600453e+03
4.323160775536305664e+03
-3.622626244740919219e+02
-1.434490349707263704e+03
1.635367572803176301e+02
2.924704504285723772e+01
9.682503711575871819e+01
1.144304162243081691e+03
1.461695325173692709e+03
8.395867041832198652e+01
2.472650218172832410e+02
4.807611252211283386e+02
-9.566123869485302578e+01
-8.860794134890119267e+02
-8.362452203173377256e+02
1.019623551433240465e+02
4.324272495931482467e+02
-4.827945077584567457e+02
-1.438582828761215524e+03
-3.350794781994889945e+03
-6.512166376568406122e+03
-4.673563891574167428e+03
-7.111009598069895219e+02
-2.116914008901491968e+02
1.013772085142497644e+03
-1.653668876687398551e+03
-3.230060087322976869e+03
-3.264109495601457184e+03
-4.716519025262761602e+02
2.008335378529277250e+03
4.162071103624897660e+03
4.778329427789709371e+03
4.478010917339856860e+03
3.459443364347089300e+03
1.144845016740000119e+03
8.122974190465917843e+01
8.037880725173404244e+02
2.801606140667024647e+03
4.357653071277908566e+03
2.906920333150096212e+03
7.976011470853985657e+02
-1.615143025834370519e+03
2.480355028544960305e+01
3.526483258857349483e+03
5.188042708720958217e+03
6.954502839882388798e+03
3.271971304543701081e+03
3.302629873672250596e+03
5.412533391964543625e+03
1.845774127059276225e+03
-6.634096020384648682e+02
-3.619167722118938855e+02
-9.228355771606915141e+02
-2.928145276241878946e+03
-5.320789088137215003e+03
-4.915789865291563729e+03
-5.801276486241909879e+03
-4.217304281878429720e+03
-2.187785275558724152e+03
-2.043456228957835492e+03
-2.926142537139354317e+03
-1.671703950286170311e+03
7.359209154359921286e+02
5.060764922125343219e+03
4.839825628346966369e+03
6.553152020127869946e+03
5.014794632573645686e+03
4.758693724077765182e+03
3.395842042022233727e+03
-2.056571936746160247e+02
1.201221166146935047e+03
-6.914290488066142188e+02
-1.065074039091955029e+02
8.918820185459675258e+02
-1.116344296815512735e+03
-1.442180246854272809e+03
7.594915738646658383e+02
1.501994753857251226e+03
-2.085633162066871137e+03
-4.060504100542294509e+03
8.623424244948051864e+02
2.756755048329700458e+03
3.329795436741494996e+03
4.276372700441676898e+03
3.690220064755700605e+03
1.675466955592570912e+03
1.252144610148164929e+03
9.271607403432076353e+02
-8.464567066488469891e+02
-2.472745458407242950e+03
-8.367015129647304548e+02
1.709649277494495664e+03
3.041198201557445827e+03
2.848933726176721848e+03
2.738847859904190500e+03
3.135985720604551716e+03
2.911432200662138257e+03
2.282267807605547659e+03
1.649265667307633294e+03
8.813034161518123710e+02
5.435792855914949087e+02
1.708203998500046055e+03
2.123307707330203812e+03
1.527029199224006561e+03
3.233336901563214383e+02
9.306137873989543507e+00
5.313905395953128163e+00
-8.836824819241031719e+02
-2.065815036021767355e+03
-3.144217477841238178e+03
-3.853973234740587941e+03
-4.502099857707064984e+03
-5.065632006954081589e+03
-5.702897431922166106e+03
-3.586903338932803763e+03
7.333717519891655456e+02
2.981939136104540012e+03
1.207611584905430163e+03
7.307899027804621994e+01
1.633885754540745211e+03
3.994082033284038062e+03
4.510744454152058097e+03
2.662789356288800718e+03
6.974344767405925722e+02
-1.262456326639364335e+02
-6.878698005047622246e+02
-2.560687438573020700e+03
-4.209484620946158429e+03
-3.353989040098418627e+03
-4.981474926747694667e+02
1.190710462119177464e+03
1.977187116798247644e+03
2.835449260912525915e+03
2.489575153661665809e+03
1.533059688455184641e+03
1.838747690711157929e+03
2.313485096512209111e+03
1.828140225667729510e+03
8.106160817059922010e+02
4.499418334925719023e+02
-3.338454681131544248e+02
8.016898224587319532e+01
4.695371744407959369e+01
-7.735721304033751267e+02
-4.545210322408401282e+01
1.606318071927586516e+03
3.048717528283556476e+03
3.346650086774390275e+03
2.581990657908014327e+03
2.473753895736717823e+03
2.640024429713733298e+03
2.067584603242011326e+03
1.177178277380708096e+03
9.484066643427327392e+01
-1.083447299112263863e+03
-1.714858443733910235e+03
-1.885628463173593218e+03
-2.795813322926810997e+03
-5.414296949782426964e+03
-6.315065217812288211e+03
-6.446128111809872280e+03
-6.334474885631870166e+03
-5.956006261161194743e+03
-4.990586910674273895e+03
-5.399274686740418474e+03
-5.325203503642573196e+03
-4.698565328627213603e+03
-5.153572466200300369e+03
-2.028105421071857108e+03
2.597958850090113629e+03
1.316637838942407143e+03
-4.027152052347794779e+03
-7.263384985001493078e+03
-7.941906510508258179e+03
-6.847530770816237236e+03
-4.098267670432761406e+03
-5.837399192485911954e+03
-7.276174682235044202e+03
-7.236586379465295977e+03
-7.188513878715617466e+03
-6.843919507082688142e+03
-2.448038798778490673e+03
8.420267412239466012e+02
-1.766437539320960241e+03
-2.952143820427806986e+03
1.872011474888427074e+03
3.929036659215697455e+03
