8.776143126648166799e+02
-3.549343025426543363e+02
-2.651460994811464843e+03
-1.102008163553507529e+03
-1.005705776240519754e+03
-2.241627555640077844e+03
-6.369812166811359020e+03
-1.899273634873500669e+03
-2.380155863341636007e+02
8.120192087123956526e+02
2.539817016273423633e+03
3.697367946864190799e+03
5.073714481817974047e+03
5.919917819759721169e+03
6.420880839709695465e+03
6.763428093157566764e+03
6.663360385487465464e+03
6.232047888636713651e+03
5.606478583976505433e+03
4.795001063725175300e+03
3.972772979230339388e+03
2.889909307905676997e+03
1.561689294714944481e+03
-1.740642744987030426e+02
-1.146467975221242114e+03
-1.259987733600584534e+03
-1.009893430549337268e+03
-1.230478614443918104e+03
-8.703323504695498514e+02
-2.013546946711173177e+03
-3.365151062613912927e+03
3.739529393453912007e+02
3.299482464732269818e+03
4.056716484113267143e+03
4.578983459843682795e+03
5.074591567379740809e+03
4.944648215081191665e+03
4.718780955888023527e+03
4.147980387409717878e+03
3.452936695984544258e+03
2.962651576301931982e+03
1.813971441812625699e+03
2.468453387458531552e+02
-1.378883186133025220e+03
-2.830479053283871963e+03
-3.171372219259850681e+03
-3.290439608121953825e+03
-3.604586044419044811e+03
-3.169583611681961884e+03
-1.901716590201897588e+03
-1.255677060748445228e+02
1.328066716686555992e+03
2.031991663651139788e+03
2.328718482313462573e+03
2.804157518625267130e+03
3.097290968133044316e+03
2.812217149579265879e+03
2.313953860836635158e+03
1.737836646434124305e+03
1.157016652235208767e+03
1.031226527176233958e+03
1.612932125152663900e+02
-1.622737621245432820e+03
-2.956099163892261004e+03
-4.176976857657470646e+03
-5.076479283735036915e+03
-5.135784746288479255e+03
-4.811007523568241595e+03
-3.838207217445567039e+03
-2.297371912031751435e+03
-9.334840554089365696e+02
-1.465817936742525340e+01
7.219905561008234827e+02
1.974471889325869142e+03
3.075756188606584146e+03
3.430803444397573003e+03
3.664550389193620504e+03
3.906935574216402529e+03
3.492913722437726847e+03
2.902313942557089376e+03
2.218033938074871003e+03
1.098037018032139713e+03
-4.907937112340166550e+02
-1.882568078658674949e+03
-2.943408481137963918e+03
-3.470425619797257241e+03
-4.909681164054209148e+03
-8.152197663929319788e+03
-1.271895946961554546e+04
-1.324301255892620611e+04
-1.212532578630940770e+04
-1.024786565974750556e+04
-8.668643673078031497e+03
-7.446658287068602476e+03
-6.037718386345301042e+03
-5.285786647820874350e+03
-5.567114462873373668e+03
-5.515647181045669640e+03
-5.921462199083224732e+03
-6.777562293514987687e+03
-1.951924930785120296e+03
2.570396667843088380e+03
-6.389655595732510847e+03
-8.817138461437225487e+03
-4.345084856054969350e+03
-2.067533300133879038e+03
-1.484543393696955945e+03
-1.386119008565822469e+03
-8.791321122263108236e+02
2.546763041448615184e+01
1.470694220080308014e+03
3.334632899521731360e+03
4.655352613929669133e+03
5.577929943171097875e+03
6.246477524924007412e+03
6.656019386327748180e+03
6.834590007101644915e+03
6.008214926897834630e+03
5.544951220313577323e+03
4.559862028146045304e+03
4.131976886660424498e+03
3.442248414047974165e+03
1.745629687998874488e+03
4.190847308406431466e+02
-4.853338226084861162e+02
-1.417573914522987934e+03
-2.215632352808700034e+03
-2.545539996663528655e+03
-1.338150748064439313e+03
1.360223616908877275e+01
1.148866768879572192e+03
2.237744960885609544e+03
3.979363945204111587e+03
4.592851604696553295e+03
5.106264459354388237e+03
6.067699621298235797e+03
5.929220371357565455e+03
5.282882170252534706e+03
4.483714199042550717e+03
3.374808330347819265e+03
2.460226036477731668e+03
1.987976190447999443e+03
8.260913347863719309e+02
-4.773903476641575025e+02
-1.595430313639065844e+03
-2.249045877839459536e+03
-2.462225712738189031e+03
-2.551076083030083737e+03
-1.867431892480536362e+03
-1.101966609272850746e+03
-1.429090139006131324e+02
1.466592206986447991e+03
2.788226589706858249e+03
3.221794777225158214e+03
3.293821791937144553e+03
4.085369538224601456e+03
4.289600408951574536e+03
4.082175021155125251e+03
3.407487397271187092e+03
2.394635299475943611e+03
2.224430919379226452e+03
5.878407441239149875e+02
-1.124140987183465995e+03
-1.786501271093711011e+03
-2.869259312721269907e+03
-3.445473205793597117e+03
-3.947133089303706129e+03
-3.263223118106511720e+03
-2.463656283454034565e+03
-1.928375869057779028e+03
-7.822250378556303758e+02
3.759246094453352498e+02
1.107079322533566028e+03
1.645280936975695568e+03
2.441637222739856043e+03
3.376257064509857628e+03
3.482214117569043538e+03
3.564470247146164184e+03
3.444052104445386703e+03
2.802998832003656844e+03
2.173350226806349838e+03
9.090512762829426947e+02
-2.900067321339652153e+02
-1.481798494008664420e+03
-2.831365996438683851e+03
-3.986747981109948796e+03
-4.334861654003992044e+03
-4.218815632244308290e+03
-4.100605347978960708e+03
-3.577154163396858166e+03
-2.412411330851850835e+03
-1.503299415376151956e+03
9.219190635615798612e+01
9.871335972193186308e+02
2.053640038886801449e+03
2.765736078161395653e+03
2.604347700952436753e+03
2.482440259198714102e+03
2.817964653211192399e+03
2.425890634379710264e+03
1.430238933483814662e+03
1.600389545342617055e+02
-1.460805466112880140e+03
-2.653368499348995556e+03
-3.667710851240192824e+03
-4.468883939062239733e+03
-5.113954068780073612e+03
-5.084017612718896999e+03
-4.394072942481663631e+03
-3.544098543634826456e+03
-2.152064411679912610e+03
-6.649273996914456575e+02
-1.816195244968255906e+02
-1.100860225259566931e+02
1.920693068043366111e+03
2.546621701197246239e+03
2.846625874166312769e+03
3.165749081524186295e+03
3.304947514144915658e+03
2.702270133759157943e+03
1.465639074962147106e+03
2.199447102332316319e+02
-2.141990226838796389e+03
-3.534902305084077852e+03
-3.589041454481330675e+03
-4.023290935587587228e+03
-4.017968509663029636e+03
-4.094817397933302345e+03
-3.612654775193114347e+03
-2.795590704751078647e+03
-1.451591370939660010e+03
1.139151527452761847e+01
1.190081154297621879e+03
2.332244604406605049e+03
3.006503417985588840e+03
3.551576352993879027e+03
3.905142179448501793e+03
3.428705130714114603e+03
3.234195170420315662e+03
2.689345442989488220e+03
2.009564065186373455e+03
1.022044294910120584e+03
-3.203999682039334402e+02
-8.402487751556280955e+02
-1.734888177042364987e+03
-3.283255687648602816e+03
-4.025237325979565867e+03
-4.146077692568992461e+03
-3.421018807494549492e+03
-2.196779301857915925e+03
-8.562661437951620655e+02
2.775481219232473791e+02
1.260318432343707173e+03
2.155260345621687975e+03
3.171127071603568766e+03
3.877979035805480180e+03
3.790440842047461047e+03
3.924720085837328043e+03
4.278963035976574247e+03
3.972812654737486355e+03
2.887667996148810289e+03
2.062302050174597753e+03
1.188472829623519829e+03
8.458559235651327413e+01
-1.476037639947932803e+03
-2.485151328433345043e+03
-2.842812864476918548e+03
-2.901903468121787682e+03
-2.636557238801537551e+03
-1.588491157164304695e+03
-6.917424099234746109e+02
-1.738503045109532877e+03
-5.160741436874408464e+03
-4.026376172059167402e+03
-3.136388826552354203e+03
4.352567759027643888e+02
4.364546880310871529e+03
-2.310538668210474498e+03
-1.509490418894090737e+02
8.792427308161860537e+02
1.179078342709403614e+03
-3.274737801004731637e+02
-5.114472758029268334e+03
-1.429958108866133216e+03
-3.517925581024960138e+03
-5.833509763840156666e+03
-6.697557786632504758e+03
-3.552541243456325901e+03
-1.892062996317008356e+03
-1.379167153199549375e+03
-4.986425657279758639e+02
-3.589370522274060932e+03
-3.109382201082281881e+03
2.464432397223431508e+03
3.497139432585635859e+03
1.537442877804907084e+02
-1.557458631077188898e+02
-4.732322975645496399e+01
1.548073546695747837e+03
2.217501699211205960e+03
2.418967861026957962e+03
-1.195487077723211542e+03
-2.040935087009790777e+03
3.926071698513567299e+02
-4.173775550128875693e+03
-3.390088185560699912e+03
-2.037380822608377457e+03
-5.773702718769558487e+03
-6.059013270369278871e+03
-5.756197342042133641e+03
-3.224071452451848472e+03
-2.258577785959201265e+03
2.319308902952211611e+03
3.641650549035296081e+03
3.387535412501415976e+03
5.928105526417857618e+03
6.342408656161414910e+03
5.696369953448133856e+03
6.221967712177080102e+03
5.472326867515730555e+03
4.044642710195088057e+03
3.260113176619985552e+03
2.144701235701544192e+03
6.743083950881477904e+02
-9.680312224813044395e+02
-2.055481868191322064e+03
-2.190059130721236670e+03
-2.341677195810418198e+03
-2.403279281869471561e+03
-1.513983084187370878e+03
-3.658679592027136778e+02
9.352684921228437815e+02
2.076825779041351780e+03
2.967049682745871905e+03
4.173867284750122053e+03
4.670419727830445481e+03
4.572839296731242939e+03
4.919334954159302470e+03
4.837814836886645935e+03
3.901902538770189949e+03
2.894554063967777893e+03
1.860749335058168981e+03
7.652749891310355679e+02
-6.166039843779393550e+02
-2.021357601440105100e+03
-2.924866815546325597e+03
-3.499157066440068775e+03
-3.711634891014256937e+03
-3.649819103379097214e+03
-3.952580331758446391e+03
-2.805763127710434219e+03
-2.197490028899757135e+02
7.856467749701436105e+02
2.109780278407002243e+03
2.825877286276122049e+03
3.219604425163691758e+03
3.516502850409029179e+03
4.066111025625033562e+03
4.026483091394001804e+03
3.239057993730871658e+03
2.242628879913230321e+03
1.606764447850499437e+03
5.819412867177503585e+02
-9.068842023075895895e+02
-2.052789548106901293e+03
-2.699376346197740531e+03
-3.672107063075609858e+03
-3.657844734266125215e+03
-3.495896957797860523e+03
-3.179977217529018617e+03
-1.806990493689426103e+03
-4.444444707196479953e+02
5.588030713112669901e+02
1.266938067799375858e+03
2.118981883366028342e+03
3.137922777627492451e+03
4.178688772612875255e+03
4.261364984545044535e+03
4.133963648535823268e+03
3.421892633880636367e+03
2.455185578673821965e+03
1.848778387247261662e+03
1.324083969714020441e+03
1.845146812524714335e+02
-1.201054337654128176e+03
-2.880393864745384235e+03
-3.750459122699929139e+03
-3.928647539661514656e+03
-3.693374742030642210e+03
-2.691243611062195669e+03
-1.513442314634598461e+03
-1.892799378249681297e+02
1.143555117810921729e+03
2.213400213317330781e+03
2.852964877778619666e+03
3.580111170844340904e+03
4.104394588784151892e+03
4.504459972111982097e+03
4.587377649321067111e+03
4.135901974934195096e+03
3.415812413392727194e+03
2.974876196871477987e+03
1.919285639618479991e+03
-1.750537971946513380e+03
-7.663824506582951472e+03
-1.409393577237667159e+04
-1.556632640910498230e+04
-1.503933299893892217e+04
-1.069453313972899923e+04
-3.504648409256943523e+03
-8.952050978540657525e+03
-1.156439618041961330e+04
-8.534915959613554151e+03
-3.697854707445478198e+03
9.084107032559933259e+02
4.738419187625368977e+03
4.991689703309275501e+03
4.114442928617520920e+03
5.213010250935837576e+03
5.373242150828486047e+03
4.723358512220466764e+03
3.777058600267932434e+03
2.952133270731219454e+03
1.739604328045100374e+03
1.721311798393753634e+02
-1.140988740824895785e+03
-1.739892280628931303e+03
-1.798782884447292190e+03
-2.033898139648465303e+03
-1.823938610483299499e+03
-8.199435256632979190e+02
4.547689099100336989e+02
2.199138116554764110e+03
3.393260420991358842e+03
4.445193783814665039e+03
5.152514263147834754e+03
5.660065738290970330e+03
6.027915277320351379e+03
5.539020931288619977e+03
5.255854453689271395e+03
4.193037695891109252e+03
2.869715083202379446e+03
2.398133880436913387e+03
1.148031068223446709e+03
-3.230165702775801719e+02
-1.629833927450951478e+03
-2.801051573878049567e+03
-3.016495182552712777e+03
-3.027914169250626856e+03
-2.634833961370992256e+03
-1.099692886469113773e+03
5.200210621451217321e+02
1.684507117780664885e+03
2.705812744799497068e+03
3.503191896937211823e+03
3.826210145526938959e+03
3.842590467385804004e+03
4.055992125630521059e+03
4.265287808930701431e+03
4.034895419869189027e+03
3.553047295237464823e+03
2.995807061312155383e+03
2.457907275819453844e+03
1.317655256330963766e+03
6.269323570497385134e+01
-1.411571951357650278e+03
-2.492819654423143220e+03
-2.976860303726146412e+03
-3.961776007917369498e+03
-2.774249948155392303e+03
-1.611935647658573089e+03
-7.439993883046033716e+02
2.606499915671487315e+02
1.296174274500096999e+03
2.095567119756460215e+03
3.230808578793058587e+03
4.205069170338952972e+03
4.036347468840857346e+03
8.509135071696043724e+02
-4.396022728729573828e+03
-8.910847086389640026e+03
-9.784522385385651432e+03
-1.055131020026856459e+04
-1.161348096721170259e+04
-1.298624440924371447e+04
-1.312740214262660083e+04
-1.343267998112154783e+04
-1.396931333168291167e+04
-1.339342753684678792e+04
-1.239089647612850422e+04
-1.084144327380001414e+04
-8.622699875446349324e+03
-7.542087827550183647e+03
-1.080865048845970023e+03
5.509179906393201236e+03
5.091403310401449744e+03
1.277916307573498443e+03
-3.609532750000627857e+03
-4.451050191599806567e+03
-5.112586779331823891e+03
-5.724998998169568040e+03
-5.859447406282655720e+03
-6.936899738851362599e+03
-8.583416491388908980e+03
-9.934167436118577825e+03
-1.130528418162706839e+04
-1.063983982319681127e+04
-1.015488511089074927e+04
-1.024845727395184440e+04
-8.220498896971468639e+03
-2.679971734792732718e+02
4.980797997678759202e+03
3.135925918728770739e+03
-1.424527122444632596e+03
-2.372849759922309659e+03
4.432822114733934541e+03
9.041553360583244284e+03
1.059935910087390585e+04
7.660183441726950150e+03
5.981886512616503751e+03
3.988329990225168785e+03
2.952369749170442901e+03
6.388469451399054151e+02
7.206131758333016251e+02
-1.280550407178898240e+03
1.000211031806814503e+03
3.193764571367840745e+03
3.044978322295505222e+03
3.270820533261329729e+03
4.283403202180545122e+03
5.385300517464342192e+03
6.936425034525425872e+03
8.280320500422925761e+03
9.426610884646048362e+03
1.103601008269444719e+04
1.135183122590528728e+04
1.138832465433888683e+04
1.137035880949517195e+04
1.121794323126845302e+04
1.077607068411144610e+04
9.600060088614689448e+03
6.606203342002286263e+03
2.915283451287342814e+03
5.079892473180108027e+03
4.960755542826392229e+03
3.952080369379414151e+03
3.503111853943327787e+03
4.245188765333365154e+03
4.501886926755725653e+03
5.410876997701699111e+03
7.012777804486391688e+03
8.261927501032663713e+03
9.258933456000315346e+03
1.032575009132426931e+04
1.121234119442603514e+04
1.191627770614007568e+04
1.197743459399408130e+04
1.199454838418059444e+04
1.155474699727920233e+04
1.050476983583430956e+04
9.667130191593347263e+03
8.934282174794667299e+03
7.986055148111727249e+03
6.569750676328569170e+03
4.909891558622957746e+03
3.347722372573805387e+03
3.119370015731377862e+03
3.395746373033717646e+03
3.422383179470151845e+03
3.086604638010717736e+03
2.963437833232710091e+03
4.027889507965313896e+03
5.325585589319327482e+03
5.720642450999207540e+03
4.303079765968155698e+03
2.241680639915059146e+03
1.885481707613555272e+03
3.501437137053958850e+03
4.538344226677803817e+03
4.703117050953034777e+03
5.365671889886321878e+03
4.202998047122120624e+03
2.945094311099841434e+03
2.250769222044330945e+03
1.445876836789418121e+03
-1.893631553438744049e+03
-7.143771394190167484e+03
-1.146460502859014014e+04
-1.250430137953071790e+04
-1.095391316424575780e+04
-1.059543936210560605e+04
-9.464873590150207747e+03
-7.003008942871876570e+03
-1.568713135426523650e+03
2.872960016773241932e+03
1.682048730803170884e+03
-1.181390810293744607e+03
-5.633329745470773560e+03
-1.467174682553505045e+04
-2.437157714601181215e+04
-3.248772395004019563e+04
-2.973002826677074336e+04
-2.307147781546398983e+04
-1.878409899905440398e+04
-1.984983140084877959e+04
-1.942464333430431725e+04
-1.681333087553207588e+04
-1.867575315376241997e+04
-1.901510498564991576e+04
-1.549307913004187321e+04
-7.334531876531471426e+03
-2.255339501756886420e+03
-3.114313294821512955e+03
-3.871262441748092897e+03
-2.939953193973436555e+03
3.449870119740921382e+03
-1.445733821863105106e+02
-2.771194378336828322e+03
-4.578447800731593702e+02
5.887331209377050527e+02
5.668078869641823303e+02
-7.590408004316745064e+03
-9.398745721048759151e+03
-8.557947102024423657e+03
-1.083492732251172674e+04
-9.503523654805587284e+03
-6.259482749019530274e+03
-9.358569212160073221e+03
-1.118656706544351800e+04
-1.074827772313552123e+04
-1.085343655924849736e+04
-1.065470296770556342e+04
-1.197280862365816029e+04
-1.167354851664096532e+04
-1.121853736215243953e+04
-5.711458346834657277e+03
2.404030685019922203e+03
1.275022641205735090e+04
1.789436190255627662e+04
1.650374254003828901e+04
1.393166709990139861e+04
1.659833072235658619e+04
2.203306918892603790e+04
2.412618656331987222e+04
2.174995965837736367e+04
1.162561826547541023e+04
-4.686678855288311752e+03
-1.517570020634578759e+04
-2.310224723850969167e+04
-2.925808390414109454e+04
-2.718784759421243507e+04
-2.662320020353368818e+04
-1.796581873210514823e+04
3.230591613522606622e+03
1.799236595334506274e+04
1.844481044945071699e+04
1.594321912365344906e+04
9.764839392037269135e+03
5.461727649145683245e+03
7.072114490836153891e+03
6.460580681186434049e+03
1.856029451368414357e+03
4.778853906799414290e+03
4.606907565179355515e+03
-2.554574400766018698e+03
-7.252324335036126286e+03
-4.491192356062469116e+03
4.220518432625442983e+03
1.349343950488890368e+04
2.187465806087396777e+04
2.721632614934086450e+04
2.715610180022554778e+04
1.974519498691307672e+04
1.450494790612540055e+04
1.090762915015547514e+04
3.634244485229006386e+03
-1.587966244595032776e+03
1.315169764604584543e+03
1.726876794690696988e+04
2.369592144791802275e+04
2.864779647441519410e+04
2.526251452117789449e+04
1.885420054989646087e+04
8.471897295843938991e+03
-8.338370625729752646e+03
-1.148351200998433706e+04
-1.711494211209530022e+03
6.509698360695507290e+03
1.635020944949242448e+03
-4.468545774713790706e+03
-1.203793618775064715e+04
-1.417108569454114877e+04
-5.759899228545911683e+03
5.463684252547228425e+03
1.796665466887586444e+04
2.572107169735743810e+04
2.948593234253193077e+04
2.074422737380505350e+04
1.235593500695955663e+04
1.245791413815785381e+04
6.187177550164836248e+03
-7.026430823821702631e+01
-2.985527374323173717e+03
-4.061723478914374482e+03
-2.628021091518605772e+03
-8.308524169368356525e+03
-8.827369686465026462e+03
-1.730181013905153668e+04
-1.185302546844780954e+04
-6.092117862566145050e+03
-1.074618238263993044e+04
-9.024327221240717336e+03
-1.289866940489452099e+04
-1.028336545693955668e+04
-1.060859248089443463e+04
-6.863350051342512415e+03
3.881608716012801779e+02
-5.262290323208502741e+03
-2.924931372429751718e+03
3.540989495903440002e+03
6.307347113574656760e+03
9.589649753318278727e+02
-1.919371872270817676e+03
-3.000923269855328726e+03
-6.203991289886237610e+03
-7.692790682269797799e+03
-6.044704596877373660e+03
-4.918961398075638499e+03
-4.440821736173384124e+03
-2.766615049753245785e+03
-1.647606090697099489e+03
-1.684013414526062888e+03
-1.171048013040872320e+03
-2.547100801389464323e+03
-1.713508581740968339e+03
-2.889181590484852791e+02
-4.493793547017008677e+03
-8.980887575505228597e+03
-5.264833132707911318e+03
-4.788629667366136346e+03
-8.144059210985649770e+03
-9.617157392764387623e+03
-7.602180055519978850e+03
-8.189303389664594761e+03
-1.088027596904514576e+04
-1.305993600882547798e+04
-1.207517775610166973e+04
-6.128970920842625674e+03
-5.028919957336685911e+03
-7.885837249658209657e+03
-9.804752143768841051e+03
-7.105083554865548649e+03
-2.668602529065939507e+03
-1.071485806889488913e+03
-1.208466629807096524e+03
-1.384734710635068495e+03
1.289023095995783024e+03
1.950719948033174205e+03
2.448967593419564309e+03
3.147604511236696453e+03
2.570655999340126982e+03
1.442399294913225049e+03
3.221200348837176080e+02
-7.551134295855234768e+02
-1.912542176647804126e+03
-1.708697241558674705e+03
-2.915443932691485998e+02
-8.714325672565057630e+02
-2.327546620470877485e+02
2.035650943810224135e+03
2.038682654223480768e+03
1.484244793811736599e+03
2.158955817321256745e+03
3.419723387414183435e+03
5.596484998047715635e+03
7.491209026663354962e+03
8.876702971226639420e+03
9.231077876993374957e+03
9.275934042913111625e+03
9.441247250779862952e+03
8.520725792298435408e+03
7.453416359125050803e+03
7.118839079559705169e+03
6.819853477022349580e+03
5.712531746322539220e+03
4.578720377126904168e+03
3.821291802275793088e+03
3.736181241825794132e+03
2.838261679148382427e+03
-1.375623968218741027e+02
-3.862320418511141270e+03
-7.154045912105561911e+03
-6.282600268840998979e+03
-5.431980630148046657e+03
-4.100165949468870167e+03
-4.806122273158787721e+03
-3.768790322967045540e+03
-2.012176240641200593e+03
-1.334989337724474808e+03
-2.729093231832691345e+03
-1.053993083586201919e+03
5.850528343172401947e+03
5.334559197895462603e+03
-1.845854717229658036e+03
-4.975803486741937377e+03
-7.617184172318311539e+03
-7.334969246702389682e+03
-3.625160298068688462e+03
-7.440709456609551125e+03
-7.601528068793368220e+03
-5.348448237438362412e+03
-4.246349580444710227e+03
-2.849101605756357912e+03
-2.819536978474166517e+03
-3.302524289224583754e+03
-2.789830795508295068e+03
-2.839264287389651145e+03
-2.125707133146031083e+03
4.303972759558908365e+03
5.762911325165026028e+03
-3.235650547572529376e+03
-5.666570748398817159e+03
-4.019699578916989594e+03
2.041998779758767796e+03
3.925648232351207753e+03
3.506393551191727965e+03
2.547448546564826302e+03
1.693972903523257173e+03
4.750282561836433501e+02
3.847587566532900496e+02
9.953709147515024824e+02
1.532247972827728745e+03
2.819719946235231419e+03
4.186921368136102501e+03
4.784859793180712586e+03
4.960800717999936751e+03
4.406993100015845812e+03
4.030553748962112422e+03
4.839779498412634894e+03
4.981827444100111279e+03
3.857868629345137379e+03
2.551068023647234895e+03
2.538828365808599756e+03
2.796538620128937055e+03
1.652405576579196349e+03
-8.661932908754594962e+01
-2.106599800224524188e+03
-3.883278515820589746e+03
-3.745554463603256863e+03
-2.396468221044057373e+03
-1.155311533768228855e+03
2.030950656342427294e+02
1.194069179036147261e+03
1.963109814423555918e+03
2.265992868713737153e+03
2.450947405027809964e+03
2.538927702517330999e+03
3.577421095278471512e+03
4.259658308544195279e+03
3.729354119273942615e+03
2.934751890656783871e+03
1.247294122325323542e+03
7.294758122994852556e+01
7.696216083000820163e+02
-7.592795866393122424e+02
-1.388658377703002770e+03
-1.398787918119583537e+03
-2.129944209278317885e+03
-2.768648549954082682e+03
-3.172946403482744245e+03
-2.315236788483731743e+03
-6.055702641594331226e+02
1.198831476098140229e+03
1.602344848710720271e+03
1.646341111166076644e+03
1.891572322686387224e+03
2.264513034974555012e+03
2.811307144144219365e+03
3.176157267206397592e+03
3.629625474317330372e+03
3.172692132510196188e+03
1.809585041084284057e+03
5.750582429482213911e+02
3.839556423305491535e+02
1.167710205384959181e+02
-1.044502990560161152e+03
-2.498019017331104806e+03
-2.797682840609633786e+03
-2.653450038938243779e+03
-3.065176463866576796e+03
-2.857966134251555559e+03
-2.216816506120176655e+03
-1.219089379008275500e+03
-1.990133462588292161e+02
6.170475560349167381e+02
1.973374730510390918e+03
3.047479685569381218e+03
2.509474345310290119e+03
1.809943666685681364e+03
1.777532125587839573e+03
2.308445715854187256e+03
2.731017948940780116e+03
2.551957885178410834e+03
2.127996877170206062e+03
9.069251693966117500e+02
-9.403391373594128027e+02
-2.086816906471136463e+03
-2.978172312689445789e+03
-3.201374918139425063e+03
-3.301150748629961981e+03
-2.571826468091919196e+03
-1.435295323056698408e+03
-2.715785747715303842e+02
4.825831214252495442e+02
-1.434443436451570733e+03
-5.289726747736144716e+03
-9.237738580822668155e+03
-8.768345245445705586e+03
-8.407259491505823462e+03
-9.073158556972275619e+03
-7.670904434666073939e+03
-6.944094228083278253e+00
-7.494616481549091986e+02
-8.821095830515367197e+03
-1.102250738134731910e+04
-9.009048118000961040e+03
-3.720166944915805288e+03
-3.489249327806913243e+03
-2.382258282326210519e+03
-1.977636921084757432e+03
-1.372182948633462956e+03
-5.742608624697191999e+02
8.598624142916246456e+02
2.135061946039425493e+03
2.905448191850181047e+03
3.271612033126847564e+03
3.700280013784360563e+03
3.608640847580755690e+03
3.714972170619089411e+03
3.676423125628972230e+03
3.304375542652897821e+03
2.843532556440614371e+03
2.280921071924372882e+03
2.046332256027308404e+03
1.025617046584549826e+03
-1.852892834088415270e+02
-1.463302294898367336e+03
-2.366278014656149935e+03
-2.518656172059299024e+03
-1.987404977504186945e+03
-1.467948733245367293e+03
-7.716772091831574016e+02
4.955438770083347322e+02
1.339919706733828434e+03
2.037381908838140134e+03
2.294064239866110711e+03
2.528390416023099988e+03
3.333829771808148962e+03
3.593400863815946650e+03
3.355838289485178393e+03
2.875943542024459020e+03
2.471415991448229761e+03
2.121691130136171978e+03
1.330314438139432923e+03
1.098925441933613598e+02
-1.103707220735348528e+03
-1.838722571792836561e+03
-2.192411927444759385e+03
-2.474307383741759622e+03
-3.070020323404798546e+03
-3.717123043568037701e+03
-1.901423321805378691e+03
-3.163005514914960372e+02
7.518099604613234987e+02
1.450875878907807419e+03
1.565236564714188262e+03
2.030439335126632159e+03
2.743648098538527847e+03
3.138441563573192525e+03
3.277576557084829346e+03
2.927847878236783799e+03
2.058380917983160998e+03
1.416023549729127581e+03
1.210373654102827913e+03
7.854196433201602758e+02
-4.289076676260355612e+02
-1.776833026883480670e+03
-2.924354837616187979e+03
-2.995416387357724489e+03
-4.848131479082451733e+03
-9.541458271317605977e+03
-1.050078564126584752e+04
-3.496653434936140457e+03
-2.078587357115328359e+03
-2.076695604171530704e+03
2.003307622732858363e+03
-6.453876098294778103e+02
-1.109504400299045983e+03
-5.824855152672841285e+01
2.720017010685744026e+03
-8.565663296300486991e+02
2.437129466187589060e+03
-1.519954656223236270e+03
-9.881164351597858513e+02
-3.720896131487503681e+03
-1.177033812054149394e+03
-1.663237925476431428e+03
-2.348549596898703840e+03
-3.054399201987429933e+03
-7.279022550781244718e+03
-7.567281539770472591e+03
-3.145035038541433096e+03
-3.769272875802968883e+03
-2.243176415763045952e+03
-1.847605752199969174e+03
-1.326591318869420093e+03
2.281904174320626680e+03
-2.500696745589964962e+02
3.769561355426827959e+03
9.237691450777366526e+02
-3.010457735951166342e+03
1.483873004616742264e+03
-1.011400671062492165e+03
2.014617216703943768e+03
2.011089460386260271e+03
-4.091825882940735255e+02
-6.442394255362220974e+03
-9.780354279499459153e+03
-7.450001025597405715e+03
-4.185412524448137447e+03
-1.156622892186704576e+03
-8.877121301627206549e+02
-5.446503247867576647e+02
2.639661863981625629e+03
3.453362662137791631e+03
4.028482627075390155e+03
4.641130184552262108e+03
5.106437554978860135e+03
5.145407118396423357e+03
5.139000368367243027e+03
5.128194424007023372e+03
4.480072830286737371e+03
3.915699709835359954e+03
3.594962037950310787e+03
3.038867029564122276e+03
1.791414285383834113e+03
4.355987561159238339e+02
-4.559719594253812716e+02
-4.719718077433594772e+02
-5.477236003020032058e+02
-3.362407427435559271e+02
2.115410347450866766e+02
1.226863809510806732e+03
1.116681503112270320e+03
2.206002315044465377e+03
3.407876015287495193e+03
3.512694498055765962e+03
3.952236655770816469e+03
3.938406852297425303e+03
4.234408352895334247e+03
3.822209540000211746e+03
3.419591603718207352e+03
3.148423355482058469e+03
2.766131647909043750e+03
1.711186228198287836e+03
3.005618011172271622e+02
-1.619115283059582282e+02
-4.943605485784899543e+02
-6.566788750919386075e+02
-7.928839792091591789e+02
-9.208104102504325965e+02
-1.613249689467500332e+02
7.546329412325571866e+02
1.604226948552976864e+03
2.454451125705691538e+03
2.927075171308469180e+03
4.022731163669453508e+03
4.580541456836739599e+03
4.884131646008479947e+03
4.773827032884260916e+03
4.708043915239839407e+03
4.131809292879292116e+03
3.644481747112207813e+03
3.069010898372340762e+03
2.220419790117443881e+03
1.307821444372035330e+03
-2.238385290551296123e+02
-1.447525361004406705e+03
-2.109137561442368224e+03
-2.077731318813789130e+03
-2.171260135861472008e+03
-1.355558995275277084e+03
-1.714704737852587755e+02
1.053145492938843745e+03
2.120415425911274269e+03
2.623327552429152092e+03
3.441030665896109895e+03
3.885711683572464608e+03
4.189416005849670910e+03
4.183131305328660346e+03
4.246918836390991601e+03
4.016929125616430156e+03
3.302310182739907304e+03
2.574096239917771527e+03
1.719391757336684577e+03
-4.308715375838646082e+02
-5.466801546521600358e+03
-1.160537941883301937e+04
-8.709519237307533331e+03
-2.656142839519614427e+03
-3.506181990367535946e+03
-1.097151458248800373e+04
-1.252899278543609034e+04
-1.046149642319666236e+04
-9.568031505201191976e+03
-8.767492734923229364e+03
-7.235699766855876987e+03
-6.381579440191126196e+03
-6.106125427870583735e+03
-6.023814442514533766e+03
-6.841744961193620838e+03
-6.859939921561380288e+03
-7.762515429881721502e+03
-7.652333318670770495e+03
-3.686313037790028829e+03
-7.094438773248471989e+03
-4.427727640395746675e+03
-1.316254828278396417e+03
-9.496994933822414168e+03
-1.240993808435793653e+04
-1.205492258070390562e+04
-1.105887226968646064e+04
-5.044731565783805308e+03
2.586613958747242577e+03
3.775254473140597383e+03
3.608265635245182693e+03
5.064688836254377748e+03
5.660661002650525006e+03
6.014373400141565071e+03
6.325837672192334139e+03
6.070964602894349810e+03
5.723799349010368132e+03
4.859412841104434847e+03
4.056881109488343554e+03
3.589106138721845127e+03
2.808090060178653857e+03
1.625882314655921164e+03
1.334510866141892791e+02
-6.922464691074540042e+02
-3.151904409968156529e+02
-8.739310292433145833e+01
4.702101729511236954e+02
1.555645153630358209e+03
2.460000284796886262e+03
3.402446275951345797e+03
3.684017275751353736e+03
4.308727806610284460e+03
4.812545823753126569e+03
5.156477847378573642e+03
5.427520880944659439e+03
5.611677469971305072e+03
5.242983041741093075e+03
4.923514869874800752e+03
4.187180562200512213e+03
3.052951935441062687e+03
2.273752248787478948e+03
1.281529380596605051e+03
2.012245795180552932e+02
-3.942319180762447104e+02
-5.588890561319968810e+02
-3.597220322392581693e+02
6.451809479080608867e+01
7.129872422192391923e+02
1.850680396047821660e+03
2.960253860950590933e+03
3.612644945062348143e+03
4.212344466767834092e+03
4.908270568492629536e+03
5.086031585756074492e+03
5.181238258994240823e+03
5.151507332712494645e+03
4.272552393830867004e+03
-9.496576300031258597e+02
7.678677183515351317e+02
-1.057872976980858994e+03
-3.987332982871268086e+03
-3.385676956574365249e+03
-6.550021140445071978e+03
-4.759218920600763340e+03
-2.789587022073746539e+03
-3.303259068672252397e+03
-5.875265192078032669e+03
-5.063553953839880705e+03
-2.571610115321079775e+02
1.680883780533934896e+03
2.408474956585767359e+03
2.911562440166081160e+03
3.574174011478511147e+03
3.986268214462686956e+03
3.807725046394328274e+03
