-7.499467721025228002e+02
5.572360200987380949e+02
1.088150634089545747e+03
1.569898485974405276e+03
1.781540896648218677e+03
2.137989172158652309e+03
1.988984598911882358e+03
2.213499427606067911e+03
2.782661274328022500e+03
3.052555506153551505e+03
3.943207153744569041e+03
4.471579780061568272e+03
3.926516524205014321e+03
2.684004512176901244e+03
1.510133778439490925e+03
5.317566908783716144e+02
1.664796860227618325e+01
7.185432500459552330e+01
-2.445192635898801541e+02
-1.103613275498297298e+03
-1.081706685878976259e+03
-2.455936812819394675e+02
1.032236034574683799e+03
1.667849854654427190e+03
1.669176236647401311e+03
1.780212596617672943e+03
1.762474328058630135e+03
2.840672534435963371e+03
2.203347579978828435e+03
5.744059853467754237e+02
2.092109081217317453e+03
2.239416602322154631e+03
1.562328329496739798e+03
9.257109259975916302e+02
6.435078328343890917e+02
4.266462935757332957e+02
1.137305390048381781e+02
-2.109890254140281343e+02
-2.553954620072309183e+02
-7.238076226128131339e+02
-9.916025363853073031e+02
-2.134615013990017474e+02
3.900666514947096744e+02
8.948884892961710875e+02
1.683906092678119649e+03
1.915147172143009811e+03
2.063407511827928374e+03
3.231890355713709141e+03
3.646445131783407760e+03
3.569877263117525672e+03
3.574478857916202287e+03
3.340201735887600535e+03
2.876856370730245999e+03
1.644717180571942436e+03
-1.961333131541870500e+02
-9.888061357110444760e+02
-1.493233320171884543e+03
-1.535305192863261027e+03
-9.171794114582430666e+02
-1.980610286425866207e+02
2.029767800991439799e+02
7.570080871628135810e+02
1.193165829502948327e+03
1.367392824055302299e+03
1.688677253829403753e+03
2.024048659820853800e+03
2.669819880120931430e+03
3.134448176123510621e+03
3.417966234513758991e+03
3.003145984661459806e+03
2.048693996983181023e+03
1.059713194972700876e+03
2.991389591797204730e+02
1.250041932485292904e+02
5.353184121795025874e+01
-2.418759406240904752e+01
2.608103782412819101e+02
-5.416063780602394218e+02
-1.226429654861959534e+03
-1.347554859877926447e+03
-1.792064092184521087e+03
-3.517930315146037174e+03
-5.522923673003816475e+03
-8.209920322554266022e+03
-7.198864180286253031e+03
-6.723727295809753741e+03
-6.704426545005266235e+03
-6.308902804449405266e+03
-1.745140708377395640e+03
1.379410866525356312e+02
-3.350533000249781708e+03
-7.015501238049905623e+03
-6.821006654926347437e+03
-8.277155898571785656e+03
-1.110164114163514569e+04
-1.258321049207124997e+04
-1.047816568869572438e+04
-5.525481325839897181e+03
-4.029089598540715087e+03
-2.577853637627252283e+03
-3.818795652591293219e+03
-3.635948984567835396e+03
-1.570338740990994665e+03
-1.969216850617293062e+02
2.142463650601554491e+03
2.899973620552008015e+03
3.299605433786337471e+03
3.793392032166601894e+03
4.300490296506373852e+03
4.524874423425788336e+03
4.016597744415525540e+03
3.045867095928843355e+03
1.672796633425734399e+03
1.019297235533604294e+03
-1.507274890352385910e+02
-1.246325289396395874e+03
-1.402553223732858896e+03
-1.504356935824760740e+03
-1.232689550058295481e+03
-1.177546774258152936e+03
-7.439287341236739621e+02
9.284192573090533642e+02
9.596245127045457366e+02
9.655229912449644871e+02
5.380862203924477853e+02
-1.431513125659131219e+03
-1.987246374653431531e+03
-4.321243988108791996e+02
2.262811093180454918e+03
3.773647111840314665e+03
4.768536180492159474e+03
4.974512023358902297e+03
3.697625986764644040e+03
2.000736257151423615e+03
-1.895217909791225111e+03
-6.498281379068274873e+03
-8.968519598369495725e+03
-7.074927374246135514e+03
-3.253513636665220474e+03
-1.546333784038761223e+03
-9.043393788934046142e+02
1.217510780646690819e+03
1.671176552406376231e+03
2.298585264881745388e+03
3.582859048105125112e+03
5.255002956346541396e+03
5.393835101388840485e+03
5.022588586829826454e+03
3.474258558743858885e+03
1.609120999624332171e+03
-9.458620990194071965e+02
-1.080873244059491981e+03
1.702954892403811527e+03
5.273447609657163412e+03
7.877594368197480435e+03
8.564368242252508935e+03
6.951681525282037910e+03
3.653458922868234822e+03
3.632757293286742879e+03
3.261576642938126042e+03
7.517409906160002038e+02
7.551223439711340006e+02
2.083104244751752958e+03
-3.575204459887262942e+02
2.713058484006790877e+03
3.353755018907416343e+03
5.304643135029165933e+03
6.096847613311812893e+03
7.941239021263611903e+03
5.088749073343655255e+03
1.007349462804598261e+03
3.350048686015698422e+03
8.870512328872187879e+01
1.832167351696625929e+03
4.837375103795273390e+03
2.421147537188945535e+03
2.890420830948211460e+03
3.182143003370537826e+03
8.118237849050229670e+03
9.679700623231628924e+03
7.156438530402587276e+03
3.446362323651053430e+03
2.025479671112037067e+03
4.147715858305937218e+03
2.475921691641629423e+03
1.292098718792031377e+03
-1.848777992421649969e+03
-8.718750931990554818e+03
-3.429890611553213603e+03
1.564722597280110676e+03
1.659010031450209908e+03
6.771866407568034447e+03
6.472325280616447344e+03
2.395315009908082629e+03
-2.414242813444588137e+03
-4.545468585488966710e+03
-4.871534596810155563e+03
-7.404549266546635408e+03
-7.600562010724733227e+03
-8.738674881230015671e+03
-1.232990379672571180e+04
-9.566274519493555999e+03
-7.298836671733684852e+03
-5.880600813442089020e+03
-6.090676964969667097e+03
-5.360039574680960868e+03
-2.656761449051215095e+03
1.442074898401886685e+03
5.034061774653976045e+02
-3.517898332855987746e+02
4.974862436202380422e+02
-4.177548638336766658e+02
-3.073619749664170286e+03
-5.566245177100363435e+03
-8.744695211627546087e+03
-8.926970707097470950e+03
-7.942134887333442748e+03
-8.261280198359998394e+03
-5.465415564378244198e+03
-1.605813829452068262e+02
1.404034494497977221e+03
-6.615705497191211180e+02
3.190416308014513902e+02
2.027559557497527749e+03
4.429134266834321352e+03
4.564717373421981392e+03
3.541037855705980746e+03
1.881825871471869732e+03
-1.459681026528240864e+03
-3.538576086005883553e+03
-3.173520313764749062e+03
-2.780410192845411530e+03
-1.952661236997033484e+03
-1.637146395238484729e+03
-3.973898288111581678e+03
-2.990806229189665828e+03
-7.261350047565937302e+02
-8.754878778306177765e+02
-3.526321819245591087e+03
-4.069292033652371629e+03
-2.444466014672465917e+03
-1.118175615049718999e+03
-8.594103371563220435e+02
-1.041373854309372291e+03
-4.582403350720992421e+03
-1.088366218768473300e+04
-1.875203208391865701e+04
-2.036745066956637675e+04
-1.248100229305445464e+04
1.248048846398308797e+03
7.924201860064156790e+03
7.061428762414071571e+03
8.857471398937566846e+03
1.340592693575917292e+04
1.087850260201943638e+04
4.580055258951884753e+03
1.784624493003010230e+03
7.902138535549262315e+02
-1.212379080278891763e+02
3.932987861279270874e+02
2.445863186168540778e+03
4.594571437955650254e+03
3.289516757985104505e+03
2.043740275297907147e+03
2.425263673872049367e+03
3.114099040836545100e+03
3.831348387976890081e+03
5.139992937009004891e+03
5.189092714476473702e+03
5.033766168745498362e+03
6.707148183265571788e+03
7.901365350015805234e+03
6.507481083231780758e+03
5.652516657486101394e+03
6.450437176465044104e+03
5.034301067458141006e+03
-9.857904668586915022e+02
-6.185882724810381660e+03
-7.242003145100549773e+03
-7.725153119771483944e+03
-6.997223845702048493e+03
-4.071114140101069097e+03
-2.326763540665179335e+03
3.323971835224580445e+03
-5.603938566134911525e+01
-2.156665324553551272e+03
-8.123753828159191244e+02
-4.252480310054362178e+01
9.771628355752226298e+02
1.853642419754712819e+03
2.280895514620996892e+03
2.946980284092488546e+03
4.481961371316449004e+03
8.590886139199259560e+03
9.199763072354171527e+03
4.378617367881401151e+03
-1.034456979756953615e+03
-1.973419029706812580e+03
-2.710312927719761774e+03
-2.654095210042804865e+03
-3.119768103229970166e+03
-2.976288265030827006e+03
-1.349514701912035434e+03
2.490607676573417393e+03
3.741031916604774324e+03
1.132878853439015302e+03
2.342253482147848899e+03
2.379210369911372254e+03
-1.225196822886299742e+03
-1.202923484539773426e+03
-1.148819304360290374e+02
-5.169803108248855779e+02
2.837395171058890355e+02
3.779284179695025614e+03
6.203648529822976343e+03
5.458775306631617241e+03
3.286656637449157643e+03
1.779336523359698958e+03
1.068818151738673805e+03
-4.978931547264123196e+02
-3.480778695542780497e+03
-7.072778237582047950e+03
-8.192850746172829531e+03
-3.561017913802662406e+03
2.518767291417398610e+03
5.833589258252485706e+03
4.737487820307989750e+03
4.512549387224602469e+03
3.195804221195157425e+03
1.089247138821310500e+03
9.358553007161563073e+02
1.918619434185531873e+03
3.005577289795943216e+03
2.275658561746329724e+03
1.253903701847339335e+03
9.912962932255759370e+02
-4.632121357791499463e+02
-2.683645384550285598e+03
-3.366876660300757067e+03
-3.104794916078693859e+03
-2.947320475339763561e+03
-2.574784837855177557e+03
-2.008240247589387536e+03
-1.495663317701992810e+03
-1.540957478789594688e+03
-1.403269578711707481e+03
-7.131536789446089415e+02
3.965037468494081736e+02
2.073603488185993058e+02
-3.094823628525558888e+03
-4.805723486505125948e+03
-3.166096048510597484e+03
-2.451033643234890860e+03
-2.238884346883575745e+03
-1.693033969275554227e+03
-6.540728290671738705e+02
1.377758993042385782e+01
-4.784854320131487384e+02
-1.829064106931632523e+03
-3.342184764587324480e+03
-3.798800896313267913e+03
-3.019075924880466118e+03
-3.028956358804907723e+03
-3.226405187359873253e+03
-2.314473893119820787e+03
-2.214178483713816149e+03
-2.705487039763783741e+03
-1.853399882684179374e+03
6.351194644440340653e+02
2.644077149636755166e+03
3.270388622773697989e+03
2.997129697241658505e+03
1.823284870932913009e+03
7.736697877591252563e+02
-6.814600089772543612e+00
-1.451253603161327192e+03
-3.829644764392631259e+03
-3.542051767941188700e+03
-1.428637332374499010e+03
-1.152300555455296035e+03
-1.998099320915934413e+03
-9.259952790901452317e+02
-3.658263747736082792e+02
-5.167213553900623992e+02
-1.056873514953726044e+03
-1.431395869125854915e+03
-3.542735647841505511e+02
7.015150945595669327e+02
2.866984350307780460e+03
3.850172717234897391e+03
4.340158240930108150e+03
4.272136936656474063e+03
3.457183525740819277e+03
3.177163687517994731e+03
2.887763615269936508e+03
1.689686642491248222e+03
3.999196435899457924e+02
3.085009883731881359e+02
-3.887117108838771173e+02
-1.849661901620185290e+03
-1.615255322291247921e+03
-1.401591665787706006e+03
-3.870687769204442702e+03
-4.702416125959204692e+03
-6.768750586188572925e+03
-2.564633535779515114e+03
8.679443578440707370e+02
2.529043649318281041e+03
3.806472647396472894e+03
3.493039199601088512e+03
3.196580207938221974e+03
2.489064248682982907e+03
1.509543573270278785e+03
-4.257135791783620107e+02
-9.351700708094611514e+01
5.377990938984996205e+01
-1.543736967815397975e+03
-4.051840456183534116e+03
-1.202742120485619580e+03
1.554533298425908185e+02
-5.369516731610171973e+02
-1.828419230659876348e+03
-2.354767108368686877e+03
-1.437089058586375813e+03
-4.863176324327554312e+02
-7.250770166489357393e+01
2.727344721736893121e+02
1.247587153586316617e+03
1.953556487571821890e+03
2.309046205250350340e+03
2.915713737869715715e+03
2.456430077996807086e+03
1.925579797460187820e+03
1.681982227366568850e+03
7.236463829766289564e+02
7.031730593421493722e+02
4.077418136696007167e+01
-6.402296055776237154e+02
-4.086722827987683218e+02
-1.876620039555622270e+02
-5.664844971663757178e+02
-4.087728397778972749e+02
5.051754320305180812e+01
8.126105775526940533e+02
1.610967892766468594e+03
2.286716347131864040e+03
2.342758854552638240e+03
1.122431259844484885e+03
1.130322580916921652e+03
1.748823871011245728e+03
2.702284762471489557e+03
3.144860370209029497e+03
2.319421656639894991e+03
1.350872029894758953e+03
6.724220254293462631e+02
-4.190782301739973263e+02
-9.295155767080506166e+02
-1.185631298548268887e+03
-1.089915382113671058e+03
-6.703706251397765072e+02
-5.019377711908908850e+02
-1.624537525082172635e+02
3.790603907685119225e+02
9.544269270703066468e+02
1.082507716907081658e+03
1.196724259310975640e+03
1.380087060038872096e+03
1.873554187874333365e+03
2.613323778343037702e+03
2.598505528551295356e+03
2.069145959163215593e+03
1.490384483435564562e+03
8.120502295691775316e+02
4.080964911852204295e+02
7.516060733108631666e+02
6.903038708548847353e+02
-1.717083049968387286e+03
-5.288380794049954602e+03
-6.441257150452613132e+03
-7.914709787450286967e+03
-5.144945950750525299e+03
-2.630030009753105787e+03
-3.511770541855267766e+03
-4.839602308373108599e+02
-1.599448063459680498e+03
-2.795058484745128226e+03
-2.168779581476616386e+03
6.912517915573805567e+02
9.550542190428490130e+02
1.083565719896165319e+03
-1.740192868677659590e+03
-6.379281279234775184e+02
-1.548891498087810760e+03
-1.730207034172113708e+03
-5.158714494702391676e+03
-3.928233495365200724e+03
-1.181864425771588913e+03
-2.996771926124690253e+03
-6.408934395498244157e+03
-2.175250341474919423e+03
-4.639669919540378942e+03
-3.890897398601247460e+03
-2.486053284804929717e+02
3.235200756780228630e+02
2.901223453821398834e+02
-4.456078596649622909e+02
-1.927331541676463530e+03
-1.637679740299991863e+03
-1.326126363436250585e+03
5.060969139303690554e+02
1.876718739942361708e+03
2.125246035994216072e+03
2.208111600079802884e+03
2.589142789154131606e+03
2.451231934688880301e+03
1.542384672392550328e+03
4.484773335165636468e+02
-8.365693130298552660e+01
2.099439355381196037e+02
-1.547983962013677584e+01
-2.329171991378974269e+02
-5.274905030053676001e+02
-3.471925616320104950e+02
-2.470188427781739335e+02
-1.970250031756664271e+02
-4.020871814949784948e+02
-5.431901562500166847e+02
6.045857917038885887e+01
8.898190191015561368e+02
1.804030170526413713e+03
2.280036087399167172e+03
2.509692233825898711e+03
2.714411851855789337e+03
2.408609752208061764e+03
1.875359882711509044e+03
1.177363809228595755e+03
5.995025867568747344e+02
-1.333201737257758168e+02
-9.033274691609199181e+02
-7.684583845379153217e+02
-1.977984786243438521e+03
-4.386700252413955241e+03
-2.032575425299048902e+03
-1.473714191903449318e+03
1.179890076336250331e+03
2.116310147770831009e+03
2.104376012671333228e+03
2.425822715072981737e+03
3.022847012569331582e+03
3.548437515660157715e+03
3.500481773442405483e+03
3.341753710227861575e+03
3.236311567951764573e+03
3.114558313241991527e+03
2.886345032180449834e+03
2.549598019212840427e+03
1.444240992154845344e+03
4.822410785449090440e+02
1.444653966651125927e+02
-1.931969644085678226e+02
-6.188582923328149263e+02
-6.696311891547290998e+02
-3.392282729266370893e+02
3.578993676906288215e+02
1.151827195537228135e+03
1.905827474487874724e+03
2.501578115652740507e+03
2.961953737927877683e+03
3.278063456088549628e+03
3.483748132562011051e+03
3.712644800682698133e+03
3.621714421912820399e+03
3.334142084042789065e+03
3.056982962040854090e+03
2.721141715650014703e+03
2.047511952135812180e+03
9.201283964673614264e+02
2.820683872972044810e+02
-1.165859630833168978e+02
-7.270259246177747627e+02
-1.129785476612088360e+03
-7.471741171798175856e+02
-7.070975594902316743e+02
-4.012312799960164966e+02
-5.369155444510217023e+01
1.896313078408327328e+02
6.037959970809565675e+02
1.017628467461199989e+03
2.045011481699353681e+03
2.780848532226119460e+03
3.024208903416344128e+03
3.052060573666624350e+03
2.968306373836814601e+03
2.141084063023422914e+03
1.247424816746557781e+03
9.781343243002592089e+02
4.831268039725064796e+02
-8.606626886808298877e+02
-3.563264691475132622e+03
-6.981747312830442752e+03
-9.309129762046170072e+03
-8.762416001662824783e+03
-3.345624526509043790e+03
-7.877785932788825676e+02
-3.518002658463914031e+03
-6.387120873136974296e+03
-7.079808316715756519e+03
-6.252304796836853711e+03
-5.249863513826949202e+03
-4.436145376763231980e+03
-4.292279385324042778e+03
-5.994024978752838706e+02
1.786369938456701675e+03
2.264008620023342701e+03
1.865567148324351137e+03
1.004138225239178610e+03
7.857243754226292367e+02
2.372571296007070032e+02
-5.713486268632160545e+02
-8.570123700269024312e+02
-1.293769459701904680e+03
-1.481687336652744079e+03
-1.017650030615435753e+03
-8.495464885181141881e+02
-3.844693841579866103e+02
-3.047982419948724342e+01
1.904120614495941481e+02
1.233335715258217533e+03
2.627380112457785799e+03
3.146607831725062624e+03
2.926991653709123966e+03
2.377584384271026465e+03
2.035569261538339561e+03
1.687060346540781666e+03
1.087871198883078023e+03
6.698586169030137398e+02
-2.688098742378388692e+02
-1.012013702297699979e+03
-1.251850904038170938e+03
-1.754224938426893004e+03
-2.221118135267629896e+03
-2.096435367948998191e+03
-2.016110004441672118e+03
-1.402183639638264367e+03
-7.285701216029989382e+02
-7.693083791867375112e+02
-2.202634031775168921e+02
4.086544475899244162e+02
6.465979051906077757e+02
7.946758251040415644e+02
1.737876117590974673e+03
2.108307823911476589e+03
1.212078923227587666e+03
1.162970636655739298e+02
-9.540592475282924170e+02
-2.735899330348155672e+03
-3.024078364450740082e+03
-3.579647519520192418e+03
-3.434570151202471607e+03
-2.648562292388238347e+03
-1.672712661842081388e+03
-1.011848831705410362e+03
-7.122148067305207633e+02
-7.032879039273295803e+02
-9.621958895559095026e+02
-2.030042622107511363e+02
3.925117944963488412e+02
6.394331720400047061e+02
9.985193980322401330e+01
6.279204448039893123e+02
1.491828673510552107e+03
7.074118546681596627e+02
5.337638756508837332e+02
8.001169159357496028e+02
5.556899707463358027e+02
4.280912606528409015e+02
2.254356984846202181e+02
-4.570427573735752844e+02
-9.312472969342093165e+02
-1.115150002582226307e+03
-1.383793176795778663e+03
-1.071127538374592859e+03
-5.520203210709478299e+02
1.446420229428196933e+02
7.368719658380856572e+02
7.487391973323676666e+02
1.076324794425355094e+03
1.602692181213692493e+03
1.638990845386424553e+03
1.840311281867465368e+03
1.939671537879721654e+03
2.071203265413123063e+03
2.211865514754786091e+03
1.994731266280352202e+03
1.556871746852730666e+03
9.512886345122838065e+02
-1.780083024201787794e+02
-8.369564599892403294e+02
-1.237539804036326359e+03
-1.683760001821227661e+03
-1.556576504560941657e+03
-8.409274887923987762e+02
-4.258260666074493201e+02
-1.252141011754068955e+02
3.850691122259163990e+02
9.430138883908757634e+02
1.428636571084861998e+03
1.784911408590684914e+03
2.020880272490359403e+03
2.274690810581912501e+03
2.425351417600314562e+03
2.367879500938930505e+03
2.374321429177666687e+03
2.371629518894858393e+03
2.019770118958050716e+03
1.412715563528802249e+03
7.544460750318849023e+02
2.739656648877003136e+02
1.442913618169772292e+02
-2.286034911761961723e+02
-5.107569231182394560e+02
-3.780730254291728443e+02
-6.516643829964930319e+02
-8.951258793151426119e+01
1.115382009525655121e+03
1.356004185888000166e+03
1.378373049874363232e+03
1.458518539237358937e+03
1.634446395100163045e+03
2.311099724571277420e+03
2.694473979489727753e+03
2.760478005415516236e+03
2.583085024866422827e+03
1.284408826333007482e+03
-1.495554038460101651e+02
9.559868451741252784e+02
1.731716286947032302e+02
-7.962101507501820379e+02
-1.889247469139288569e+03
-2.161716411241778587e+03
-1.859994876613142424e+03
-1.981838538997427577e+03
-1.721283797647368829e+03
-1.215516700409405985e+03
-4.807348744328998009e+02
-9.173783392028272488e+01
-2.338176363086921938e+01
7.289380493012614579e+02
1.306978835988240689e+03
1.908095946530807396e+03
2.321271551123580593e+03
1.951628840872625005e+03
1.673379426293203551e+03
1.295475212490782269e+03
9.893597337133371639e+02
8.651933918795623413e+02
7.104967362885820421e+02
2.341523040392322912e+02
-3.963535876526951256e+02
-6.529600262064716389e+02
-5.595350565524738613e+02
-5.491066599195256686e+02
-3.706634381968625007e+02
1.647848587400293638e+02
6.703727635970644769e+02
9.209794699053230715e+02
1.180014993411656860e+03
9.884082312182765691e+02
1.293080619451786788e+03
1.671274223468052469e+03
1.998843060466663474e+03
2.275539730445953865e+03
2.370439883085198289e+03
2.180695644505487962e+03
2.116017154173784547e+03
1.735234237569691459e+03
1.094268996353756847e+03
2.190432070564872618e+02
-2.595135706817575283e+02
-5.235168097281366499e+02
-6.489736071549840517e+02
-1.599553209626614887e+02
5.314420914608026578e+02
7.961800910727213250e+02
5.401741773559025432e+02
-6.336686886379507087e+02
-2.589409387828794479e+03
-5.254064762375059217e+03
-5.118654279430948009e+03
-5.068249838244618331e+03
-4.441884807427592932e+03
-3.930617326685114676e+03
-4.265439891846394858e+03
-4.338362871872059259e+03
-4.275444541147451673e+03
-3.564741903177942731e+03
-6.564493444371884152e+02
-3.478503991787583800e+03
-5.684523645462353670e+03
-5.830002337501819056e+03
-5.833005459734241413e+03
-3.755754204847220990e+03
-2.976293988652946609e+03
-5.726488442506195497e+03
-5.479106658908961435e+03
-3.500296741758933422e+03
1.748859013025368540e+03
2.461404793297948800e+03
-2.101593534132570767e+03
-3.761204731396780517e+03
-3.344500304712908019e+03
-3.284451560654623790e+03
-2.873066645413269271e+03
-2.815335337670295303e+03
-3.368277115034691178e+03
-3.057881519044424749e+03
-2.342270638616496115e+02
2.736596320033317511e+02
1.251717270277040825e+03
7.620004619389104619e+02
8.175021985654121863e+02
9.322129423879188153e+02
7.150943511950492848e+02
7.531790505001016527e+02
1.590504714413898455e+03
2.564137836057771437e+03
3.009095475784183236e+03
3.454389143088074434e+03
4.144097629165277795e+03
4.541241046870144601e+03
4.636842367789649870e+03
4.560933274950942177e+03
4.443530817868310805e+03
3.920764983081594892e+03
3.577648558735116694e+03
3.270172972255839341e+03
2.960353385838963277e+03
2.069222415017562071e+03
1.287746481985062701e+03
1.028988981995869835e+03
4.529361130356103331e+02
5.056513400263531821e+02
6.821731328794741103e+02
9.115562422838225984e+02
1.572826152951089853e+03
2.087970573629394494e+03
2.377100976366292343e+03
2.295278082006265777e+03
2.035579450492809201e+03
2.698052210695363101e+03
3.173794202089302871e+03
2.834869686051259578e+03
2.723233679099602796e+03
2.111987254519683120e+03
1.717247446693196025e+03
1.057038048425322359e+03
4.784695782944936013e+02
-4.743293365558787400e+02
-1.366280260151924267e+03
-1.745524918792900280e+03
-2.997118068146110090e+03
-3.090051459317543049e+03
-2.247142746563639776e+03
-3.366193821835932795e+03
-4.484198164136541891e+03
-1.416106154487719550e+03
4.290745710565464037e+02
1.484493798755139323e+03
2.114017090444045152e+03
2.453796137435050696e+03
2.468693885789949491e+03
2.652735648010276236e+03
2.347009596959991995e+03
1.868509283042423476e+03
1.443235559684079362e+03
1.237238871721873238e+03
1.085155612772078229e+02
-1.104895629159721921e+03
-1.924986109932595127e+03
-2.304789471834478263e+03
-2.819259369904196774e+03
-2.291396724117951635e+03
-1.957185784844746649e+03
-1.175555648440132018e+03
-2.335102619824382941e+02
2.279440479600561389e+02
-2.260925626059881210e+02
-4.865353375547232986e+02
2.796640868699601015e+02
7.925488340513170442e+02
9.230506963611325091e+02
8.832518283848197598e+02
9.621856678305837249e+02
8.408899321744406734e+02
8.163608138638426226e+02
1.182571829524470104e+03
4.425149395558140100e+02
-4.207803407729449532e+02
-1.291357320828596585e+03
-2.078235989388536382e+03
-2.379438577748671378e+03
-2.468999361997943652e+03
-2.395881737833618445e+03
-2.276108394903671069e+03
-1.419657883603730170e+03
-6.834802431549998118e+02
-4.615654957909528093e+02
3.250205495128315079e+02
6.473439186104776581e+02
1.143459494405004762e+03
1.604394727772539909e+03
1.685141373655531652e+03
1.674749683273312485e+03
1.612072184515197023e+03
1.048174718041496590e+03
2.994455914070224267e+00
-2.379605369149284343e+03
-5.900671443649072899e+03
-7.687232732478337311e+03
-3.161320570774136286e+03
-1.585943102764556670e+03
-1.671066696425538794e+03
-1.321756840464360494e+03
-9.249712024647012640e+02
-8.487500961737437137e+02
-2.331502262139160564e+02
6.849574122777937646e+02
6.745518398323263227e+02
7.846528776514118135e+02
1.017041471575661717e+03
1.791735296043781545e+03
2.147996027101972686e+03
2.163624999676917469e+03
2.313502126350083472e+03
1.889625431527808360e+03
1.310961530520114820e+03
6.204445442059669631e+02
-2.569470001239916996e+02
-8.733438400683484133e+02
-9.798012569394544471e+02
-1.017379077603636347e+03
-1.086086663095510858e+03
-1.202920018914610182e+03
-9.499050788199639328e+02
-5.610884502993818614e+02
1.305510408488445933e+02
6.219993353758711692e+02
1.348250453454838862e+03
1.797282022444421727e+03
1.829076565544812865e+03
1.939623654517212799e+03
2.363910260647037376e+03
2.420900981843020872e+03
2.037631456294531972e+03
1.717045855373693939e+03
1.098105903279914401e+03
8.307724033369561312e+02
1.103955013186166070e+03
8.015499309445585823e+02
1.425330453856304587e+02
-4.801096126461587801e+02
-6.664445211491284908e+02
-2.964606684954878801e+02
3.289424457746729757e+01
3.395639766594907201e+02
1.075535271454416034e+03
1.433792092844403442e+03
2.000329264640545034e+03
2.485179002194220175e+03
2.687334936275849486e+03
2.520781912776494664e+03
2.203506267383721934e+03
1.909488716995318555e+03
1.376725526035045959e+03
1.229219593736272373e+03
1.059916810140791313e+03
5.648123122945601153e+02
1.040895147987788732e+03
1.561322343929719523e+02
-4.304535082191018773e+02
-5.429697835241200892e+02
-2.174766166354959864e+02
-1.194405419146596969e+01
3.156555143850729905e+02
9.333293045067740650e+02
9.621373451037179620e+02
1.495022324488842287e+03
2.140968096216262893e+03
2.648052387314062344e+03
2.438403986377198635e+03
4.080284283272748667e+02
-2.614048547048410910e+03
-4.683042322769771999e+03
-4.745810491743845887e+03
-4.976252972663893161e+03
-4.954340563680662854e+03
-5.001153883866784781e+03
-5.218736624315007248e+03
-5.754086660291894077e+03
-6.436266362799357921e+03
-6.374293121284989866e+03
-5.054180707480884848e+03
-4.819205043258950809e+02
-3.326484379298945441e+03
-5.491824356089226967e+03
-4.453809894603269640e+03
-1.772421695251829078e+03
2.212925259447238773e+02
-2.822620719146289048e+03
-4.154110746440838739e+03
-3.442150968081135943e+03
-1.753687933809343122e+03
3.345390017359324247e+03
1.899168934818905882e+03
-3.062421508404694578e+03
-3.560451729258140404e+03
-4.106846861215874924e+03
-4.813620665132188151e+03
-5.455753500113617520e+03
-6.592235790701339283e+03
-3.167210505650743016e+03
7.082641091255961783e+02
2.022626455297190375e+02
-4.641801301176205925e+02
-2.473897237241032599e+03
-5.949188182253220702e+02
1.165840321255482195e+03
2.975179022717003363e+02
2.921656446376867962e+02
3.077688885940670843e+03
3.888023403623100421e+03
4.414105001458474362e+03
4.425922763694579771e+03
4.280622986994521852e+03
3.924469330025392082e+03
3.306385130484456113e+03
3.353568078013626746e+03
3.313122061829328231e+03
2.492042490982896197e+03
1.818895389066800817e+03
1.541527772179766998e+03
1.177370501882397548e+03
1.031788610876792973e+03
1.137664938028604865e+03
1.623934435007844968e+03
2.020511230118622962e+03
2.207515279873712188e+03
1.945811362909985519e+03
2.062359767420485241e+03
2.710473593207558224e+03
3.003029573039571005e+03
2.939024777034715044e+03
1.567898918147806171e+03
-3.909267322947945331e+02
1.368979161333072398e+03
2.400475692231230369e+03
1.698487812482566369e+03
9.112705102642887596e+02
-1.773682857036988707e+03
-3.818108730080646183e+03
-2.285684564463569586e+03
-1.703964844986752951e+03
-1.784698755900961032e+03
-1.565604264522696667e+03
-2.314088859507317579e+02
7.233344645410224985e+02
1.045744711365098965e+03
1.880625613681600043e+03
2.780717689602024620e+03
3.123908885268138874e+03
3.237263058335383903e+03
4.145837123296150821e+03
4.128444921857538247e+03
3.531098579385344237e+03
2.209216409129912336e+03
1.744662816172305156e+03
1.547649888694807714e+03
1.386320136654066800e+03
6.584903449461602349e+02
3.795727261687888898e+01
-4.233250038767011461e+02
-3.368957315338234366e+02
-2.970188653950260118e+02
-2.854523357986063843e+02
2.210609635263028849e+02
5.465962298948065836e+02
8.702372156630307245e+02
1.215936148058508252e+03
9.746318765212417929e+02
1.371317243680150341e+03
1.946313143479075507e+03
2.250480349464533901e+03
2.024702063651624485e+03
1.834975815443578540e+03
1.512245578996468566e+03
1.200388640943612245e+03
4.273122180558014520e+02
-3.569266824674109273e+01
-6.634345431119576233e+02
-9.578848673201028987e+02
-1.441065874864923217e+03
-1.949129120899858208e+03
-1.670253701909537995e+03
-1.482728163110734840e+03
-9.623264984555949013e+02
-3.927517252486475172e+02
1.329050220293837583e+02
7.647009143248801593e+02
8.028889083281976582e+02
1.313705635904331530e+03
1.801320497923530866e+03
-3.760205565219198576e+01
-3.195490259638026600e+03
-5.662550678821087786e+03
-5.309673096635544425e+03
-1.057859076649430108e+03
9.669301653667985192e+02
-3.023825420471105645e+03
-7.181999066640055389e+03
-8.350022041626139981e+03
-8.645935249088592172e+03
-8.454707281214316026e+03
-8.895574760603902178e+03
-8.509317098654099027e+03
-5.945899322183929144e+03
-1.546336130758882064e+03
-1.915468870046294683e+02
3.814500315045985985e+02
1.157587613127619989e+03
2.121859604947223033e+03
2.388305567872808751e+03
2.489828729940202720e+03
2.536605398186019556e+03
2.437857816930113586e+03
2.194563768861139124e+03
1.752664829242828773e+03
1.207119509290813994e+03
5.181222564948127456e+02
-5.464189763896629302e+02
-1.340566023132280861e+03
-1.678416018371467089e+03
-1.813979576348800492e+03
-1.593290217771291054e+03
-1.210307301980186594e+03
-8.240484316598299301e+02
1.153612871988664068e+02
-6.219525920008434383e+01
2.346508601621297601e+02
9.422253139430800957e+02
1.417317436405863873e+03
1.779763431324591465e+03
2.149685923365750114e+03
1.982206121610084892e+03
2.002332421557031012e+03
1.946993760069381551e+03
1.508133449002181123e+03
1.291740817385172932e+03
7.438050180756467853e+02
-1.676402316326949915e+02
-9.376570547957712733e+02
-1.345302282418615505e+03
-1.436723743753610051e+03
-1.418862703382728341e+03
-1.237525936177251424e+03
-4.166392966297155454e+02
1.479399559109531914e+01
5.658463849259719609e+02
1.007854854183922612e+03
1.252036415622357481e+03
9.980461052237129707e+02
1.434502038506779854e+03
2.069317081484818573e+03
2.021566967997915981e+03
2.035751507135036491e+03
1.799086368256970900e+03
1.049343690031716733e+03
-4.045191697021176225e+01
-1.009424471077759904e+03
-1.688672766544127853e+03
-1.621368912139010490e+03
-2.090661658679347966e+03
-4.176425163384333246e+03
-3.437604662006352555e+03
-1.855373469387349132e+03
-1.037732156846882617e+03
-2.295651859475751735e+03
-2.786075497572877794e+03
2.420084238243870232e+02
1.728961700710356354e+03
2.175735144437624513e+03
2.477028565494630129e+03
2.886681867932552450e+03
3.137743042747533309e+03
3.447169733199380971e+03
3.061971771268110842e+03
2.574130053291763033e+03
1.902538437265661059e+03
1.415237564846436271e+03
7.042482128084848227e+02
2.424424320783463145e+02
