-1.062443852334114581e+03
-4.391540003845939282e+03
-5.696232258619178538e+03
-6.526549192489613233e+03
-6.908496220028855532e+03
-6.864056942789707136e+03
-6.599204605583848206e+03
-5.429787981255702107e+03
-4.172826932121189202e+03
-3.390308571150725584e+03
-2.117280418472224937e+03
-2.868827291607432244e+02
7.990652976810973769e+02
2.223830277027267130e+03
2.726339913179059295e+03
2.729469137718800994e+03
3.032253089763785283e+03
4.073772914541897080e+03
4.909106728233425201e+03
4.540281089390879060e+03
3.738322375460860258e+03
2.394216746482251892e+03
1.666059976495244882e+03
1.157866595414688618e+03
7.284585537836989033e+02
3.637759498298779590e+02
-3.031154443211718785e+02
-2.340876363418644814e+02
1.398961774219368124e+02
5.088824185086828038e+02
1.044947011709903336e+03
1.495150454564422716e+03
1.250476625663768573e+03
6.469847732023557683e+02
5.356741394507020004e+02
3.306675581458076181e+02
4.179372677962923035e+02
8.195426168892996657e+02
4.265506601087935792e+02
7.589126631997776258e+02
1.019643643572037377e+03
7.558721180087879929e+02
2.836154044122455389e+02
-2.561689068544389443e+02
-3.475337568116036095e+02
-5.746313872489292862e+01
-2.959295782811892082e+02
-2.066854235870772243e+02
8.750931487933964092e+01
-2.067128115744700949e+02
1.226622541775520574e+02
6.029819304029671230e+02
1.304419934757978126e+03
9.561731364863380804e+02
8.602873001246360900e+02
5.176564287947032881e+02
-4.176979525464197422e+02
-2.675950876903406879e+03
-1.478905026638417439e+03
-3.134562207484674445e+02
-4.286108072373373830e+02
-8.693552446346067200e+02
-1.139549397821328284e+03
-1.372347764439388584e+03
-1.206917023052437571e+03
-8.343882775548738664e+02
-6.357147494138889670e+02
-7.549523164531867678e+02
-7.170071622803850460e+02
-1.358321565354748941e+02
8.296565508776585602e+02
1.715471568265440737e+03
2.504618922431765895e+03
2.899106077991903021e+03
2.442966548759798570e+03
1.733240612526833274e+03
1.347900327933648668e+03
1.047957039342933967e+03
1.273459735562594915e+03
1.087431946562606527e+03
7.039037685057256795e+02
4.738987403512061292e+02
-1.936125656086455535e+02
-7.065773978356555745e+02
-4.369720342513508058e+02
-4.237658919932237040e+02
-7.470465222704053758e+02
-9.108290687845643561e+02
-7.500818831165554457e+02
-3.057615759220203699e+02
-1.338068139827764185e+02
5.388147453579528019e+02
8.541230872062272965e+02
4.632009330751173479e+02
-6.592473045119210440e+01
2.737192684605321347e+02
9.521074715553618262e+02
1.290180569223812654e+03
1.137021221463880465e+03
1.192654312132948689e+03
8.799590726874332631e+02
2.648630847500593291e+02
-2.095849375407163393e+02
-6.582748401352672545e+02
-1.369187012569001354e+03
-1.977401756747497302e+03
-2.311948378267542012e+03
-2.079853860965547938e+03
-1.372101231931068924e+03
-1.256608673264971912e+03
-7.183693684074806924e+02
-1.230432829630398146e+03
-2.430789781784452771e+03
-4.043366657862134616e+03
-5.580204657900100756e+03
-3.645323323594015619e+03
1.003043396904920286e+02
7.596534408083028893e+02
9.067480354389151671e+02
8.986043540774493295e+02
1.911527690565976911e+02
4.654131983516027162e+02
4.703655922806819376e+02
-1.904003898028687672e+03
-1.651758028322277596e+03
-2.398938612504825869e+02
-2.544035958543812512e+02
-2.493564362487434209e+02
2.021108415628728210e+02
4.613770260857073708e+02
7.505643273370202451e+02
9.756046263984824236e+02
8.824778198440806136e+02
8.030242587694856411e+02
7.551453944274988999e+02
3.790391896066029744e+02
7.970484728749357828e+01
-1.088377671474009247e+02
-1.476751161657476175e+01
-3.256922915276568915e+02
-7.929126464896958169e+02
-1.015455036590095233e+03
-9.063913075716000094e+02
-1.142036113776340471e+03
-1.333329189497705102e+03
-1.349032233710018318e+03
-1.250774626632986838e+03
-8.859824157954918746e+02
-4.747834350878642340e+02
2.350031018389757662e+02
1.189456575552258755e+03
1.184727624461085043e+03
1.095457057438397442e+03
8.469154191922708605e+02
5.589585040224714021e+02
8.014597462703185329e+02
5.312898960230396597e+02
2.356489987702930193e+02
-2.292975176097700967e+02
-7.345512120252402610e+02
-1.055382279368315722e+03
-9.167103967818984529e+02
-4.095867006717689378e+02
-3.638351970431791642e+02
-6.226378214953691668e+02
-9.601989803175503084e+02
-1.144468467244365002e+03
-1.162340371183332536e+03
-5.315456674741037659e+02
1.677380041289763426e+02
4.254657460884496913e+02
4.846575471697007629e+02
4.624058851275318034e+02
5.336842956301500180e+02
5.594024982721334709e+02
6.665310843699984389e+02
8.080567489724525103e+02
1.061910768927962636e+03
9.400511545738440873e+02
9.584612218075565124e+02
1.035205452159139213e+03
9.463388153312056374e+02
5.128847079981643446e+02
3.048341387914932739e+02
-4.268789366084722019e+02
-3.085166555091186183e+03
-2.842914146419100689e+03
-2.293286130343940840e+03
-8.581616186843639298e+02
-1.215471808711790345e+03
-1.942393280290462826e+03
-2.518694291052053558e+01
-5.118833073826889972e+02
1.039598545399574505e+03
-7.745949480490816086e+02
1.654607469647138259e+03
6.621563455588602665e+02
-8.131531557494195113e+02
-1.234321738676087989e+03
-1.253271802325630688e+03
-1.209952239753763251e+03
-1.206440952928525576e+03
-2.389713439548770566e+03
-8.926574123241107372e+02
-1.171233112707038799e+03
-1.293556220474141355e+03
-3.292502186082746448e+03
-1.799113111073930440e+03
-3.003613528543163284e+03
-9.661536886168752289e+02
-1.749683855425032334e+03
-2.150032717576902996e+02
-1.150387520923013653e+03
-1.120733786879259242e+03
-1.022753993050259510e+03
1.707316873445363683e+02
-3.460543630356696099e+02
1.692869479228746286e+03
3.503511337760859305e+02
1.850932508639116065e+02
1.525874412869340858e+03
1.764475865752476921e+03
1.245926002168881951e+03
6.464026042399426615e+02
4.247754574957451723e+02
2.694165728090691232e+02
2.947971850063344732e+02
3.268052482522352875e+02
5.802887298735955710e+02
7.020537918986767636e+02
7.176056999491033821e+02
6.576608397631350726e+02
5.465881444461514320e+02
7.998723620475792586e+02
9.255627091642589903e+02
9.873971889008022345e+02
1.065543527299493007e+03
1.503036078034852835e+03
1.511909568180648876e+03
1.368384863864069075e+03
9.603899254913342247e+02
6.968354392559452890e+02
4.867570168490032643e+02
2.205101358604112249e+02
-3.241439409751563403e+02
-3.681514458975420894e+02
-3.335075980748431448e+02
-6.866830513958651636e+02
-7.028018552900783789e+02
-5.781783083062381365e+02
9.318769154699546586e-01
5.409697762788184718e+02
8.070110383999104897e+02
1.202883466378498269e+03
1.120983342785320474e+03
1.157274474480546132e+03
1.319502625954775340e+03
1.388952564192983345e+03
1.757158467176396016e+03
2.034668545883187335e+03
1.836284482690147570e+03
1.442389587222215596e+03
4.839088703505058788e+02
-3.432716466073843975e+01
-3.771186786508272348e+02
-4.187326629424478028e+02
-4.316541513986331324e+02
-3.463596159602317925e+02
-2.095643239418336634e+02
4.621231212671532376e+02
9.622476156979356574e+02
8.305835898985754966e+02
3.964439897034516775e+02
5.255358116164128433e+02
9.935283432109544037e+02
1.303911834758979467e+03
1.555196094365431463e+03
1.789885110222802041e+03
1.565784561759851840e+03
9.482085952576328509e+02
1.057086747410113503e+03
8.124896705140795348e+02
3.012995159682956796e+02
-1.720041236097705735e+02
-7.137508256087581913e+02
-9.173931102238385620e+02
-1.082563323570513376e+03
-7.362625972724952135e+02
-4.924343464891779831e+02
-2.467607263173720753e+02
-2.326942178242904049e+02
4.210395569640605231e+02
4.813400565448129669e+02
7.838618010169086574e+02
9.736572844234408421e+02
7.139992376751288248e+02
6.140819657188283145e+02
4.652370143386178825e+02
3.550943712015785536e+02
1.226441333842902139e+02
-5.980602598732795059e+02
-2.149910888878605419e+03
-4.717028286697744988e+03
-4.754068408362301852e+03
-1.938448881232219037e+03
-4.129385761796435872e+03
-7.317108474775843206e+03
-7.523591045900510835e+03
-7.077641429936712484e+03
-6.098149679737637598e+03
-5.591742190427458809e+03
-4.849148203528890917e+03
-4.170904607386312819e+03
-4.152852909965862636e+03
-3.946828002230418861e+03
-3.965651160995711052e+03
-3.621585077415261821e+03
-3.483276340035195517e+03
-1.437078581940811773e+03
-5.638626114995246326e+02
-1.384904165860176818e+03
-1.552370456164923098e+02
1.163859378330428626e+03
9.963722922055516165e+02
1.014405094367705715e+03
7.142350206518812001e+02
6.101183401709402006e+02
6.293869364672666507e+02
7.620722458082261710e+02
9.275317804774372235e+02
9.601819951214697539e+02
1.520753494825607277e+03
2.124034594850465965e+03
2.406317818556364728e+03
2.506743187120526727e+03
2.413364471843103274e+03
2.234245132766141523e+03
1.912807901451175894e+03
1.643931524554059479e+03
1.587430701443948237e+03
1.115886740066106995e+03
9.158894634504025589e+02
3.965524302241800001e+02
-1.436734896631555713e+01
-5.118697800451786861e+02
-9.516146644641731882e+02
-1.082486669659737117e+03
-6.201110542741538438e+02
-3.130475765614579018e+02
1.926768448606896982e+02
8.767445710623807145e+02
1.431153396309083519e+03
1.868000199303063255e+03
1.778938000312809891e+03
1.524960343346981972e+03
1.522248801106511110e+03
1.141649502465849082e+03
8.211334143954351248e+02
4.099775300344781499e+02
4.235760306180853831e+02
6.288084705241609527e+02
6.015207701455108236e+02
2.019628667255565517e+02
-2.907545184393891304e+02
-8.907951843170762913e+02
-1.321944761842842581e+03
-1.015338513241258738e+03
-7.004098319753474016e+02
-2.106950165264172767e+02
2.969741098206056336e+02
5.081333687081514086e+02
8.971590660098750050e+02
1.247492370327887329e+03
1.442545641329455066e+03
1.510663719303007383e+03
1.542342132944278546e+03
1.038361476359310245e+03
8.251147254895281549e+02
1.258391480595988924e+03
1.064618123806749281e+03
6.568836536873442355e+02
4.735733435750978515e+02
1.511022333389381060e+02
-1.627958801333986230e+03
-5.810832426206525270e+03
-5.013876649777307648e+03
-3.199133555328038256e+03
-1.568568927435058868e+03
-5.306483792448702275e+01
-3.107119446256717765e+02
-2.122845635146164113e+03
-1.739257232088999672e+03
-1.621780018124409025e+03
-1.382425947714325275e+03
-3.888210363004630835e+03
-9.150606696017001696e+02
-1.489960461320316881e+03
-1.947943556392939627e+03
-2.090714107091953053e+02
-1.763383314252087985e+03
-3.906956682480203654e+03
-4.472984231315446777e+03
-1.122868884336855615e+02
-4.546178178552174245e+02
-2.984246217319399875e+03
-3.554367998681635981e+03
-2.609151080891993388e+03
1.792398191510225729e+02
-1.744183425666897847e+03
4.158856624433011575e+02
1.506599238194213513e+03
1.427019957600460202e+03
-9.168846343749726202e+02
-1.621315348642232493e+03
-2.793404726059924315e+02
2.066124160778998430e+03
6.120603147546579521e+02
1.963437466582612956e+02
-5.962999447468478138e+02
1.311911046970419875e+03
1.444171169902777592e+03
-9.575275527569544920e+02
-3.180618754040861404e+03
-4.532770855944507275e+03
-1.791034571796786167e+03
-1.323676610232546182e+03
-1.210490272512766978e+03
-1.005347025463751720e+03
3.956396005827464819e+02
1.650336761366916335e+03
2.107145263740920200e+03
2.841186326237485446e+03
3.447750282867453734e+03
3.138716013291121726e+03
2.552000688955101850e+03
1.630247437791124867e+03
6.363000584397520925e+02
-3.636262037138976098e+02
-8.272351626612471591e+02
-1.444668463880471108e+03
-2.880281009381222248e+03
-2.826994325963633401e+03
-1.216908374594070892e+03
-1.089424568583243399e+03
5.675645278984331981e+02
4.167207685538576698e+03
6.263748963671738238e+03
5.157208170085667916e+03
3.171461514787682972e+03
2.125667892832708276e+03
2.841302192957457009e+03
4.496447418685923367e+03
6.097966123871076888e+03
5.806999998913139279e+03
4.511539381638031955e+03
3.509604359164031393e+03
2.601182630179118405e+03
1.229199774040642069e+03
5.176555822387560966e+02
4.465132545192563498e+02
8.403418547966459755e+02
1.250879050359930943e+03
3.878082256802700158e+03
6.636905852016471727e+03
6.619123290500557232e+03
3.759561224248538110e+03
9.267306098769018945e+02
1.300761693998667397e+03
-1.931262619331203041e+03
-5.302115408743895387e+03
-5.900025740527900780e+03
-4.540958107887043298e+03
1.539812473677874607e+02
5.208877763467235127e+03
8.696509768268684638e+03
9.579289025392887197e+03
8.537864017530690035e+03
4.115799252732967943e+03
-9.963164645421304613e+02
-4.464580618829974810e+03
-1.019799209846318081e+04
-1.130453624728504110e+04
-6.245271953911729724e+03
-9.582565616707793197e+02
3.818484118830638636e+03
7.128807393006609345e+03
4.561715249178033446e+03
-3.274731190762554434e+03
-8.533602532692879322e+03
-7.899890814020354810e+03
-6.104346902976422825e+03
-7.562883409989191023e+03
-7.497454698526757056e+03
-7.426167203800637253e+03
-6.572146684156306947e+03
-3.054285240128295300e+03
-1.503496667460534354e+03
-5.807819605457094667e+02
3.078795750773236705e+03
-2.126911500432044704e+03
-1.176651476788709078e+04
-7.689685018054979992e+03
-1.400602676790766964e+03
-5.755762495018752816e+02
-1.502666257609021841e+03
-6.521815036836537729e+03
-1.647488021522798590e+04
-2.343470604023820852e+04
-1.661537742921055178e+04
-7.720003768296161979e+03
-3.202462577309147491e+03
-3.954532848417849891e+03
-7.438009620252785680e+03
-5.797699058869960027e+03
-1.816491644483703567e+02
2.369105149102125324e+03
3.312524163261810827e+03
-3.923272325649977574e+03
-1.374113377716395553e+04
-1.370599946243481099e+04
-9.206902101710855277e+03
-6.566731562420673072e+03
-1.028027637869122373e+04
-6.236491063157923236e+03
4.651679377901047701e+03
9.761267262378511077e+03
1.082411819499700687e+04
8.461356700553364135e+03
9.861100332658965272e+03
8.073456290988563524e+03
2.205507024639113297e+03
2.124405873220360263e+03
8.507304692007799531e+03
9.086257817642195732e+03
6.296446116927249022e+03
7.982035195271223529e+03
9.482801639978715684e+03
1.272777027363619709e+04
1.547815813522771896e+04
1.116313248332169132e+04
1.677814324047649279e+03
-1.967890736814287948e+03
-1.015900394894351052e+03
6.817996173311853454e+02
3.930109745090808246e+03
1.227210419278614791e+04
1.611489308731460369e+04
1.105449928622223524e+04
2.979038939644072343e+03
2.569715074106545217e+03
3.330585208830402280e+03
7.525829328575025102e+03
1.680553310379666800e+04
1.915579876478495862e+04
1.627684046712587588e+04
1.212761000784763564e+04
7.330033418315397284e+03
3.093200994497505235e+03
-3.805722841098708159e+03
-8.431669308329423075e+03
-5.648403072887358576e+03
-5.096889798134384364e+03
-8.640700777823716635e+03
-1.237748864148879875e+04
-1.437585218441591860e+04
-1.521930403750672122e+04
-1.225673252235310247e+04
-4.455884674582115622e+03
-2.846693737833819341e+03
4.799146813646059968e+02
5.036082664984899566e+03
2.432813243900696762e+03
-4.766756657661183453e+03
-1.054448076661607956e+04
-9.321243015916319564e+03
-6.084221417499561539e+03
-6.330792677613068008e+03
-7.059901110857259482e+03
2.635725594982803159e+03
1.468723701956148398e+04
1.654254678601870182e+04
8.194513354687935134e+03
1.527144737438695302e+03
-1.939575541743938174e+03
-6.224633753474456171e+03
-6.836986282075718918e+03
-2.218734370427597241e+03
-1.640865051336040096e+03
-4.959396720914911384e+03
-5.231385606172977532e+03
-4.007716101613796127e+03
-1.503307490095466164e+03
1.768749667456216002e+03
-3.289559435825376568e+03
-1.209812061615790662e+04
-1.270798827647023245e+04
-5.440233654047781783e+03
-1.672853223429276113e+03
-1.063085566928290791e+04
-2.690535609158055740e+04
-3.386356661090401758e+04
-2.339630581756291213e+04
-8.220413253622493357e+03
1.603972045548835013e+03
6.429676597219940959e+03
1.171274596945142730e+04
1.275833407637732671e+04
1.349530663331058895e+04
1.658557101345880073e+04
1.575806214155353337e+04
1.407772847944705973e+04
1.375950850081417775e+04
1.100543854093423943e+04
6.215473815642077170e+03
3.251635652974860932e+03
4.883941738414960128e+03
4.795231384222287488e+03
1.604388361215992973e+03
7.463885721043893682e+02
1.130171175278284636e+03
-4.563536254069589404e+02
1.049776831555644549e+03
1.735149506554508037e+02
-7.089242613597677519e+03
-1.121757408477382160e+04
-1.550352414102332295e+04
-1.439509214000613792e+04
-8.058384636414742999e+03
-4.234507757252791635e+03
-5.190535800799243589e+03
-4.404473014286856596e+03
3.329661006697228913e+03
9.912725326315194252e+03
8.554728452295135867e+03
4.709614107520053949e+03
5.718302677206275803e+03
5.243808852683298028e+03
-1.770958196394873539e+03
-3.193079478477463454e+03
1.972520761325051808e+03
5.473864979630001471e+03
5.406187437294497613e+03
4.685010876244122301e+03
4.484039514245933788e+03
6.105081124991848810e+03
6.687074270296223403e+03
2.640097634126934281e+03
6.392226583539377316e+02
2.282480570079569588e+02
-3.118379647524045595e+02
-9.851227058838966286e+02
-2.523368061047499111e+02
6.950430456807116570e+02
1.409193296045669967e+03
1.914084238943740729e+03
2.688543987841126636e+03
2.492712484651961404e+03
-2.593428962631289210e+02
-6.477961774173841150e+02
3.042833029258628358e+03
4.681748944177064004e+03
4.553094860170018364e+03
2.887733859977665361e+03
-7.195314591046235364e+02
-5.759932804273732472e+03
-7.474168286583359077e+03
-7.257594328930676056e+03
-5.719232209598578265e+03
-3.102062603900874365e+03
-2.737935461565919013e+03
-2.846892446823956561e+03
-1.489109716667695693e+03
4.101791565243284481e+02
1.759261282459252925e+03
6.040752076701345459e+02
-2.962358269081692015e+03
-4.544323813341296955e+03
-6.477725855643090654e+03
-1.498740718012842626e+04
-2.049934498357759003e+04
-1.289559676422644043e+04
-5.462559436352789817e+03
-6.557115736347482198e+03
-5.748203752990395515e+03
-5.850876455222453842e+03
-7.330325263802898007e+03
-2.485512911810847072e+03
6.359540219415856882e+03
8.324798709777762269e+03
1.002830107710373341e+04
1.208512374966109201e+04
9.947306850282757296e+03
5.852935542036032530e+03
4.617092398999484431e+03
8.025751328080594249e+03
1.073987290580048466e+04
1.004248445652868031e+04
1.040569062023147490e+04
7.515325550864585239e+03
1.606207846171395431e+03
-3.248533133411654944e+03
-5.318020859519492660e+03
-5.599481804292045126e+03
-5.571902555058270991e+03
-3.452024060245043074e+03
-1.937340755273252171e+02
-5.170641467297368763e+02
-2.948116019645860888e+03
-2.516001298573465647e+03
-2.942713466146449719e+03
-3.954047910707572555e+03
-3.437861050837520452e+03
-1.944094092620520314e+03
-4.197765543834768209e+02
2.128268853861388379e+03
3.964041491423978187e+03
3.711476911288046722e+03
-1.797474067841823398e+03
-8.990818745468493944e+03
-6.269740789789979317e+03
-1.680231634659259271e+03
-8.690901381525259239e+02
-2.750045876438435243e+03
-5.932006882822141961e+03
-5.711200501251463720e+03
-4.486238471107192709e+03
-4.994019443479633082e+03
-4.740743163881124019e+03
-4.259537621837580446e+03
-3.994677546487312611e+03
-3.543219532270758918e+03
-4.540752081085259988e+02
-3.220692140884383434e+02
-4.531931369859418737e+03
-2.223319730947055177e+03
-1.489030196870017335e+03
-7.120657265458587517e+02
8.798572847757704949e+02
2.138508489829102018e+03
3.136378302775992324e+03
4.068302729074051513e+03
3.439233446509274017e+03
2.489244906831850130e+03
1.952821829040032981e+03
-2.548513208777535155e+01
-2.757770243827953891e+03
-2.420381880587131036e+03
-1.036447101355433915e+03
1.120331912049829498e+03
2.101893664039133910e+03
1.693190907419289715e+03
1.982127634555953136e+03
3.061580126008545903e+03
3.666875428692971582e+03
3.163079933032387999e+03
-1.540222019969902192e+02
6.462956236196314421e+02
5.606501827642749049e+03
9.382653230338035428e+03
9.317447867657589086e+03
7.305196481052400486e+03
5.291067361695697400e+03
4.334455850469107645e+03
5.373932309148608510e+03
4.917481140007429531e+03
1.789145816508186726e+03
-9.963174391691435403e+02
-2.675949516812094771e+03
-2.554566298787532560e+03
-2.219615792565076617e+02
1.156702238253483074e+03
1.956233517075681448e+03
1.494834210173864903e+03
1.198582770072365065e+03
1.776176962487912306e+03
1.610027030049700670e+03
2.124453720571287647e+02
-9.079779759343929300e+02
3.378450145986945330e+01
9.352918158258452195e+02
2.017882080501088467e+03
2.963890236831813581e+03
1.602808375036961479e+03
5.837879641415498781e+02
-7.680475946009231620e+02
-2.490967265559725092e+03
-4.045768739693462521e+03
-4.469073180067501198e+03
-3.995301156839262148e+03
-3.721012970778843282e+03
-1.792803695213681976e+03
1.498660786432074929e+03
7.680805579802100738e+02
-1.875704155269843625e+02
2.195698190427424663e+02
1.679512730635433854e+03
4.163795382750467979e+03
4.689965058872214286e+03
5.804691674242910267e+03
6.404604443108602936e+03
5.283593647570222856e+03
3.843514796881172970e+03
2.616817061346378068e+03
6.573161960649333935e+01
-1.773023539147809061e+03
-2.816100504659366834e+03
-4.069006680766098270e+03
-4.166850357583145524e+03
-4.618975900558914873e+03
-4.615922547235309139e+03
-2.561205208077366933e+03
-1.585326998513978197e+03
-2.570127105187065808e+03
-4.177512865619634795e+03
-6.080423748083736427e+03
-1.026252355711793098e+04
-1.061890055340616709e+04
-7.749165523562927774e+03
-4.174164275663440094e+03
2.896441303767303907e+03
5.487732835911421716e+03
1.431607162681057389e+03
-2.002041642275499271e+03
-3.687505220527511483e+03
-5.064287664623876481e+03
-6.232006988091062340e+03
-6.904824506186218059e+03
-8.064948309199775395e+03
-8.332830718980043457e+03
-6.567013312930259417e+03
-3.181450234414271563e+03
7.083640446912062316e+02
-1.084768098198892631e+03
-4.906642071944083909e+03
-3.783180860308845695e+03
6.966626422200488378e+01
2.006481022593776515e+03
2.403895255466328763e+03
2.447762396863708545e+03
2.275121098937875558e+03
2.263771282778205205e+03
2.962827065261503321e+03
2.404073832051001773e+03
1.717062660042315656e+03
1.245020618235853590e+03
4.330448554828214469e+01
-6.292826769901946449e+00
1.042114917774541482e+03
9.493976685425171809e+02
6.044452184468151472e+02
1.775948851168834381e+03
2.679397877027541654e+03
3.246271725479520228e+03
3.762894162609198247e+03
4.840432708871849172e+03
4.424041456976827249e+03
1.108552842290625676e+03
-3.695763063260697550e+02
4.181831350376704108e+02
1.011645786796717488e+02
-1.676443821456248315e+03
-2.895429204731041864e+03
-1.347902794940764352e+03
-3.966111074039213804e+02
7.544650400193654605e+01
3.310913124297539412e+02
-4.036506276594919740e+01
-1.046856247565238846e+03
-9.204554703646342659e+02
-1.239867188426555003e+03
-6.808151894996875626e+02
8.206280335919572053e+02
1.585135602329652784e+03
1.898861242244899586e+03
2.516114539559457171e+03
2.752780781961548655e+03
2.334750793979700575e+03
1.810195870969499538e+03
1.336850152536075029e+03
9.108299608340503255e+02
2.006851315559585771e+02
-1.595229467095633140e+02
4.624131904370735811e+02
3.801115169195898602e+02
-8.085979947536669954e+01
-7.904004038205150664e+02
-9.489779826988957439e+02
-6.238379151727773433e+02
-1.382805525238806240e+03
-2.002856252325773539e+03
-2.483412237513354285e+03
-2.573138255260953883e+03
-2.220326489925314945e+03
-2.501951348102498287e+03
-2.955391626053929940e+03
-1.714929961329580237e+03
-8.051425857090947602e+02
1.158015794098029346e+03
2.889765214663240386e+03
3.367099464271103898e+03
2.470011468949389382e+03
1.726334987502199510e+03
1.037171928590293646e+03
4.492359182874785262e+01
-9.725414217231240173e+02
-1.774297362487126748e+03
-3.007365710353992654e+03
-3.236703880372633193e+03
-3.324442147679293157e+03
-3.679516783517579370e+03
-3.752919677837985546e+03
-2.827698288232285904e+03
-2.485832715510692651e+03
-1.456189248303323666e+03
-4.505243527640153616e+02
2.450489415404935585e+02
1.661851183006449446e+02
4.949457279309232405e+00
3.244495565405225648e+02
3.817870326305670687e+02
4.521221858704009264e+02
4.236692454524451250e+02
5.312535087218916487e+02
2.727000606685562616e+02
-3.531231294655027568e+02
-1.330383547934357011e+03
-1.217954965209991542e+03
-6.627684746583553306e+02
-1.147981509452918090e+03
-1.272669958149839431e+03
-9.578326106300739866e+02
-3.952553656690893149e+02
-1.527389897379599688e+02
2.585735220810457804e+02
2.517598417856901278e+02
4.684574073579132119e+02
7.395617186119008011e+02
5.039612614816644509e+02
1.274400719941377247e+02
5.275744416480596328e+02
6.881906007810433721e+02
-7.466387725925264363e+01
-7.787949701724909346e+01
-8.770130498366661413e+02
-1.814567293452268814e+03
-2.316168948114216619e+03
-2.786806689417025609e+03
-3.227556621608583555e+03
-3.141124116396170848e+03
-2.177305910582862907e+03
-1.622302731146504129e+03
-1.101485056221547211e+03
-3.839241720720802391e+02
8.156579634103763965e+02
1.393185282953701972e+03
1.455778820958581491e+03
1.934787456035316154e+03
2.666389355464130404e+03
3.176385711712307966e+03
3.005581535639462345e+03
2.874069904181009861e+03
2.657387716019112304e+03
2.296210968212745229e+03
2.052186674446348661e+03
1.253300678566852866e+03
4.351053209147607390e+02
7.785432319049090211e+01
-1.927682190934552864e+01
3.464946150545092109e+02
-1.691720256242888922e+02
5.259635321920909519e+02
1.490568700837018014e+03
2.037606748289279267e+03
2.227142042031846358e+03
2.116559992560439696e+03
1.858372754464157424e+03
2.178536806405779771e+03
2.324924145807551213e+03
2.331945549103661051e+03
2.400446650163045433e+03
1.985768088031515390e+03
2.150458271743275418e+03
2.260536200902421569e+03
1.614016706840394136e+03
8.230268969002761423e+02
4.121044174587327547e+01
-4.062741571779808964e+02
-7.215393151097068767e+02
-1.442747939621398473e+03
-1.209757389447017204e+03
-1.145342595014139079e+03
-8.308936167054597490e+02
-3.801851489986383399e+02
-6.231622878122356468e+01
8.135817795112050135e+02
1.716488449041927652e+03
1.885371980851725084e+03
1.879221416616738907e+03
2.025102777814111278e+03
2.229002927712544988e+03
2.512854630790319334e+03
2.035801858797080968e+03
1.954932636073589492e+03
1.301037297815721558e+03
7.829764879832788438e+02
3.676290337668907000e+02
-1.213980249774704362e+03
-4.030734466862812042e+03
-6.198667896084615677e+03
-6.098853305004521644e+03
-5.763255074123371742e+03
-5.103801687718676476e+03
-4.356193841090377646e+03
-4.187679005576598684e+03
-3.295609221620133212e+03
-2.783989397088463193e+03
-3.055577964347833586e+03
-3.285149038665610988e+03
-3.661634286959999827e+03
-3.928153002645552078e+03
-3.810896099761979713e+03
-2.089722958873543121e+03
1.208634105154709232e+03
1.752221093779879538e+03
-4.839452083968998863e+02
-4.318998842480104940e+03
-6.285112115191823250e+03
-6.198269054019003306e+03
-5.601423226070944111e+03
-5.210466303932511437e+03
-4.958362248185185308e+03
-4.271074558938714290e+03
-3.765550578382734784e+03
-3.383623716162138862e+03
-3.581257775315258186e+03
-3.092615633871963382e+03
-3.303701745169517835e+03
-3.323504411210799390e+03
-3.880556711384184609e+02
1.833841041004428234e+03
2.298211441795516748e+03
3.010136908168910850e+03
3.116743222947642607e+03
2.936082706639051594e+03
2.202061426554266291e+03
1.322587639433511185e+03
4.847072042977860633e+02
4.930716103815018414e+01
-3.671635099572021232e+01
-3.271068884084165802e+02
-9.576739896291073251e+01
6.242263827636851374e+02
1.041826960947711996e+03
1.576950283618202548e+03
2.125787438293938976e+03
2.292287774959552280e+03
2.210529654492657301e+03
2.557666594869573146e+03
2.510784365184121725e+03
2.521919480622143055e+03
2.681263482616287092e+03
2.553805249421433473e+03
2.447499310232532480e+03
2.160462044392505049e+03
1.439648411967436232e+03
4.220779457889170203e+02
4.749394572514175294e+00
6.245318721505988151e+02
1.209455587240095383e+03
1.201604982799147365e+03
1.365029233159235901e+03
1.847951319072903971e+03
2.142821995047768269e+03
1.879446742384082654e+03
1.897591267731089602e+03
1.897152751278635151e+03
1.940765915351528974e+03
1.797812123969551067e+03
1.159984547989175326e+03
9.369780473567662966e+02
5.854628151939404006e+02
2.295824203439413225e+02
2.185667736485044088e+02
-1.805263993835797010e+02
-4.886459390277325383e+02
-8.278981395707694446e+02
-8.244314934291094232e+02
-6.303073879814440943e+02
-1.639015472086799434e+02
4.218199758683888945e+01
8.694155126009185324e+02
1.371288744767784237e+03
1.895786324159763808e+03
2.265035013410365536e+03
2.574943199025887225e+03
3.173462636916109659e+03
3.155644711590448878e+03
2.750498166745157960e+03
2.598932369768311219e+03
2.453034918652489978e+03
1.796801160220848487e+03
1.336249359080254862e+03
6.514412052742011383e+02
-4.566678878390688112e+01
-8.481770310426167043e+02
-1.808053793121212038e+03
-2.761301935858565685e+03
-3.240997691385396593e+03
-3.575156157091943896e+03
-3.947793887866633668e+03
-4.362908228458331905e+03
-3.340538767187535996e+03
-1.960562585463387222e+03
-9.066628204614639799e+02
-5.520071253587583442e+02
-5.387346003988652683e+02
-1.117642215602249109e+02
-3.998947655143984292e+01
3.015803961448033874e+02
3.656909227919555292e+02
1.283951137073713653e+02
1.946853054796292781e+02
4.305210248896951839e+02
4.893840934040839130e+01
-5.799946588980383240e+02
-6.123852922721773666e+02
-3.602377786718288348e+02
-4.576028838052969263e+02
-5.956427683254427166e+02
-5.153392142437126040e+02
-1.676830478294895386e+02
4.042821451891193760e+02
6.485779483319329302e+02
8.112483573949773472e+02
3.983409349338032257e+02
-1.313168470502157788e+03
-4.246278540793347929e+03
-5.507959155060817466e+03
-5.731233926640689788e+03
-6.110271154090948585e+03
-6.008002986536462231e+03
-5.933465206180694622e+03
-3.236638916421138674e+03
-1.571567664246521645e+03
-2.523297601073910300e+03
-2.796761910139998236e+03
-3.242947339819191257e+03
-2.811870249813011469e+03
-1.686574478022034100e+03
-1.723108183147217460e+03
-1.480479421056057390e+03
-3.816589503483997419e+02
5.112206216477644602e+02
1.571192280693627936e+03
2.433131999206937962e+03
2.407963773871764715e+03
2.556771225728500667e+03
2.437623863675067241e+03
2.762482905017566736e+03
3.112330487454720696e+03
2.932206255314489226e+03
2.962110159451000527e+03
2.304040941671190467e+03
1.663021305428925643e+03
4.569717081580557760e+02
2.618531650294160613e+02
4.267021155613070249e+01
-1.069583121138987735e+03
-1.789049512772228582e+03
-1.843761099752186965e+03
-1.753762018679982248e+03
-1.089020564263725873e+03
-1.415153315427092480e+02
5.047696029783096492e+02
1.133831364728695917e+03
1.431689430568656690e+03
1.199371964935455253e+03
1.188841167516973655e+03
1.526160382827922831e+03
1.541269838202930941e+03
1.580112844413509720e+03
1.211767359835590469e+03
6.402174346209613987e+02
5.933502695265659668e+02
2.732301047371435061e+02
4.586707497390970900e+01
-1.817506628780120650e+02
3.032489875771442556e+01
-2.395250292148906368e+01
-4.615434028467229268e+02
-5.444515375196493778e+02
-5.861900833591948867e+01
7.369091814054620500e+02
1.180178790872765830e+03
1.072254891848348279e+03
9.921608813867626395e+02
8.458578480321207280e+02
8.073108129185519601e+02
9.536335223632870566e+02
1.105767150309277213e+03
