4.988228672734256179e+03
4.357266094996836728e+03
4.085630894170241845e+03
3.668211312828313567e+03
3.490620291279391040e+03
3.726052591471464893e+03
3.157883532309011571e+03
9.360498978962793899e+02
-2.038433538743593942e+02
5.841767736047517019e+02
8.396948233531168171e+02
1.444944153472701601e+03
1.545268403870314614e+03
7.673753062964620995e+02
6.372923311557902935e+02
1.035088229162017797e+03
9.218224570260832706e+02
1.181934853269115592e+03
1.942908677241629903e+03
2.195761134821292217e+03
1.947871456505742117e+03
2.417152016801883292e+03
3.648570762381519671e+03
3.998866298725602519e+03
3.110229484175370999e+03
2.458662629266777003e+03
8.071957094642898483e+02
-1.250115765923460685e+03
-3.129648346293865416e+03
-4.600488572243426461e+03
-5.952365409203142008e+03
-6.002159414778033351e+03
-5.588809775556582281e+03
-4.996698812628107589e+03
-4.088621376967253582e+03
-3.113421011781515062e+03
-2.896020552241429414e+03
-3.587428748258274936e+03
-3.411684789173089484e+03
-2.229675896258366720e+03
-7.073459867336677007e+02
2.716122147087552094e+03
5.782478095119325189e+03
5.492811770972774866e+03
3.334331786607233425e+03
1.365856297894077670e+03
-2.857809823700158063e+02
-1.458758712002553239e+03
-1.939192211650602985e+03
-1.124932443459134447e+03
-8.359141720871665484e+02
-3.151644355571904157e+02
8.673729779479308490e+02
1.151566496943955144e+03
1.097327473772701524e+03
1.006762382468745841e+03
1.067899402603190765e+03
1.075692600398401737e+03
2.921982071727951080e+01
-1.503377051588437098e+03
-3.702013440064255974e+03
-3.787617412277515086e+03
-4.882301026774824095e+03
-6.373063897856081894e+03
-5.580955127733377594e+03
-4.278735377555745799e+03
-1.213256225315538813e+03
-7.026405044579313426e+02
-5.471157595646396658e+03
-7.967720140148763676e+03
-7.876121058694604471e+03
-6.959348538081558218e+03
-4.988532436519139083e+03
-2.854118062326833297e+03
-1.904979680288239251e+03
-7.309109224426159699e+02
1.602848975308725358e+03
2.591162499705002119e+03
1.397008704136684173e+03
-1.277709651589702389e+03
-1.361009213478682568e+03
-9.176967951312245759e+02
4.023190346040086638e+02
4.553638780838485218e+03
5.948133019739480005e+03
4.976012617283697182e+03
3.415335572609535120e+03
2.501848326451938647e+03
2.110664470758496009e+03
2.254867516516690557e+03
2.089338961506381111e+03
1.799097051855865402e+03
1.626050056018143550e+03
1.975078674060976482e+03
3.510275935485385162e+03
4.970897200476343642e+03
5.180231394781952986e+03
5.225238092463788234e+03
5.396785627383428618e+03
5.731892039718015440e+03
5.660072329488528339e+03
5.190888249830281893e+03
5.152579217959787456e+03
4.487306757578156976e+03
4.171224268303559256e+03
3.552523186880258436e+03
2.414929164659673461e+03
8.850216847286575330e+02
-5.032497241641135588e+01
-2.969699808980729472e+02
-3.929063955147097431e+02
8.478661809808642147e+02
1.243274130764415304e+03
1.243252628712244132e+03
1.473803169444031255e+03
1.066157180977805638e+03
6.132721337988540427e+02
9.902367349194528288e+02
1.459302070821021744e+03
2.037483885247691433e+03
2.799861379215224133e+03
1.713424347484482951e+03
6.998752473099924600e+02
7.160905173651657378e+02
1.638328897210978766e+03
2.236866017096215273e+03
9.677371462708676972e+02
6.219205142878574861e+02
4.340923160712414415e+02
-5.436390110121290036e+02
-9.229823975259020017e+02
-1.866923147194764624e+03
-2.968504615370375632e+03
-3.979817583043942705e+03
-4.733222193570766649e+03
-5.875796194198227568e+03
-7.438911687474947939e+03
-6.734438636639847573e+03
-6.306319521661098406e+03
-6.105524512999553735e+03
-4.578841394603989102e+03
-4.462222827911752574e+03
-5.212720180970992260e+03
-6.536293352989465347e+03
-8.044855498485717362e+03
-8.875468725887467372e+03
-7.897083657112466426e+03
-6.288587721473009879e+03
-5.689013522457207728e+03
-4.664261901667960046e+03
-2.471391801410164135e+03
-3.523193540922459874e+02
8.462578537975867903e+02
1.391497900933658912e+03
2.236455557806084926e+03
3.287133608568889485e+03
3.756446118590565220e+03
4.264469775717741868e+03
4.791516085945939267e+03
4.701750791330921857e+03
4.675127936047922049e+03
4.159724756230776620e+03
2.636686754534502143e+03
1.998138652223790587e+03
2.205087573679613797e+03
1.691615675745016006e+03
7.008532768896415064e+02
3.169712806426669545e+02
-1.002606869297096193e+00
-9.903003107184157727e+01
-5.801269250135305811e+01
9.431000055278257150e+02
1.355325268249431474e+03
1.312830197789630120e+03
1.555689588322699592e+03
1.610012053801717911e+03
9.999389908658600916e+02
8.696261710062400425e+02
1.796199286502238010e+03
2.972815231818769462e+03
4.387512022601573335e+03
4.405319017640893435e+03
3.741338273992840186e+03
3.360782192056767144e+03
2.985925590062339325e+03
2.628621144769681905e+03
2.173781840311911765e+03
1.546330026174501199e+03
8.232912766705259173e+02
-2.801598747615182674e+02
-1.814841777807541121e+03
-3.282648767339007918e+03
-4.060510733585730122e+03
-3.244460406052368853e+03
-2.665374859479184124e+03
-1.808027296980742449e+03
2.017690375095863828e+02
1.441986671255896681e+03
6.985351656974816024e+02
3.216204196702087756e+02
4.514313862681844967e+02
1.273140627849111972e+01
-4.484925241212387164e+02
9.336860960289070643e-01
4.640531699393680043e+01
-4.859852861301387748e+02
-9.375393114165115094e+02
-1.375253216803005671e+03
-2.490001494591000665e+03
-3.740861226342350619e+03
-4.730763182571407924e+03
-5.148673769068659567e+03
-4.735609730993844096e+03
-4.054600294078674779e+03
-2.840391965308066119e+03
-2.001164736079606655e+03
-1.631028832968816459e+03
-1.244124967813373587e+03
-7.989371968277189353e+02
-3.655218782283959627e+02
-4.088640459774101146e+02
-2.160810423489169239e+02
-5.963708735658790374e+02
-1.833619216374328971e+03
-4.120543409032528871e+03
-6.028186237976891789e+03
-5.955985960184551914e+03
-4.595877037113326878e+03
-2.074641804753009183e+03
-4.816465200325233695e+02
2.549264319978515800e+02
-7.439321311769668910e+02
-1.746093382213447512e+03
-1.405870498390328066e+03
-1.002294612676940233e+03
-1.080612099713847329e+03
-8.727353238952562151e+02
-1.063492419480578519e+03
-4.772271321067926664e+01
9.904246757207571363e+02
1.740252719045410458e+03
1.402589649332127237e+03
8.681124513394451014e+02
1.182663831765682517e+03
1.807305557022092216e+03
2.030873046877038632e+03
1.488761882767646284e+03
3.147211220383546788e+02
1.300159596477263051e+02
-1.403484806632995060e+03
-1.219201559874781651e+03
-1.277474942695963591e+03
-1.136397758304057334e+03
-1.372165950218907938e+03
-2.955007326067034228e+03
-1.118840148147969273e+02
1.852225036267364203e+03
3.369365508579088328e+03
4.683824593099288904e+03
4.956778379107453475e+03
3.951141562171679652e+03
4.394785673155840414e+03
4.820654976655634528e+03
5.313541712544985785e+03
5.241962163927354595e+03
4.464301122321322509e+03
2.193542814611112135e+03
2.072865750088961704e+03
3.471973025035720639e+03
3.789763572009812378e+03
3.489507701857217398e+03
2.848578063983186894e+03
1.175432606503512034e+03
3.396411939946721304e+03
2.820920085132702297e+03
3.004074200588928761e+03
3.544109161389764722e+03
5.164635901657979957e+03
5.146386031891344828e+03
5.189937418501696811e+03
4.036363261143512773e+03
5.674100230665431809e+03
7.132547350631011795e+03
5.773667983604729670e+03
6.623699517563449263e+03
5.754302928383791368e+03
3.547215885807348968e+03
3.303569658458736285e+03
4.368151136509234675e+03
1.603459922332113820e+03
1.984707583132899572e+03
1.950596518561305402e+03
1.519267668397893885e+03
3.250593678664555682e+03
5.392538794239334493e+03
6.456542615592077709e+03
6.205018902383777458e+03
5.877589491903677299e+03
5.496072241289350131e+03
4.885834319593907821e+03
4.513571598702962547e+03
4.096505957491746813e+03
4.019945327150289359e+03
4.424160963829099273e+03
4.188043852694878296e+03
3.246097472828710579e+03
1.999978755894419464e+03
1.242548292932501681e+03
9.099853262589125507e+02
-7.692250196245257712e+02
-2.246140826663928237e+03
-3.042941124208799465e+03
-3.325255733370216149e+03
-3.758609979805142757e+03
-3.785724970453846709e+03
-3.820294518648584017e+03
-3.923084288203879169e+03
-3.994949574948007012e+03
-4.390091319891032981e+03
-4.778632114657483726e+03
-4.540910497349813340e+03
-4.376620244249754251e+03
-4.319520569155461089e+03
-5.078793741963848333e+03
-6.851689685943525546e+03
-8.204318158598782247e+03
-8.417102285249553461e+03
-7.792254955418417012e+03
-7.787945024153102167e+03
-9.767312513503764421e+03
-8.276522309962470899e+03
-6.921507016701547400e+03
-6.894982118255999922e+03
-6.422697416701511429e+03
-5.989772626803181083e+03
-5.354271363882213336e+03
-4.273523749044802571e+03
-3.714252845436824828e+03
-3.620138689590507056e+03
-4.079154178372654769e+03
-4.882035931837977841e+03
-4.764156729475940665e+03
-4.222339022950744948e+03
-4.000190672559337145e+03
-4.185879981602362932e+03
-4.576216939176431879e+03
-5.196490218684497449e+03
-6.410597813901282279e+03
-7.916870866375988044e+03
-9.737552557834858817e+03
-1.189453005891858811e+04
-1.296249839892565251e+04
-1.081104116731245267e+04
-7.522829545876999873e+03
-4.625573879084997316e+03
-1.784860712714205420e+03
-4.153840744959329072e+02
-1.659845191570875841e+03
-2.655223361916966496e+03
-2.907754078009931163e+03
-1.809512747066989732e+03
7.019143446727496212e+02
2.456155451330003416e+03
2.201370601477126456e+03
8.597178641319841290e+02
3.894366539574664898e+01
3.469807695513372892e+02
8.725157419807100041e+02
5.956535295201515510e+02
-1.027503134890355568e+03
-2.712413868647503477e+03
-2.665566986273133352e+03
-3.217621122480250051e+03
-3.989325914441587884e+03
-2.612814341027414230e+03
-1.073542655689760977e+03
2.472837386688835522e+03
7.637539505624581579e+03
8.801525696316279209e+03
6.348418030159017690e+03
4.785220855257113726e+03
5.582173550487479588e+03
5.642965555787370249e+03
5.669207682783949167e+03
4.073694137461414357e+03
1.498057869958298397e+03
7.069293535108845390e+02
2.212486670989656886e+03
4.772431117906061445e+03
5.749792769403418788e+03
2.528273935010584864e+03
-1.750997857747998296e+03
-1.466879515820994584e+03
-7.518842497801347236e+02
6.820350522350599931e+01
9.893783544242453445e+02
3.551733729218663029e+03
5.029274302479912876e+03
5.359098385416502424e+03
7.015677160539537908e+03
8.062577251609851373e+03
6.780188797662897741e+03
5.795254332966369475e+03
5.448526042793510896e+03
4.750662727935322437e+03
4.047196224645319489e+03
2.716520725515362301e+03
2.026099791005823135e+03
2.080360582597324992e+03
1.229341583056531363e+03
3.377866141618874849e+02
-2.123922713243548230e+02
-7.710951565755519823e+02
-7.673127261204583647e+02
3.276900828971296846e+02
1.507198381450867601e+03
2.288481261059237113e+03
3.111786423599300633e+03
3.889222731366506196e+03
4.077255036293474404e+03
3.628466211429478335e+03
2.202081895228380745e+03
1.287232919511266346e+03
1.460700049691314462e+03
2.267246616058654581e+03
2.883950433742684254e+03
3.238937359222065879e+03
2.506852956020334659e+03
1.517405891316208226e+03
9.952867047947382844e+02
3.191125127669407107e+02
-4.052880566097467749e+02
-1.754883989060392196e+03
-1.969839591223676052e+03
-1.542273736316666600e+03
-5.363848376845186294e+02
4.692539930917137667e+02
9.065780976611541746e+02
7.557097581873073295e+02
1.728615541071782445e+03
4.071070070348337595e+03
5.732666728838619747e+03
6.064875888805108843e+03
5.193736529018353394e+03
4.223965677815772324e+03
3.077013290857314132e+03
2.660615715049382288e+03
2.593241714256524574e+03
2.371743667996326167e+03
8.087655900308838000e+02
-6.692499938621638194e+02
-7.694572354777011469e+02
4.727337797046170635e+02
2.668360775401723117e+02
-7.603609272746191436e+02
-6.327577701320474262e+02
-8.286005817937238671e-01
-9.982206063123724107e+02
-1.478442807768963121e+03
-9.489225280107812068e+02
-3.878473968726526095e+02
5.296668794457756348e+02
9.694172949268458979e+02
3.883233767014231717e+02
-3.480994136164578663e+02
-7.871234498679031049e+02
-1.378076383704414866e+03
-1.609326621262222943e+03
-1.310218135684277058e+03
-4.761557558407504871e+02
-5.617610433014748423e+02
7.545230680674620771e+02
-5.150466891830998293e+02
-4.232558901725949909e+03
-4.624567047462694063e+03
-2.909149684821286428e+03
-6.634250454418012168e+02
7.604481771554989109e+02
2.451564519520723309e+02
-3.796254654975953713e+02
1.988783408134232104e+03
3.351202916640122567e+03
3.850275530355907904e+03
4.158309210672139670e+03
5.346776339320529587e+03
4.859726810760462286e+03
2.677358984123333357e+03
1.578322887298221303e+03
3.269827054943418716e+03
2.321849859031849974e+03
-8.849819424057933475e+02
-4.624810984195451965e+03
-9.083429584512068686e+03
-1.185776926904816719e+04
-1.049627650271176390e+04
-1.029344125681893092e+04
-4.991760347379192353e+03
-1.708089996815120344e+02
2.249586317694481750e+03
4.019341734447762065e+03
8.626849907543468362e+03
1.421080669806138394e+04
1.393103531315671535e+04
1.085379389244029699e+04
1.283144538149172331e+04
1.563809701559465793e+04
1.542787452947153724e+04
1.297168433076746078e+04
1.050554698728380936e+04
6.653207431111726692e+03
4.073053432356953749e+02
-5.610796284568307783e+03
-1.189244802309421175e+04
-1.845070304585043777e+04
-2.105547687221068190e+04
-1.971854758020532608e+04
-1.761476372184394859e+04
-1.463367898482517921e+04
-9.067855199719153461e+03
-3.770889863567232624e+03
-4.198625527309372046e+03
-1.094393106759657712e+04
-1.562648718408241621e+04
-1.737786307903899797e+04
-2.136646963209021123e+04
-2.639521443488612567e+04
-2.793267973216156315e+04
-2.165649568986314989e+04
-1.864478738326285747e+04
-2.279412065034365150e+04
-1.953103546280834416e+04
-1.053431006207562859e+04
-8.237482854874313489e+03
-9.230121184411338618e+03
3.548057723803965473e+03
1.755281739517516689e+04
2.385258671494445662e+04
2.478664868220179414e+04
1.969898188901201138e+04
1.352298861796980782e+04
1.039953023332401972e+04
3.305727863355778481e+03
-7.549149404008267084e+03
-1.783270205487600833e+04
-3.100559259727705285e+04
-3.820668991260905750e+04
-2.736425051367263222e+04
-1.507887233684492639e+04
-9.409360126399222281e+03
-2.569548956459438159e+03
6.741461791810614159e+03
1.356815593684830128e+04
1.721819112355126344e+04
1.921094078083276327e+04
2.403274407052533934e+04
2.343498874753994824e+04
1.651615630945517478e+04
9.940704914388259567e+03
7.095949453938383158e+03
8.718234127980302219e+03
1.078702655268607123e+04
8.061654477751697414e+03
2.254318745471268812e+03
-6.670569955949486939e+03
-1.426683012092962235e+04
-1.510632637277931281e+04
-1.712185148671778006e+04
-2.211212260002842595e+04
-2.266572173206126536e+04
-3.057253012170528746e+04
-3.651036384431370971e+04
-2.608299195845825307e+04
-9.768402465329314509e+03
1.258460062523175839e+04
2.638835363562225393e+04
2.678823050160997809e+04
2.173552754547775839e+04
7.537376304193593569e+03
-6.570051012551821259e+03
-1.043162290925075104e+04
-7.175014638918123637e+03
3.047002768274846858e+03
1.114233288057354366e+04
5.837969688226738072e+03
-3.113705527792611065e+03
-1.602773825758643397e+04
-2.069878076120379410e+04
-1.302181708824531597e+04
-1.424620211071612721e+04
-2.641995070727136408e+04
-3.181578877038378414e+04
-2.917353045853185176e+04
-1.979403979366452404e+04
-2.568310527067754720e+03
8.854312257049419713e+03
2.382449639436707366e+04
3.493606996849806455e+04
3.995012625110277440e+04
4.477877450533850788e+04
5.410381848223204724e+04
6.240998827698345121e+04
5.987813539908083476e+04
5.100024102775733627e+04
3.852815683388521575e+04
2.973167652408312642e+04
2.715973808693723549e+04
2.361725249907119724e+04
2.257599721861107901e+04
2.507369125696666379e+04
2.926784173310047481e+04
3.609507820421600627e+04
3.367109670181500405e+04
1.757372879542462761e+04
1.231278130906181832e+04
1.685713650116040299e+04
1.650373206172018763e+04
1.083230267181654563e+04
6.474263403269946139e+03
6.195979646939260419e+03
3.886173839899310678e+03
-1.137409403903930979e+03
1.443449335630700432e+02
1.272527415490852218e+04
2.115573871350655463e+04
1.718531797396342517e+04
9.340915669461797734e+03
3.186397855558455376e+03
-5.476317946017528584e+02
-4.745611772071873929e+03
-1.034474603582118289e+04
-2.236427513351717062e+04
-3.351384980187285691e+04
-3.160609344429627527e+04
-2.931762979284303219e+04
-3.281292802578584815e+04
-3.208997548867289879e+04
-3.369257940519058320e+04
-3.464673643167343107e+04
-2.935811346447446704e+04
-1.909719350379625757e+04
-1.122838974416389829e+04
-9.451926443149786792e+03
-1.919953525411200417e+03
8.128223653912157715e+03
1.321436687616593736e+04
1.719310238427564764e+04
1.526116198891995737e+04
1.224954363121023562e+04
7.363236665058016115e+03
5.031727858185759942e+03
5.479475392272351201e+03
3.745048250438808282e+03
6.941907509264807459e+02
-3.355356449245694876e+03
-1.042180465489521703e+04
-1.555932670494027298e+04
-1.656120845881697824e+04
-1.432659314455528511e+04
-1.625150057242487492e+04
-2.165908813403116437e+04
-1.906359811312169404e+04
-9.710069734495295052e+03
-6.648442649136552973e+03
-9.517812200584372476e+03
-6.997652616087126262e+03
-4.200280392897958336e+03
-5.196517063999991478e+03
-7.478346483198803071e+03
-8.569073195471841245e+03
-1.029291739693455384e+04
-1.615995036990294466e+04
-1.919626327749706616e+04
-1.948590159388957545e+04
-1.566495718427758402e+04
-9.062491210863438027e+03
-9.010457658429981166e+03
-1.343779730516165728e+04
-1.384044120779264449e+04
-1.204428301102769910e+04
-1.231429864474258102e+04
-1.412253008135470736e+04
-1.366195687824643574e+04
-9.158531277366844733e+03
-6.368175348826596746e+03
-3.603695111297212861e+03
-2.723048283699605236e+03
-5.262166849147119137e+03
-8.191875333738243171e+03
-9.060029253594628244e+03
-1.069950941909834364e+04
-1.126829071389766796e+04
-1.060522836428053415e+04
-1.451326892957763084e+04
-1.671019070773665953e+04
-1.588071879759970034e+04
-1.279154506950246832e+04
-8.415645372243898237e+03
-5.187909336744551183e+03
-5.143053572758465634e+03
-8.647734828875294397e+02
4.157341738747951240e+03
6.360474451169782697e+03
8.831676215512719864e+03
7.596110573306312290e+03
7.800101015127504070e+03
7.695927601480236262e+03
5.647890687287147557e+03
5.169220513207655131e+03
3.573118171491221801e+03
6.188405994457943962e+02
-2.173349454179262466e+03
-1.979398243894007237e+03
-3.910774502530193331e+03
-1.088726171917858483e+04
-8.851339358183624427e+03
6.728072835116004171e+03
1.520338380987746496e+04
1.409396937064027588e+04
1.364397998557703431e+04
1.653452058647227750e+04
1.772379703109875481e+04
1.892235755944416815e+04
1.978945616833776876e+04
2.006537194211576934e+04
2.037418236599452212e+04
2.028127410099209737e+04
1.589475380659563416e+04
8.867789210594946780e+03
7.610519478995826830e+03
8.422368138602345425e+03
5.442748807667798246e+03
4.501976613519935199e+03
5.450940917845417061e+03
7.557842951176258794e+03
9.573944025485858219e+03
1.021654945040499842e+04
8.504073058556621618e+03
5.138237909191267136e+03
-1.608567005351568014e+03
-8.540272347896370775e+02
1.170796834031954495e+04
1.875261537405026684e+04
1.832099722481520803e+04
1.447874409079188808e+04
1.287267089144400779e+04
1.233755454674125758e+04
9.582069341666592663e+03
5.903340322358863887e+03
5.328670738623462967e+03
7.424131932580268767e+03
4.401756291103081821e+03
-4.168512311502211560e+03
-6.668765388062568491e+03
-3.011203759494752376e+03
3.675102332214942180e+03
1.120926555809664023e+04
1.327535097964546003e+04
1.209414236540142156e+04
7.533464657709605490e+03
4.197804422634641924e+03
3.753484113648996299e+03
5.036007878105987402e+03
5.930254414697402353e+03
6.495472364768081206e+03
6.116748763253857760e+03
7.370419899898199674e+02
1.197464203784423944e+03
3.625280797050312685e+03
5.015503173762592269e+03
3.709143893508101883e+03
1.024238818597592626e+03
-1.441496043322422565e+03
-6.021456922465411481e+03
-9.813928534206701443e+03
-9.709181754164634185e+03
-6.674640168676700341e+03
-3.474420724457947472e+03
-1.374311893817126702e+03
1.603104697708689855e+03
6.030622377988501285e+03
4.077970053668619130e+03
9.551973469661131730e+02
-1.961724702482965540e+03
-5.196207235860937544e+03
-1.316112478834047351e+03
4.230456605651214886e+03
3.564822264483034360e+03
-1.573845013377897658e+03
-5.339389886928214764e+03
-8.155653012649873745e+03
-1.101359149097125191e+04
-1.012463302688689510e+04
-7.653384402032711478e+03
-6.946614094570848465e+03
-8.260171536331972675e+03
-9.020774598629577667e+03
-5.805440653909573484e+03
-2.686488250856495597e+03
-1.961656497076398864e+03
-2.463711756607573989e+03
-1.591754168777438963e+03
-2.247593458196944994e+03
-2.135733348930148168e+03
1.868112458781717578e+03
4.232340644967701337e+03
3.938020123637305005e+03
-5.093182654928176021e+02
-3.374256846968669834e+03
-3.419991338614525375e+03
-4.612606671648461997e+03
-6.555231247715179961e+03
-8.710343084756665121e+03
-9.948749655911491573e+03
-9.734094692976741499e+03
-9.966450006824368756e+03
-9.776162269398848366e+03
-6.826734853911760183e+03
-3.554482613171550838e+03
-1.897188660420408269e+03
1.201301826565084866e+03
3.866265082104694102e+03
5.487590655980769952e+03
4.762671598567771071e+03
3.838451747383708607e+03
5.477046347665133908e+03
6.161997054842358921e+03
6.002814823124719624e+03
6.262329202856851225e+03
3.545027102348727567e+03
-2.849589621347226966e+02
-3.256578469102657891e+03
-4.868651016073529718e+03
-5.373486721593516450e+03
-5.903661870970923701e+03
-6.422425144976939009e+03
-7.432213414454269696e+03
-7.010585189392030770e+03
-6.465459718011077712e+03
-8.831653131476314229e+03
-1.241596363612210189e+04
-1.173137247228616070e+04
-1.327136629226403602e+04
-1.367338935397017667e+04
-1.080292328747321881e+04
-1.261608094697252272e+04
-1.693230513399010306e+04
-1.816262699008321943e+04
-1.699945436338583022e+04
-1.295536147490996518e+04
-6.482931588417691273e+03
-2.951966337800060501e+03
-2.945387029074146994e+03
-5.237923911650439550e+03
-6.325234825463360721e+03
-3.878720816874786578e+03
-1.525552218533846144e+03
-1.040210470869716346e+03
-1.229643366557081208e+03
-6.387272257940939113e+01
1.032798058056667742e+03
8.109651989634413667e+02
1.388653475165133614e+03
2.662639547780773682e+03
2.917213456070640405e+03
2.899329832044573322e+03
2.645852681468284572e+03
2.284755554717415180e+03
1.224843343593567397e+03
1.677898304046038675e+03
1.979347441672187870e+03
1.367725427006333121e+03
3.441538162562063007e+03
6.861351053020792278e+03
8.446726411025047128e+03
7.491787548912424427e+03
6.176470008077236344e+03
2.910090457429216713e+03
3.236036966469200706e+03
5.978992509699529364e+03
5.844154599930315271e+03
4.412848050700063141e+03
4.877234789224762608e+03
6.354904219124439805e+03
6.592022470120036814e+03
6.955732907174122374e+03
8.482308194192270093e+03
1.133401438522171338e+04
1.289562835168846141e+04
1.125043419072401412e+04
7.840664092088035432e+03
4.459391327183863723e+03
1.340175174622446320e+03
4.579281448972134854e+02
4.449891697071496310e+03
7.061181297270616597e+03
7.254479604117078452e+03
5.973326284586858492e+03
3.427847588823893147e+03
6.146563714864885242e+02
-1.609721571789301152e+03
-9.335634287126350728e+02
5.195258808028876274e+02
1.347705634900421273e+03
1.329539880058743620e+03
2.837171861620328400e+03
5.847926242187188109e+03
6.320769206606739317e+03
4.726582378775484358e+03
2.935628723583775809e+03
2.739072459593481653e+03
2.139136157711739088e+03
1.031276296516674847e+03
3.235536194197346731e+02
-1.825208016054821059e+01
-6.273216482675644556e+02
-1.040225300645593961e+03
-2.055585323977370535e+03
-2.088927612470000440e+03
8.411504219115472551e+02
4.400098668224779431e+03
4.511388038941053310e+03
2.648614288793442483e+03
3.458711710237854277e+03
6.058937150273275620e+03
6.593412785093398270e+03
5.180151412428527692e+03
4.009226297749093192e+03
3.550002721558660596e+03
3.540307273316716874e+03
2.649897232540457026e+03
1.339402605017492306e+03
7.864429899459494209e+02
5.204735861887228339e+02
3.648848416839274478e+02
1.083677682807685727e+02
-8.285916596535209067e+00
-1.669787856287537124e+02
1.223823543335382880e+02
3.585574103741632825e+02
6.611907251710958917e+02
1.461343177985942020e+03
1.270907076708612749e+03
8.939532738655129833e+02
1.054723724119343387e+03
1.411219136573714650e+03
7.471858780403159699e+02
-6.714347105443696364e+02
-1.739802162220225227e+03
-3.738073120635207033e+03
-5.182953375702319136e+03
-6.001603931627778366e+03
-5.839341524023045167e+03
-6.669460985889832955e+03
-6.977297251208166017e+03
-6.421993151501004832e+03
-5.590399454792100187e+03
-3.156914541523294702e+03
-1.013676333068023723e+03
-1.384601387851295840e+03
-2.320832884547710364e+03
-1.977114092143262269e+03
-1.226674356523888946e+03
-1.299649971952790338e+03
-2.083997605920737897e+03
-2.565927213106055660e+03
-1.502413902474707584e+03
-1.613358624158299790e+03
-6.021771955805955258e+03
-6.684886391143479159e+03
-7.660611386121346186e+03
-7.195665614212489345e+03
-9.084846994223318688e+03
-8.389500334856385962e+03
-5.780401276339012838e+03
-3.561874467360501058e+03
-3.490012566295478337e+03
-5.567051395294270151e+03
-4.541962874409661708e+03
-3.251797227590017428e+03
-1.693615387747525347e+03
-2.102419904055302595e+03
-1.172239207683997506e+02
1.064936308017657893e+03
4.243630278229766191e+02
-2.186450045419303763e+02
-1.378488535559878983e+03
-3.903395517816598385e+03
-2.801088480554827584e+03
-3.769770060915886916e+03
-4.169644674120732816e+03
-4.475861260099561150e+03
-5.641434441959590004e+03
-4.433241734073633779e+03
-6.250082865284131003e+03
-6.370885544668264629e+03
-5.412325895786735600e+03
-5.338005834213672642e+03
-3.715064574937339785e+03
-4.685279501961240385e+03
-1.345058789058184630e+03
-1.202094419749300869e+03
-3.103506492128899026e+03
-4.934166912511906276e+02
-2.966284762209780865e+02
1.119002145120953628e+03
4.553045887990196547e+02
-4.148975172375513125e+02
1.001763380258315692e+03
-6.281472428210246335e+02
8.096263226594902562e+01
1.555830996553809200e+02
-4.366628512244664080e+02
-9.410595338375426309e+02
-1.030243734423037040e+03
-1.429908509751847077e+03
-9.567201152547140737e+02
5.752686906119150763e+02
9.139302178066217266e+02
1.404151764857108446e+03
2.931922579985490756e+03
3.649241055249956389e+03
3.792238755188226150e+03
3.824496361247810910e+03
4.412517749802682374e+03
4.836182944003151533e+03
4.677466827937252674e+03
4.190577215156999046e+03
4.146760376626899415e+03
4.357154558844332314e+03
3.729964734327032147e+03
2.691258467166189348e+03
1.427969554665781288e+03
1.541750390373226082e+03
1.189158423435663053e+03
8.821635189001758590e+02
5.238114847464125887e+02
1.041627810596511836e+03
1.730239431155430339e+03
2.488931697960667407e+03
3.402673193280056239e+03
4.637597253197860482e+03
5.523178868173607043e+03
6.237321577432005142e+03
6.579457045047160136e+03
6.321571845537540867e+03
5.682620598522647015e+03
5.249811137160745602e+03
4.571234288998251941e+03
3.510592040735783030e+03
3.012676523520660794e+03
2.714515273639558018e+03
2.144300455781440633e+03
1.428080304355965836e+03
1.181355202673881649e+03
1.947958941087392759e+03
2.767965676275752685e+03
3.314343073241480397e+03
3.567261181933516582e+03
3.935939409366164909e+03
4.137512432445801096e+03
4.343688403765020666e+03
4.336316019146787767e+03
4.134521747531389337e+03
3.964558075721707610e+03
3.742327928042072472e+03
3.329628204485539300e+03
2.952483275584978401e+03
2.707778910469701259e+03
2.584516089745769932e+03
2.160609765120373140e+03
1.749919242464275612e+03
1.789497528993089418e+03
2.147347247774721382e+03
1.752091685263772433e+03
1.466599844553091998e+03
1.117954115263599306e+03
1.469008256161689360e+03
1.844746125830773963e+03
2.361141385329882269e+03
2.874324078274314616e+03
3.157365790801550247e+03
3.348991056253409170e+03
3.692212415475486978e+03
4.022185840014622954e+03
3.758848452849456862e+03
3.437314491330951569e+03
3.573653648842078837e+03
3.582756999643554991e+03
1.808478035164730500e+03
-9.422209460024745908e+01
-3.876373974641202039e+03
-3.665918985545805299e+03
-1.597789851238256688e+03
-3.472223113017312244e+03
-7.141333180764940153e+03
-8.012875960799960922e+03
-8.657665762464903310e+03
-7.941985388868118207e+03
-6.371685404792737245e+03
-4.344768476719752471e+03
-3.263478698948887541e+03
-2.752499891980427947e+03
-2.354524965416230771e+03
-2.737651888234829130e+03
-2.952128546456587628e+03
-2.447345481335847126e+03
-9.156014297143474323e+02
-6.317456491640064087e+02
-3.749598175577567417e+03
-4.233020199741765282e+03
-1.771993066177111359e+03
-1.159749887616269916e+03
-1.665292037034168061e+03
-1.722288358201214123e+03
-7.505215540151000368e+02
-1.312413891563884079e+02
1.794978846343122711e+02
1.874411906688098384e+01
1.458045489035286302e+00
2.467277492988288259e+02
5.274995733795015695e+01
-1.330593398395941040e+00
3.436857728693842660e+02
3.529245967267328865e+02
-3.934126430563815688e+02
-1.192364971922010454e+03
-2.249062263696024729e+03
-2.112475510890027181e+03
-9.646776235808953288e+02
-6.076656470401010210e+02
-7.442327953557355613e+02
-2.881859798549525635e+02
-1.463439193154353291e+02
-8.602293409926662662e+02
-2.189040994014328589e+03
-3.113915844597887826e+03
-3.615495188103070632e+03
-3.255497607821447673e+03
-2.889831941688672941e+03
-2.646368483380959333e+03
-1.366790985181659380e+03
2.150249336115701055e+02
7.950536093074636028e+02
7.452545594207996373e+02
2.448862630024564169e+02
-1.596069507405643719e+02
-4.968707926824725405e+02
-1.445643890524657081e+03
-1.440727860497873507e+03
-2.525160562869808473e+03
-3.680200976389477546e+03
-3.804760185019920300e+03
-4.455623560069936502e+03
-5.224359612502818891e+03
-4.508356397546562221e+03
-4.345277105249123451e+03
-4.463882954489861731e+03
-4.002366992349570864e+03
-2.757667882477955118e+03
-1.063411709638336788e+03
-4.454362067127247542e+02
1.773833092252667996e+02
7.981903210658659873e+02
1.318211579837614408e+03
1.800575678649151314e+03
1.312437957036486296e+03
5.218701493970510228e+02
-3.691302451014479402e+01
-5.086613283087766035e+02
-1.457362515677604051e+03
-2.282859235764301957e+03
-2.502889586947558200e+03
-3.004367205653934434e+03
-3.241189809848169716e+03
-3.326318595446230574e+03
-2.646807849180182529e+03
-2.056497751248675740e+03
-1.507029809963571779e+03
-9.601627749528663571e+02
-8.089852014816094652e+02
-9.805153736461434164e+02
-2.705337546628134078e+02
5.532680069467752446e+02
1.174012326733620739e+03
1.493761032023659482e+03
1.241577183297426927e+03
1.038632050315977949e+03
2.950470265783060313e+02
-8.419114722437271325e+01
-1.900691260410402492e+02
-4.935683969346597451e+02
-6.566185624621774650e+02
-9.551656422512136260e+02
-1.381156730237338479e+03
-2.356570737399482823e+03
-2.717407525584407722e+03
-2.364613976279538747e+03
-1.878233645358789090e+03
-9.761276786970414605e+02
4.698425381812307933e+02
