2.731813761974195131e+03
1.483916341692651713e+03
3.076259812110585699e+03
2.749815542185244340e+03
5.978575794599376422e+03
5.902628971526294663e+03
4.864863369276427875e+03
2.311229078367725378e+03
-1.808211827091721034e+03
1.315200162301078421e+02
-3.739612800226744639e+03
-7.677480774834085423e+03
-5.814109978755659540e+03
-5.167558037245830747e+03
-2.117805481854412847e+03
-6.585786850338936347e+03
-3.461448889331405098e+03
-6.346755846796194191e+02
-2.153405902358259937e+03
2.384447876018339230e+03
2.723986840893428052e+03
4.371360200155221719e+03
1.264610517820919767e+03
2.727799272843588369e+03
6.468993803854433281e+03
3.881216540760514363e+03
9.714627875750521753e+02
1.429777402532783299e+03
1.421212111522534315e+03
9.757130744979526753e+02
3.302406459349747934e+02
-6.212741127365121656e+02
-9.588273438573451131e+02
-9.592027227621881593e+02
-7.864037861775173042e+02
-1.803295678915461622e+02
9.271930892721101145e+02
2.297424366448776709e+03
3.576638872449509108e+03
4.858935038783716664e+03
6.427190395876432376e+03
7.039372425387113253e+03
7.371604431882735298e+03
7.325652111261453683e+03
6.426471480263434387e+03
5.306952646356051446e+03
2.333878493682033422e+03
-1.703148814418411575e+03
-2.199053634080016764e+03
-2.108424119733060706e+03
-2.254147545069795342e+03
-2.585804037093635543e+03
-3.136991337840383949e+03
-2.744955071106433934e+03
-1.984120515725673840e+03
-1.220571299395455299e+03
1.983725413160089488e+02
1.517353163959650828e+03
2.394915461123440309e+03
3.178861591708200649e+03
4.148909314812723096e+03
5.339971936871357684e+03
5.476887137036593231e+03
5.563938881224968100e+03
5.368714266791246700e+03
4.392960181183267196e+03
2.867544129587675798e+03
2.305008700888325166e+03
1.623778243409762126e+03
1.474790256619222930e+02
-1.236921437018009328e+03
-1.938653921042463026e+03
-2.690332076797341870e+03
-2.981599348578317858e+03
-3.061066221191292698e+03
-2.839003249557385061e+03
-2.019919491244529354e+03
-8.025712618781415131e+02
6.512431878551885802e+02
1.983415560606312738e+03
2.968952808410635043e+03
3.786880817137296162e+03
4.864270798542027478e+03
5.124147247670136494e+03
5.018576362202710698e+03
3.974699641559712290e+03
2.891485588509485297e+03
1.431956628853169605e+03
-1.028741950647501397e+02
-8.559725165885905653e+02
-1.971455341660668410e+03
-3.699232718266458505e+03
-4.560346654170086367e+03
-4.830803971030334651e+03
-4.615580985523090021e+03
-4.325612302408581854e+03
-3.225809335863144042e+03
-1.596081980859921032e+03
-2.503879482690250882e+02
4.603888553798389580e+02
9.042854734975841211e+02
1.841372725804327729e+03
2.614805152520463253e+03
3.020666319381242829e+03
1.381984258491110268e+03
-2.675190408540524004e+03
-6.616760486084124750e+03
-3.442720701443218331e+03
-6.751296060238491009e+03
-3.953535158839000815e+03
-3.122334250084674295e+03
-9.531651464451075299e+03
-1.320532936001096277e+04
-1.291759736348296974e+04
-1.199518706683293749e+04
-1.156235242634051428e+04
-1.056091710906369553e+04
-8.996757076977055476e+03
-7.525796382041182369e+03
-6.105858526491359044e+03
-4.629787492693212698e+03
-3.566578635410650804e+03
3.878551894814684715e+02
3.363592905624862397e+03
1.958606081475125393e+03
-1.367074667463555215e+03
2.677500660505969790e+03
3.502195035288202234e+03
2.236025627333193370e+03
1.195092381788143484e+03
1.804544287999701453e+02
-1.047864629204299945e+03
-1.606872629541960350e+03
-2.043533886550179659e+03
-2.106894112004348699e+03
-1.882079962122185634e+03
-8.211499261777584024e+02
8.029710598563540316e+02
2.111420318547260194e+03
3.664341744727508285e+03
5.318882476133034288e+03
6.450083609008330313e+03
7.144048560927723884e+03
7.405961653854264114e+03
7.588828169668439841e+03
6.935657969026999126e+03
5.713296443838845335e+03
4.825582955821003452e+03
3.653478090498702841e+03
2.343987037644815700e+03
9.000835475679464253e+02
-8.321971474767525478e+01
-7.909648459958159492e+02
-1.136146662738051191e+03
-1.053909456079421261e+03
-2.791348664082551636e+02
5.050844970120816697e+02
1.733804550059479197e+03
3.179232467831912800e+03
4.455379118033909435e+03
5.795197609174231729e+03
6.864665018230581154e+03
7.574932438979548351e+03
7.848003507558975798e+03
8.322758308879172546e+03
8.293180979663742619e+03
7.233437953697683952e+03
6.079630042413367846e+03
4.292815104784289360e+03
2.452720849356591316e+03
5.129640947608068018e+02
-1.549667252203563066e+03
-1.713818196160240632e+03
-2.111425032744124110e+03
-3.920520937185314779e+03
-2.620178966359629158e+03
-1.324349278657265813e+03
-2.300035116656839023e+02
8.687173321731786473e+02
1.693724864228945080e+03
2.887810161573319874e+03
5.080815047072365815e+03
6.231999583900143989e+03
6.517382803951067217e+03
6.336866120274454261e+03
5.430439794302255905e+03
3.814035227496352036e+03
2.902502611645592879e+03
1.760744421515685644e+03
-1.934311361419460127e+02
-1.839172122024365763e+03
-3.528521240360995762e+03
-4.764563100132572799e+03
-5.112399371438456001e+03
-4.776018560280932434e+03
-3.877373314702383141e+03
-2.903711290366105459e+03
-1.787125486021985125e+03
-2.445267337032998114e+02
1.207210620367359297e+03
2.675012493468484081e+03
4.270096988968509322e+03
5.022432186525415091e+03
4.876002589156393697e+03
4.706811572078691825e+03
4.316626230172964824e+03
3.869379981868544746e+03
2.764064214704030292e+03
1.047386326056431926e+03
-7.338541222524515888e+02
-2.587771351491173391e+03
-3.746541828574909687e+03
-4.199404951675067423e+03
-4.204350498208808858e+03
-4.631308578328860676e+03
-4.037358608589975574e+03
-3.086597667318730601e+03
-2.306014631500368978e+03
-1.370735019640833343e+03
9.235265667013278801e+01
1.552564550714349707e+03
2.826180877871111988e+03
3.780241063782670153e+03
4.347366721068488005e+03
4.219965026203755770e+03
3.604226243040793179e+03
2.455194824756943490e+03
1.100684581192479754e+03
-4.430754826460546383e+02
-1.933110665837343959e+03
-3.542833018796177839e+03
-4.983519593025697759e+03
-5.177250252758071838e+03
-5.425096657501523623e+03
-5.673149376793041483e+03
-5.644188295159937297e+03
-4.268068511656448209e+03
-2.544125033677110878e+03
-1.255538602651045494e+03
-1.178128035947161152e+03
-4.132756118740858255e+02
2.237846391265976763e+03
2.993299746717359085e+03
3.570947895717806205e+03
3.993463626966319680e+03
3.555314938074327074e+03
2.384485993451076411e+03
1.281813453533737402e+03
-5.487642382447415912e+02
-1.616343431894056948e+03
-2.471310324535291784e+03
-3.612918816536422128e+03
-4.676503104346877990e+03
-4.933102834006079320e+03
-4.796410521795050045e+03
-4.205840140661892292e+03
-3.586011179151617398e+03
-2.504176743165242442e+03
-5.919400086561853414e+02
9.025186897908810124e+02
2.029349506473388146e+03
3.454232582655233273e+03
4.032387108072068713e+03
4.380097714278321291e+03
4.999500345549460690e+03
4.625616376676076470e+03
3.405879861884181537e+03
2.718555439680520976e+03
2.745716477254705751e+03
1.970946701814666540e+03
5.594273895372950847e+02
-3.459915101215663640e+02
-1.389795617043248512e+03
-2.045572295917667589e+03
-2.441337524510202911e+03
-2.114895584085330484e+03
-1.392708330550015262e+03
1.994634931152598369e+02
1.951895544198930793e+03
3.310335334134505956e+03
4.573310120835814814e+03
5.663615027234585796e+03
6.945715885793531925e+03
7.626601639437853009e+03
8.360949542014332110e+03
8.474720496044710671e+03
7.389974591788406542e+03
5.780762440291305211e+03
3.968093978576974223e+03
3.610909386457813980e+03
1.823207476936848025e+03
2.041209831941901598e+02
-9.872614478367855781e+02
-1.725004235924857312e+03
-1.934135097908759690e+03
-1.638798375417513398e+03
-5.510441681943059393e+02
4.951287872989938137e+02
1.744899370383969426e+03
2.997214776411948151e+03
4.170009760138040292e+03
5.772367616835142144e+03
5.056512336792899077e+03
2.303904457022110364e+03
2.162729755472097963e+02
3.406898244740030350e+03
7.239112449935991208e+03
3.484020173178260848e+03
5.371768543406861681e+03
2.966657218766695223e+03
-1.120511728963657561e+03
7.730841827235484516e+02
-4.123402345690143193e+03
-5.876043087202578135e+03
-4.646995555659236743e+03
-1.672103690922896476e+03
5.426703095444084965e+02
1.856361294760162764e+03
2.440452294384571985e+02
2.254894014995705220e+03
-2.090502022983930885e+02
4.993234019721041477e+03
7.589813311001313195e+03
5.760864776016975156e+03
9.118452918491891978e+03
7.665639742293252311e+03
5.926518392343778942e+03
4.911064691683135607e+03
2.917236277359915675e+03
3.641085813907631746e+03
-1.084421586068104261e+03
-4.400194934296578140e+03
-5.240108491351482371e+03
-3.716110783294738667e+03
-1.992032766561938161e+03
-1.517786191385520397e+03
-7.313995758271296381e+02
1.222972279299390834e+02
1.124315870887862047e+03
2.157573312798818279e+03
3.109164011746722736e+03
4.400245285271690591e+03
4.647874456879874742e+03
4.551681254338052895e+03
5.213755016410120334e+03
6.622972788545936965e+03
6.330726119962298071e+03
5.755125434109714661e+03
4.849516702717012777e+03
3.278015197004498532e+03
1.267258923133029612e+03
-8.230318475173494335e+02
-1.772723668448202943e+03
-1.937222729600720868e+03
-2.615053824334407636e+03
-2.657266853895484019e+03
-2.155118248628103629e+03
-1.500841216408285845e+03
-3.928620458469449090e+02
9.657696928811359385e+02
2.004547406070645138e+03
3.471222968847027460e+03
5.563853905590798604e+03
7.418161834548485785e+03
7.363416696541158672e+03
6.833110385715313896e+03
6.004580285069191632e+03
5.527172456666872677e+03
3.736196833018655070e+03
-1.306799928292586230e+02
2.165147352193014569e+02
-1.156089859203352717e+03
-2.695066895622855554e+03
-3.719788004962854302e+03
-4.455561008124449472e+03
-3.739363281023329819e+03
-1.916830708974221579e+03
-5.439302927607909623e+02
1.446169585025947754e+03
4.121830812770301236e+03
5.991638337499889531e+03
7.284534489822312025e+03
8.039228742273719945e+03
7.653649783691716948e+03
6.327965652285712167e+03
5.441678545230756754e+03
5.383255415780166004e+03
5.266351369930496730e+03
5.580792025348109746e+03
6.215218418366921469e+03
6.434166259244198955e+03
4.844362398311783181e+03
2.290642406625460353e+03
2.817646581082918260e+02
-1.030471765695262548e+03
-1.819215031750056369e+03
-1.727602213713983247e+03
-1.938714045669332336e+03
-1.292625478543249528e+03
1.071546984093971560e+03
3.755756136212879483e+03
6.917945089631409246e+03
9.158185703019918947e+03
9.630498442881385927e+03
9.317899861549676643e+03
8.485495431111112339e+03
7.313428071574978276e+03
6.770943011099726391e+03
5.845200822598117156e+03
3.312365832338216933e+03
-5.063690772906101074e+02
-2.429760728362474765e+03
-4.320557670021430567e+03
-5.746521651799795109e+03
-5.472338195846996314e+03
-4.164531341380557933e+03
-2.599666203163919818e+03
-2.205414769837832409e+03
-1.451281389014778142e+03
1.053831432858927286e+02
8.782073593242591869e+02
1.101816887149843751e+03
2.206874581716401281e+03
3.259117860335515616e+03
3.600308690717373793e+03
1.683203973831026815e+03
-2.433403588807895176e+03
-9.281714274824984386e+03
-1.326103381409469148e+04
-1.568779870215047777e+04
-1.693711543533119766e+04
-1.886090968824786978e+04
-2.011655643117532236e+04
-2.055235062569115325e+04
-1.647641171997238052e+04
-1.347992095400408652e+04
-1.337181141577327435e+04
-1.480306646070416900e+04
-1.385690987583959213e+04
-1.212533213965427785e+04
-1.070625478805381317e+04
-9.130799084743168351e+03
-7.581089188365806876e+03
-6.707133386267105379e+03
-5.803977626265204890e+03
-6.299678450133579645e+03
-8.111209302255221701e+03
-9.226728487485337610e+03
-1.090437611500111598e+04
-1.396031417742616395e+04
-1.609179041975425389e+04
-1.671400229274820595e+04
-1.957820367758589782e+04
-2.324663588263831116e+04
-2.570439807742940320e+04
-2.651979590702958376e+04
-2.777226501791770352e+04
-2.699219457835142384e+04
-2.521388233279981796e+04
-2.186351331907427084e+04
-1.873234254068786322e+04
-1.706971440525173966e+04
-1.468694633902879468e+04
-1.164045414763515873e+04
-1.035663533756728248e+04
-9.759879869647653322e+03
-9.812563537957681547e+03
-1.101416747461361228e+04
-1.449539632984727359e+04
-1.745892673555367219e+04
-1.832949515662990962e+04
-2.026476109856495168e+04
-2.302749168984555945e+04
-2.524043879858628861e+04
-2.899233847816176785e+04
-3.207803020505784662e+04
-3.100139456985367360e+04
-2.499335751307898317e+04
-1.719178884456279047e+04
-1.287570202071645690e+04
-1.564205320180116723e+04
-1.508475431140050023e+04
-1.380685578692931449e+04
-1.463742138427034843e+04
-1.146464105216978533e+04
-6.662733760106028967e+03
-5.157957020002167155e+03
-6.570144810035228147e+03
-8.144277076938581558e+03
-1.012637398714033407e+04
-1.310801666376341200e+04
-1.326765486598857206e+04
-1.081990851517261945e+04
-1.139550411228947632e+04
-1.514110782313964228e+04
-1.918044420591455128e+04
-1.719417412928743579e+04
-1.408496235399585930e+04
-1.083589327518673599e+04
-7.350715286368804300e+03
-5.876257253648284859e+03
-5.301543509021968021e+03
-3.925509943540378117e+03
-1.563049292151774807e+03
4.117703844934044355e+03
1.127761089231233382e+04
1.784652023336742786e+04
2.000219386081919947e+04
1.690830443509115139e+04
1.554255063218130454e+04
1.511858044819740098e+04
1.411087530308596251e+04
1.235489964507348122e+04
1.249010550998406870e+04
1.311394080612612743e+04
1.432986996307999470e+04
1.583732708002754953e+04
1.728467355453576238e+04
1.873232404538989795e+04
2.317572782608865964e+04
2.831427438096888000e+04
3.215927429491710791e+04
3.510308164015370130e+04
3.552707053107212414e+04
3.554650989548805228e+04
3.540763757203405839e+04
3.649172419156097021e+04
3.857803772320813732e+04
3.957779179245271371e+04
4.024714693061632715e+04
4.093321186591884180e+04
3.935911883866367862e+04
3.729396195848480420e+04
3.337281840537893004e+04
3.341082699733664049e+04
3.806814291014758783e+04
4.140290106571386423e+04
4.538328860789185273e+04
4.960158629604618181e+04
5.299498583182613220e+04
5.543477572404731472e+04
5.685813326484455320e+04
5.831536775295082043e+04
5.984889884260614053e+04
6.067913262180679885e+04
6.066154645484538923e+04
6.022035598109782586e+04
6.108510770131838217e+04
6.338523045976887079e+04
6.551013516753011208e+04
6.778925412756098376e+04
6.815300958456535591e+04
6.749191247023707547e+04
6.659950307294528466e+04
6.647833690676391416e+04
6.450211574746806582e+04
5.968159759884604136e+04
5.257449240762257250e+04
4.508364662214622513e+04
3.835514557641121064e+04
2.220605933638516581e+04
7.543579079382864620e+03
7.560419047115368812e+03
7.647795900359529696e+03
8.486091249339708156e+03
1.250997478165247776e+04
1.483132920214679689e+04
1.482452699158298128e+04
1.634469360790498104e+04
1.742468564004591462e+04
1.590902427113517660e+04
1.519979641019787232e+04
1.413543664515552700e+04
1.292952293799478684e+04
1.228036929861290992e+04
1.221787049006050438e+04
1.203143351390758835e+04
1.110771819343060270e+04
9.201505338494134776e+03
7.762781616107731679e+03
7.128047159940352685e+03
6.445396393136902589e+03
5.304541241214858019e+03
2.804039237505839537e+03
-8.873473617130231332e+02
-5.431020864375348538e+03
-1.170198492939771677e+04
-1.852279308228190348e+04
-2.534845539071799431e+04
-3.279175289516490739e+04
-3.936669942287841695e+04
-4.608427133533178858e+04
-5.510449836528635933e+04
-6.451645716514046944e+04
-7.666584578898893960e+04
-9.330745065464259824e+04
-1.145599030870715360e+05
-1.406388093224268232e+05
-1.754727148302277492e+05
-2.125180581944185251e+05
-2.165652574329941417e+05
-2.099806526816312398e+05
-2.102576144963596307e+05
-2.099221829095773573e+05
-2.055655523060702835e+05
-1.974378603117766324e+05
-1.913401434099405888e+05
-1.864233031181324332e+05
-1.771142931175587582e+05
-1.688772169519029267e+05
-1.637140561224367993e+05
-1.562446186020419991e+05
-1.491867989884238923e+05
-1.418483852784526243e+05
-1.359120958017461526e+05
-1.267547995560759009e+05
-1.203032654844629869e+05
-1.156830695004882582e+05
-1.098668338139018742e+05
-1.047182765643612220e+05
-9.779703332228939689e+04
-8.587550905379775213e+04
-6.989616775729520305e+04
-5.697643391182469350e+04
-4.105894895868060121e+04
-1.972117360418692624e+04
1.085595693348968780e+03
2.059261679652430030e+04
4.172448282566640410e+04
5.453371356383267994e+04
5.767979551855253521e+04
6.726414570641443424e+04
7.553409367551638570e+04
7.730395984715348459e+04
8.178715533146058442e+04
8.697906740897627606e+04
9.215999709236084891e+04
9.780943400009871402e+04
1.024339146761126758e+05
1.056138321288508596e+05
1.135865807864169328e+05
1.183326014959074964e+05
1.206161504490143561e+05
1.221404595898404368e+05
1.247348108337667654e+05
1.269083446341228409e+05
1.262741507128904050e+05
1.249563542686718720e+05
1.241231659803130169e+05
1.233316410056268214e+05
1.228326546324936353e+05
1.222461313961245469e+05
1.220599188533731503e+05
1.228277207646775205e+05
1.238473044964046567e+05
1.242343760201178229e+05
1.243904440974418685e+05
1.241170398333831981e+05
1.238585843171157758e+05
1.226276063409351045e+05
1.207436242961749376e+05
1.182760765783893585e+05
1.153552757036583353e+05
1.129645227180262737e+05
1.103879873700738390e+05
1.071587076465051068e+05
1.033237787946016906e+05
9.925520561229312443e+04
9.508880036588173243e+04
8.951940106435165217e+04
8.340964355921713286e+04
7.841098314991040388e+04
7.340586110739769356e+04
6.665268704846649780e+04
5.927197181523945619e+04
5.273595501087260345e+04
4.638275376300916105e+04
4.053548621639597695e+04
3.466033288939749764e+04
2.864562740390930048e+04
2.336655200090083963e+04
1.790147934816409179e+04
1.296489490128857869e+04
8.436803689775721068e+03
2.522183708191890219e+03
-4.836528584633265382e+03
-1.169483434439011035e+04
-1.711542174412252280e+04
-2.211085824536813379e+04
-2.874087237656706202e+04
-3.541924536630512011e+04
-4.311610424482248345e+04
-4.905812885702910717e+04
-5.290451523568008270e+04
-5.682212146525035496e+04
-5.989428847645868518e+04
-6.106027218790028564e+04
-6.253623750332531927e+04
-6.501347428644498723e+04
-6.733428894903679611e+04
-6.840898833943600766e+04
-6.902494902031961828e+04
-6.861854885932263278e+04
-6.835115168078170973e+04
-6.828931540024044807e+04
-6.809559879539160465e+04
-6.818952650347216695e+04
-6.779078471766955045e+04
-6.740222100755493739e+04
-6.715441334606270539e+04
-6.470104518792795716e+04
-6.181603249910154409e+04
-6.061826951029263000e+04
-6.059162421293460648e+04
-6.034820368619521469e+04
-5.911704435659763840e+04
-5.767126700703834649e+04
-5.607985903000460530e+04
-5.381876693945300940e+04
-5.162612269499953254e+04
-4.966306174141083466e+04
-4.761442727045555512e+04
-4.427922551600208681e+04
-4.039153989430267393e+04
-3.763028611672647094e+04
-3.520526684812018357e+04
-3.372953097179324686e+04
-3.284628564130805898e+04
-3.206154321346349388e+04
-3.121030334741652769e+04
-3.008062477700744421e+04
-2.919642301304392095e+04
-2.814469692602733994e+04
-2.750578544265641904e+04
-2.623116742631513262e+04
-2.588811550194359370e+04
-2.548743381787363614e+04
-2.425050880386723293e+04
-2.327548564715057364e+04
-2.239025945022448286e+04
-2.255952612798793052e+04
-2.390644625080980404e+04
-2.643207905641998877e+04
-2.375005372058491412e+04
-1.537583364137550052e+04
-1.278203160856581962e+04
-1.181930953180035976e+04
-1.027823004360498089e+04
-9.436600234636849564e+03
-8.906242169618053595e+03
-8.090497283081571368e+03
-7.997587871255661412e+03
-8.365889389993599252e+03
-6.600070632222524182e+03
-5.807740293614804614e+03
-4.993550060430989106e+03
-3.004593383514512425e+03
-1.725736495752880273e+03
-3.601749707125035798e+02
2.332815127071929510e+03
4.668411943663261809e+03
6.123891007132916457e+03
8.613351381773267349e+03
1.132750776094659341e+04
1.305313775043317582e+04
1.487356394187522164e+04
1.763580416171508477e+04
1.944105757696299770e+04
2.049696090841738624e+04
2.049810446822489394e+04
2.013069071967843774e+04
2.061804746395222537e+04
2.084484397278188408e+04
2.001924322989607754e+04
1.977021216821313283e+04
1.976660059541430746e+04
2.010961711046208438e+04
2.066927351236574032e+04
2.091418538142643229e+04
2.124220556695715277e+04
2.194733087358549164e+04
2.334604253381044691e+04
2.461152086459238853e+04
2.584786388638390781e+04
2.772782646466173537e+04
2.913646514228102751e+04
2.993939555190546889e+04
3.034668924836682345e+04
3.041417458314051328e+04
2.960177522782161032e+04
2.927533429827934015e+04
2.911029960882198793e+04
2.809361694009413623e+04
2.688961477150122300e+04
2.654906092226614055e+04
2.626105386765947333e+04
2.629548376967975855e+04
2.554104838669363380e+04
2.458436645880446304e+04
2.376226548651629128e+04
2.311348584375125938e+04
2.366882661274664133e+04
2.365716299120178155e+04
2.408938141209719106e+04
2.458621554182920227e+04
2.484140614230517531e+04
2.477886840626356934e+04
2.386848936591820893e+04
2.273730947755344823e+04
2.168839642964076120e+04
1.949664065532298991e+04
1.762490393505490647e+04
1.611333207295626926e+04
1.353718658811722889e+04
1.148876892931015391e+04
9.446331786942091640e+03
6.066933260719291866e+03
4.852534469102262847e+03
4.806397646660972896e+03
8.439601560986940967e+03
7.922182254510546954e+03
5.524105979667264364e+03
6.499068918781426873e+03
5.517123273839266403e+03
6.900476443480007219e+03
6.429963404903180162e+03
8.531488195122634352e+03
7.350202767976265932e+03
5.332005321848934727e+03
5.668799895983316901e+02
1.652760347509331723e+03
2.085306033871338229e+02
-5.154964330489151507e+03
-7.604882018998472631e+03
-5.864245311700256025e+03
-7.747033476197022537e+03
-1.100442019040287778e+04
-1.195561370892757986e+04
-1.329474195834619786e+04
-1.405690886615672389e+04
-1.084922372173750955e+04
-7.926788588191463532e+03
-1.079269458718709211e+04
-1.060291260193729613e+04
-6.917559332311806429e+03
-9.272861108245038849e+03
-8.561011610786654273e+03
-6.424370087528641307e+03
-6.064230988476426319e+03
-8.068753752716048439e+03
-8.782235684368055445e+03
-9.989737731230445206e+03
-1.063217402808067527e+04
-1.126742136097789262e+04
-1.141422634763892165e+04
-1.196692322042655360e+04
-1.305527273386971865e+04
-1.324718661419205273e+04
-1.337133758754698465e+04
-1.231697837132846689e+04
-1.148589592793449083e+04
-1.102930666031303917e+04
-1.085245744830400508e+04
-9.667176533239156925e+03
-8.287396642016788974e+03
-7.963573925429048359e+03
-7.964789532829755444e+03
-7.891961520177532293e+03
-8.253539440949152777e+03
-8.090688291808253780e+03
-7.089580338237617070e+03
-7.286952107415447244e+03
-8.169265701628692113e+03
-8.201459306336593727e+03
-7.342590277856947068e+03
-6.728144810735912870e+03
-6.489216729016729005e+03
-5.882085612993979339e+03
-4.640405761238206651e+03
-2.108998136866418008e+03
-5.187803649704416102e+02
3.227506905796396381e+02
1.132980287510249809e+03
2.824272861613955229e+03
4.153746397862855702e+03
5.442839137410394869e+03
7.080793491686516063e+03
8.098565812074777568e+03
8.734519612200334450e+03
8.870599505940010204e+03
8.172054623224867100e+03
7.481425618144957298e+03
6.025332720598807100e+03
4.882522724735616066e+03
5.192681290901678040e+03
5.490636253321582444e+03
5.231316584601285285e+03
5.272413414419085711e+03
4.949803728669784505e+03
4.932242632116769528e+03
5.677576700189069015e+03
6.506582450901081756e+03
7.273150114035999650e+03
8.245390266526210326e+03
9.467207649770467469e+03
9.961438399284690604e+03
9.246985484589518819e+03
8.799687022341440752e+03
8.318370276316214586e+03
7.078807782479861089e+03
5.324760193623334999e+03
4.239056739766253486e+03
3.335500311322668040e+03
2.561974736741241941e+03
1.509428415243356312e+03
9.037384335096551240e+02
2.658399545873142529e+02
9.973226679752262669e+01
-2.266363766329031364e+02
1.497451617221443030e+02
1.685832841959035250e+03
2.698595114254503187e+03
3.224048417617603263e+03
2.781179893144594644e+03
3.072009156897013781e+03
3.945512478696665312e+03
4.261755143553719790e+03
4.031744745266173140e+03
3.622314836971861041e+03
2.897410097939934076e+03
2.563070524843154544e+03
1.452251460763891146e+03
-7.121004905551588990e+02
-4.988016227991740379e+03
-9.965596657086298364e+03
-1.082775005151015648e+04
-8.432476312766028059e+03
-1.357199356478201480e+04
-1.322335362202615397e+04
-1.235355830811764099e+04
-1.145358543811863819e+04
-1.094336787494075543e+04
-9.762788269587232207e+03
-9.422786607883965189e+03
-9.400475321533131137e+03
-9.602024250590635347e+03
-9.463331336573604858e+03
-7.952487863537940029e+03
-2.986506385176392541e+03
-2.898633133824273045e+03
-2.355203418554302061e+03
-2.817305909412470555e+03
-3.808142231138142961e+03
-4.491054016342922296e+03
-5.287162800146791596e+03
-5.869525580043211448e+03
-6.261244439840293126e+03
-5.968548229724137855e+03
-5.920630880232927666e+03
-5.582677009314897077e+03
-4.815791467903183730e+03
-4.254052070825482588e+03
-4.037598967263892973e+03
-3.451555863654814402e+03
-3.133131776523124699e+03
-3.042516093063948574e+03
-3.079955633358127670e+03
-3.832939332870100316e+03
-3.791415179675127547e+03
-4.101269084285480858e+03
-4.925187340010828848e+03
-5.750203475444280230e+03
-6.465265193627908957e+03
-6.650575222722697617e+03
-6.997322590371839397e+03
-7.682439338497468270e+03
-8.540065010140684535e+03
-8.114616472752186382e+03
-7.440276685928098232e+03
-7.643333719691318947e+03
-7.281913019193493710e+03
-6.277932236435838604e+03
-5.086417615858824320e+03
-3.770338768158937910e+03
-2.915766060839051988e+03
-2.548745248079089833e+03
-2.235392613092883039e+03
-2.544818568993754525e+03
-2.637005827641711676e+03
-2.900081443832534660e+03
-3.428116038322240911e+03
-4.144193401554444790e+03
-4.854297853069562734e+03
-5.473489286193518637e+03
-6.139938187396192916e+03
-5.916582825377597146e+03
-5.449336182323309004e+03
-4.633111507056344635e+03
-4.195768507596656491e+03
-4.305114856317828526e+03
-3.681440078992451618e+03
-2.107172177717829072e+03
-8.949333151638643358e+02
-1.015346101063284578e+02
6.619861883634762307e+02
1.165747205878149089e+03
1.288793648731384110e+03
9.522442528332792335e+02
-7.983566578594306407e+01
1.158609973133890207e+03
1.020462508172356138e+03
-3.200204484403974675e+03
-5.051348813993690783e+03
-4.046945135746407232e+03
-4.085894434384646956e+03
-5.465153235945268534e+03
-2.121738649494855053e+03
-3.399552244845883706e+03
-6.804559850196104662e+02
-1.494438792822918685e+03
2.862665875207233512e+03
4.028058301308864429e+03
3.274896046551911240e+03
1.444269455464798511e+03
2.215374103224609826e+03
4.545359090771796218e+03
5.635328301546981493e+03
4.954462311751131892e+03
6.538820665369016751e+03
2.594531945451219599e+03
2.193768080791036027e+03
3.972640477043075862e+03
2.245273198474098535e+03
4.982716141919484471e+03
4.529013251326729005e+03
2.786321932851236852e+03
-1.647160604103470632e+03
-1.158311057129738856e+03
7.959481510713277430e+02
4.530804354848485673e+03
4.932491382756840721e+03
2.367183941007599969e+03
4.207041682315046273e+03
3.451256138378626929e+03
6.945007113855621355e+03
3.617432921187458305e+03
2.506736911665066600e+03
4.901933530071779387e+03
5.961119794651219308e+03
4.046451487016724968e+03
6.374075104930421730e+03
3.453053042667899717e+03
3.573465283374324827e+03
3.894378431201580952e+03
2.465954989507924893e+03
2.461297263896339246e+03
2.666545869839319494e+03
2.622801678939241356e+03
2.604152843010350352e+03
2.731748136466906999e+03
2.587805909978506861e+03
2.446375873029925970e+03
2.925532446447783968e+03
3.892454835193563213e+03
4.861337605063156843e+03
6.593275455655514634e+03
7.227388687616765310e+03
7.068782817068285112e+03
6.733481730473220523e+03
5.897503402051151170e+03
4.771935248674479226e+03
4.280726012256141075e+03
3.089364883364772595e+03
1.319564401494088770e+03
-1.295737563238577934e+02
-9.511481361737678526e+02
-1.329642838706741713e+03
-1.232375914131808486e+03
-1.077237426333159647e+03
-9.435245976401871530e+02
1.870558308690077354e+02
1.513096929709982760e+03
2.123018655469696569e+03
2.647621785706509399e+03
3.097119567971803917e+03
3.615689268145036749e+03
3.823183981635992041e+03
3.950427421887946366e+03
3.797577455175251544e+03
2.698997780772186616e+03
1.735245035859444215e+03
1.277866459365527362e+03
4.418902679281274004e+02
-5.621115341306568780e+02
-1.200598346218738925e+03
-1.283808568383028387e+03
-1.747843116399528299e+03
-2.488743280533041343e+03
-3.025962178017668521e+03
-2.570678541627627055e+03
-1.602554972877521550e+03
-6.587035482077491224e+02
3.353291495081994071e+02
1.096927134856469820e+03
1.868334366909742585e+03
2.205527307413948165e+03
2.153540145467833099e+03
2.357192860781380205e+03
2.414399954707612778e+03
1.816903166373698241e+03
1.155551127621673459e+03
5.251546878471434638e+02
1.486603328049423283e+02
-6.820006789146148094e+02
-2.416072673303974625e+03
-3.523651869343847920e+03
-3.709859637838196250e+03
-4.061813336713111312e+03
-3.854600362665069042e+03
-2.833176315123928362e+03
-1.505646300988669509e+03
-3.251197216010942839e+02
6.994184552525924801e+02
1.258943463347956367e+03
-3.236103897323649221e+02
-3.099335895279882152e+03
-6.556402318070186084e+03
-6.356997589567980867e+03
-6.326096655469754296e+03
-5.307779916665359451e+03
-4.250208146326382121e+03
-5.904543558656678215e+03
-7.174903763576873644e+03
-7.553429755144504270e+03
-7.427364418716329965e+03
-8.720734238846931476e+03
-6.468578973227114147e+03
-1.129021932832490620e+03
-4.203052059453168113e+03
-9.896735756505460813e+03
-9.078147311876540698e+03
-6.462252936532515378e+03
-2.096091953369249495e+03
-3.951716608611900028e+03
-4.610149294649095282e+03
-3.234313574017244264e+03
-1.832179952130947186e+03
-8.007567133952911718e+02
-8.230295390850266131e+02
-1.048981951460870278e+03
-1.817691569651693044e+03
-2.997309119980593096e+03
-4.078870745812910172e+03
-8.604615029397168655e+02
1.716811686596187656e+03
1.669011536288162915e+03
1.026168531312391224e+03
7.222754208846563415e+02
9.194126926285996433e+02
1.791665526452782160e+03
2.425999821862463250e+03
3.069444488198857016e+03
4.302077706381715871e+03
5.699073521535050531e+03
6.756520825113496358e+03
7.177499007448469456e+03
7.434130612134436888e+03
7.854505097854374981e+03
7.002593905339060257e+03
5.997403174581862913e+03
5.394979954535968318e+03
4.688363607726286318e+03
3.400456703801044569e+03
2.405277486830873386e+03
9.128103057279571431e+02
-3.158582220443792608e+02
-8.806328857671069272e+02
-1.171565859776692378e+03
-1.060609396827837600e+03
-9.906328063414296139e+02
-1.794553825454053424e+02
1.082080047303195443e+03
2.544052874904828059e+03
4.147601551984758771e+03
5.387877448662453389e+03
6.715986905283028136e+03
7.331031837339451158e+03
6.729023008915514765e+03
6.176060573085936085e+03
5.446181728002601631e+03
3.952574643002505127e+03
3.797403787609434858e+03
3.904850393316885402e+03
2.248736930388896326e+03
-2.053053917063633094e+02
-2.076500813768717762e+03
-2.817916510001749884e+03
-3.621236224691628195e+03
-4.232677311650023512e+03
-3.307369424858371076e+03
