6.381778305861646913e+03
6.662441086162521060e+03
6.468385333139010072e+03
6.490461060748204545e+03
6.675709931833579503e+03
6.235308259756023290e+03
6.096188922734885637e+03
6.210408235999678254e+03
5.655034172550474068e+03
5.365119138287079295e+03
5.675672599622972484e+03
5.456731567135514524e+03
4.882344968272187543e+03
3.144597118322236838e+03
9.155006265793799685e+02
-5.989686291893001453e+02
-8.137714249203672807e+02
-1.031832927001845519e+03
-1.094160824588303285e+03
-1.536748158484110263e+03
-1.524529526351252343e+03
1.133518439076620780e+03
2.482399908097584103e+03
2.099140786261773428e+03
1.725776017237402584e+03
1.569302884718349105e+03
1.231776145808790488e+03
9.792037108212833800e+02
3.875980551459375647e+02
1.909756245787985165e+02
1.503887690606763954e+02
-9.414131005343288905e+01
-7.696078538716831190e+02
-1.397984913412989499e+03
-1.406301500482179790e+03
-1.774555516802873171e+03
-2.125685576821609629e+03
-2.283688677954857667e+03
-2.626557299739040900e+03
-5.595242904418585567e+03
-5.198714932880358901e+03
-6.127965939192340556e+03
-3.818028068316501503e+03
-2.950874895499210197e+03
-3.428423389423776825e+03
-4.206666187261747837e+03
-5.191586074216940688e+03
-4.448101514372078782e+03
-5.214183872248911939e+03
-4.810919785146386857e+03
-4.271295163246421907e+03
-5.387946682092458104e+03
-5.061831126026675520e+03
-4.887661927595459019e+03
-4.781739646714548144e+03
-4.697988174118519964e+03
-4.620322502839843764e+03
-4.720810428348641835e+03
-4.532401149091357183e+03
-4.470247303963713421e+03
-4.390386975286874986e+03
-4.336616217529027381e+03
-4.564879539251771348e+03
-4.557011687286699271e+03
-4.477566867508520772e+03
-4.442281117211015953e+03
-4.363699871093557704e+03
-4.108626277283092350e+03
-3.783270737967692185e+03
-3.742430094842167819e+03
-3.725765379229992050e+03
-3.464757910453885870e+03
-3.007172879378630569e+03
-2.676983377594075591e+03
-2.449983579420377737e+03
-2.236928131842225412e+03
-2.122710754836318301e+03
-1.688450780882219306e+03
-1.639234282491631802e+03
-1.442724903547855774e+03
-1.258495856229698120e+03
-9.950794598707234400e+02
-7.023849986002852575e+02
-4.792966968462915816e+02
-1.604815087660909683e+02
9.824983060157282466e+01
3.530652660159095149e+02
4.521864109782394507e+02
2.757887330300691815e+02
1.074964947356733546e+03
1.615694858420062246e+03
1.991742757243904634e+03
2.414205439871142062e+03
2.498358194261815697e+03
2.585351874460822273e+03
2.550388527220946344e+03
2.714672236315643659e+03
3.046227523778774412e+03
3.305311352937920674e+03
3.394906681382707120e+03
3.839752608585360576e+03
4.207835461775918702e+03
3.086266003330953481e+03
7.023005476138588392e+02
-2.466783562275525128e+03
-2.774720037171563035e+03
-2.876363017920769835e+03
-2.764725071278338419e+03
-2.261814959915747750e+03
-2.243709010672880595e+03
-1.825235841581870773e+03
-1.992944214710870256e+03
-1.037570456761417063e+03
-2.401923690511172254e+02
2.308219367238010364e+03
-1.541269412787218016e+03
-2.255494423229272343e+03
-2.001575253661839497e+03
-4.503046340560520093e+02
1.015470601780047787e+03
-1.831802566404895742e+03
-2.363026035259899345e+03
-2.268992039473918339e+03
-2.602631323778116894e+03
-2.329038518816612395e+03
-2.298364834571910251e+03
-2.558694001363066036e+03
-2.622600943346030363e+03
-2.889411713721876367e+03
-2.394089941622959032e+03
1.719112552186104722e+03
8.992565906292795717e+02
-2.960528827661429659e+03
-1.383415205712283068e+03
1.850232463252784100e+03
2.782130949953256277e+03
1.242948549077662165e+03
1.424889192440040915e+03
2.798428455160665180e+03
3.634138888287759528e+03
3.500466209315632568e+03
2.828733512558073471e+03
2.511033518662086408e+03
2.547908562726513082e+03
2.647995008737740136e+03
2.403717285243074002e+03
2.413554429331127267e+03
2.127573757940682299e+03
1.625930638946653971e+03
1.577527794882863418e+03
1.648693172975717516e+03
1.655805971136954895e+03
1.609294565861032197e+03
1.407365890217436117e+03
1.510579651290598804e+03
1.634567556494367182e+03
1.492126331554587978e+03
1.418365593390597951e+03
1.324203783658223756e+03
1.345454182729413105e+03
1.074722232533247961e+03
8.271290673016949313e+02
8.768989114221856198e+02
6.894492035501090186e+02
9.608082784185631908e+02
9.837285886576429448e+02
9.017223106036561830e+02
7.134945532679103053e+02
9.940008266579740166e+02
1.232547047233805188e+03
9.412601072782792926e+02
1.025333770074771110e+03
1.443209860688092931e+03
1.120997322511323773e+03
1.213896399935540558e+03
1.351153748683270805e+03
6.888074996876367777e+02
-9.325255373870897984e+02
-2.479499927344186005e+02
1.107429401433825433e+03
1.565273879763929926e+03
1.605317056341967827e+03
1.702494825451027509e+03
2.053473250199845097e+03
1.910351617948729654e+03
1.421056433094614704e+03
1.741701207877997149e+03
1.653914801377355161e+03
1.408234618534839456e+03
1.606665857018462020e+03
1.635280844591391087e+03
1.488164737216423191e+03
1.545592091604045663e+03
1.553524017219819370e+03
1.112184601889562373e+03
8.248712711629889327e+02
7.246651396919598938e+02
3.785517034062269204e+02
4.021465519462601605e+02
3.260024402086872328e+02
3.235170571707362228e+02
3.341765821655288278e+02
5.555380580811669944e+01
2.291303412731902256e+01
-1.340031638921866772e+02
-1.997112759383263096e+02
-1.582640283567418464e+02
-2.213124513339121791e+02
-2.622266927054761254e+02
-3.502340103839558196e+02
-3.047459703069503689e+02
-5.380458640312766647e+02
-8.954991155840575630e+02
-7.984651264940864621e+02
-7.335100038456837410e+02
-8.034964982781864364e+02
-1.123819013335685895e+03
-1.547247269501817527e+03
-1.402219030151454717e+03
-1.071914357494084470e+03
-1.114914192935723349e+03
-1.480027926097345244e+03
-1.610913026972212037e+03
-2.038572809641795402e+03
-2.161068146445321872e+03
-2.447725027228477302e+03
-2.561182914221404644e+03
-2.239170326535173444e+03
-2.161517338592977922e+03
-2.888964975269580009e+03
-3.989305243796231480e+03
-2.808350012709816383e+03
-2.550731358577957508e+03
-4.311981071603455348e+03
-8.114409962080879268e+03
-4.202476856614809549e+03
-3.120349265461222785e+03
-2.583681373374932718e+03
-2.173339532426559344e+03
-2.486243869521765191e+03
-2.766679027012738061e+03
-2.934533810153660852e+03
-5.189260500859636522e+03
-3.950917558969140373e+03
-2.547742634887231816e+03
-2.832217772526017598e+03
-2.522790633611396515e+03
-2.570815776279670445e+03
-2.448349515123195033e+03
-3.173914126804162152e+03
-3.320028199431583744e+03
-1.672700592823118768e+03
-1.071903128501498941e+03
-1.009127390717826643e+03
-8.931379367822324866e+02
-2.742520850792345300e+03
-3.997296438765473795e+03
-2.856142721657328366e+03
-6.586137544481370014e+02
-5.768535038325295545e+02
-9.507903206734076775e+02
6.242412788808467639e+01
4.734836212968014735e+01
8.208214210260938160e+01
7.230056274229308428e+02
1.030914830804227677e+03
1.167832770192616636e+03
1.541337098086248716e+03
1.816417410562524310e+03
1.827985147791854615e+03
2.181988792800881129e+03
2.433171279996121939e+03
2.558979681913588138e+03
2.784971315627749846e+03
3.043795875356553552e+03
3.194513624869747218e+03
3.666797914344241235e+03
3.971670777861834722e+03
4.394953889782238548e+03
4.545590200269762136e+03
4.664990135123036453e+03
4.804830234322926117e+03
5.157067146536334803e+03
5.195470850619730300e+03
5.322715954155263717e+03
5.496182940180568039e+03
5.926385846063905774e+03
6.464834813943411973e+03
6.761043161080565369e+03
7.157798062773677884e+03
7.233472925604565717e+03
7.270951885900654815e+03
7.660178635517562725e+03
7.996537243795648465e+03
8.194688348913543450e+03
8.343143776059474476e+03
8.499015765666204970e+03
8.376871331867627305e+03
8.226549720685568900e+03
8.102877979904394124e+03
7.980535686309853190e+03
7.981398307901721637e+03
7.854202288867440984e+03
7.932981343873902006e+03
8.227347782401559016e+03
7.157454175072785802e+03
5.108088473864789194e+03
6.937767555045222252e+03
6.914525344059246891e+03
8.504100536995840230e+03
6.763102083745600794e+03
7.310429752709801505e+03
8.390841661499365728e+03
7.716312423916686384e+03
7.426957098655939262e+03
7.150325674030542359e+03
7.200233778404614895e+03
7.041595791228141934e+03
6.009221285516679018e+03
5.828039682110440481e+03
7.283909023425279884e+03
1.134871486879810982e+04
1.053332996064761755e+04
1.183964625087473541e+04
8.890581590852722002e+03
7.629053439734018866e+03
1.056402596347981489e+04
8.192406864793196291e+03
1.022611395442296634e+04
9.050078721917281655e+03
9.006308081481216504e+03
8.659861950036081907e+03
8.737622415003041169e+03
1.010252357916494293e+04
9.228557011095230337e+03
8.606798845703386178e+03
7.447349873876484708e+03
4.915290283163563799e+03
2.831682108507095109e+03
-9.373902556080342947e+02
-2.417785001771823772e+03
-4.071428702960260580e+03
-4.878159187724009826e+03
-3.966089388029206020e+03
-1.281207710751531522e+03
1.517698427461198662e+03
3.232794906200168043e+03
1.052365453580991925e+03
-1.939371336203319061e+03
-3.497149551192800118e+03
-4.153598857906993544e+03
-3.952400337261307413e+03
-2.494145253533141840e+03
-1.282350040942298392e+03
1.957404972100396435e+03
5.183663712823326932e+03
4.102138864393547919e+03
6.274722386240814558e+02
-3.797627350125285830e+03
-6.981377727427667196e+03
-8.053983071274546091e+03
-7.452530187479761480e+03
-6.065197423933427672e+03
-5.753145533200758109e+03
-6.433703434767271574e+03
-1.047423262948961019e+04
-1.448502155561200925e+04
-1.468349786999656499e+04
-1.242695167805234087e+04
-1.244498133887257245e+04
-1.297001427163461631e+04
-1.407766403988236380e+04
-1.478577372668200951e+04
-1.894789947939198828e+04
-2.376944073357146044e+04
-2.796870142378337187e+04
-3.084835711080125111e+04
-3.031330792563503928e+04
-2.780784014971836950e+04
-2.538239039948838035e+04
-2.520609810761549670e+04
-2.803735257620099219e+04
-3.422751447997469950e+04
-3.741189795097863680e+04
-3.235690469198533901e+04
-2.630291314104630146e+04
-2.331138320152585220e+04
-1.887105190495438728e+04
-1.210898038009191987e+04
-6.882236883868044060e+03
-5.883504238921654178e+03
-9.279647410446443246e+03
-1.912991595973255244e+04
-3.014770136210501005e+04
-3.797867952756105660e+04
-3.948740803154251626e+04
-3.536310703584107250e+04
-2.612374118941777851e+04
-1.325960338847303137e+04
-3.137595562865020838e+03
4.742435455562434072e+03
6.614997405885381340e+03
1.104766981230784950e+03
-5.018711826622817171e+03
-1.017803924805326278e+04
-1.857179954013421593e+04
-2.446860289591534820e+04
-2.655006480099920009e+04
-2.220279827189396383e+04
-1.362143185700286449e+04
-8.494631224313414350e+03
-7.220086068582867483e+03
-7.528574519858831991e+03
-5.556832511994914967e+03
-4.021629825011696994e+03
-4.593771634262623593e+03
-1.048105900840877621e+04
-1.521429233991339061e+04
-1.743535245133685021e+04
-1.339318989953584060e+04
-6.879684724719591941e+03
-1.390781229535713692e+03
-7.544488134040875593e+02
-3.245671728530887322e+03
-5.942479098235542551e+03
-3.901960506078207345e+03
1.685891675234878448e+03
1.269106753609891166e+04
1.810938166711677695e+04
1.170768262553474415e+04
6.298861734499038903e+03
7.154688187436227963e+03
1.080192285487360277e+04
1.426434643114514256e+04
2.154769132957743932e+04
2.725541194711970456e+04
3.078218373206458637e+04
3.313357085674446716e+04
3.708907172850907955e+04
3.870417580909901881e+04
2.931934213722675486e+04
1.766195709623967196e+04
2.060039672683684330e+04
1.999799294144769374e+04
2.868704108778700902e+04
4.221683633085910697e+04
4.762662855336979555e+04
5.473866153826377558e+04
5.939614878515339660e+04
5.226223335886157292e+04
4.659808592604354635e+04
4.479787630017525953e+04
4.560873221427231329e+04
4.772069958449533442e+04
4.449984016935320687e+04
3.441219189853569696e+04
3.088781629317225452e+04
3.417071415148091182e+04
3.503287023389099340e+04
2.863131420873338720e+04
1.633798892199425609e+04
7.670801134601197191e+03
1.116868839665543601e+04
2.232257141593962297e+04
3.307232589530163386e+04
4.470089593723337748e+04
3.970812606013633922e+04
3.061688482597948678e+04
2.919107209558588511e+04
2.302459169217675662e+04
2.180027289025291248e+04
2.337896580474616349e+04
2.069553067058990928e+04
2.104487351276052141e+04
1.584584843887499846e+04
6.837301851625801646e+03
2.114081545965250825e+03
-6.659174518835457093e+02
1.119184791652387958e+03
3.828231374422404770e+03
6.763134443051144444e+03
6.658783341495765853e+03
-2.602924119234860882e+03
-1.080809862954103846e+04
-1.856286820112518762e+04
-2.428329262503035716e+04
-2.843831005882621321e+04
-3.069589928817417604e+04
-2.891324069796764888e+04
-1.888627641247008069e+04
-1.016883013232831581e+04
-5.483621546069564829e+03
-1.557176279275351135e+03
-5.448216632494428268e+03
-8.275622060217328908e+03
-1.079426530281449777e+04
-1.818091383851667706e+04
-2.620946574722739751e+04
-3.066264131948403883e+04
-3.414092959865649755e+04
-2.831033958643982260e+04
-2.453167401549778879e+04
-2.690149477002771528e+04
-2.101855243763669569e+04
-1.286035372117748921e+04
-9.638440231190239501e+03
-1.302920265686402126e+04
-1.638326636323946514e+04
-1.996446920100728676e+04
-3.188411309984765103e+04
-4.279818750277596700e+04
-4.949042442467340879e+04
-5.871471282640921709e+04
-5.063742961681166344e+04
-3.222607359730721146e+04
-2.474794602592421870e+04
-2.744809674975138114e+04
-3.186159759380299511e+04
-2.891762399033780093e+04
-2.205917829743838593e+04
-2.061123452547810302e+04
-2.109683417733251554e+04
-1.964785940218862015e+04
-2.167911932935870209e+04
-2.337750397214181066e+04
-2.567583401654906993e+04
-2.931183437061430595e+04
-2.232123176888264061e+04
-1.911867488418964058e+04
-1.812978653346678766e+04
-1.988219502468481005e+04
-1.885544791899948541e+04
-2.051901728407697738e+04
-1.948848472780235898e+04
-1.484320334988030118e+04
-7.955591370610990452e+03
-6.892724816934235605e+03
-7.672101946370848054e+03
-6.378111530774700441e+03
-5.542075744702450720e+03
-6.373244722628762247e+03
-1.423781868302834664e+04
-2.846900578049592514e+04
-3.649696662669682701e+04
-3.683286711412190925e+04
-3.822981754085345165e+04
-3.178992663647500740e+04
-2.153122523296963118e+04
-6.382730889364281211e+03
7.371521542770986343e+03
8.929536080421541556e+03
6.782328121794247636e+03
5.446980465441692104e+03
4.099569221245179506e+03
1.651241473515463440e+03
3.105188307104642263e+03
2.307401161629444232e+03
1.119174031944937042e+03
-1.734237880958542291e+03
-2.378716809325696431e+03
-3.978130750366592110e+03
-2.577306687955045618e+03
3.220662302003851210e+02
1.172399810479469409e+02
1.157001561251760677e+03
2.917816184918395265e+03
1.978797220387170000e+03
1.794659854170087328e+03
4.310355115582269150e+02
6.390623345385383800e+02
4.648154371995333349e+03
5.704630802074006169e+03
6.280254535246320302e+03
7.718294203505293808e+03
8.550038117715686894e+03
9.891884689397131297e+03
1.129461394086379187e+04
1.289953409447010199e+04
1.430040076287848569e+04
1.566654661453013614e+04
1.739671431212102470e+04
1.934659024832833893e+04
2.166393707799519689e+04
2.370472918084223056e+04
2.570012537724490539e+04
2.766505136557879814e+04
3.015337895669472709e+04
3.391119254353563883e+04
3.658427235468315484e+04
3.829762587058839563e+04
3.991507641546489322e+04
4.161944581434696738e+04
4.415963078531473002e+04
4.710250145645163138e+04
5.019915898820619623e+04
5.356498835721105570e+04
5.779100908419191546e+04
6.209972769864008296e+04
6.743709800896084926e+04
6.987152027336119500e+04
6.992128388522313617e+04
6.937283461927314056e+04
6.863052136062645877e+04
6.779288605587481288e+04
6.563072113050722692e+04
6.238054877698240307e+04
5.847669470166097017e+04
5.300245440929458709e+04
4.634306536427068932e+04
3.931771836900892959e+04
3.057369803149350628e+04
2.084600666502531385e+04
1.186677153033106879e+04
3.137466001581728506e+03
-5.028550313650943281e+03
-1.352707809341090797e+04
-2.268611936077950304e+04
-3.098373960772651481e+04
-3.522807341865458875e+04
-3.672424604253880534e+04
-3.723822751873627567e+04
-3.682203054517001874e+04
-3.528348237137534306e+04
-3.346962497460865416e+04
-3.054386241951839474e+04
-2.879063276559890801e+04
-2.747007173233140929e+04
-2.713737875519826048e+04
-2.687676660081346563e+04
-2.685760826853480467e+04
-2.676897520997318497e+04
-2.451393946346209486e+04
-2.640584236233808042e+04
-2.781824927944074807e+04
-2.702084752706234940e+04
-2.707927213392993872e+04
-2.503607504901418361e+04
-2.271358424414017281e+04
-2.049194880983803523e+04
-1.780141251061567891e+04
-1.518768867550596588e+04
-1.271797485305568807e+04
-1.036206405041249491e+04
-8.217400361476291437e+03
-6.303745454359233008e+03
-3.712009353198954614e+03
9.441646009765761391e+02
2.465411221367452526e+03
4.487478274805592264e+03
4.287391379573977247e+03
1.849805469501960715e+03
-1.771987856526677433e+03
-3.687053465799262085e+03
-1.395102675051539052e+02
6.169442209431897027e+03
8.318598293169736280e+03
6.214266739303510803e+03
3.770812052681131263e+03
3.110923370495856489e+03
3.746605738859527719e+03
3.572371680384071169e+03
2.878605320166466754e+03
2.224074257552672407e+03
1.546126794789453925e+03
9.808538896162592664e+02
6.470778827679907863e+02
2.487677302923789000e+02
3.084181030673194641e+02
-2.693146178781823892e+02
-1.062899216594801601e+03
-1.918117446527010543e+03
-3.100521206834796430e+03
-4.098489169311119440e+03
-4.954057995264905912e+03
-6.097754535907113677e+03
-7.886212312377364469e+03
-9.677452397479315550e+03
-1.118227400831345039e+04
-1.305616933388437792e+04
-1.510325779672093267e+04
-1.765470804566666993e+04
-2.062181666477545514e+04
-2.279434100727508121e+04
-2.441101101991759424e+04
-2.644681111647054058e+04
-2.802679438938564272e+04
-2.923431702020229204e+04
-3.003560989724003230e+04
-3.033650507556690354e+04
-3.032254718095645148e+04
-3.060102439418419453e+04
-3.094931448973159786e+04
-2.908962728773318668e+04
-2.738303201886645547e+04
-2.603861872515478899e+04
-2.434971204041580859e+04
-2.193230777302235219e+04
-2.008456436716193275e+04
-1.864303724807757317e+04
-1.654467618404075256e+04
-1.504162184127313594e+04
-1.369375658010307052e+04
-1.206775192450374561e+04
-1.042706740270683440e+04
-8.877874878346847254e+03
-7.660098380070718122e+03
-6.356688999366620010e+03
-5.125539420460566362e+03
-3.605788230354645293e+03
-2.486523199718331398e+03
-1.832715182162820611e+03
-1.094753815317121507e+03
-9.484504750607209189e+01
8.308156327521537605e+02
1.638897522366180056e+03
2.829745505140946079e+03
4.094170502088607464e+03
4.746045671637420128e+03
5.512541234928546146e+03
6.423972260574682878e+03
6.794837744916679185e+03
7.772138786694365990e+03
8.130863539590265646e+03
8.393538870808415595e+03
8.609885960318770231e+03
9.035688266797431424e+03
9.427667209229774016e+03
9.646809515927388929e+03
9.686240390271716024e+03
1.000158662005199767e+04
1.002996525256221503e+04
1.040413863251906332e+04
1.089286563809565814e+04
1.150825584201702441e+04
1.195259008962500047e+04
1.217183070030717136e+04
1.239612874541933888e+04
1.286373844104709860e+04
1.311716487704966312e+04
1.319953336385963848e+04
1.301822393661070601e+04
1.254867319959187625e+04
1.248111304250267676e+04
1.242579284230526355e+04
1.250287327348666986e+04
1.252526928159674026e+04
1.223444774305494138e+04
1.214557876278014555e+04
1.218408597588463090e+04
1.254011259984471872e+04
1.274248472771040542e+04
1.285739567113410703e+04
1.322108981192523424e+04
1.234920817467529378e+04
1.220510791531754330e+04
1.318477523334530269e+04
1.415225724827795420e+04
1.443589563977187390e+04
1.456501562808975177e+04
1.368606738422793933e+04
1.355570986001208985e+04
1.396848938805748548e+04
1.555159844418724970e+04
1.628941430473109722e+04
1.401537418465244809e+04
1.203956207591902967e+04
1.487465185347939041e+04
1.304988639484480882e+04
1.446588291562936138e+04
1.507782707666890929e+04
1.481033556176617458e+04
1.472530484875596085e+04
1.419925009188739750e+04
1.370983583426741825e+04
1.341395953212682434e+04
1.261386810270599744e+04
1.207696373100657729e+04
1.103339951829716119e+04
1.005304404772653652e+04
9.752315603399503743e+03
9.031693439318021774e+03
7.835826271969959635e+03
6.604384735374385855e+03
5.424437122389201249e+03
4.407516593743628619e+03
3.350455839320697123e+03
1.846368228682821837e+03
3.319475941047371634e+02
-8.115387325907724971e+02
-3.118164061850046892e+03
-4.645340193565902155e+03
-6.336984655769416349e+03
-4.167844049744989206e+03
-3.477955974020399935e+03
-3.521634845932875123e+03
-3.759468744141400748e+03
-4.276929645234567033e+03
-4.449360458422128431e+03
-4.762633522761163476e+03
-4.698495210958762982e+03
-4.756703352335123782e+03
-4.983325837707872779e+03
-5.425759267427590203e+03
-5.895175621260986190e+03
-6.294594565358375803e+03
-6.708198469571424539e+03
-7.315710920496399922e+03
-8.448861335266859896e+03
-9.495838744372191286e+03
-1.075428533577353846e+04
-1.187265209622928523e+04
-1.215935471587172651e+04
-1.448125278866492408e+04
-1.521170379167258034e+04
-1.446717090039925824e+04
-1.428305548428270231e+04
-1.436299939426646961e+04
-1.422845091060518098e+04
-1.387127171936152263e+04
-1.408513433392385559e+04
-1.595309595254375745e+04
-1.628896037689810692e+04
-1.591919885747162334e+04
-1.167321805940289778e+04
-1.207555683395687811e+04
-1.259458670322171201e+04
-1.195989626694043727e+04
-8.892390672154413551e+03
-1.116023106781818933e+04
-1.238485295122576827e+04
-1.244282523228949503e+04
-1.013357365096245849e+04
-1.174157347076755104e+04
-9.172211115686292032e+03
-7.381992984178184997e+03
-6.832316077337166462e+03
-8.773540749304702331e+03
-7.420048825201444743e+03
-8.725277253688580458e+03
-6.294620352086020830e+03
-7.088395064182396709e+03
-4.177934729074760980e+03
-5.502578200160119195e+03
-4.182663630806868241e+03
-5.097555683371027044e+03
-4.347485777108350703e+03
-2.526629195627886929e+03
-3.155188987401262239e+03
-2.907359899991769453e+03
-2.454378182764422945e+03
8.685025321193717218e+02
-2.628840501673489030e+02
2.315149742342743622e+00
-3.761482043037307221e+02
2.988595734323874240e+03
4.800380474064238115e+03
4.821331834211512614e+03
5.881610110313444238e+03
5.694288232162367422e+03
5.665501616283180738e+03
6.024374550934106082e+03
6.218131069186497371e+03
6.474990652257717556e+03
6.611207486053970570e+03
6.442130601281697636e+03
6.451116650749211658e+03
6.982576649617702969e+03
7.380973574198369533e+03
7.875758728864620025e+03
8.483307724846252313e+03
9.227005201097186728e+03
9.434188757627756786e+03
9.036321572602373635e+03
8.914924887978530023e+03
8.676304433715400592e+03
8.227553857382787101e+03
8.056804833592264913e+03
7.838288122739364553e+03
7.361229844616784249e+03
7.221762655173423809e+03
7.554161498514007690e+03
7.812558392512096361e+03
7.430564017310669442e+03
7.275629756343136251e+03
7.358228046597097091e+03
6.864779942384524475e+03
5.557677483059791484e+03
6.155314940919553919e+03
7.106872341705768122e+03
6.676149025386200265e+03
6.113677306864889943e+03
5.614936039614955916e+03
4.630151512845633079e+03
3.734477870658140091e+03
4.195327039603725098e+03
3.930022918294363990e+03
3.324197063974976572e+03
3.088359056825287098e+03
2.575832068929386423e+03
2.029080668686771332e+03
1.831620050533428866e+03
1.597945929393911683e+03
1.041497734824421059e+03
2.954270792695240289e+02
-4.232814176919807210e+02
-8.822426358196227056e+02
-1.399655740931573746e+03
-1.886713181266315587e+03
-2.426698929672712893e+03
-2.743258639238912110e+03
-2.919272203341383829e+03
-3.443493334525519003e+03
-4.097117815239012998e+03
-4.378246176836436462e+03
-5.050241085834813930e+03
-5.235656752559710185e+03
-5.523022718401712154e+03
-5.992726661312953183e+03
-6.230154492602589926e+03
-5.911757994927476830e+03
-6.248952460757275730e+03
-6.947228029398622311e+03
-7.007033912334826709e+03
-7.381795054474809149e+03
-7.536027675685012582e+03
-7.646151883384377470e+03
-7.953611184267932913e+03
-8.156877351307837671e+03
-8.172404056482739179e+03
-7.891679234774215729e+03
-7.834208091067552232e+03
-7.700450419465171763e+03
-7.758882018846560641e+03
-8.077983773877926069e+03
-8.286320122422521308e+03
-8.422350597491506051e+03
-8.685573291443735798e+03
-8.395480783289798637e+03
-8.072589620171434035e+03
-7.691520583740229085e+03
-7.807864491992674630e+03
-7.835173458209725140e+03
-7.576068452034170150e+03
-7.043205108740378819e+03
-8.131288188765785890e+03
-9.996984342781137457e+03
-1.244308520135431900e+04
-1.214822921858952395e+04
-1.201385580670200579e+04
-1.161692756346884744e+04
-1.086229606353468444e+04
-1.016291052241740908e+04
-9.635256476720187493e+03
-9.221071218729886823e+03
-7.018339726817993323e+03
-2.017835819020067447e+03
-8.334569818411251845e+02
-2.310594961054826229e+02
-5.734365643484081829e+02
1.253686822702059089e+01
1.268983292551133445e+03
1.859031373206439866e+03
2.790810091213764281e+03
3.718444666299170422e+03
4.377043795954386951e+03
4.768645999207133173e+03
5.403355462966014784e+03
6.488254066779563800e+03
7.082426563282334428e+03
7.670890285034299268e+03
8.410676721096309848e+03
9.204838036657854900e+03
9.752350609273260488e+03
1.037022182424796483e+04
1.122849437040089106e+04
1.190014534351127804e+04
1.273114428521430818e+04
1.282748823396513217e+04
1.311509200359438546e+04
1.371094801263679437e+04
1.396797841690441601e+04
1.395815443345834865e+04
1.360440205502824756e+04
1.307164600021909609e+04
1.302880116904549504e+04
1.264677187934444737e+04
1.246243115970773943e+04
1.181270057778961018e+04
1.110740960888767404e+04
1.016643198489150564e+04
9.756610051136409311e+03
9.371819616111160940e+03
8.477896304176929334e+03
7.833684156179290767e+03
7.068016490595366122e+03
6.492730356971062974e+03
5.786610116784970160e+03
5.429484229765669625e+03
4.853222205775836301e+03
4.409566775640233573e+03
3.881315953669074588e+03
3.111248426432504402e+03
2.206126261208164124e+03
1.654761842301924162e+03
1.438810934118612749e+03
6.480437804468753029e+02
-8.648275434250588489e+01
-7.451052058141093539e+02
-1.018211928546930494e+03
-1.366042865687694075e+03
-1.748811081406212907e+03
-2.115915310013703220e+03
-3.625549368599924492e+03
-5.697996388400097203e+03
-5.748551255662062431e+03
-7.096470426742183918e+03
-4.733945100210789860e+03
-4.291313754536100532e+03
-5.324895120601324379e+03
-9.049087899654428838e+03
-8.509148750819893394e+03
-7.713134281047100558e+03
-8.210275070051686271e+03
-6.805273918476985273e+03
-7.349058352304661639e+03
-9.226154794624299029e+03
-1.070480628262555911e+04
-1.115424370408951836e+04
-1.075274086674161845e+04
-9.193573389189645241e+03
-9.291014203035338141e+03
-9.613369498306610694e+03
-9.961889871492994644e+03
-1.000086313361734574e+04
-1.075254484444791706e+04
-1.443216494637818869e+04
-1.247805461589100560e+04
-1.132448040911397948e+04
-1.175965445893912511e+04
-9.276847403613808638e+03
-1.029633836825556682e+04
-1.202640271052983007e+04
-9.456306128594953407e+03
-8.652246421907422700e+03
-9.899490050298210917e+03
-1.015832147655238805e+04
-7.748897480072715553e+03
-7.150478923341087466e+03
-6.931308331514313977e+03
-6.423977026753187602e+03
-6.079662689948380830e+03
-5.304557096166997326e+03
-4.778892028398816365e+03
-4.250952656646086325e+03
-4.111008863255180586e+03
-3.696294345260062528e+03
-3.233072809048668205e+03
-3.289431717257267337e+03
-3.031718621759952384e+03
-2.475169221700421076e+03
-2.085995642418940861e+03
-1.778423452581204629e+03
-1.543642779575036002e+03
-1.239884058766793260e+03
-2.822963985594817018e+02
-3.780497848362530817e+02
1.926700002781365129e+02
7.606617576944182701e+02
9.596928407416261280e+02
1.273724484517833162e+03
1.906481114973834792e+03
2.082636139943183935e+03
2.637074435893838199e+03
3.074625235760755459e+03
2.064087144340148825e+03
8.502391782211931286e+02
2.853828708882682349e+03
2.648914330379579042e+03
4.100609365228128809e+03
4.333483106282835251e+03
4.607226430674821131e+03
5.019732196757518068e+03
5.520817276122613293e+03
4.706566363769659802e+03
5.389669264238872529e+03
6.136202440970627322e+03
6.444014840991978417e+03
6.483880214465092649e+03
6.539360145297988311e+03
7.321923871345757107e+03
7.290960741150332979e+03
7.154507854072573537e+03
7.377772685918986099e+03
8.053714110021043780e+03
8.210082264793032664e+03
8.354810219574150324e+03
8.668820737888638178e+03
8.940100268403462906e+03
8.836248792796606722e+03
8.716523820322638130e+03
9.055667840404939852e+03
9.014844758769469991e+03
8.872903067944675058e+03
8.754677793809902141e+03
8.731328794482056765e+03
8.947797169248326099e+03
8.629041714392953509e+03
8.414676928704999227e+03
8.529169705932790748e+03
8.125435663445105092e+03
7.738494072905533358e+03
7.782159551635269054e+03
7.591557720463945770e+03
7.101680676076171039e+03
6.250470232393542574e+03
5.926023103957132662e+03
5.926353056508934060e+03
5.935491013564715104e+03
5.544466810547383830e+03
5.141328929579422947e+03
4.503122140479968948e+03
3.478924208572412226e+03
3.260805916696212080e+03
2.798769778553339620e+03
2.107869478597809120e+03
1.795180058923350543e+03
1.529763194108480093e+03
9.586576036128105898e+02
6.989715169024817669e+02
1.032849608891233856e+03
5.983555843947219728e+02
3.045642376416250841e+02
1.266146648281095253e+02
-8.042012381299365131e+01
-3.524486685844909744e+02
-1.757348834348465516e+03
-3.503136584770380523e+03
-6.851649758413338532e+03
-8.060620682831113299e+03
-8.433003255410389102e+03
-8.441799493278755108e+03
-8.012963996768541620e+03
-7.845417045518073792e+03
-7.807639769031903597e+03
-8.512834891906264602e+03
-8.745079703565725140e+03
-7.675919116170497546e+03
-3.409212902013484836e+03
-2.143966976209040240e+03
-2.381060691818256601e+03
-2.628247047536856826e+03
-4.742519793840932834e+03
-4.159782554286024606e+03
-2.556845217665137170e+03
-2.605654554861339875e+03
-2.829070236094794382e+03
-2.798950573450438242e+03
-2.915211295499957032e+03
-3.032722172994914672e+03
-5.498315436295109066e+03
-4.942865048502113495e+03
-5.618272308657968097e+03
-5.203390810933862667e+03
-4.001109524131982198e+03
-2.441336831671163964e+03
-2.353940774903263900e+03
-2.243799442069305769e+03
-2.130828556340720297e+03
-1.982855759782433324e+03
-1.785752051010783134e+03
-1.579446136490201980e+03
-1.501786343217045896e+03
-1.292687244084543863e+03
-1.136058462841342134e+03
-8.537674422950208282e+02
-7.667402768585210424e+02
-4.099089280797157357e+02
-5.791205100775318897e+02
-5.742594562159415545e+02
-2.282925288009628275e+02
-5.106526697900871881e+01
1.215114301208460574e+02
3.865067988541986210e+02
5.870216264861462605e+02
7.111760683916870676e+02
9.070456888974599678e+02
1.057680104202189796e+03
1.425190601568019702e+03
1.414631585255412119e+03
1.614112128276788098e+03
1.368727517937636776e+03
1.474554735653825219e+03
1.762687745709924002e+03
2.046261931507419831e+03
2.099297442419909657e+03
1.932890190982068134e+03
2.027090784898611901e+03
2.106020838715656282e+03
2.335780796914299117e+03
2.456384627254305542e+03
