-2.649745193955161085e+03
-3.151294009492688019e+03
-6.231940057253973464e+02
5.216361226014055319e+02
1.166190397963351870e+03
-1.468525979709841522e+03
-3.474556633963933905e+02
-8.365709073531642161e+02
5.816519496587088156e+01
1.330757460555096941e+03
1.273164967766418613e+03
-4.335974100912517315e+02
-1.336555039900362090e+03
8.503153914252214918e+02
2.449902688851039329e+03
1.572112054872414774e+03
6.619524674319135329e+02
7.943308013730917594e+01
-4.054677274714535429e+02
-8.588256432478183342e+02
-8.796201311325872894e+02
-7.918867298875667302e+02
-7.146611802542980740e+02
-5.079701889098390097e+02
9.117424170498100011e+01
3.517952411963938175e+02
3.178626024819798204e+02
7.244461639732246567e+02
1.193623890223215312e+03
3.783497597112576045e+02
2.219612417293029466e+03
3.171458159756781697e+03
2.250950191112067841e+03
2.798086313100506231e+03
2.675847306313352874e+03
1.675015596548481653e+03
8.309213311367651613e+02
2.263183833061774237e+02
-5.338250460845297312e+02
-1.062710070837615831e+03
-8.109437940948151891e+02
-6.028572867462706881e+02
-2.176984891277716656e+02
8.295577970659846301e+01
6.397367375059649248e+02
1.009720017551766091e+03
1.580481938550142331e+03
2.130398791793302280e+03
2.599080068915314314e+03
3.051170997334113508e+03
3.266668205734104959e+03
3.527234438779342781e+03
2.945038892687897260e+03
2.245912088784074058e+03
1.675941662714502172e+03
8.714090898391664268e+02
1.578938632339153969e+02
-6.921473203066218502e+02
-1.407331573168696423e+03
-1.834556300823835500e+03
-1.937100836853457395e+03
-2.082677881768932366e+03
-1.559436982317887441e+03
-8.839992109784343484e+02
-9.279740300677521248e+01
5.958925446787137616e+02
8.380616557887927911e+02
5.928396313162178330e+02
1.584255500469431581e+03
2.177193062488713622e+03
2.376659739877789889e+03
2.479687477049476456e+03
2.234263282582257034e+03
2.044435448639889501e+03
1.329137431383699550e+03
7.623161310893273139e+02
3.409135441521717667e+02
-2.490461139830972854e+02
-7.156379129029709247e+02
-1.161968213705679318e+03
-1.632157277280080507e+03
-1.999259681016495961e+03
-2.440194544703094834e+03
-3.554938042973439678e+03
-5.313478653848498652e+03
-5.122769848399092552e+03
-4.049829248809774981e+03
-3.059634763696156369e+03
-2.878151583757163280e+03
-2.183396311564240477e+03
1.776371269952296359e+02
2.943987641751338288e+03
2.821584229956173658e+03
1.161406088135986238e+03
-1.676433344844161638e+03
1.922774395109044008e+02
-1.716740261185082545e+03
-3.060696212393816495e+03
-3.970478870618524979e+03
-4.613190726918463952e+03
-4.609840145784593005e+03
-1.928390281481158581e+03
-3.574830383078248360e+03
-5.034144594548806708e+03
-3.683024071477393022e+02
7.017283029668145673e+02
1.218977772725414752e+03
9.954369621042543486e+02
-1.843830720943145934e+03
-2.618194131354368324e+02
3.125268249224856731e+02
-2.294763794921271256e+03
-5.466944478634122788e+02
2.319782975763015202e+03
-6.373689932845247768e+02
-6.831957486377875739e+02
-5.268647104192835684e+01
1.731128301747444027e+02
-1.868005028118651012e+02
-5.804028531780178355e+02
-4.696946101044297279e+02
-1.816322046012451210e+02
6.180384961256407195e+01
3.586128492648117003e+02
8.168303180017860541e+02
1.285517769047645061e+03
1.602653890598116504e+03
2.032352094543093017e+03
2.890670076518775659e+03
3.041609230873454635e+03
3.081196758235327252e+03
3.181441426743469037e+03
3.175467509986762707e+03
3.073369776553242900e+03
2.839106101143587694e+03
1.909615349522287943e+03
7.159494607426121320e+02
-1.279700842487764163e+02
-9.020735724828925868e+02
-1.025376722217335782e+03
-1.252903895501923444e+03
-1.531587303720223190e+03
-1.177390372053109786e+03
-3.432993978799759702e+02
1.357254578814931278e+02
4.567256342276637042e+02
7.726863322423749878e+02
9.676659665533851467e+02
1.262674978294256107e+03
1.481932209403344132e+03
1.906734000707702307e+03
1.795262112963337813e+03
1.765646018857139325e+03
2.264632220035509363e+03
1.714254087366688509e+03
8.134537661362587642e+02
-1.777884882052957209e+02
-1.807554067209592176e+03
-3.364749490419971153e+03
-2.134450787443148783e+03
-2.206777839404589940e+03
-2.186547376530980273e+03
-1.517680236316449964e+03
-9.770741718895602617e+02
-5.636902512388958257e+02
-1.670405935144021328e+02
3.651578795655024123e+02
1.190936059508455628e+03
1.640330991951520446e+03
2.070249903078590251e+03
2.118686888482622635e+03
2.086706050951323959e+03
1.905319641107824282e+03
1.498594835436278800e+03
1.294513002016206428e+03
1.094031603508541366e+03
2.111606740330294087e+02
-8.411319362593125106e+02
-1.550923735682868710e+03
-1.944251955642653002e+03
-2.295060732826729691e+03
-2.340333585605378630e+03
-2.133102783388086664e+03
-1.495344314649806620e+03
-9.120658088504774241e+02
-4.021751376637006956e+02
1.823044062109132426e+02
7.334508863397209097e+02
1.283272652946988728e+03
1.521809201168040090e+03
1.980032171654784179e+03
1.911941129487498074e+03
1.620552015495258956e+03
1.322908046712913801e+03
7.589449262297197265e+02
1.286239243198757265e+02
-6.970508871054735209e+02
-1.329118770939857541e+03
-1.800572718029144653e+03
-1.776515381081443365e+03
-1.622020194888144943e+03
-1.638109856385545072e+03
-1.208788506954198283e+03
-3.660091626982066941e+02
6.226447949175414109e+00
6.198788844900404911e+02
8.529250485324226929e+02
1.010389050194164611e+03
1.343316030040659371e+03
2.088699346464777591e+03
1.685463685740323399e+03
-3.863677215128158764e+02
-3.129755625344527289e+03
-5.077709558259372898e+03
-5.739247453365256661e+03
-6.084452885841673378e+03
-2.921261756906922074e+03
-9.737197674436990837e+02
-1.740908093478502224e+03
-1.384900764104846530e+03
-1.876784657410576983e+03
-3.188667527843484095e+03
-1.788596122625862563e+03
-1.331282315550565500e+03
-1.319695877648387750e+03
1.240749647491502117e+02
8.946831160352170400e+02
1.051240888229015809e+03
1.567081690745337937e+03
2.268278343277079784e+03
2.590719902181890575e+03
2.843401865390701914e+03
2.863032053957869266e+03
2.824816104830101722e+03
2.337608188435424381e+03
1.554433810981154693e+03
1.074189727026795936e+03
6.396342514911193575e+02
1.417485392143105400e+02
-1.384846071419718783e+02
-5.759446509712887519e+02
-6.922906190361560448e+02
-4.744242728145720207e+02
-2.499329109187516735e+02
1.151744597919444288e+02
1.079908997772131215e+03
1.367390021521262270e+03
2.054602244961684846e+03
2.451881548836764523e+03
2.921411173594036882e+03
3.055805428365402349e+03
2.866229805287148338e+03
2.581075172546314207e+03
2.221393261231017277e+03
2.250464287215966579e+03
1.893914135328735711e+03
1.168652821357904941e+03
5.805970163676362290e+02
-6.119853542877641530e+02
-9.757356229342850611e+02
-7.352075338806004083e+02
-9.045439614901722507e+02
-2.872374228269427476e+02
3.837468467400819350e+01
8.311069805433403417e+02
1.243598448434861893e+03
1.503960322936346302e+03
2.163875524130935446e+03
2.384151107611073712e+03
3.110827418227449925e+03
3.647347621255255945e+03
3.600780559922837710e+03
3.487489074168157458e+03
3.218548432413569572e+03
2.871942079080206440e+03
1.967514572628793530e+03
1.485907310626676235e+03
1.102124256926703083e+03
4.722007868733184637e+02
-3.994406822525989220e+00
-6.324713183128626497e+02
-9.541438065760601148e+02
-9.830462070348573889e+02
-4.959054379240099024e+02
4.633351210269427725e+02
1.067554788341763015e+03
7.141163781454771424e+02
-3.043668308259513537e+02
-3.190033289117769982e+03
-5.639577253078343347e+03
-5.065089804423210808e+03
-4.279653722372126140e+03
-4.740360334907997640e+03
-4.545041620865609730e+03
-4.835517786116181924e+03
-4.750895417287094460e+03
-5.013188178272255755e+03
-5.650252011446502365e+03
-6.339100612305147479e+03
-6.233729274970465667e+03
-6.254999259424624142e+03
-6.226804945676807620e+03
-3.664147538050276125e+03
-1.929140913391893491e+03
-4.293773632573890609e+03
-4.899770844246038905e+03
-4.677178868107370363e+03
-4.237023928804764182e+03
-3.846421900767385978e+03
-3.257397978326625434e+03
-1.316711377960814616e+03
4.330846167765997961e+03
3.424985725084714886e+03
-1.974198924339807036e+03
-3.364625584631205584e+03
-3.932285294951106152e+03
-4.423085371433031469e+03
-4.987868662321580814e+03
-5.120887644473310502e+03
-1.495283864995873046e+03
5.349981861048019027e+02
1.101977809856151225e+03
9.507830750291950608e+02
1.141573953679178885e+03
1.832504121912573964e+03
2.112446701363260217e+03
2.305386460538915344e+03
2.827363641540905519e+03
3.043563485880267763e+03
4.018112698830806039e+03
4.527082638848341958e+03
4.285719515993964706e+03
3.594025735734615864e+03
3.859791580089492072e+03
3.842000236469824813e+03
3.466750773462993038e+03
2.492124667917420538e+03
1.430065462661180163e+03
7.246541355979567243e+02
-3.395959773619509292e+01
-2.995945829777745075e+02
1.095740015647665047e+02
1.364017752137404216e+02
3.348922605272707642e+02
7.762869257263947702e+02
1.201039040984142048e+03
1.575132533794159372e+03
2.549413370008428046e+03
2.961630895035377307e+03
2.520897539278281783e+03
1.839403705793827385e+03
2.767165332486742045e+03
2.777875086550455762e+03
2.325000466776573830e+03
1.981429433425062371e+03
1.411441634266414439e+03
6.716884381734059843e+02
6.071108167569483527e+01
-8.872646473722370501e+02
-1.873791672424481249e+03
-1.727017102267804830e+03
-1.315455981335311208e+03
-1.025476412504252949e+03
-1.010497475870727840e+03
-6.179190501586258506e+02
-2.802275404870975706e+01
6.275465935184362252e+02
1.357670042446904972e+03
1.713303306055857092e+03
2.495895603128184121e+03
2.726508705612870017e+03
2.799878363038805219e+03
2.773667552914999305e+03
2.422811757169024077e+03
2.159043636222155328e+03
1.837158657815565448e+03
1.352127606617668562e+03
6.159895013194105786e+02
-1.853085997799541644e+02
-8.175955073153992316e+02
-1.191023555059430691e+03
-1.246646739820090716e+03
-1.291358958827980814e+03
-9.492697767734547369e+02
-2.983732458137179151e+02
2.428239774210968704e+01
2.876806495152442267e+02
4.098673974271827660e+02
7.659153463282207213e+02
1.757759978365238339e+03
2.487340159435879286e+03
2.723558548363561385e+03
2.879657211072826158e+03
2.360796207446250264e+03
2.378729759912589088e+03
2.161422732540224388e+03
1.252764448817411449e+03
3.707201644058869761e+02
-1.057659893990023789e+02
-7.838020361989564435e+02
-1.349498089868590114e+03
-1.406825457420544353e+03
-2.217771340919346585e+03
-3.548505557725631206e+03
-5.957074094131261518e+03
-6.985540023969317190e+03
-6.614989457162729195e+03
-6.345314537981976173e+03
-5.208297952198713574e+03
-4.747057741506629100e+03
-4.402784128367880840e+03
-4.377386298613136205e+03
-3.541871705633847796e+03
1.254562934168694255e+03
2.164739926286293212e+03
-2.536119407408261395e+03
-5.374314759016669086e+03
-6.650668471005975334e+03
-7.665472518491442315e+03
-7.453853412867282714e+03
-4.480698589031751908e+03
-4.137115150635706414e+03
-2.386249474917449334e+03
-3.150740477652389586e+02
1.457317253943675269e+03
2.062984745838637991e+03
2.465932191185509055e+03
2.659106502367310895e+03
2.797457437608761211e+03
3.838922109041569456e+03
4.283375247598036367e+03
4.307784085031894392e+03
4.652178369561692307e+03
4.771528055410311936e+03
3.914996812494137885e+03
2.806568497797607506e+03
2.201090524781242038e+03
1.639536575117152552e+03
9.189044387866279067e+02
4.950529567143880740e+02
-4.080646274065423995e+02
-3.506517058929966311e+02
-2.828917742436308345e+02
1.082712283088733045e+02
3.938333069851308323e+02
1.475729704392912254e+03
1.896034340940105267e+03
2.124814792462143942e+03
2.759020861036767201e+03
3.070561561992471070e+03
3.016494936109636910e+03
3.181875177259086286e+03
3.516662246034969485e+03
3.545819847881360147e+03
3.776362441176170250e+03
3.480211170357560604e+03
2.546351471622308509e+03
1.572732465487401441e+03
6.813969966734911168e+02
4.464269871697850931e+02
3.458094735121538292e+02
1.304940282075197615e+02
-4.767973163956582994e+02
-4.611331790460483830e+02
-8.150413116155115745e+01
3.723405778610780885e+02
4.604588016856449144e+02
7.849168023403166217e+02
1.040939957080196564e+03
1.199615148544573458e+03
1.697675216946263845e+03
1.382061258776735485e+03
1.727230888925862246e+03
1.867574548629369701e+03
2.254064727564953500e+03
2.180072173731471594e+03
1.211342241293051984e+03
-1.252982102536670936e+03
-4.180865528860670565e+03
-3.281591396304309455e+03
-2.588876096524607419e+03
-3.041588715318909635e+03
-4.592925786888356015e+03
-6.444949596209676201e+03
-7.206554257017795862e+03
-6.783660482348247569e+03
-3.734198967242583876e+03
-1.953085900638581279e+03
-8.222915241158673325e+02
1.353194265174825659e+03
2.818391807775417419e+03
3.220328119325692569e+03
3.378115887430115436e+03
2.540870989598693996e+03
-6.643626479179827129e+02
-6.858829269904080661e+01
-3.127862508005983273e+03
-2.314120266326296587e+03
-6.088290607843970974e+03
-7.455383837120481076e+03
-8.478354866442023194e+03
-9.709116895691922764e+03
-1.002169506280555288e+04
-8.781022610706173509e+03
-4.790975626610776089e+03
-6.835436978634866136e+03
-3.484417751309129471e+03
9.251989995804384534e+02
-9.064781562892325155e+02
8.624973535912880607e+02
3.683208524208191648e+03
1.407856313577816763e+03
2.071619942051184353e+03
2.425294716184413630e+02
1.465525834839461368e+03
-2.319307942022271163e+03
-1.396994839346720028e+03
-2.358514738584894985e+03
6.918508832672857523e+01
2.592036142218222722e+03
1.637189851516514409e+03
-3.065233075530059523e+03
-6.601377645247870532e+03
-2.297206817028622936e+03
-1.558599904578877158e+03
6.945691703763989153e+02
-6.976882546279392727e+02
-1.462271733706532814e+03
2.749829710261046216e+02
3.451061098466364001e+03
7.621055531440095365e+03
1.084996860334371377e+04
9.791927692626924909e+03
9.028931575929098472e+03
8.800982609774318917e+03
6.653247711420634914e+03
3.941722562000390099e+03
2.260423830360095508e+03
-7.366085267350172217e+02
-9.793458841340989238e+02
1.018554441455645332e+01
-3.949925023180978201e+02
2.792124800395800776e+03
4.310627231114202004e+03
3.497487443692118632e+03
4.646254794468340151e+03
6.252117531533656802e+03
6.225831950389368103e+03
3.446531248165931174e+03
1.971984180348123118e+03
2.508274255576096948e+03
9.687556281707488779e+02
-1.466865671070801682e+03
-1.975153484287278161e+03
-3.168390012923271570e+03
-4.733574793092525397e+03
-5.113017623595950681e+03
-4.035398836044313612e+03
-3.149767823382301231e+03
-3.747580692972038378e+03
-4.670514331130302708e+03
-2.216555625343248721e+03
-5.763669799340358679e+01
1.725204951785519597e+03
1.983926933724311766e+03
4.426311941993681103e+02
1.171273443190506214e+03
4.667985286467815058e+03
3.986294323336298930e+03
3.877491079278751840e+03
4.072775953035999009e+03
3.891241110717065112e+03
4.698632838758670914e+03
7.894110980679408385e+03
7.766597720688876507e+03
5.857983110682017468e+03
4.052015436712080827e+03
1.815441099242634209e+03
3.527449005212111501e+02
-1.281242244177299199e+02
3.805575818392495080e+02
1.225567876997287016e+02
-1.246726670823008590e+03
-3.375215500716365568e+03
-4.094125096165008927e+03
-4.205480530171295868e+03
-3.920454974641605531e+03
-1.256017699189735367e+03
1.647920071878770386e+03
1.791399226330946476e+03
8.393386500436961342e+02
5.097326574515025754e+02
6.425199979948071132e+02
-7.072931659713472072e+02
-1.792701558173390822e+03
-1.708742562978977958e+03
-4.224415214727371222e+02
-2.990900288213227213e+03
-6.940267408247634194e+03
-1.131552500856015649e+04
-1.373574781654452818e+04
-1.144501456789498297e+04
-8.457317602467759571e+03
-4.908657120810844390e+03
-3.172161239403065792e+03
-2.579852226728486130e+03
-1.419554819136985088e+03
-2.066326678053688738e+03
-2.513376383055356655e+03
-8.365568213995458109e+02
-4.248722273805049667e+02
4.185542235994740622e+03
4.931662159767259254e+03
-3.935399103616002776e+02
-6.580873592017685496e+02
6.360115740832906113e+02
-2.372923150753563561e+02
-1.567157490027597532e+03
2.683299619635584349e+03
1.539041167131028487e+03
-6.769847497145787202e+03
-1.055252483680237128e+04
-5.416106500240611240e+03
-1.357599252752110942e+03
-6.900056388595751287e+02
-3.049325885371541517e+03
-3.174643224104750061e+03
8.980644630870601759e+02
4.232865131427564847e+03
8.671719539369232734e+03
1.038958831952083347e+04
9.160439601160063830e+03
7.240207324985022751e+03
6.128855944076329251e+03
4.444373054385252544e+03
5.105780284394172668e+03
4.164017529928160911e+03
2.755027762578907641e+03
2.967733788417142023e+03
1.904063276238373419e+03
1.193965528661808094e+03
5.964010315015143533e+02
-7.296161326223754031e+02
-1.513127418123133111e+03
-9.891400402404359511e+02
-9.736775488781937611e+02
-1.573766551308859107e+03
-3.578431578711298698e+03
-3.151639239324653772e+03
-3.893791849151283486e+02
1.683844610980851826e+02
7.445657154558722368e+02
1.030157238221841453e+03
1.295202360896156506e+03
1.275718229994012745e+03
1.003616422784397059e+03
3.719115237354440637e+02
3.875763425238116611e+02
1.168529477706383432e+03
4.038070517945993174e+02
-6.925775004715030718e+02
-2.225559825463579273e+03
-4.876033326748660329e+03
-5.777984646637060905e+03
-3.681384871692198885e+03
-1.979259066763848750e+03
-1.233579729216424084e+03
5.446571394956390577e+02
2.828464159273927180e+03
3.225822308004738716e+03
7.145109607060386452e+02
1.057630001585179116e+03
9.771586679202869163e+02
2.932070130636971953e+03
2.013622467113924813e+03
5.458701834780881654e+02
1.073650682623867851e+03
9.048562634700939498e+02
-6.585529558240215238e+02
-1.288902967703531885e+03
-2.269803507545238972e+03
-2.225496022883088699e+03
-1.340983694635134498e+03
-6.853377402789100188e+02
-1.253398877541477319e+01
3.774973457874907581e+02
-6.773131158924663850e+02
-1.770926033382741934e+03
-2.203262585461197432e+03
-3.567353140551652359e+03
-2.826179430012085049e+03
-1.385587221877497768e+03
-9.805525931156481647e+02
-3.201197223559400413e+02
1.382733885831928774e+03
2.408050923937444168e+03
4.250817556318641437e+03
4.327053716748216175e+03
2.328696801530934863e+03
1.308773890530682820e+03
5.232815858348210440e+02
-8.577542873255033555e+02
-1.399406263002463675e+03
-3.686333268655840811e+02
4.356126105628551670e+01
-7.397882773017768159e+02
-6.826420817751914001e+02
5.405981632419258176e+01
4.472977108881585195e+02
2.450809672166274709e+02
4.494801225148275421e+02
-2.004900672082374911e+02
-5.498126519278523574e+02
-1.397430965626030911e+03
-1.889300371407520743e+03
-6.123803601453204237e+02
1.642259453932714905e+03
3.576575692757119668e+03
2.488582812414801538e+03
-2.156634860901178570e+02
-3.640189416089100177e+03
-4.173999376818988821e+03
-3.467124591833673549e+03
-2.952512302180993629e+03
-1.373099763546535996e+03
3.391293820676692690e+02
-1.306785819428649120e+03
-3.381831120321525304e+03
7.420840718696589420e+02
1.394952912831540743e+03
1.016814960282163156e+03
2.832628281174476342e+03
2.407347170772151458e+03
2.698139716644808686e+03
2.086090476658755506e+03
-9.280207065753101858e+01
1.024620847380375324e+02
1.465754548863840682e+03
1.797100110681990373e+03
4.316382279262638804e+02
-8.215879698224888443e+02
-1.274617252525613367e+03
-9.785177348984381069e+02
-1.935619427489141060e+02
6.983430242046241574e+02
1.189229976321720414e+03
1.450000920610409594e+03
9.647189499380052666e+02
8.214531546925896919e+02
1.851263242665738744e+03
3.097244980510557525e+03
3.794632022347150269e+03
3.326129465491160317e+03
2.701027646269566048e+03
2.519068163397258104e+03
1.811651731481877505e+03
8.936654814868981020e+02
4.750862201602025152e+02
-3.291095743829861249e+02
-1.781991024542667446e+03
-2.058735792633196525e+03
-1.696635207377621555e+03
-2.026192770086938026e+03
-1.882873679480128885e+03
-1.340785592382604818e+03
-2.481457418306272757e+03
-3.807142036116611052e+03
-3.052928512771160513e+03
-7.934107300492767081e+02
1.142253807104225871e+03
1.902282659575914067e+03
2.321444741111753501e+03
2.424192457827114595e+03
2.718116993628729233e+03
2.609320476655269431e+03
1.614538844523240186e+03
1.550678730546055931e+03
3.148964910885295467e+03
2.021737801647389006e+03
2.129954692603823219e+02
-5.828936858740130447e+02
-9.547058505864257540e+02
-1.372599163138639597e+03
-1.282290806482216112e+03
-1.467987215055173351e+02
2.116692708893263273e+02
1.032098922715154231e+03
1.186292612603605676e+03
1.693279435471405577e+03
1.887252412983459180e+03
1.450290803766008821e+03
2.227540867243941648e+03
2.522322971453156697e+03
2.168701805513369436e+03
1.885453163526643266e+03
1.618667443047770803e+03
9.551291959030709222e+02
5.936287404641996091e+02
-5.526629093430577768e+02
-2.353994597270131635e+03
-6.651363065115604513e+03
-7.424582593785677091e+03
-6.480823606298970844e+03
-6.143190471694586449e+03
-3.727521875556915802e+03
-5.807537978162668878e+03
-6.970278425665620489e+03
-4.194847971062652505e+03
-4.872062045498772022e+03
-2.678558449953680665e+01
1.289867111352574966e+03
2.544973736155111055e+03
2.435473593396292529e+02
1.687493323186643693e+03
2.769688622495231357e+03
6.340940339303613200e+02
2.233792971293603841e+03
-3.941520247955896821e+02
-1.312106490509248488e+03
-2.218104347268416404e+03
-3.711142708276241137e+03
-4.102157052001439297e+03
-4.898965352636900207e+03
-2.036766836282993609e+03
1.531994525310319943e+02
5.222726281276683267e+02
-2.103547150965705896e+03
-4.742939264448640415e+02
-1.311906640468003843e+03
6.652180641124520832e+01
6.737816819892915419e+02
4.671116258359311360e+02
1.588617799013017702e+03
-1.426658826939231858e+03
7.803604473935816941e+02
2.407618218678082485e+03
1.134013052384782668e+03
-2.978574224872362720e+03
-2.454039884018154680e+03
-3.493475797927122244e+02
2.259313689571787620e+01
2.436992112754589641e+02
-6.200820055977684433e+02
-1.240844227172667388e+03
-1.192656964601670779e+03
-8.035905788077647003e+02
-5.747938076338840574e+01
9.637263286907594875e+02
1.356965763456204968e+03
1.524215000363001764e+03
1.889616441576904435e+03
2.456186627064598269e+03
3.058805853991754702e+03
3.290314775550396462e+03
2.745986025375046665e+03
2.486009465177981383e+03
1.834442895868236064e+03
7.571949583347197859e+02
1.348556532436004431e+02
-6.273488446939226293e+01
-7.697075354141423986e+02
-1.913047730827400983e+03
-1.253806040826806111e+03
-1.146786131774418436e+03
-1.648833792267263789e+03
-4.809763415910399544e+02
9.436573408602122299e+02
1.384103486454789845e+03
1.786055055200313518e+03
2.106402584984861733e+03
2.729079811679270279e+03
3.411755174555545182e+03
3.863030932590271732e+03
3.919120907293903656e+03
3.293058659530252498e+03
2.506572852024684835e+03
3.089813188032393555e+03
2.611582834484565410e+03
1.249420352758445688e+03
2.145243803138093028e+02
-3.191900615559676453e+02
-7.441858747539546357e+02
-1.340621036801866921e+03
-1.763443910692227746e+03
-9.470866153865764545e+02
-7.834657714930467876e+01
5.315622925708072444e+02
1.352695571840160255e+03
1.779266171985537994e+03
1.985422241538534763e+03
2.078116448739946009e+03
2.690398897043559828e+03
3.054064057467552630e+03
3.305202084410566840e+03
3.259900870758629026e+03
2.584051861115367956e+03
1.882705560943662476e+03
1.308855176578669671e+03
9.364753555220961516e+02
2.346295636299582270e+02
-5.357536034005585179e+02
-1.212801587960115739e+03
-1.239492970167595786e+03
-1.386727797729796293e+03
-1.234351686393717955e+03
-6.595855376045576577e+02
3.339400235241524939e+01
4.437975801850314497e+02
7.976953053013209001e+02
1.153037898280933859e+03
1.843766432388484418e+03
1.907027402539364630e+03
2.001754565739653117e+03
1.857978192037759072e+03
1.138634816745835224e+03
-9.937556701543552151e+01
-2.292911089438214731e+03
-5.884903351302037663e+03
-7.817383418677560257e+03
-8.539196778681774958e+03
-8.999448431492339296e+03
-8.702375374456629288e+03
-8.401979176894212287e+03
-7.933253411371581024e+03
-7.424300669013253355e+03
-5.961191266371875827e+03
-1.888725336603953110e+03
1.297401086145564250e+03
-1.895045586169056605e+03
-5.458971966342185624e+03
-5.118524184678512029e+03
-3.917557155022418101e+03
-3.464939727983786270e+03
-8.017760545682702968e+02
-4.511038764375624623e+02
-2.907790570331456365e+03
5.691624106880849467e+02
1.706810100652751316e+03
2.088021245477079901e+03
1.361695307069583123e+03
5.148464326667493651e+02
3.074562026508019130e+02
9.056217481114039458e+01
-2.266933232508237097e+02
-5.527603030765723702e+01
-3.617026997895557372e+01
-1.182641017204583846e+02
6.273071702885451941e+02
1.172519745602066905e+03
1.361464030142089769e+03
1.630141749897994259e+03
2.052469100205851646e+03
2.387488091575736235e+03
2.189102482842388781e+03
1.804429413289390595e+03
1.553689199279104741e+03
1.430827376974365961e+03
1.439841019270794959e+03
1.300812068979099195e+03
9.806783383472424021e+02
1.692841726933739608e+02
-1.730368243780340975e+01
-1.399709491848157370e+02
-4.075506238554145000e+01
-1.826848587170080123e+02
-2.097100206083711385e+02
2.492713687500472304e+02
1.086275494136811631e+03
1.565423296111338914e+03
1.867716666481911489e+03
2.357217920057034917e+03
3.189944856527893080e+03
3.625755776045058155e+03
3.458512532577831735e+03
3.079225532332615785e+03
2.639170152064517879e+03
2.112500189447197954e+03
1.646337095712541441e+03
5.884645166627074104e+02
-5.572032901944353398e+02
-1.002735209773947076e+03
-1.552248309232753854e+03
-1.962844586756052195e+03
-2.020014718637551368e+03
-1.884566734375570604e+03
-1.260918224988327665e+03
-2.317410310449818667e+02
6.553218469889516200e+02
4.607455230700987840e+02
1.323539568123489062e+03
1.288739637916987476e+03
-2.794985331716439418e+02
1.649924836203743553e+03
2.155845677456615249e+03
1.792142008595345487e+03
1.712897562207338297e+03
1.299260470009954133e+03
9.752205996002500115e+02
7.977038841039916406e+02
2.161402579330692575e+01
-4.210791920750743884e+02
-9.154119198443139567e+02
-1.414357039849142666e+03
-1.518868245747348055e+03
-1.706892273204032563e+03
-1.400459484386257373e+03
-9.636286423864004291e+02
-3.913827824202801935e+02
-1.226656665841056792e+02
-1.334019423091430099e+02
8.647898265714810861e+01
5.289265818324035990e+02
1.408986238037401108e+03
2.257713719517355457e+03
2.466032690207999167e+03
2.585001350463001927e+03
2.093712416337499235e+03
1.143011803183122311e+03
6.218194668804489993e+02
-5.208267790523022995e+02
-1.216947873317048561e+03
-1.986587742152269811e+03
-2.646679191088923289e+03
-2.979159320275571190e+03
-3.263189341668307407e+03
-2.899890315344151986e+03
-2.318273920800053475e+03
-1.612274508192688927e+03
-1.898483921887819008e+02
5.820465908553154577e+02
9.233745233709483955e+02
1.587162792520271751e+03
1.926491430806434664e+03
1.911244359015944383e+03
1.743256734771808851e+03
1.603704597612472298e+03
1.252639203492479965e+03
7.899679799797901296e+02
4.462011557322866651e+01
-8.224472595141611464e+02
-1.843317583533145125e+03
-3.247088767369295510e+03
-2.926702673263339875e+03
-3.243281826685105898e+03
-3.286784399413365009e+03
-5.224228319006908350e+03
-6.658590437218032093e+03
-6.043817878922933232e+03
-3.203035602399845175e+03
-2.420346927290905015e+01
1.267743881432929129e+03
2.045789303783881678e+03
2.557903494427786882e+03
1.671063850186753143e+03
1.542251005720730745e+03
2.258515329479446791e+03
2.029884670913179889e+03
1.887517059257032997e+03
1.469117325422865179e+03
2.924288677718295162e+02
-5.404904107517342027e+02
-1.132533167098715467e+03
-1.675453493566364386e+03
-1.790316164114994535e+03
-1.775447671119834013e+03
-1.402592580968906987e+03
-8.252251097418993595e+02
6.183388805865498483e+01
6.155374320758097610e+02
1.078260512413258766e+03
1.728660217644599470e+03
2.160712316567429298e+03
2.384714209934222254e+03
3.096478199408286400e+03
2.841017280369305809e+03
2.463060852568818973e+03
2.256784463708570456e+03
1.561229587461708888e+03
1.139308501367991539e+03
1.900201561491817017e+02
-7.079746031615868560e+02
-1.213377004362707567e+03
-1.308391227401731612e+03
-1.549288841966161954e+03
-1.366190954483925452e+03
-1.240605860825362925e+03
-7.997159972735103111e+02
-3.852543101132815906e+01
1.820007979142929742e+02
6.648146022144084100e+02
1.408511949405527730e+03
1.940424787533255085e+03
2.070324874447875573e+03
1.731335790973424309e+03
2.095847356948318520e+03
1.702471914591059431e+03
1.255027062247983395e+03
7.795748679804611356e+02
1.090670516258023781e+02
-1.515433054999193928e+03
-1.327921645373640104e+03
-8.715033743890560345e+02
-4.201826912253333717e+02
-3.610248546719918750e+02
-5.341047209553144057e+02
-4.773647908825207651e+02
-4.677165544251558060e+01
8.496732212767033161e+02
1.613998085618846744e+03
2.026164330564982265e+03
2.152217577764510224e+03
2.754230943296916848e+03
2.884156945888886185e+03
3.204033758012217277e+03
3.263918866772131878e+03
2.880806716021708780e+03
2.358637727157170957e+03
8.543434809461203940e+02
-2.607039855830522356e+03
-3.106369853471431270e+03
-3.304631554904985478e+03
-3.731880485137127835e+03
-3.392429799494698273e+03
-3.387180440409891162e+03
-2.170846781464930700e+03
-5.713522500653078168e+03
-4.081226424107632738e+03
-1.739994015209353165e+03
-2.459767755386680165e+03
-2.502530764592230753e+03
-2.759218365957509832e+03
-7.172233397136066912e+01
7.198770349868912888e+01
2.646804489370569172e+03
2.787846608109686258e+03
1.855186090343781188e+03
-2.241299689171788714e+02
2.030866490435299283e+03
-9.238229110238031581e+02
-1.632200554502329851e+03
-3.351259197683409184e+03
-2.182048604641295242e+03
-1.268571675371813626e+03
-1.379807284753131398e+03
-1.640730595096312754e+03
-1.011297920122312803e+03
-3.584523721969693497e+02
2.238629800615927650e+02
5.686599957581654508e+02
5.459943867496883740e+02
1.005919612555159802e+03
1.774531745897125347e+03
2.018950747654286261e+03
2.472192289180776243e+03
2.720285165858831533e+03
2.957250552744589640e+03
2.622165188227888848e+03
1.871058424848270306e+03
7.989221126526961143e+02
1.637538952699307515e+02
-3.164186452428795633e+02
-1.578592537814456364e+03
-2.606762924988137911e+03
-2.830937132999719324e+03
-1.875061825646024090e+03
-1.551076342713252870e+03
-1.936908802642734372e+03
-5.625312306199406294e+02
-8.787426502789082861e+01
4.281592974272521701e+02
8.146273881902774292e+02
8.376192920163280178e+02
1.180245189564852353e+03
1.964637244051542439e+03
1.619926853447494295e+03
1.537124626695794632e+03
1.359099228019414113e+03
1.262881054325597688e+03
1.229381742496010702e+03
5.208345398308088079e+02
-4.027656282472768794e+02
-1.531341931037204404e+03
-1.922043103820712986e+03
-1.729040226766484921e+03
-2.102969857576579670e+03
-1.783668711400350958e+03
-1.038449192307456769e+03
-1.218122981375835252e+03
-6.566350264118683526e+02
5.441023084210507932e+02
6.588829938380320073e+02
7.569775822238937053e+02
1.463711941885549550e+03
2.416651633804183803e+03
2.624901025451290934e+03
2.383367890529440501e+03
2.102088100225628295e+03
1.522035466134585704e+03
9.791104887472347400e+02
4.224103150447598409e+02
