7.457386584852712303e+02
2.622383245567469203e+03
1.381561871886455037e+03
-3.662697884877650356e+00
-1.346340538974077162e+03
-1.273514663394562376e+03
-2.639208185365866029e+03
-9.314089952968779471e+02
-6.481611155588268502e+02
-2.056428716228538178e+03
-1.677244745223330483e+03
-3.346714175004042886e+02
-1.406537260086081233e+03
-9.475867259409642429e+01
-2.024161451567008783e+02
1.866646910242304784e+03
-1.303645181384650016e+02
1.650613341645277842e+03
2.178515383846803616e+03
1.993391507370894260e+03
1.574250571194828353e+03
6.189582858385908821e+02
6.864655827927194878e+02
-1.424190345718586514e+03
-1.799040187048785356e+03
-8.130935746377900841e+02
-5.602959640163301174e+02
-3.686640084226891076e+02
-5.601221911627378631e+02
-1.105666441362561045e+03
-9.593161226036260132e+02
-8.659984341518821793e+02
3.232485440747510665e+02
1.173498822529483959e+03
1.412945153308920453e+03
2.001599938624650576e+03
2.514530981921902367e+03
2.736779234870007713e+03
2.987390865920050601e+03
2.971418233312878783e+03
2.697929565784732404e+03
2.387036561140633239e+03
1.991688944317257892e+03
1.287685443318214766e+03
5.090607639465279703e+02
-1.958369401863878636e+02
-7.158840090093549406e+02
-1.081184781645053818e+03
-1.749940063741283893e+03
-1.903238727882882813e+03
-1.654118739815666686e+03
-1.321612709726419098e+03
-1.390579086276019325e+03
-1.029896878848497408e+03
-4.274464744401640814e+02
5.007309842069662977e+02
1.737609722112144482e+03
1.947225950841145050e+03
2.043739585990083469e+03
2.008834924117138144e+03
2.201266256784393136e+03
1.879109422431990197e+03
1.592653400887670614e+03
9.559073778302163191e+02
4.269944583911780001e+02
-3.349467001200451932e+02
-9.851588689601360329e+02
-1.635589403679885891e+03
-1.982090123151050648e+03
-1.887591114563411793e+03
-1.304239046263325235e+03
-7.402291146710746261e+02
1.055920670469392775e+01
2.191551559067468986e+02
4.197149173510470632e+02
1.155466737438468954e+03
1.729774430783353182e+03
2.692492565062990707e+03
3.162517001626841648e+03
3.260755448024813177e+03
2.826244732865990954e+03
2.126047267923625441e+03
1.228165460779342311e+03
4.345544139331849465e+02
-1.987479594180490778e+02
-5.827472155593063690e+02
-9.554093996207832333e+02
-1.006819069395146812e+03
-9.272095724542041353e+02
-1.479567583612851422e+03
-1.571917624449710502e+03
-1.177354358099278215e+03
-6.498395016297949951e+02
4.206745983392032713e+02
1.302213104799248867e+03
1.590794808411757685e+03
2.033466094171791383e+03
2.654226615562314237e+03
2.619204588312613396e+03
2.266483933002326467e+03
1.986113974885378866e+03
2.089277849138894908e+03
1.956222581207195844e+03
1.227813088281198361e+03
4.880232885290056402e+02
1.126931373743053655e+02
-7.845809492260707430e+02
-3.265038226169382597e+03
-6.048890912313645458e+03
-7.238387993734235351e+03
-2.819138729818948832e+03
-1.368719655505230776e+03
-5.055274803829791381e+03
-6.222874262690944306e+03
-5.796564823687320313e+03
-5.067304597989222202e+03
-4.542112183447393363e+03
-3.863236175709913368e+03
-3.971740002799949707e+03
-4.093424815423340533e+03
-3.836220550067402655e+03
-3.644288436654909674e+03
-3.285658360192745931e+03
-3.675193303785300031e+03
-2.541046597095503330e+03
-2.447358232437924016e+03
-4.846959202368023398e+03
-2.686547502754284324e+03
-5.252637121740550583e+02
-3.943634357769355461e+02
-6.102921732210312200e+01
8.916522042617995112e+02
1.668629440145837634e+03
2.189958877187784765e+03
2.389742746593726679e+03
3.193879367260667550e+03
3.673308483806511958e+03
4.117147945712215915e+03
4.466468519048184135e+03
4.217303891773006399e+03
4.216657079199497275e+03
4.288567491765758859e+03
3.924099940345553023e+03
3.325306912717432169e+03
2.446163145163970512e+03
1.665633790667734957e+03
1.171720302376890004e+03
3.633768454360676401e+02
-2.993362475119280930e+02
-5.965356909274966029e+02
-2.602271361728625152e+02
7.867146479797932557e+01
4.250135602761173459e+02
1.370693596076750055e+03
1.880695209701376371e+03
2.494134927069023433e+03
3.224204562724750758e+03
3.822944993228034036e+03
3.990471562029315919e+03
4.255823713870595384e+03
4.644842627857386105e+03
4.732459094000528239e+03
4.135777999710539007e+03
3.477898950256123499e+03
2.424706000390791814e+03
1.277131433158727759e+03
4.072648839941451229e+02
2.631154651796042572e+02
-2.553453595404289160e+02
-4.391377369075630099e+02
-5.132721663190699246e+02
-3.767072504091503049e+01
3.497421497871125666e+02
9.730525393517316388e+02
1.883215979752246312e+03
1.960375585357939826e+03
1.761695649571197237e+03
-5.169473150192701638e+01
2.036311266479554433e+03
3.328870484598773601e+03
3.160835190208317272e+03
2.107718895231083934e+03
6.367889466631040563e+01
1.227905918421105753e+03
4.630196068295911687e+02
-8.738941602245679405e+02
-4.588808795695057597e+03
-4.906745006273805302e+03
-4.683637775876748492e+03
-5.039492654663818030e+03
-6.038338742350518260e+03
-3.783073330163811988e+03
-2.923669042091226402e+03
-2.822108127260162291e+03
-4.329303347539680544e+03
-5.031628003449947073e+02
-1.964676760625630777e+03
-3.371795335584981331e+03
-3.259445163354160741e+03
-2.684600317849031399e+03
-2.401930302614150889e+02
-1.037037060713379333e+03
-5.012097564601272097e+03
-5.316412752457691568e+03
-5.019976363611320267e+03
-4.512761774897442592e+03
-4.297761543295064257e+03
-4.644078432991599584e+03
-8.081684898078994593e+03
-8.649539242664646736e+03
-8.039742469172331766e+03
-5.067181221162860311e+03
-4.118752872209020097e+03
-4.666563691797763568e+03
-6.068616710151407460e+03
-7.875825979135581292e+03
-3.581155685390320741e+03
-3.990559805899655203e+03
-5.956069668577444645e+03
-4.234676043143968855e+03
-2.268274965240113033e+03
-1.326863178813647210e+03
3.258490274910172047e+03
3.053670739577467430e+03
-7.042971203153673514e+02
1.908461696955907428e+03
3.195801868916971671e+03
-1.232275160816719335e+03
-2.536778148031628916e+03
-1.452678298132861300e+03
-1.506004928393846967e+03
-5.589044539490956822e+02
9.135546452157614112e+02
1.113449336509044088e+03
1.490849018988294347e+03
2.021844468146429563e+03
1.872684369256270429e+03
1.296341809993486777e+03
1.537587900126145996e+03
2.437378495929414385e+03
3.039804186554578337e+03
3.245843315216971860e+03
4.000401766318806040e+03
4.930445254474920148e+03
4.933067715079936534e+03
4.652217629409471556e+03
3.521610922982502871e+03
2.067600475692162036e+03
1.240196674456015216e+03
7.292456623951644588e+02
6.346505397882312991e+02
1.125051150780503121e+03
1.114094746900641667e+03
1.116810621764157077e+03
1.700754446726356946e+03
3.233796437481401426e+03
4.070188358658687321e+03
3.452248397923387984e+03
3.125505197930117447e+03
3.941614045714198255e+03
4.902297176028910144e+03
5.250683075838821424e+03
5.167235544938702333e+03
4.548266057486824138e+03
3.380337540929254374e+03
2.728791113912071523e+03
1.599564119481751732e+03
-1.517028317892137466e+02
-1.462190529393830502e+03
-2.079402067826922575e+03
-3.452536889080191941e+03
-3.606785376292386900e+03
-2.325378352311563958e+03
-1.346492070770171495e+03
7.423019103646672647e+02
3.246170539200694293e+03
5.468963590363754520e+03
6.407723567671545425e+03
6.423539391146032358e+03
6.086207766158151571e+03
5.390830287514707379e+03
4.470615701138472105e+03
3.341375167372329088e+03
2.033035337601314268e+03
1.442777527494952210e+03
8.335425768058960330e+02
-1.229257127559756384e+02
-9.636842445573684017e+02
-2.669802551630610651e+03
-4.716553725283126369e+03
-4.558075450557978002e+03
-4.446314746955327792e+03
-4.874427999178712525e+03
-5.058434733983785918e+03
-4.888105675196693483e+03
-4.667250759408651902e+03
-4.161882361615272202e+03
-2.554005498868151335e+03
-1.534602561737784526e+03
-2.873918745075238348e+03
-4.604064162304544880e+03
-2.936086028376542799e+03
-3.120178773361452613e+02
1.461255623858365595e+02
-7.882237870778331512e+01
-7.028152031358500835e+02
-2.004968277286847751e+03
-4.505438237149743145e+03
-5.853043168646907361e+03
-6.021760459555855050e+03
-4.556734686343971589e+03
-3.228822277069858956e+03
-2.619068486314893107e+03
-2.037086111019321379e+03
8.177856528905721234e+02
2.396212941032255003e+03
2.536563955261573938e+03
-1.982262512824829628e+03
-6.912531977079552234e+03
-6.901975678778746442e+03
-6.670618993830449654e+03
-7.534693111072201646e+03
-9.950926318295731107e+03
-1.235767970961464380e+04
-1.121689927825189807e+04
-8.151868519973534603e+03
-7.302247012410366551e+03
-8.720011663436285744e+03
-8.733579281209647888e+03
-8.802009752318215760e+03
-6.195779586377044325e+03
1.375315127816951872e+03
6.623526370647642580e+03
9.318793065565681900e+03
9.803443162900310199e+03
8.888266290486772050e+03
7.988430876940064991e+03
7.994237173803922815e+03
7.570975648017274580e+03
6.859398320853356381e+03
7.088209717824402105e+03
7.447429596921595476e+03
8.664114532849391253e+03
9.518309599296439046e+03
8.501253344038699652e+03
8.054166729520523404e+03
7.033971016342046823e+03
4.714044164616579110e+03
2.424602766283032906e+03
9.979761679230072104e+02
-7.503906208277594487e+02
-2.488134346837709927e+03
-4.533665076152361507e+03
-7.551222008260394432e+03
-9.803002620139119244e+03
-1.125214417336977021e+04
-1.249454202919913769e+04
-1.160946617590165806e+04
-7.247539504563049377e+03
-2.558608374151511271e+03
3.235145920291428865e+03
8.920439263485446645e+03
1.090622035070512902e+04
1.010339045981706840e+04
6.234100800588779748e+03
-5.134491576668461903e+02
-3.136057055831862272e+03
-5.904673047300748294e+02
8.062119853337592303e+02
1.543288340408488466e+03
2.097883993333027774e+03
3.811492908067831650e+03
6.129656953280101334e+03
5.472759905760404763e+03
3.353783498515636438e+03
3.816341259121398707e+03
5.081298894212345658e+03
4.296590832431337731e+03
3.230654949388146633e+03
3.871766518733420980e+03
2.925173038718060070e+03
4.272337137793142574e+02
3.762198898883401625e+02
4.261757566800965833e+03
7.455836357721735112e+03
8.656405764792245463e+03
8.013310462168338745e+03
6.724903531797479445e+03
5.326120919580964255e+03
4.355001003585178296e+03
4.325592272667902762e+03
3.651221485756803759e+03
2.609978959216476142e+03
1.911271666306582802e+03
1.021213268114334710e+03
3.626108225218958410e+02
-5.113533896064035957e+02
-1.940425318158431537e+03
-2.371586190710999290e+03
-1.945484762180218695e+03
-1.513728852445923621e+03
-1.089186915995069739e+03
-8.300494852616482149e+02
-9.381557100072549247e+02
4.815536275232394701e+02
3.606476365698903805e+02
6.466082671212674313e+02
2.383211694394698497e+03
2.412459401785286900e+03
1.058673504221464782e+03
-1.378125480159196741e+03
-3.343016005424100513e+03
-3.593774038043235123e+03
-2.964957630596203217e+03
-1.078227280525794185e+03
1.089460821653012545e+03
1.088405344409219879e+03
-2.047122630463107740e+01
7.684395182146867853e+01
9.638148641532517331e+02
1.256659161987453217e+03
8.155390872854108011e+02
8.546851934982084913e+02
9.930065856709823038e+02
1.026593822323749464e+03
9.537006775042829076e+02
-1.168617302004760887e+02
-2.050145469287692322e+03
-5.142939277896125532e+03
-7.934272591033768549e+03
-1.038112381674787684e+04
-1.204615740345278573e+04
-1.265593165364323977e+04
-1.271340098709752419e+04
-1.120023390811833451e+04
-4.924896081913123453e+03
2.393657443667836105e+03
2.275131419974131859e+03
2.072938431602207402e+03
3.536133719187303541e+03
3.115226938463072202e+03
2.376688327898098123e+03
1.546330869274320321e+03
4.323147287932481504e+02
-2.095618780536609052e+02
-9.526080226371333310e+02
-2.268666200427802778e+03
-2.924356391547041767e+03
-3.658522396621195185e+03
-4.611653084800816941e+03
-5.647673080428924550e+03
-6.278468636127672653e+03
-7.125680912335351422e+03
-7.739059309836871762e+03
-7.961239816563705062e+03
-8.649680005290081681e+03
-9.987493024929233798e+03
-9.189820205345518843e+03
-7.872387272952079002e+03
-7.078712232419102293e+03
-6.699432268520949947e+03
-6.178448672150309903e+03
-5.415676464100522935e+03
-5.778391706523770154e+03
-6.373659048216138217e+03
-5.845001825888927669e+03
-5.824399242798305750e+03
-5.240858042316004685e+03
-3.759638029911082867e+03
-3.489355099581263403e+03
-3.594204317861400341e+03
-3.785010101937373292e+03
-3.490250463228685476e+03
-2.962391171118119473e+03
-2.320997550248758671e+03
-1.717263873984493785e+03
1.207031384409397248e+02
2.646017154225771264e+03
5.799814663177402508e+03
8.240657438865215227e+03
1.009801586841330572e+04
1.094849085998854571e+04
1.056781702746282645e+04
1.004182374778366284e+04
9.828632176002120104e+03
1.063790750055345779e+04
1.108579529234193433e+04
1.002666564299388301e+04
8.060817068878863211e+03
6.243180997167727583e+03
4.738268703557087065e+03
3.755077434529739094e+03
5.774335916241624545e+03
8.776231287401033114e+03
9.526363557589224001e+03
9.038289360737468087e+03
9.503701584896849454e+03
1.040242480639319911e+04
1.037960437603649007e+04
1.002912193079205645e+04
1.073862717444528789e+04
1.081080597576576656e+04
7.099863818418540177e+03
5.671345907062255719e+03
5.613101521363189931e+03
5.503872848963366778e+03
5.061536368993665747e+03
1.059301369355222278e+03
2.173070436178500131e+03
5.139722870074142520e+03
1.011947976078579472e+03
-1.076265712042410541e+03
-2.710724991366945687e+03
-1.807347764355843537e+03
-3.466232013032805298e+03
8.324673884404257933e+02
2.044826547576338498e+03
5.491749220818904178e+03
3.845087733657697299e+03
4.834869871862695618e+03
3.635451026566338896e+03
6.181753654208952867e+03
6.867958891065604803e+03
4.772685507977579618e+03
1.156115490537878031e+03
1.465083298279837891e+03
2.108549585750170536e+03
-9.094018192910693870e+02
-5.061817944862544209e+03
-2.569201441834161415e+03
-3.068849032220600748e+03
-1.935286524115279462e+03
-3.040164132594106832e+03
-3.796050249598270966e+03
-3.866040367418781898e+03
-5.489923721029708759e+03
-8.486069293731892685e+03
-7.234494906644705225e+03
-6.273027091240021946e+03
-6.281736310828718160e+03
-3.113941123415038874e+03
2.282306382181741071e+02
8.346002499055996395e+02
2.104932107746449674e+03
3.312143820857615083e+03
2.917361440407677492e+03
8.972750894122518730e+02
-8.895929748189245174e+02
-4.422375049377118557e+03
-8.676903777622714188e+03
-1.051520469188733477e+04
-9.461381613624342208e+03
-7.996623647967293437e+03
-5.933110736658287351e+03
-2.514057573343567128e+03
-1.258620715282595029e+03
-1.117773664309050218e+03
-1.271547315406873622e+03
-1.423835988481741424e+03
-1.115171948754217510e+03
-2.427225748750923685e+03
-3.240815043404993048e+03
-4.823090097149462963e+03
-8.015247628207471280e+03
-8.597221475245762122e+03
-8.743287294129970178e+03
-9.831807314144907650e+03
-7.991159363401185146e+03
-4.927663768441600951e+03
-8.589242002680863152e+03
-1.865172875130846296e+04
-2.134675533592616557e+04
-1.891925446950904006e+04
-1.631314243832226202e+04
-1.678125488834374846e+04
-1.276265004172943190e+04
-7.701602224011158796e+03
-3.788575676008891151e+03
5.722242398561425944e+03
1.361757825977080574e+04
1.068351224029341029e+04
3.823398411681473590e+03
1.314220918071684309e+03
-5.094979550572609384e+01
-6.982917927064147079e+03
-1.568328215472840384e+04
-1.900619810694132320e+04
-1.955046138438081834e+04
-1.505164746761500464e+04
-9.328000909295689780e+03
-1.036143667555477441e+04
-1.441098177986382507e+04
-1.680672899074025554e+04
-1.543242368154699034e+04
-9.082326728000394723e+03
-4.164730355313330620e+03
-1.442146121354473507e+03
3.223713029613052186e+03
1.117440395270210138e+04
2.306743926145690057e+04
2.863253386132418746e+04
2.555692855947396674e+04
2.059461462590440351e+04
2.112226893211181596e+04
2.658019729080233083e+04
2.500945415664831671e+04
1.651279328907736635e+04
1.170829799723421820e+04
1.442810182280998561e+04
1.544914927156348858e+04
1.492628295595302006e+04
1.220746947493126936e+04
1.039961156764138286e+04
4.587589536432905334e+03
3.503353511828042883e+03
4.538799070925739215e+03
2.805866052785683678e+03
1.131505365633326983e+04
2.233593273891791250e+04
2.010194688961036809e+04
1.752448983613521341e+04
1.636056246716460373e+04
1.944232602636301817e+04
1.973262559284440795e+04
1.625996653296607656e+04
1.022128417396364785e+04
6.442684016572722612e+03
1.062740175927347809e+04
9.862237560865356500e+03
-3.389397211269844661e+02
-1.371308445158861105e+04
-2.319494148045433030e+04
-2.320379011653851194e+04
-2.420182537735692677e+04
-1.953089968507099547e+04
-9.591899470995736920e+03
5.708213000582834866e+03
1.764662913451701024e+04
6.210451032116002352e+03
-3.147427832049889730e+03
3.941632398652940992e+03
1.249463887228097155e+04
1.875568990676219619e+04
1.702189072840072549e+04
1.403818714391902176e+04
1.000680514131413656e+04
4.504893202713346000e+03
9.453108179279532806e+02
-2.561858056988945464e+03
-2.415666480295400561e+03
-1.629060553601798119e+03
-4.691852408780179758e+03
-7.974036946439210624e+03
-9.627458186378162281e+03
-1.286093678030690899e+04
-1.393654491764136765e+04
-1.150641765904915155e+04
-8.516556608274808241e+03
-9.175777698602749297e+03
-9.145994620964678688e+03
-1.045707172146253106e+04
-2.033116322849851713e+04
-2.761424319266398379e+04
-2.677732401288847905e+04
-2.749549748864964204e+04
-2.551263854107035513e+04
-2.371755595848077428e+04
-2.482197521348786904e+04
-2.468784989413907533e+04
-1.968032359443473251e+04
-1.010531913183744291e+04
6.653087542408055697e+02
2.561446342418343647e+03
2.187137469091894218e+03
-3.564173172237643712e+02
3.287859941996976545e+02
2.166857536120809527e+03
4.235001205357389154e+03
7.898251224291623657e+03
9.352556057290019453e+03
1.128997925078109074e+04
1.506870901356544346e+04
1.551287383239492920e+04
1.343458139698114792e+04
1.254990463540047313e+04
8.962152925548587518e+03
2.955592319521075751e+03
-1.473746868252695549e+03
-3.693891190479957459e+03
-8.459827150701639766e+03
-1.417546681635733330e+04
-1.144280360820594251e+04
-9.876154426853585392e+03
-1.139574524400717110e+03
-1.835563444170976027e+03
-5.702061615703622920e+03
-1.789169222648466985e+03
6.002410757269188252e+03
1.036786726429303599e+04
1.294331971274688658e+04
1.468792809180782751e+04
1.109568505894739246e+04
6.148494713983323891e+03
2.453523429094360381e+03
1.957883177927888255e+03
5.828762830964383284e+03
9.385317577700592665e+03
1.181068269555279767e+04
1.017989524619199983e+04
4.233038206558291677e+03
-3.187747127625015651e+02
1.528515513041034637e+03
1.126014996626825905e+03
-6.311217698324586536e+02
-4.091932976985400273e+03
-7.589298992300510690e+03
-4.893087470510079584e+03
-8.551956203553861542e+02
4.475491086649162753e+03
5.622071696638494359e+03
4.051683389020623963e+03
3.525482036623726344e+03
4.498487982130155615e+03
5.742778427353691768e+03
5.539425662790042225e+03
8.015436598357227922e+03
5.518937180503771742e+03
2.442073539161108329e+03
4.106026938315791085e+03
5.741892475520809967e+03
8.488736033094786762e+03
6.095693190121007319e+03
4.704890643032425942e+03
4.547324269004024245e+03
4.785001849678457802e+03
2.830909640479908376e+03
1.599241565633305981e+03
3.440131795327909458e+03
8.398721575358105838e+03
1.080224267353600590e+04
8.124904955226043967e+03
1.903897257988338879e+03
-1.808856238182821244e+03
-2.776269102036005279e+03
1.266907029743926614e+03
6.166961009997921792e+03
3.843986022522898566e+03
8.409065634498564350e+02
-6.989210521240272101e+03
-1.537434107721942200e+04
-1.824639163313044264e+04
-1.303214137230594679e+04
-9.940386410004875870e+03
-8.633922203792906657e+03
-5.052484198479973202e+03
-1.217996466063629214e+03
-7.334455740564721964e+02
-5.419742637650102552e+03
-8.569639745505564861e+03
-5.464734650143315775e+03
-4.006302803188482358e+03
-5.064258662065108183e+03
-7.572424065508265812e+03
-6.766675045124018652e+03
-5.775522469082081443e+03
-6.068269413780412833e+03
-1.028508098072389475e+04
-1.441631832881079026e+04
-1.472403400979362777e+04
-1.350817402409821989e+04
-1.411983816772462524e+04
-1.607066715383841256e+04
-1.510009139903753021e+04
-1.377191693560057502e+04
-1.362711185636360278e+04
-1.232148957779897319e+04
-4.841199105036951551e+03
4.212461085845480738e+03
5.673206175880853152e+03
2.642880894883202473e+03
1.805917439849269158e+03
-7.622323260655213062e+01
-9.467262843599299913e+02
-3.068218298731354139e+02
2.769577736425631429e+03
2.987656653583756452e+03
7.300841538313303545e+02
-6.396863140365698200e+03
-7.492459939279036007e+03
-2.766042645397982938e+02
8.645779130320004697e+03
9.675791111823671599e+03
7.140239177111498975e+03
5.056190036298256928e+03
6.478562905751819926e+03
8.853536537836076604e+03
8.817011338932185026e+03
9.611597986164575559e+03
1.002413292716080286e+04
8.686752485893002813e+03
7.851348911441927157e+03
9.535853335496114596e+03
8.503340041251991352e+03
4.673871067695612510e+03
3.335751161415014820e+01
-1.904124691230063263e+03
-2.319486960156584701e+03
-1.683875744887860492e+03
-1.218634846267647845e+03
-5.099610957548628107e+02
1.161968700425256657e+03
3.086981271202040261e+03
5.578166995684551694e+03
9.836538151767381351e+03
8.458977783211586939e+03
2.917478220837109802e+03
8.719042577804283383e+02
2.451185554334720564e+03
3.993147398877060823e+03
4.318804457191505207e+03
6.075172038637080732e+03
7.350932032509367673e+03
7.107948100946315208e+03
5.588175797758379304e+03
1.399202474834540681e+03
-1.219263972154717976e+03
1.371501249733776433e+02
-2.161074851055893305e+03
-2.865541721307102762e+03
-1.889775154556699590e+03
-2.184047680480246527e+03
-3.305274237331309905e+03
-1.844959710013986751e+03
-4.498449537307938044e+03
-1.010886086140427869e+04
-7.015915137396224054e+03
-5.627923945613789556e+02
4.169177198588397914e+03
1.312572609021440257e+02
-4.135932232995662162e+03
-7.659620672922023914e+03
-3.108411745866324509e+03
2.248816669384037596e+03
2.717588002497525395e+03
3.825570122810231169e+03
2.590119047238146777e+03
2.083829906214392395e+03
4.670434071916700418e+02
-3.250116720569429162e+03
-3.196903763303056166e+03
-4.739702684766982202e+03
-1.035016773636484504e+04
-9.711486226984852692e+03
-2.414692550164366367e+03
1.985859390104063095e+03
2.932675049902454703e+03
1.000139323934838899e+03
9.724585130126071135e+02
2.312194684791720192e+03
-5.725315468809828872e+02
-8.152069832946356200e+02
-2.242368938872670014e+01
-1.255811266881247775e+03
-1.558866296797546056e+03
4.090958686445982266e+02
2.117354269566638777e+03
1.009887968610188636e+03
2.067431811246434492e+01
-1.503120598203699046e+03
-4.624608082081967950e+03
-6.272557298813764646e+03
-4.450340241774224523e+03
-5.461581098555220706e+02
6.090377876945204889e+02
-2.084773543557659650e+03
-1.678053007205782706e+03
2.046060046726169730e+03
3.055743878944573225e+03
2.215980974494208112e+03
2.545605412336997688e+03
1.971795287183317896e+03
-1.275454800934198403e+02
-1.468405772346126923e+03
4.833427574946330196e+02
1.940071327821631030e+03
3.365005053601432337e+03
2.843887988197877803e+03
3.926142114393020165e+03
3.991666904919323315e+03
2.407766418189115939e+03
2.204474570681476564e+02
-1.622801175272334376e+03
-1.672504400694192782e+03
-9.174163801460676950e+02
-8.898206382443199800e+02
-1.667308885077013940e+02
3.680133217430440595e+02
1.209255865975677807e+03
1.842735389878630258e+03
1.859231125441330050e+03
-3.177440037109781201e+02
-7.340730807086330287e+02
6.464333796147031990e+02
8.770091107884177291e+02
1.129530717801017090e+03
-4.759968246891387480e+02
-2.136854946775132703e+03
-2.507076478583582684e+03
-3.431305992878855250e+03
-3.377461078278689001e+03
-2.224608780190762900e+03
-1.513477072729914198e+03
-2.204128140053903735e+03
-3.625906211352919399e+03
-3.298853111163153244e+03
-2.370591968787266978e+03
-2.551536310393491931e+02
1.465529141549105361e+03
1.788201846813725297e+03
1.768908003940168101e+03
1.584142775106339968e+03
6.840961205980335080e+02
-2.974767040530058466e+02
-1.985859720365737928e+02
-3.759948951547605702e+02
-1.974783259869253243e+03
-2.750338886572652427e+03
-7.111376902909726141e+02
2.475429253211330547e+02
-1.006728535629135877e+03
-2.131735809362338841e+03
-3.343198563319258483e+03
-3.299250645244249426e+03
-1.816946819562521569e+03
-1.349282463204634723e+03
-2.130311810538486952e+03
-3.209828027416133864e+03
-3.093795238791795782e+03
-2.356346115888614349e+03
-2.323136850879902795e+03
-3.861892436627313600e+03
-4.607575190847030171e+03
-3.403835172300704016e+03
-2.987348969815454439e+03
-3.757069337790327609e+03
-4.892026320926416702e+03
-5.750902147406344739e+03
-5.979468581257259757e+03
-5.571310205191761270e+03
-3.913309719916352151e+03
-3.192161903918232383e+03
-2.919039231655917320e+03
-3.357475333905398202e+03
-2.988076006260137092e+03
-1.710142461528115291e+03
-7.950944888429954460e+01
2.339976847379633000e+03
4.219493094905929865e+03
3.481570470378446316e+03
2.557505052476851688e+03
2.005422603741624016e+03
2.303187110743681842e+03
2.996449205767054991e+03
4.021250371661599274e+03
4.636643841381890525e+03
4.709951621867805443e+03
5.048666133350854579e+03
5.193865686738929071e+03
4.775108669949995601e+03
3.947586442869417624e+03
3.156519550662170786e+03
3.274170296632445115e+03
3.541649538504692373e+03
3.532565388562552926e+03
3.921827764267147359e+03
4.763271328510605599e+03
5.041203259433071253e+03
5.678937334611681763e+03
6.474443214188368074e+03
6.525675733357276840e+03
6.766687711999405110e+03
6.882630224498098869e+03
6.103330315390276155e+03
5.160212676215043757e+03
4.773297233236789907e+03
4.544187928201025898e+03
3.896901042751932437e+03
3.638333078068078976e+03
3.581902074349897248e+03
3.487679086333591840e+03
3.164598310016921914e+03
2.329653562087428782e+03
2.315117687780206779e+03
2.412970399116959015e+03
2.014996584665338560e+03
1.702977082045020779e+03
2.222066892090590045e+03
4.079667432156285940e+03
4.800206575953769061e+03
4.954557487293751365e+03
5.170545920659152216e+03
6.408765319098192776e+03
7.213081042204020378e+03
5.241032196816387113e+03
2.134693352632316419e+03
3.085199953642725745e+02
-5.543248700044869111e+02
-2.208153843233596945e+03
-4.513608855069962374e+03
-5.171638037560687735e+03
-3.163154668412380488e+03
-2.077360595503756031e+03
-2.595396566837064711e+03
-2.350110104724337816e+03
-6.150447352834077037e+02
1.097748082283892700e+03
-4.401790194431355872e+02
-1.324720028606708411e+03
-1.390698792100817172e+03
-1.540021010888196997e+03
-6.519405564220879796e+02
1.494875998419351788e+02
2.263305489952070388e+02
1.948998092255918380e+02
-4.067680068217080134e+02
-1.561947636580977587e+03
-2.813798663135212792e+03
-3.230249519432990837e+03
-3.880201130306030791e+03
-5.545972010709109782e+03
-4.914673335648420107e+03
-7.845156115767124902e+03
-1.183051965104759438e+04
-1.005145704815739373e+04
-8.230256674646789179e+03
-1.055340186723161605e+04
-1.130456124014540728e+04
-8.711872634376666610e+03
-4.587231453042611975e+03
-2.526684121276864062e+03
-3.486322212193047562e+03
-4.695308268773756936e+03
-3.978444036266515013e+03
-2.234564393339477192e+03
-2.127185462152965101e+03
-3.066839585502969840e+03
-3.013421049999738898e+03
-6.673195847728917443e+02
-2.311946734326595561e+03
-5.490951507216131176e+03
-5.882278090369091842e+03
-3.358144388882136809e+03
-2.058658176521660607e+03
-1.466731065032292918e+03
-1.355526067472644854e+03
-1.132024461153960601e+03
-7.249917715757164842e+02
-1.953411930532101053e+02
6.437480579013493980e+02
1.254444843773391767e+03
1.337049716396187705e+03
7.387786097104302598e+02
3.255541092021605323e+02
6.312663684286214902e+02
3.808551180019409230e+02
-7.236805899378858840e+02
-2.241503641568587682e+03
-3.051782501321406471e+03
-3.187414722999892547e+03
-2.853389696692614507e+03
-3.042939405633850583e+03
-1.946598572822662391e+03
-4.049370225273219717e+02
1.606913609113514951e+02
2.350174018511036707e+02
1.029067924371923482e+03
1.503036504967884639e+03
1.699894759666146911e+03
2.239609575160964596e+03
2.970478615621906101e+03
3.304723884424226526e+03
3.600489062117558660e+03
3.736722896445880906e+03
3.682219811076840870e+03
3.435193677640560509e+03
3.467784415406052176e+03
2.726719062701092753e+03
2.089882447495785982e+03
1.785450321036438027e+03
1.140331744205763016e+03
8.688843431459200701e+02
5.494328643140698887e+02
4.233801246366738837e+02
5.832456635873633104e+02
8.244704643966217645e+02
1.290444221505800442e+03
1.458546994945862252e+03
2.131743095340460059e+03
2.719717210583889937e+03
3.179244620391863464e+03
3.900495721592742484e+03
4.150640995430790099e+03
3.852843197482420692e+03
3.805038780216511441e+03
3.683438703461193654e+03
3.068182867855094628e+03
3.125075792519318838e+03
2.763321220429008463e+03
1.868404986885183462e+03
1.044880246949600860e+03
2.500464837094675659e+02
-3.209977968824558161e+02
-6.279717602115973705e+02
-7.345276524155402740e+02
-3.328200396978136837e+02
3.510456652618448743e+02
1.452527373160748084e+03
2.449623301077768701e+03
3.415391533477008124e+03
4.284963874014537396e+03
4.660111544364477595e+03
4.502603922687735576e+03
4.234525391177657184e+03
3.428123589671182799e+03
3.353482635379548810e+03
3.481699038874855887e+03
2.789946213007725419e+03
2.256212021756247395e+03
2.465235247727555361e+03
1.569779443444082517e+03
-5.439743707850965393e+02
-3.032747168047887953e+03
-6.370720191382883058e+03
-8.198081489589168996e+03
-8.811698097584914649e+03
-5.957410034350182286e+03
-1.408187810051764927e+03
-8.479379125256053840e+02
-3.503485412683277445e+03
-3.118856591322634358e+03
-1.881333801032695192e+03
-1.350949690868854987e+03
-1.442696583490893545e+03
-1.791398859980686893e+03
-1.909261719312890818e+03
-2.050235194952000256e+03
-2.593181800806066803e+03
-2.995990104623139359e+03
-2.295652280375438295e+03
-1.950315059652173659e+03
-5.005998590515189790e+03
-6.134650966386557229e+03
-5.723385097266254888e+03
-3.417199339829226574e+03
2.188433949665336442e+01
9.948942985587583507e+02
1.400911271483184692e+03
1.520137124154006187e+03
2.201470008683660581e+03
3.393836953764081045e+03
3.969283903768390246e+03
3.761711542648388331e+03
2.982275446672547332e+03
2.279040990176101332e+03
1.718872628261832233e+03
8.367754675189175941e+02
-3.573459389319901902e+02
-6.506236117323189774e+02
-3.430518278365121319e+02
-1.042550652222224471e+03
-1.404058923892360554e+03
-4.956984737528927667e+02
5.453833527030250252e+02
7.509975194552550875e+02
7.816673613955951794e+01
-1.680806832581794481e+02
4.328196546275768242e+01
9.843372349077923218e+02
1.494171458165975537e+03
1.936843258661515392e+03
2.324152903289477308e+03
2.443099215558391734e+03
2.736835201652406340e+03
2.973278283603865930e+03
2.967227434461549819e+03
2.300711127107581433e+03
1.402940384039497076e+03
5.599568659418729339e+02
1.159580924489480402e+01
-7.382989489039897535e+02
-1.768913598910203973e+03
-2.237352715416208412e+03
-2.632647457064976152e+03
-2.667800578110198785e+03
-2.851903941278126240e+03
-2.405063924190957550e+03
-2.132289954224571829e+03
-1.525454882970871950e+03
-5.714238190314840722e+02
1.369840964072046319e+01
