1.716226317896454248e+03
1.645709512368323431e+03
1.530292105590215897e+03
1.106123673582248102e+03
3.663620099997336297e+02
4.930975542453080607e+02
9.157188497187539724e+02
1.124192898172816285e+03
8.527308836691238412e+02
1.206470805579207308e+03
2.692414017773755859e+03
3.212584491035845076e+03
3.140061747031120831e+03
2.490886038251981518e+03
1.649219118555605746e+03
8.611246929140030488e+02
4.005204895524000221e+02
-3.577870301049959494e+02
-8.966998126123456814e+02
-3.840987706229783498e+02
-2.828367467120005472e+02
-1.015935942404388470e+03
-1.587337970879610793e+03
-1.115005425126572618e+03
-3.829715738618253908e+02
1.086526434313135951e+03
2.764400135842923646e+03
2.879944184539803246e+03
2.738385734821325059e+03
1.977941865416834389e+03
1.521600984990146799e+03
1.528023279812856572e+03
1.282007175128070458e+03
9.012466079581671465e+02
8.049432210363535205e+02
2.516823183585862864e+02
-2.666865574970394164e+02
-8.993225393703218060e+02
-7.338317252174956593e+02
-2.012981726439573151e+02
-2.778149552279538526e+01
-6.060039509679676861e+00
-3.351204684789090607e+02
-6.479790926949334562e+02
-9.515889821364609134e+02
-7.260800437199756061e+02
-3.263957666331741621e+02
-2.514740511591928964e+02
-6.751855137411537555e+01
-8.844214446691763953e+01
-1.401339839577264001e+02
-1.125879904927184754e+02
-1.446360905258474361e+02
-2.803405496850376721e+02
-5.456902720585358111e+02
-4.337331521010949018e+02
-8.544810286139197331e+01
-2.709466732247303185e+02
-1.211172981408249996e+02
-2.498509026833120288e+02
-7.062358282827541416e+02
-9.653360220980912345e+02
-1.065112998177898817e+03
-1.298509245500599718e+03
-1.397459521400306585e+03
-7.941097096063293748e+02
2.164603249456954757e+02
3.772115749853804800e+02
2.381954346428813949e+02
-3.742939220361469665e+01
-4.456125442082176278e+02
-8.573771215935817054e+02
-9.438207484402561249e+02
-1.509971552878359716e+03
-1.714854428214310474e+03
-1.918470885976055342e+03
-1.965838762860152883e+03
-1.933963516417594519e+03
-8.088105056023756561e+02
-1.464507197039467030e+02
-2.569418416439086741e+02
4.678495260459379068e+01
1.896256834915660363e+02
-3.144819836123190839e+02
-1.525481778752129571e+02
4.904911309831111907e+02
1.996623175531622110e+02
4.208676276756830248e+02
6.520434405103110294e+02
1.632425182343818619e+02
-4.665641245771240051e+02
-6.174456152305961041e+02
4.266037896266061011e+02
5.925112875538424078e+02
7.052321527617093579e+02
8.627849432270213583e+02
3.912292386913755422e+02
-5.754090402340325738e+01
-5.836324147063243117e+02
-3.660470959470929415e+02
-4.487742488289283642e+02
-4.338386108476690879e+02
1.057945948312561626e+02
1.711838596780358159e+02
1.638810203430828096e+02
9.009987517057917330e+02
8.127435357774825206e+02
3.490737638061576718e+02
7.833767477589174177e+02
1.077752734500410725e+03
1.274517056653248801e+03
5.243544621661520750e+02
1.464502009782961522e+02
4.397245750764469108e+02
7.129676575433591097e+02
7.732978609602852202e+02
4.117289020772623758e+02
4.053830213940979093e+02
3.941530424314579477e+02
2.089333609974692081e+02
3.294727063130179658e+02
2.624922405552132432e+02
-4.936882776290763672e+02
-1.342429589406644254e+03
-1.502631579263896356e+03
1.059703665952718552e+02
1.409966111682681685e+03
2.458473199385964108e+03
2.493497041136727603e+03
2.465943795894992945e+03
2.111736453345619339e+03
2.154956957188413526e+03
2.850215821433955625e+03
2.904613633789776031e+03
2.526222726879006132e+03
2.390014945403202546e+03
1.791043900988076530e+03
1.202360579816127256e+03
1.154587115453458409e+03
9.970454718756983539e+02
1.454532944721738659e+03
2.836684907232632668e+03
3.231563593095870146e+03
3.106981541569520232e+03
2.222934288832925176e+03
8.736024084212047001e+02
4.601579057246017896e+02
7.536838432015355238e+02
4.450043226632088249e+02
-2.208062479553568380e+01
-2.875526649124541905e+02
7.185886833993426990e+02
2.631450840601913569e+03
2.881061682040176947e+03
2.276428033001448966e+03
2.742576811603713395e+03
2.925523602552256762e+03
4.951276962594913016e+02
-3.015545198886718481e+03
-3.240267588158991657e+03
2.457922926380610079e+03
3.034042361627547507e+03
2.565973397468447274e+03
-1.976566993231762126e+03
-6.219786475465904005e+03
-5.094675131978982790e+03
-4.875305663345491666e+03
-5.511772716081926774e+03
-6.101048134152574676e+03
-5.728965945993367313e+03
-5.646202669748049630e+03
-5.845849619838240869e+03
-5.892977925801281344e+03
-6.211485866995155448e+03
-6.339145774768197043e+03
-5.074925973119862647e+03
-9.781459381752849822e+02
-7.789841798506910209e+02
-5.056470810647945655e+03
-5.821548750150450360e+03
-5.685280648569653749e+03
-5.708531787695522326e+03
-5.497944337348127192e+03
-5.564018398167757368e+03
-5.512677472929710348e+03
-5.053114274623176243e+03
-4.815407168248829294e+03
-4.912664544816476337e+03
-4.416846100640404075e+03
-4.413063264308963880e+03
-3.899061317182362018e+03
-1.271032627561913699e+02
1.897332558676837607e+03
2.073635674039706828e+03
2.717931396099277663e+03
2.423249586092936624e+03
2.555605402182373382e+03
2.354980816446430254e+03
3.231358274527743106e+03
4.586794718777739035e+03
4.475339447595957608e+03
3.653998828756749390e+03
3.808874363322427598e+03
3.800033488003269213e+03
3.652558466549985042e+03
3.201501580452497819e+03
2.694862777752573948e+03
2.585683413737117917e+03
2.877020913559427754e+03
2.773038053100522120e+03
2.953909779239046657e+03
3.148599461842036817e+03
2.823989228296638430e+03
2.419075442605324042e+03
2.202930905229674863e+03
1.704682138008076663e+03
1.448311071991650351e+03
1.284856700005476114e+03
1.238429475254844874e+03
1.575184894733227111e+03
1.462342084042525357e+03
9.478440047700494233e+02
1.224497272934451757e+03
1.705441300489179639e+03
1.623895730319362883e+03
1.460754168616850848e+03
1.898423013257709044e+03
2.136631457005349603e+03
2.046383355029319773e+03
1.613940839109974377e+03
1.482285961695982678e+03
1.485454557419662933e+03
1.480636618354576513e+03
1.663546645466855125e+03
1.160664340727555782e+03
6.666316383990465511e+02
6.654509717054710336e+02
-1.645011670535328676e+03
-3.477527650639912736e+03
-3.188994823482944412e+03
-8.316298504027728313e+02
-2.613279457695250017e+02
3.481008690213330397e+02
1.297367991820704447e+03
1.636220920961244929e+03
1.193984635536601672e+03
8.126415214505734639e+02
7.821415388471983761e+02
4.104268237540572386e+02
1.035606029326710882e+02
1.985110556388242173e+02
2.251569196404599325e+02
1.415530537151211377e+02
-1.125642374337428464e+01
-9.728757638688230713e+01
2.024501439779443501e+02
5.839714055113562381e+02
4.553372556361752004e+02
5.364790480247902451e+02
4.038059590609687177e+01
-6.984753380188648464e+01
4.288292704639094666e+01
-1.914198937193219194e+02
2.101660951186582338e+02
1.652480884444395670e+01
2.606778337665621734e+02
5.705698455955705413e+02
5.390960193735567145e+02
8.063446804548044611e+02
6.573838937129123678e+02
7.172698788822317510e+02
7.710331778502970792e+02
8.366491139124345864e+02
4.940643769795346429e+02
9.322687373186637672e+01
-1.238660497061272565e+02
-1.393743084629125235e+02
-3.582897116555387811e+02
-5.393969402058481819e+02
-6.755600864971939927e+02
-9.039689961195215346e+02
-9.628319684031284851e+02
-7.693285844558001827e+02
-9.495188136659454585e+02
-8.162603527979136970e+02
-1.321363168683117522e+02
2.080467777141006991e+02
-1.110679030027930878e+02
-9.658240083745409947e+02
-5.614052351171211512e+02
-7.026615279066990070e+02
-2.469459390546865052e+03
-5.138582725718967595e+03
-7.734025203825694916e+03
-6.453878293675208624e+03
-2.015477757233182501e+03
-4.778489371541194828e+02
-1.299455475698294720e+02
-3.268604136636596991e+02
-7.105202386944658883e+02
-8.368228913669076974e+02
-6.137185182801822521e+02
-9.735247836000054349e+02
-8.085665335445814890e+02
-5.697912861294475988e+02
-1.611571207414046967e+02
1.053384555750215235e+01
6.247817356490603515e+02
6.187300902381541619e+02
3.470312075096343847e+02
2.172830153539570119e+02
4.206208891365481577e+02
5.860851159156034100e+02
-6.430054370180814161e+00
-1.572579446018096405e+02
1.382721889190945603e+02
-5.815244974845999337e+00
1.139359934955721485e+02
3.029935913015914650e+01
-1.938134423984381272e+02
-6.745760192947197993e+02
-1.125817260793494825e+03
-1.687230095959659366e+03
-2.237593394687688942e+03
-1.998678467681056190e+03
-1.196039523570443635e+03
-4.546397972199686137e+02
8.123472456235841719e+02
1.933878455516309259e+03
2.310977881805974448e+03
2.193877117532278135e+03
1.567315658515741006e+03
1.121520474494506061e+03
9.907637407730569521e+02
8.955446053226927461e+02
4.926641373821885281e+02
-1.891248880941382708e+02
-1.040034986577222753e+02
-2.309775823287134955e+01
2.764913545424298604e+02
1.418302446286972440e+02
4.593363461463229100e+02
1.077745283291791566e+03
1.157447685413216277e+03
4.746903763930356490e+02
3.412261613306445156e+02
1.487135336742509821e+02
9.507525460666914796e+01
3.436409391342115214e+02
3.950164950115107558e+02
-2.510634970841479117e+02
-5.500506045005098343e+01
5.938494169360556043e+02
2.225108206353500009e+02
-3.379389957955563091e+02
-1.081291639948205052e+01
1.431578761192218963e+02
3.305824548467023760e+02
9.311429372437597749e+02
5.211749094983310897e+02
3.738619293534505346e+02
7.631682055408629139e+02
1.058910875588722092e+03
8.675459689935501046e+02
3.882629217288757673e+02
-2.095229440351365042e+02
-5.773804726480937006e+02
-5.544905810384011602e+02
-9.298295856365102736e+02
-1.267448671007262874e+03
-9.216665333482376354e+02
-5.176965787578027403e+02
1.463068346029081965e+02
4.729344430865762092e+02
1.050891618112362039e+03
1.524645885432597197e+03
1.755505729374392104e+03
1.456068303168925240e+03
5.956194494266854917e+02
3.717693288227756625e+02
5.388351660720171594e+02
-4.509883927421475391e+01
-4.777479432752245430e+02
-5.885509248182297881e+01
5.187207608659531388e+02
1.223571450811115028e+03
1.547981239893541897e+03
1.513201116500595163e+03
1.459046173893541209e+03
1.233921294599889279e+03
1.380951329793010018e+03
1.455589968309391679e+03
4.385971212638303314e+02
-4.611011969749717991e+02
-7.149606109103763174e+02
-4.438387100600119766e+02
1.086217010223017070e+02
-4.335384992610698305e+02
-1.154469251790219914e+03
-2.294926260482206999e+03
-4.097140808676306733e+03
-4.829944202202435918e+03
-3.319641300590897117e+03
-6.903980123041978914e+02
-1.382646611612767451e+01
-1.147882102328534529e+03
-2.464921595038241321e+03
-3.785254361909558611e+03
-3.773664322922625161e+03
-2.990044666882387446e+03
-1.641150059758017051e+03
-2.468544387800656352e+02
2.554798518688130571e+02
-1.615947143886933191e+03
-3.541179334587923677e+03
-2.814713218694888837e+03
-2.219372513549821178e+03
-1.614226757062729803e+03
-1.040696096042705449e+03
-9.437079696993732796e+02
-3.176700770345482852e+02
1.368771235949198854e+03
2.547165752066687674e+03
2.294217891517939279e+03
1.908149947693195543e+02
-2.872935140859551211e+03
-2.302843457843960550e+03
-1.225697555095012603e+03
-1.649355300911969380e+03
-2.190014765193150197e+03
-6.823722683519071097e+02
3.465921081397804755e+03
6.194314847062595618e+03
5.291868883576568805e+03
2.936452627266238324e+03
5.363653841639594475e+02
-2.124433257402195977e+03
-3.931733775168248030e+03
-3.978589017468688326e+03
-5.574843849239767906e+02
1.723826284672020847e+03
8.234420938567698158e+02
-1.578735517986384309e+02
-2.177888291248349049e+02
7.027476520121259682e+02
1.632526709379557360e+03
1.831736076152377564e+03
1.443224774762486277e+03
1.337667191425332021e+03
1.616479289580299564e+03
2.209703454241916916e+03
3.093030488254993088e+03
3.761422114579443132e+03
3.972906913778792386e+03
3.523433502730014879e+03
3.238748038043117958e+03
2.715722531617362620e+03
1.794469110645754199e+03
1.309106966912547477e+03
9.730721448402678107e+02
6.722352979522177066e+02
3.962107841738940692e+02
2.298412506626020502e+02
-3.788281915385797447e+02
-1.560802714005720418e+03
-1.022258955210916838e+03
1.422724870065910864e+03
3.507319112474316171e+03
3.225608914387305504e+03
2.626508513902937466e+03
2.305106886885869699e+03
2.875402561643645640e+03
2.785158664659860733e+03
2.402263474419223257e+03
1.984770570271915631e+03
1.931677616147154140e+03
1.532942118313020956e+03
9.162007256719020631e+01
-3.185372783077066742e+03
-5.046988177750165050e+03
-5.588341934643114655e+03
-7.634719480830292014e+03
-4.708358495444320397e+03
-5.446990062195834071e+03
-7.378468290547586548e+03
-6.155913448979023997e+03
-5.149295165487231316e+03
-4.326959556486279325e+03
-1.312068148349367448e+03
-7.806062619471557582e+02
-4.505399700806386136e+03
-5.053137676817837018e+03
-5.056086329445869524e+03
-9.545657424607734356e+02
1.086610481079183728e+03
-1.346801850862896572e+03
-3.703079958810915286e+03
-3.930137281487645851e+03
-1.608468495297430991e+03
-3.130882008533591033e+03
-3.622866788109722165e+03
-9.093974683906120404e+00
2.010082961715305373e+03
3.095161338271191198e+03
3.355264001317398652e+03
4.194194721010798276e+03
4.972952428014003999e+03
4.503706154275723748e+03
4.356456133529730323e+03
4.367937216398638157e+03
3.973876263638223918e+03
3.766265415151380239e+03
3.600022947353738800e+03
3.709170501667260851e+03
3.034793783407316369e+03
1.821819948435541619e+03
1.435240739108986645e+03
1.709062308563306715e+03
3.126316798528620893e+03
4.306133089886882772e+03
4.055335116358132382e+03
3.578888973812435324e+03
2.974458727523312973e+03
2.327200606963041082e+03
2.094367646335009340e+03
2.300568200358392914e+03
2.759652382468620544e+03
3.515618580321065110e+03
4.128552042812880245e+03
4.528602762160303428e+03
3.972810386276650661e+03
3.500966006973660114e+03
1.969966403050862255e+03
-4.218347143853110737e+01
-2.914685098651761450e+02
1.643185668191792047e+03
2.826849307574988870e+03
2.068580786632048330e+03
-9.771411368346444704e+01
-2.813135760077942905e+03
-5.518774715338557144e+03
-2.923617904942604582e+03
2.756298239192009987e+03
5.373270345905574686e+03
4.521577925520674398e+03
7.233407758229169531e+02
-1.915380145342427795e+03
-2.794040090117293857e+03
-1.029512687009625552e+03
1.600735179152764431e+03
3.757607697957856999e+03
2.853787381025904779e+03
2.238146567417390997e+03
2.220230568861572010e+03
1.078924977847091668e+03
6.231896846774932328e+02
1.863048231358510293e+03
4.550546111222049149e+03
4.379378996629267021e+03
6.463772779116347067e+01
-4.696354585008541108e+03
-9.770654947406308565e+03
-1.335940335012389914e+04
-1.038655390244892078e+04
-3.980043480841577548e+03
-4.857544783131332906e+02
-1.646818811663031056e+03
-9.831867184665213699e+02
1.278194428261170287e+03
3.403498027749278663e+03
1.050962565465373245e+03
-6.138474832456974582e+03
-1.515783439856764016e+04
-2.038305960116098504e+04
-1.540315060984062984e+04
-9.838964137925464456e+03
-5.065330323093506195e+03
4.141778643202332205e+03
7.166337567711259908e+03
6.872983460935438416e+02
-4.829236177572975976e+03
-5.464199589180149815e+03
-5.688604592200689694e+03
-8.540376082800938093e+03
-1.278660576534385291e+04
-1.746514855947299657e+04
-2.062165043759626860e+04
-1.332605619233879042e+04
-2.946275854544218760e+02
6.360928335643600803e+03
8.058833655036503842e+03
9.117870790527938880e+03
6.915940550940098547e+03
8.574153680184595032e+02
-8.168672417327611583e+03
-6.566241293447172211e+03
-4.130243782582211679e+03
-8.707562787200387902e+03
-1.780417160882897588e+04
-2.486815701085090768e+04
-2.987446419093633813e+04
-2.523105288972566996e+04
-1.030679992393418433e+04
7.778483573162943685e+03
2.210197317251047571e+04
2.196258797148424856e+04
1.733034986736336577e+04
2.034031460324836371e+04
1.954440151145213167e+04
1.813171652634638303e+04
1.759952331908620909e+04
1.221376925432644384e+04
1.011531207627343611e+04
1.618520858542410679e+04
1.961963856398671123e+04
1.506659178101821635e+04
1.146700405838506776e+04
6.184871781822223056e+03
-2.495342019114469167e+03
-8.046749309791605810e+03
-1.319736112181664794e+04
-1.297629543494335485e+04
-6.602024965265884020e+03
-1.229769063538507908e+03
4.764539109361579904e+03
1.193507186702406761e+04
1.722152788079660240e+04
2.093933806005880251e+04
2.323735100679304742e+04
1.955841503788388218e+04
1.061547344423458708e+04
5.657361143185211404e+03
3.258805693503394195e+03
-5.819628531904530064e+03
-1.403693352732749918e+04
-1.710890938198173535e+04
-1.727275497144618203e+04
-1.610917651490511344e+04
-8.611129974750221663e+03
4.621192325630820960e+03
8.835702024100095514e+03
6.918345991148855319e+03
8.178084830611763209e+03
1.272582782327522182e+04
1.596984333447546851e+04
1.189115149422565628e+04
7.398891377303042646e+03
7.272937223641709352e+03
3.288319068935771156e+03
-4.155884558020183249e+03
-6.526874136403082957e+03
-7.566743678371835813e+03
-4.377274504662175787e+03
5.752448905337978431e+02
5.624033123428899671e+03
-3.801629786357156604e+02
-1.277592514940569527e+04
-1.331136366846495548e+04
-5.238571543288719113e+03
3.058208595040625823e+03
5.085710122165071880e+03
7.199983818766699187e+03
3.888126686977768259e+03
-5.406883171873897481e+03
-1.332707073673209379e+04
-6.389631974963455832e+03
4.125337122095948871e+03
3.336785024225163852e+03
-2.357400468931987689e+03
-7.594137435583818842e+03
-4.177267789883966543e+03
5.079209973722822724e+03
7.744076760059614571e+03
2.634170113833182313e+03
-8.335604540114917427e+02
-5.954229305820785157e+03
-9.819772828719438621e+03
-1.110429523829950449e+04
6.409826699149251681e+02
1.040203337008106973e+04
5.328823100770023302e+03
-1.494152062812832446e+04
-2.309786936337547377e+04
-1.648656771269871024e+04
-6.486895526855710159e+03
3.476576459019036974e+03
5.594836476820897587e+03
-1.297431921692385004e+03
-2.026470169092917558e+03
1.812755390479310336e+03
8.853246739165811050e+02
-1.819793325734001655e+03
-2.793636598605937706e+03
-1.141678869435348389e+02
2.372581337096465177e+03
-1.306590092968673844e+03
-2.783100196174657412e+03
-3.127976523109588015e+03
-6.544052864594916173e+03
-6.239357417878722117e+03
-5.432087776312167989e+03
-6.696347149069546504e+03
-5.999175170270164017e+03
-6.580611623186636280e+03
-7.665601633182229307e+03
-3.957152301767154768e+03
-1.653812954180502288e+02
1.027595817606638548e+03
1.181724616299445188e+03
2.492993418525565630e+03
3.296391449747039132e+03
2.198882817301433988e+03
3.942993520312442968e+01
-2.345952297793719481e+03
-4.380310361476064827e+03
7.413155696956341671e+02
5.683977253961016686e+03
6.632710281004358876e+03
5.526472293977501977e+03
4.986154177703089772e+03
5.029676555369745074e+03
3.434035558240557293e+03
2.441007688165147727e+02
-5.793464367670775346e+02
1.637263222099088580e+02
-2.545894492324655971e+02
8.357205454817462851e+02
2.908628615905838160e+03
2.248031216817930272e+03
4.889900765070253215e+02
-3.683540999531950888e+02
-8.100693249408293468e+02
-9.112816274724273171e+02
-6.599312779363947357e+01
-1.201183867024249281e+02
2.070481049310458275e+03
4.258654968712912705e+03
3.012327732820950587e+03
-1.552122391648352050e+03
-2.091252504741986286e+03
-6.187087623319882823e+01
1.163867973858206597e+03
3.477022480998995889e+03
2.385802477982404525e+03
-5.368291640002008762e+02
-3.400017565041306170e+03
-3.583619825768749706e+03
6.777148284757199690e+02
2.917802609391491842e+03
2.378609116934233043e+03
2.218925191516883842e+03
-8.850015905225777715e+02
-6.042272720085717083e+03
-7.946178365266714536e+03
-3.824437497863205863e+03
5.372930483105784333e+03
1.156821292056298626e+04
1.004254016721099833e+04
2.719441704548986309e+03
1.250782917371353506e+03
2.244624688112997774e+03
9.200214337778672871e+02
-1.260978816385951546e+02
2.159322358060741408e+03
5.804326050461583691e+03
7.226899600654347523e+03
5.648079332905322190e+03
4.217935563119743165e+03
2.294496949387711993e+03
9.467784545237145721e+02
5.218349200947054669e+02
-2.882693978455951083e+02
-1.631453878563343778e+03
-2.401714480388297488e+03
-2.158065955679386661e+03
1.503807762440898443e+02
1.805641864288516899e+03
3.294883075325261416e+03
1.242174483250730873e+03
1.476601040036227687e+03
5.597275627120832723e+03
5.962249126935485037e+03
4.145460311693414951e+03
2.328867892831958216e+03
1.541394028942564091e+03
3.045069252991733720e+03
5.340958782569336108e+03
5.307133635039212095e+03
4.072547857240597295e+03
2.917381267301244861e+03
1.509811877401680931e+03
8.647898737438766830e+02
1.140071129694292267e+03
2.248762573141404573e+03
2.475063936070952877e+03
1.590159011933871852e+03
-1.379805348351130306e+03
-4.804794905418404596e+03
-9.214239227358913922e+03
-1.103744495573347376e+04
-1.030125165580598332e+04
-8.652326103193017843e+03
-4.511332585478057808e+03
-6.747324234688766410e+03
-1.029537781927285505e+04
-9.112661170341185425e+03
-1.008424209956178856e+04
-1.218305334741131264e+04
-1.273985426013927281e+04
-8.304628192913734892e+03
-5.797433324890217591e+03
-4.231129890560258900e+03
-2.656706870898085981e+03
-2.313208751621104113e+02
-1.692100962842746185e+03
-3.507791291436981737e+03
-1.106008547461128956e+03
7.263276376340968454e+02
7.223159757392105575e+02
5.749880097176553591e+02
1.284885230164219593e+03
2.648653487761803262e+03
1.426424819726534679e+03
-5.143196497599775086e+01
-1.559088508163757069e+03
-1.728735149934798073e+03
-1.573269134500797293e+02
5.505049394810191643e+02
8.972233417660286250e+02
8.772295399011801464e+02
3.064047378824028556e+02
5.948710360473955916e+02
2.409447513262182838e+03
3.918090292916840554e+03
4.540329637422252745e+03
3.491532428018447263e+03
2.614522505447391268e+03
2.428359180663376719e+03
1.903690010601188305e+03
1.578480104221507872e+03
-2.300132867703683814e+02
-1.206642942994514442e+03
1.155714451123782283e+03
3.553012256666798748e+03
1.136419530175992804e+03
1.397297632191435241e+03
4.337947696773875577e+03
4.008644370947823518e+03
7.304580221490168697e+02
5.256874457174426425e+02
5.726831519013333036e+02
9.108158471593349077e+02
1.419357218362253661e+03
2.406167910888120787e+03
3.717802844194935915e+03
3.726776886980197560e+03
3.135069985361123145e+03
1.089642056289272659e+03
-1.462719231494456551e+02
2.325734485805894280e+01
2.085652013940735287e+03
3.100057684020780016e+03
3.736402506667188391e+03
3.689005507780590506e+03
2.540262587335215812e+03
2.478513095431316742e+03
4.403879459171513190e+03
5.038298572669538771e+03
4.034211317631469228e+03
2.739416786193536609e+03
3.113143047638352982e+03
3.372484908846240160e+03
9.691268334005417273e+02
-2.652510106950629961e+03
-5.062086474036061077e+02
1.423606508298311013e+01
-6.063553224514337217e+02
-4.171961843413473616e+03
-1.871956487013219430e+03
-2.529904431118559842e+03
-2.495836972796307236e+03
-8.759049092126224423e+02
-3.724328495357201518e+03
-6.740918651908187940e+02
8.768305479321821849e+02
7.865077171671786118e+02
-7.135987573319258672e+02
-4.982898157618082223e+03
-1.652755620432040118e+01
-4.066161819674069307e+02
-1.627518789685268075e+03
-1.265146474829036606e+03
-3.324813135931223314e+03
-1.345702472057167597e+03
8.720581886189697798e+02
8.938637554542265207e+02
5.850594419239816943e+02
-2.518279821977610311e+02
-1.548373013657122783e+03
-4.818767167368440823e+03
-5.425331722755463488e+03
-5.880101045721620721e+03
-4.546512939176531290e+03
-4.109382716620493738e+03
-2.964987902495126036e+03
-1.491020768274289139e+03
-2.433156612349097031e+03
-4.195642359378779474e+03
-2.332556261571074174e+03
-3.382255126147273131e+03
-2.402929464894229113e+03
-4.876718374426321134e+03
-2.245772519139754422e+03
-1.181394225960936637e+03
2.005841180186158965e+02
1.676342121020566537e+03
2.159729618997625948e+03
2.397105845686213343e+03
2.606416448590931850e+03
2.619070949045270027e+03
2.540722585358511424e+03
1.577471883212708917e+03
6.271349166111260729e+02
3.221661178731959012e+02
-5.417335441967776433e+02
-4.650246750893969647e+02
-2.245465523662768987e+02
2.399564099845217129e+02
1.270900854531489813e+03
1.076547119401378950e+03
1.096314977030370983e+03
4.023483049476351425e+02
8.281337099914321698e+02
1.402682399969378139e+03
1.302769388246739027e+03
1.457211973651802509e+03
4.880754296973085502e+02
-5.365729689662275632e+02
-1.006295773707388889e+03
-2.046216830735829035e+03
-5.853154912689406956e+03
-5.250567252235958222e+03
-4.078685924977583454e+03
-3.877018074049346069e+03
-2.437779160332327137e+03
1.817649659815682526e+02
1.705289380112523759e+03
1.902928613231026020e+03
1.677654783602745056e+03
1.735300765396023735e+03
2.534280285914717297e+03
3.243681553427361450e+03
3.385325616848684149e+03
3.590088236576802046e+03
3.712914093633832181e+03
3.918269088970585926e+03
2.998511398606489365e+03
2.350452305012647685e+03
2.007478129186808019e+03
1.073555645406881013e+03
7.137088490335910365e+02
1.126915696017753817e+03
1.115514799742513105e+03
5.895405127802098377e+02
3.394186222884582094e+02
4.872485471169723041e+02
7.645144971566384129e+02
4.152560935109985394e+02
8.260832901378756787e+01
5.667611916393332905e+01
-7.755708894123865775e+02
-1.617070932317764800e+03
-1.369404711553554307e+03
-5.671114655645464353e+01
1.482263470438350396e+03
2.440642260692687614e+03
2.385400271048394188e+03
1.806538744722418869e+03
1.470176301271897273e+03
8.814584321661470767e+02
1.265241705896025451e+03
1.031357613830126184e+03
7.759312087969545928e+02
5.298293474623376369e+02
3.498030747388260409e+01
-1.154449999902443693e+02
1.612617444099687873e+03
2.938129577547759709e+03
3.380043399146962656e+03
3.674362891036477322e+03
4.044013056805298220e+03
3.939012235294277616e+03
2.618149570239002969e+03
1.109413694842786072e+03
2.781060851670982174e+03
2.728422477356480613e+03
1.738193325310375030e+03
-3.529856207240600270e+03
-5.957616600507049952e+03
-5.915233249742070257e+03
-6.363425405279533152e+03
-6.036013623130282213e+03
-5.894921906260763535e+03
-6.004268164434832215e+03
-5.958474604971626832e+03
-5.968498607629564503e+03
-3.847092684084977009e+03
1.009765372883554619e+03
4.833823474936332332e+02
-5.295042835275306970e+03
-6.792710482486220826e+03
-5.990084677011666827e+03
-5.224635815822866789e+03
-1.641263903593017631e+03
1.053537309024639171e+03
1.367305919644559935e+03
1.820718398283439683e+03
2.197595257660694188e+03
2.180165705375307425e+03
2.849440519396416221e+03
2.657172630080830913e+03
2.144209990695245324e+03
1.823707771817177445e+03
1.556932888648450671e+03
1.380923942683173436e+03
9.777807406836377595e+02
1.176527659197266303e+03
9.941360203431344189e+02
6.336630467062132084e+02
5.212177079090977259e+02
4.848094241012167913e+02
-5.661231748962013910e+01
-8.472140172529520896e+02
-1.393959921347931868e+03
-1.913854527221332773e+03
-2.122562423619741367e+03
-1.438203948751383223e+03
8.390297167718568971e+01
1.208039069427212098e+03
2.006381303256247747e+03
1.973046233688031180e+03
1.971009439642869893e+03
2.383094554410602541e+03
2.386180817337526150e+03
1.189475913341125079e+03
3.061152465080087381e+02
2.431472323864739451e+02
6.706597295122662672e+02
-4.934042397899857946e+01
-2.398749482316178216e+02
-1.540720917724667913e+02
1.710243630896822822e+02
9.777129946565439695e+02
1.339669761206602516e+03
1.177729722633863730e+03
8.649405518262176429e+02
1.590153045414258770e+02
1.564268692819885942e+01
2.772210654672946362e+02
-2.044594632125386795e+02
-8.429440882198323379e+02
-1.337989835075717110e+03
-1.687045745014169597e+03
-1.341661838802104739e+03
-1.046124549958868101e+03
-6.862985518705262393e+02
-8.463123750429698475e+02
-8.041097668535193179e+02
-3.729480655180011581e+02
-3.788583539758891447e+02
-3.549787128131837335e+02
2.280195739384621163e+02
8.971605031915448762e+02
7.931303508143636236e+02
3.895318311358140306e+01
-2.602285058614681361e+02
-1.203989253718948618e+02
4.937857805552406631e+01
1.970529169269887575e+02
6.468216336044833952e+02
5.277525384379106299e+02
-3.491147868659450637e+02
-5.168730942180490047e+02
-6.746687484080024433e+02
-1.230455194922389410e+03
-7.072325153420670176e+02
3.800094297207384670e+02
5.283754370586931373e+02
3.247769268940588177e+02
4.004567857623732152e+01
-1.297859975992029433e+02
-3.085979959925068670e+02
3.870644635085403706e+01
5.471108366327529211e+02
6.205890132687420646e+02
5.071456994405648970e+02
6.537769706892321437e+02
3.466663138314484058e+02
-3.627347121565784249e+01
-5.773699956912387279e+02
-8.146728691590955123e+02
-8.218164013958407850e+02
-7.440071309261986698e+02
-1.098516059014313441e+03
-9.421298528328029533e+02
-3.525942585642354743e+02
-1.791224613708722302e+02
-2.107166862841500290e+02
9.755463702622272137e+01
4.467453995586936344e+01
-1.793634643461926998e+02
-6.566570239437700707e+01
-1.941571469882128440e+02
-2.158602272132058602e+02
-2.696329597528806516e+02
-1.165522746475358645e+03
-2.130686123819000386e+03
-6.823211322453676075e+02
3.016441719280586540e+02
2.392074587797932281e+02
-3.906529702773165695e+02
-4.028757269938105310e+02
1.734267210679027755e+02
5.419938030462624283e+02
9.087773951022703613e+02
9.383391802487800533e+02
-5.574942949872998952e+02
-2.853954054713438836e+03
-5.284088917509428939e+03
-2.548835669697848516e+03
8.090719381769114307e+02
2.117360604284661804e+03
2.618275472024447481e+03
2.489691593613299574e+03
2.351685810890395715e+03
2.010713486188511752e+03
1.816751907665093995e+03
1.811177117575343573e+03
1.883898021756648859e+03
1.867981149896507759e+03
1.668917367672236196e+03
1.554738125616630668e+03
9.745238408629036257e+02
8.333622170727713865e+02
1.003457212289543122e+03
1.096964622829023256e+03
1.334244750055628174e+03
1.390685253700409021e+03
1.164887953178312955e+03
1.188031801997680532e+03
1.207732736493304856e+03
1.070893964922751366e+03
1.084625011344406403e+03
1.219785933899158181e+03
9.918127499649938272e+02
1.425459193205001839e+03
1.905813156461238577e+03
1.681969913489949931e+03
1.109530607366298227e+03
1.291678838776052771e+03
1.752052401310096911e+03
1.867917675413682218e+03
1.167056606784308542e+03
1.059499067751295797e+03
9.203682937355117701e+02
8.081532805320658781e+02
1.250217550744754817e+03
1.507542177552225439e+03
1.635421085173429674e+03
2.108097778907410429e+03
2.307790697977661694e+03
1.718652732594862300e+03
1.664460670374749498e+03
1.395180136156096978e+03
1.070802969128567156e+03
3.713040917399876548e+02
4.406533759652872959e+02
1.170849122006125071e+03
1.795956008033672560e+03
1.522994694612417334e+03
1.599179015012238381e+02
-1.271980918384134327e+02
9.205863069178876685e+02
1.170228774685719600e+03
1.713691966348589176e+03
6.478720464798303738e+02
-3.740171658511648729e+03
-6.634412862409582885e+03
-6.282805657335855358e+03
-5.408434777678315186e+03
-5.197229571007634149e+03
-5.622202798338627872e+03
-4.072384410156112153e+03
-2.518653986377960791e+03
-4.099678950615061126e+02
-4.392307081626023319e+03
-4.591660338160723768e+03
-4.881839416917772724e+03
-5.468146751453384240e+03
-5.972583511805871240e+03
