-3.160438272955745560e+03
-2.978426986981884056e+03
-3.018300832057271236e+03
-4.232079963120747379e+03
-4.088712565398397601e+03
-2.545139826565971362e+03
-2.204643880018921323e+02
1.667217816676283292e+03
2.803893919632885172e+03
2.646670961349290792e+03
-1.292480084588398768e+03
-1.977629754581042789e+03
-4.584862613662992771e+03
-3.319858128283279257e+03
-1.741713393321070498e+03
-5.883558216670741103e+02
4.258898001117261174e+02
1.498176559433811008e+03
2.323174269114010258e+03
2.353845683595005084e+03
2.965052084417135120e+03
2.989436571752674354e+03
2.315312912495339333e+03
1.733445933560554749e+03
1.424626870999969924e+03
1.046140745399585967e+03
5.466452527974686291e+02
5.084123414513484249e+02
5.412833084575460134e+02
1.094056617903369897e+03
1.768854468541147980e+03
2.305732782632424005e+03
2.919191598426552900e+03
3.351290661099246336e+03
3.389967527783599508e+03
3.456141115346659262e+03
2.691845085561807991e+03
2.360218973926263970e+03
2.088024586904544321e+03
1.870927577828053472e+03
1.258067368040466135e+03
1.037971241910247272e+03
2.126760176805489095e+02
-2.636212761785798762e+02
-4.161415577328072004e+02
-6.356696579702704639e+02
-1.292511168254778113e+03
-1.286670209047493699e+03
-6.591830973580492810e+02
-3.602025961262233977e+01
2.916097343696089297e+02
1.494300926564074871e+03
3.334474618366977211e+03
4.451911139877899586e+03
4.279660368731598282e+03
4.186401311964928027e+03
2.923323402359561442e+03
1.293314879099193831e+03
5.151923348064988204e+02
2.576858944047522186e+02
1.388961720398585555e+02
1.427228422908341940e+02
1.100259103131183691e+00
5.900560821681010566e+02
2.909616296050006440e+03
4.561666907846772119e+03
5.116100156988588424e+03
5.517886535128867763e+03
5.352984202032008398e+03
4.390417827889174987e+03
2.485261766667355914e+03
-9.144744849690989668e+02
-3.351805334016834877e+03
-4.055682292222218621e+03
-4.427994724931778364e+03
-4.033654271336062266e+03
-4.940591449395838026e+03
-6.385899074398668745e+03
-7.436704595060783504e+03
-7.250135026399238086e+03
-7.056340818724486780e+03
-6.675395301719996496e+03
-7.701361011356841118e+03
-7.233255685267818990e+03
-3.008039437202292447e+03
-5.065516583701886475e+02
-4.619782587930445516e+03
-3.378650235543651434e+03
-3.282994988810138693e+03
-5.473765063287472003e+03
-4.320924617527083683e+03
-3.330444697110657671e+03
-3.464280137632724291e+03
-3.991479110924937231e+03
-4.638101489050044620e+03
-4.730128324253367282e+03
-4.578591430713317095e+03
-2.419577188798001316e+03
-2.011083882740035278e+03
-5.122922932026613125e+03
-5.566909765699988384e+03
-5.212107266294600777e+03
-4.322590955970521463e+03
-1.976236841059935387e+03
-3.812938530120576615e+03
-6.115630818666454616e+03
-5.655278502764958830e+03
-4.191841679377685978e+03
2.974347225884142887e+01
1.996466561340240332e+03
2.853416697119107994e+03
2.392701267416824066e+03
1.177412033998554989e+03
3.386201374497286452e+02
1.502654509658112545e+02
1.424207174417805959e+02
3.582601737914451405e+02
2.188841637707163841e+02
-7.766701192800784384e+02
-7.434398531608278518e+02
2.190579769143969770e+03
5.564561673480556237e+03
5.854523341381826867e+03
4.388434115886278960e+03
4.321319687918197815e+03
4.360225928908714195e+03
2.897301146727787909e+03
6.016470816847388505e+02
-1.401728901804942097e+03
-5.316731422722077696e+02
2.790191315055610175e+03
4.301293708034949304e+03
3.700722345670258164e+03
2.052194862320066022e+03
-7.905074096957032452e+02
-2.538275770712882604e+03
-2.472891531671109078e+03
-3.811304345712827853e+03
-4.945679838471141920e+03
-5.566218354018444188e+03
-4.267485861285062128e+03
9.524996172828613226e+02
6.838861982500092381e+03
8.867621519874863225e+03
7.543989417229244282e+03
6.107024154136698598e+03
5.518776075431814206e+03
6.646979218923053850e+03
7.393734728539142452e+03
7.243044304508565801e+03
5.977027028308487388e+03
5.666886152165073327e+03
5.841532845114781594e+03
5.507984550862276592e+03
3.716275771093432468e+03
1.933401564901214442e+03
1.397362606481059174e+03
1.268180186608249187e+03
2.059841404541301472e+03
1.987128574042354558e+03
6.077997745647718375e+02
1.052825725959801730e+03
2.796281899626349514e+03
4.076140658033606996e+03
3.916515486765869355e+03
3.489478480694985137e+03
3.020073369885069951e+03
2.884438567966189567e+03
3.056419105588342973e+03
3.219740549295548590e+03
3.148333415432822676e+03
3.003189536949316789e+03
2.256211623573200995e+03
1.752236016872753680e+03
2.315277468040920667e+03
2.228557229387323787e+03
1.739135692323243575e+03
1.276946767314102544e+03
1.264745822723790070e+03
1.508199530680632961e+03
1.129115519889404368e+03
1.066896926203498879e+02
-1.728872102182689787e+03
-3.213643731428647698e+03
-3.369688926617576271e+03
-2.506936593124305546e+03
-2.842623834682616689e+03
-3.786979617652360503e+03
-2.423185384221096683e+03
1.665986394069345806e+03
5.452726576721541278e+03
5.050094569671028694e+03
9.851077994293464144e+02
-2.241667583156176534e+03
-5.291618642451188862e+03
-8.158835765546388757e+03
-1.264629112571651058e+04
-1.496590359785100736e+04
-1.278690563356117491e+04
-7.099290151168770535e+03
-3.344000045843554744e+03
-2.197853399931246258e+03
9.503400531819480079e+01
1.478497824514435479e+03
-1.427986598995857321e+03
-3.997383617334441624e+03
-4.573049023130069145e+03
-4.284284916611200970e+03
-5.057352244391880959e+03
-6.140171351158154721e+03
-5.316193471263929496e+03
-2.185819452913575333e+03
-3.576992440042581052e+02
1.054263127965891499e+03
1.533873056153856396e+03
2.282611703375393972e+03
3.261128730843483936e+03
2.354711387340526926e+03
3.234107527100913444e+02
-1.112753808432064261e+03
-1.707192014589290693e+03
-2.776827547472525112e+03
-2.444146472290199199e+03
-2.449613933099617498e+03
-1.568621594944265553e+03
2.217849975123073989e+02
2.656219180042623975e+03
3.693908036776583685e+03
2.903995823968446075e+03
3.403511208009967504e+03
4.689012848612444031e+03
4.965041442595057561e+03
5.550496490322449972e+03
6.785461156371450670e+03
6.026644165536414221e+03
5.156186298169242946e+03
5.459796300239924676e+03
5.631114793242348242e+03
4.991043602399484371e+03
4.364784718347315902e+03
3.416643052926933251e+03
1.972428229782487733e+03
9.469797585894195890e+02
2.681058847730430443e+02
-1.203457623484551505e+03
-2.646406877597856692e+03
-2.577239669894492636e+03
-1.978207952770273778e+03
-1.611899225338393535e+03
-1.158017247256144401e+03
-7.180007038420566232e+02
-5.317693269248994739e+02
-6.590847916613140569e+02
8.621389325290272154e+01
1.499549679454852139e+03
1.311964353899164962e+03
5.179500295695780778e+02
2.923852356008036946e+00
-9.851680805773489737e+02
-2.078007234472338496e+03
-2.642516051913944466e+03
-2.433363142959710331e+03
-2.982013296007981353e+03
-3.676794646975608430e+03
-4.003523326050043124e+03
-4.082452434322875433e+03
-4.314480622112947458e+03
-5.162509318138721028e+03
-7.297916000776500368e+03
-4.595488136632441638e+03
-2.279650739654127392e+03
-7.562941237517038644e+02
1.239828245392623785e+03
3.297842583925515100e+03
3.972245724453719959e+03
3.424686039858517688e+03
1.624615794143207950e+03
6.284085722782855328e+02
2.643395525820697571e+02
-3.739183207220390841e+02
-7.772407462208051356e+02
-1.769021921650481090e+03
-2.798560481267782961e+03
-3.229916990228432951e+03
-2.749968903902935836e+03
-2.008396657992911514e+03
-5.830580771025856848e+02
7.843386307157322790e+02
1.104203551226417403e+03
7.309010000136261169e+02
1.792325195347246733e+02
-7.674934892634726111e+02
-5.487467167614248638e+02
-1.812808579339067450e+01
-1.040210628728612647e+02
1.994746051394318442e+02
-5.630922871444244038e+01
-5.043946494080896628e+02
-1.934761751890956248e+03
-3.616215738556084943e+03
-4.031763177636086766e+03
-3.059325656976296159e+03
-1.847464333174054445e+03
-9.407816783409017489e+02
-2.990225337021741439e+02
5.730318528917892991e+02
4.755272829902477838e+01
-4.912364470053063314e+02
1.873558000014948561e+02
8.858268480397703115e+02
1.162283706819833242e+03
1.421941510156928871e+03
1.845531675431656595e+03
2.444957853536518542e+03
2.279774458518646952e+03
2.205503638861405307e+03
1.836265627750533213e+03
9.611812342305835273e+02
-1.457283140216919435e+02
-4.247485898181909647e+02
2.867601283948197306e+02
7.465922541415657179e+02
1.979936507189658812e+02
-1.044712167573082525e+03
-2.676357022237941237e+03
-3.891541701867184656e+03
-4.974799652684097055e+03
-5.764938928792019396e+03
-6.436925390371554386e+03
-6.553885276830470502e+03
-5.758803508208039602e+03
-4.255549269475103756e+03
-1.766887939123406113e+03
5.996282252273250606e+02
2.129008442707178801e+03
2.887252831695571786e+03
2.853339191311256855e+03
1.879406359963075374e+03
1.882779698520380691e+02
-7.308686972349988764e+02
-1.078284844598960262e+03
-8.954212706590302560e+02
-1.464689576740444409e+03
-1.861489652182792497e+03
-1.452953774195178312e+03
-9.663732331174028332e+02
-6.208449396480149289e+02
1.901346292153165507e+02
1.754611117636254903e+03
3.209452930981191003e+03
3.547827348289660222e+03
3.962548175273722791e+03
4.449564857114819461e+03
3.752935497760052385e+03
2.459148878282094302e+03
9.825809781951588775e+02
7.020657416290911215e+02
5.479501827413085948e+02
3.901500295531006373e+02
1.499481534502732529e+03
2.854525418286675631e+03
3.790496112457881736e+03
4.250334802883780867e+03
4.497781633694721677e+03
4.863246110904527086e+03
4.665118985142386009e+03
3.967569523398221918e+03
3.807109542924967172e+03
4.662704868520362652e+03
6.028125040557310967e+03
5.813235274276524251e+03
4.877715019821547685e+03
4.591029486494956473e+03
5.487871469191218239e+03
6.348073412725570051e+03
6.258323827420948874e+03
6.430077603508550055e+03
7.441735125778061956e+03
7.919760667598856344e+03
7.247950420547231261e+03
6.306040466984610248e+03
4.924597718725673985e+03
3.715218520812009956e+03
2.800831790805186756e+03
7.280972693693589690e+02
-1.686520969734726805e+03
-3.085561895393213035e+03
-1.841522802459689501e+03
9.342584857550609740e+02
2.758606645246743483e+03
3.637351299520647899e+03
4.351265456660445125e+03
9.031877880707719669e+03
1.183271815185490777e+04
8.747617040760633245e+03
4.894164323055741079e+03
3.504165048831750028e+03
1.439301290037075660e+03
-4.532024935976972415e+02
-2.253838194994827063e+03
-1.585630054811874288e+03
-3.585166846304076103e+02
1.758376016549582573e+03
-2.011910363694718740e+02
-1.517585419743113107e+03
1.600182097476449030e+02
8.537122574973426481e+02
7.254657835314111480e+02
8.330387920580983518e+02
4.892930798770055389e+02
5.101820771318440961e+02
6.068197950786611727e+02
7.952048331052161529e+02
1.580279035893335958e+03
2.269931553953850198e+03
3.219921563126260025e+03
5.908253941113070141e+03
5.073905839049741189e+03
3.731693137741037390e+03
1.900384862652675793e+03
1.077841730261371140e+03
1.351274145610015012e+03
2.877812631883236008e+03
7.269401472098757949e+03
1.063818706441959512e+04
1.143725495029309604e+04
1.146868812800852902e+04
1.163363995360722947e+04
1.076842709947087315e+04
8.123320238539003185e+03
5.146393178611822805e+03
5.416624020961198767e+03
7.636285919165469750e+03
1.057362084139748549e+04
1.196170397565070198e+04
9.738511008084869900e+03
5.059203720291417994e+03
2.570962656068053548e+03
2.646000608651958828e+03
2.118566733151334574e+03
1.510758018476019288e+03
2.472734452623401012e+03
1.687690910703269992e+03
-1.108044507069865176e+03
-6.325115971905025617e+03
-8.655427186687913490e+03
-7.156000934323617912e+03
-3.382642133011094757e+03
2.078241511636370433e+03
3.670331904327885695e+03
6.620294376462406944e+02
-3.560258917072792428e+03
-6.828095797508847681e+03
-8.307840850396962196e+03
-1.247194261764121256e+04
-1.679333450945408549e+04
-1.967593855930387508e+04
-2.014928765311792813e+04
-2.220884296970368450e+04
-2.619114248461851093e+04
-2.337183370016106346e+04
-1.830012916742688321e+04
-1.442846155726875440e+04
-1.241540710326537919e+04
-1.243665048873361229e+04
-9.850669066423761251e+03
-1.240094601417572630e+04
-2.064195195278232495e+04
-2.519661075377692396e+04
-2.789447875602122440e+04
-3.291806016365983669e+04
-3.220282296605484589e+04
-2.159626911449170075e+04
-1.659994963941877359e+04
-2.325116695341540617e+04
-3.092332109552181646e+04
-3.119402726535636248e+04
-2.913491573587965468e+04
-3.262947498623693900e+04
-4.252928050841388904e+04
-4.499183883010780846e+04
-3.345177361292349087e+04
-2.345272996193611107e+04
-2.090539035245243213e+04
-1.463221379625618647e+04
-4.898539242450669917e+03
1.923024307936708965e+03
4.356814189571024144e+03
7.622281572978829900e+03
1.401192831529593968e+04
1.885614094731961814e+04
1.363834282321435785e+04
3.154816059997019238e+03
-2.162248879401186059e+02
-4.629418356457296795e+03
-6.501376849558881077e+03
-3.323699082864180127e+03
-9.989899633773079586e+02
2.460673050974498892e+02
1.276847707123764337e+02
-4.508933491855902503e+03
-4.578503580143468753e+03
2.914261958420805968e+03
8.838445081271334857e+03
8.833187763074649411e+03
1.270975434252432024e+04
2.597729719345449485e+04
2.973890438101113978e+04
2.258779559149581473e+04
1.544821317134172023e+04
1.270226862924800298e+04
9.419960821850645516e+03
-2.706719675720845316e+03
-1.251594042236036148e+04
-1.099982107253358663e+04
-5.005384207074795086e+03
1.938323531048331461e+03
1.998210457694820889e+03
-3.494902369042789815e+03
1.329655397181774674e+02
7.019845860306703798e+03
1.110952887429816110e+04
1.583077904427820977e+04
1.766743138015853401e+04
1.668437855346614379e+04
1.494747645155967803e+04
9.681349555202330521e+03
1.900659407645607644e+04
3.369996592340222560e+04
3.906317328314018960e+04
3.793172624133979116e+04
3.010324547663395788e+04
2.453442317132622338e+04
2.218594187713647261e+04
2.114537054684666509e+04
2.732025032486250711e+04
3.558619509524729074e+04
3.916372472314668266e+04
3.764739494760332309e+04
3.285766694781342085e+04
2.714097544388801180e+04
2.266676836137037026e+04
1.769848737855666332e+04
1.384947070148034618e+04
1.283118164489929950e+04
1.501119114564061965e+04
1.267188162535745505e+04
1.156366534640422651e+04
1.574087325876185969e+04
2.375969276975069079e+04
2.661545611492897660e+04
2.658554484467104703e+04
2.918230087949709559e+04
2.938019013199731125e+04
2.796256281897887311e+04
2.581877770100688576e+04
2.077011035318936047e+04
1.321272613755510611e+04
7.247768212196962850e+03
2.192463401328068812e+03
-2.521864285994052807e+03
-7.216008513076279087e+03
-1.324974068706928301e+04
-2.067758396088195514e+04
-2.158324751223763815e+04
-1.689053869104537807e+04
-1.221015413547471144e+04
-6.837768130054677385e+03
-6.266062220744110164e+03
-1.096584924509686061e+04
-1.218176773924980807e+04
-7.798454364995127435e+03
-2.148709419945240370e+03
4.927764875678957651e+03
1.252735161306378177e+04
1.606542874984875380e+04
1.438224404098528794e+04
9.750070602174424494e+03
5.373255505662976248e+03
1.734178639820251647e+03
-2.312734013795789451e+03
-4.011019587501107708e+03
-2.051265360891590717e+03
2.829710238260897199e+02
-1.219217643703870380e+02
-3.616545501363417316e+03
-7.661445207044309427e+03
-1.193821601266985090e+04
-1.423944701410888229e+04
-1.318173993850613078e+04
-1.352562560772820143e+04
-1.466053481864108835e+04
-1.582588066261299355e+04
-1.576395878084872857e+04
-1.842512964756407018e+04
-2.132083451998982855e+04
-2.741942668048966880e+04
-3.718225739705694286e+04
-4.230072107493042859e+04
-4.802698584510978981e+04
-5.169337110375671182e+04
-4.694128943473134132e+04
-4.481898295469767618e+04
-4.523265742072041030e+04
-4.433757257309916167e+04
-4.552995169440654718e+04
-4.426696322537813103e+04
-4.465064027038797212e+04
-4.418205897752309829e+04
-4.107723960644120962e+04
-4.043816179100008594e+04
-3.401278875204276119e+04
-3.073506948087481942e+04
-3.160004650006147858e+04
-3.092371546602422677e+04
-2.967599688033513667e+04
-2.967688313006396857e+04
-2.870829585957735617e+04
-2.680413750975996300e+04
-2.242927995598772759e+04
-2.103555083127267790e+04
-2.109672784822548783e+04
-1.712454687506895789e+04
-1.671366728308063102e+04
-1.472086054624741337e+04
-1.312193720418148041e+04
-9.249629068088170243e+03
-4.561468202895715876e+03
-2.274046283583320019e+03
4.710328735958900666e+02
5.297117718433277332e+03
1.005358322543197573e+04
1.356391819539700373e+04
1.748359152534536406e+04
2.061801595302977876e+04
2.322970857596479982e+04
2.511419875898799364e+04
2.717804946341040704e+04
2.869295485679343619e+04
3.238953224751380912e+04
3.540538646647154383e+04
3.588910660889121209e+04
3.649632967966963770e+04
3.819468562358348572e+04
3.883359059426498425e+04
3.951954332617891487e+04
4.105943773311788391e+04
4.234705249574639311e+04
4.228798883878837660e+04
4.171157560647078935e+04
4.121561339329028124e+04
3.885423812118382193e+04
3.763216965658477420e+04
3.797317818979875301e+04
3.666142822402142338e+04
3.419587794473313261e+04
3.128475797539342238e+04
2.838778699811842307e+04
2.579971320469109924e+04
2.301998869959183139e+04
1.932555906306728139e+04
1.490929089443310477e+04
1.253991108459885254e+04
1.028813538346528912e+04
7.290945267612746648e+03
4.330971026897721458e+03
1.445923819665112887e+03
-5.371785621529347736e+02
-1.754839457806764813e+03
-1.362121292409226953e+03
-5.313456392373743711e+02
-4.327705680781630235e+02
1.204409765242352819e+02
-1.661988408370849584e+02
-4.350143311662820906e+02
-1.703876245156657205e+03
-5.042064593237340887e+03
-7.544050113856662392e+03
-9.270211724675791629e+03
-1.274898929496068922e+04
-1.526607103316966823e+04
-1.758680595401156461e+04
-2.023236973816848695e+04
-2.278305758339528984e+04
-2.287228183226780675e+04
-2.134638438995508113e+04
-1.989961642831059362e+04
-1.901414223856211174e+04
-1.659864578211435582e+04
-1.270778871110790351e+04
-9.095155830082476314e+03
-6.931130658021671479e+03
-4.195939560087882455e+03
-1.685863486889290698e+03
6.144611104084261797e+02
2.590299329643860347e+03
2.989145165167854884e+03
3.468398931390272537e+03
4.383277698318001967e+03
5.071253828545997749e+03
6.099855964748561746e+03
7.174613402654784295e+03
7.606668078047753625e+03
7.102992455409325885e+03
5.895634709403867419e+03
4.330609080627916228e+03
2.733346085493988539e+03
4.404371789229977594e+02
-2.392755861539062607e+03
-5.360060098620777353e+03
-5.496427710300254148e+03
-5.541485654424252061e+03
-5.360026872971183366e+03
-5.303009998323188483e+03
-5.962570645342088937e+03
-4.713577168777597763e+03
-5.041770012155589029e+03
-5.771711027488484433e+03
-5.630727686224625359e+03
-4.271889356517199303e+03
-3.850214715509619055e+03
-3.883668899977444653e+03
-3.986616942712015316e+03
-1.229826883780106300e+03
-3.828820604600973070e+02
-6.280732982512563467e+02
-8.046536855455278783e+02
-1.180614704502063660e+03
-1.049600216570620660e+03
-9.567277829588571194e+02
9.406560908066755644e+01
1.404407098086360975e+03
1.822206574671192129e+03
1.410659384619323873e+03
6.112915311328899861e+02
3.832000731079816660e+02
1.466488374983693177e+02
-2.691797357840559926e+02
-8.628736002083611538e+02
-2.236015656717682305e+03
-3.702640335749460519e+03
-4.405546729485738069e+03
-4.485627737589028584e+03
-4.684283930172866349e+03
-5.321776249530786117e+03
-4.223575576265397103e+03
-1.870522845122481840e+03
-4.080273990247246729e+02
-1.607758983549627203e+02
-6.666710462302553424e+02
-1.134571762740450367e+03
-1.902821444839175683e+03
-1.824069860336280726e+03
-9.462557431338800598e+02
-2.758785183505002010e+02
-1.413760557677550196e+02
-5.452244376659451746e+02
-1.602554798024161528e+03
-2.378201696291361259e+03
-3.631431480843218651e+03
-5.186790471672003150e+03
-5.903397930798505513e+03
-6.577152771991398367e+03
-7.988498393613983353e+03
-8.457407172813544094e+03
-7.231489266890862382e+03
-3.980102495144226850e+03
5.570136439861253166e+02
4.214412455156068063e+03
5.517350860151092093e+03
5.745325209679424006e+03
5.420177103293417531e+03
4.660153842815580902e+03
3.765469916861334696e+03
2.186145515681709639e+03
6.101955117512844708e+02
6.633370775934879475e+02
2.010295591958939667e+02
-1.054418668067045928e+03
-2.447892243862113446e+03
-3.518612118195781477e+03
-5.472850278195649480e+03
-4.106074695041505038e+03
-3.873381018284012953e+03
-3.118329545089527528e+03
-6.910499978399514021e+02
8.845836725826626434e+02
1.407667789675118229e+03
1.690427332927394446e+03
1.389454754685928947e+03
1.229233457128576674e+03
1.138317790501310128e+03
1.493709839710517826e+03
1.884726450559403702e+03
2.113275357633412114e+03
1.524410146398130564e+03
5.401129528274520908e+02
5.727073821063998338e+01
-2.143780861141388527e+02
-9.040409674325024980e+02
-8.480053516613813827e+02
6.613039368979150368e+02
1.616343340639047938e+03
2.949184225112230251e+03
3.423552786538887176e+03
2.741807523312621470e+03
2.092327233050758423e+03
1.240204063535011073e+03
7.934617366960194431e+02
1.719709374442232047e+03
3.158969344667171299e+03
4.430205572093641422e+03
5.023383314972988046e+03
5.106672542171027089e+03
4.822319619624625375e+03
4.279265696249186476e+03
4.242402328853654581e+03
3.113636227949205477e+03
1.472098685683671420e+03
7.911467881234713104e+02
-9.034298143010280668e+00
-8.250170920317686978e+02
-1.236296219856110838e+03
-1.392044537378690393e+03
-9.613450786130676988e+02
-1.527847731476474337e+03
-8.093637671025433065e+02
3.707245748083321928e+02
5.369695274581416697e+02
2.692061068946542264e+02
2.332219178692583057e+02
5.198894870815323657e+02
4.954921369300505489e+02
7.744677062094980329e+02
1.079266982932509791e+03
6.820236615285480184e+02
-1.106752272212038513e+01
-5.287948905464852487e+02
-8.071798756344473986e+02
-7.663795201777683133e+02
-1.051403680606197213e+03
-1.969013940418726634e+03
-2.488909487236032419e+03
-2.833941022850094214e+03
-3.099767304340956798e+03
-3.137338738977663979e+03
-3.250580317170934450e+03
-3.237056590530110043e+03
-3.253391464129733322e+03
-2.118354990969186019e+03
-1.158790790535206952e+03
-1.904205523748223641e+03
-2.140327886913505608e+03
-2.010591579327827958e+03
-2.233291365142425548e+03
-1.394568736361602532e+03
-7.530911700098106394e+02
-1.195534207295146871e+03
-1.570785984272272799e+03
-1.927914826446887446e+03
-2.662236707160835067e+03
-3.189213858449160398e+03
-3.895695272337165534e+03
-4.547009531887748381e+03
-4.911515194269391031e+03
-4.416917213065823489e+03
-4.173296525266749995e+03
-3.959329624768876329e+03
-3.561264879738206218e+03
-2.909669040036445040e+03
-2.611954302527148684e+03
-2.145962491843730277e+03
-1.221532552067001006e+03
4.776707981166034500e+01
9.031056233705102159e+02
1.114483051543309557e+03
9.870545874767823307e+02
1.173055912548250262e+03
1.188868934058249351e+03
1.688339087569763024e+03
2.027752468956746497e+03
2.037236883530789783e+03
2.097036076288067761e+03
2.278114283725151381e+03
2.055527550272317058e+03
2.385593535769878144e+03
3.321541472829126178e+03
3.908469257272012328e+03
4.227570551623758547e+03
4.907099064669312611e+03
5.780197757236855068e+03
6.642183726777734591e+03
6.439328677664493625e+03
5.885828139010806808e+03
6.269835581299421392e+03
7.172633592450323704e+03
8.563282705380894186e+03
8.344049973137125562e+03
7.246343176924676300e+03
6.369411913138022101e+03
4.849390899794390862e+03
2.861528713345086089e+03
3.136991912755917383e+03
4.191949427712244869e+03
4.203615615180644454e+03
3.998368436341866982e+03
3.911507322011612814e+03
2.999282801479994305e+03
-3.828393609671506965e+02
-2.360630850823175933e+03
-9.609411700896201580e+01
5.498044428120152588e+03
4.578086094434838742e+03
5.476318309436140225e+03
7.396993019626988826e+03
6.824396547970904976e+03
4.057643549980811713e+03
2.144005574899873864e+03
2.521821322366192362e+03
1.438238825540465086e+03
2.300409875773296335e+03
1.651595405833807035e+03
-5.661164747363338847e+02
6.763179991413651351e+02
-1.499934767372261604e+03
-1.502771715445032669e+03
-1.753198955654575002e+03
-2.027214474890889278e+03
-3.956883524989986540e+02
1.021342191336708311e+03
-1.645929508296193490e+03
5.765115625318331638e+01
1.422334407294541506e+03
1.491374639605886159e+03
1.814692165416682883e+03
2.267301070370435355e+03
1.850479483712773572e+03
1.270275480711919954e+03
8.697326263227728305e+02
6.798231616653669107e+02
1.665745405009180899e+02
-9.991774112339497833e+02
-2.749686410256954787e+03
-2.395071968954991462e+03
-2.175434088551560762e+03
-2.264876625970229725e+03
-2.404576838758438043e+03
-2.137661789525318000e+03
-1.925208475929002134e+03
-1.906356152943418465e+03
-1.793039596422441718e+03
-1.567219110991937441e+03
-8.671171382986527760e+02
-1.479535666146520043e+02
3.031553238399387737e+02
6.292510266310684983e+02
1.052350611216756761e+03
7.853251415227327925e+02
3.989694390463557170e+02
-2.268963122425712697e+02
-6.162740663086300401e+02
-1.002078101821614268e+03
-1.686389235188429438e+03
-2.221344381643411452e+03
-2.626980606758888371e+03
-2.866277764222097630e+03
-3.031187698989594537e+03
-3.243077191411080548e+03
-3.157132833848554583e+03
-2.758599422496311490e+03
-2.535473919616494641e+03
-2.739603571810142057e+03
-2.204271059487925413e+03
-1.752557191856923055e+03
-1.511479802737326963e+03
-1.277266612377329693e+03
-1.264095669551148148e+03
-1.269968553567294066e+03
-1.515134534454097093e+03
-2.266886940229713673e+03
-2.938533166924853049e+03
-3.166054619592636300e+03
-3.208395802746207210e+03
-3.728757534324435255e+03
-4.439500557202174605e+03
-5.012787651299565368e+03
-4.941710793443409784e+03
-5.048514891950097081e+03
-5.426297751964975760e+03
-5.787093066714372071e+03
-5.350950485817190383e+03
-4.769969709075607170e+03
-4.082320357190637878e+03
-2.895089495159769285e+03
-1.417414031774681234e+03
-5.485168635310367335e+02
-4.135623829683293025e+02
-1.196172546533234282e+02
-1.067267293392918077e+02
-3.430409179448082000e+02
-1.562805843188081781e+03
-1.604227266867298567e+03
-2.254521584291848285e+03
-2.374863815905603133e+03
-2.595318226085831157e+03
-2.816927968193552260e+03
-2.496736492546410318e+03
-2.163863420666754337e+03
-1.874341279144887494e+03
-1.781342309566900894e+03
-1.540175260202828667e+03
-7.008635178857634855e+02
-2.943715394891406731e+02
1.872728867717387118e+02
8.909257225006380168e+02
8.205487442758535508e+02
7.800963511225679667e+02
9.134872267514341502e+02
7.076318495862115014e+02
3.195377215989284991e+02
-3.938284168141815940e+02
-9.476999027086878868e+02
-1.429273824597373277e+03
-1.727769226978840152e+03
-2.544493216170958476e+03
-4.615492924554344427e+03
-7.696666547320583049e+03
-9.334010145960455702e+03
-8.617576559215569432e+03
-8.653336385224260084e+03
-7.766282112653777403e+03
-6.178397485483496894e+03
-5.492739373139893360e+03
6.062552419473421139e+01
2.718784180206660039e+03
2.247666645618594430e+03
3.001131741621875790e+03
3.683249843574602892e+03
3.101164366101049382e+03
2.436452596780580279e+03
2.418152178079870282e+03
1.846281783755223842e+03
1.383680379930288382e+03
1.288348402382779113e+03
1.203188844444465303e+03
1.312179340374609865e+03
1.904319937015289270e+03
2.546697432975568972e+03
3.033393502555378745e+03
3.302438110553718616e+03
3.622745447898967541e+03
4.026320905527793002e+03
4.153240919476061208e+03
4.448593769393758521e+03
5.195430066318266654e+03
5.328797262310550650e+03
5.308689280349668479e+03
5.493047675862725555e+03
5.370699058056802642e+03
4.692618929247662891e+03
4.138771478804384060e+03
3.794226050005630441e+03
3.546155803341860519e+03
3.190587990929447642e+03
2.875657772032057892e+03
2.598475595007579159e+03
2.548989045004054333e+03
2.044278523990090434e+03
1.468534110071085934e+03
6.158048130688014226e+02
3.305672666430601936e+01
-2.466738176645164344e+02
-1.386468590342730522e+03
-4.015657550698652358e+03
-5.709144837725953948e+03
-4.726644024118839297e+03
-3.375129938709290855e+03
-2.955635253642370117e+03
-1.947024374889072305e+03
-1.186361689681456028e+03
1.318377214928743342e+03
5.398348039747990697e+03
6.940720534217024579e+03
6.420255365740315938e+03
5.920044571380200068e+03
5.512362408341526134e+03
4.922315679301897035e+03
4.401794610413782721e+03
4.032782356933925712e+03
3.226328976528965086e+03
3.281536162746689115e+03
2.941431466395129519e+03
3.602053261023680989e+03
4.459351430157441428e+03
5.504346090341598028e+03
7.110125443890851784e+03
8.341701614186145889e+03
8.694125282699415038e+03
7.423542526356289272e+03
4.064961875945585234e+03
9.774064850191604137e+02
-3.366175905774586226e+03
-6.676706112162963109e+03
-8.606044700487635055e+03
-9.346221496440250121e+03
-1.003320148309449723e+04
-1.018700495478140328e+04
-9.503475283490646689e+03
-8.650422825594801907e+03
-7.180983341469916923e+03
-4.425272278022931459e+03
-2.786175762534188380e+03
-1.004736973372399916e+03
4.151114853492842485e+03
4.666522402472324757e+03
-6.413798370486672411e+02
-3.172551720050732456e+03
-6.693748069089784281e+01
6.004627415428180939e+02
-3.763242953669443068e+03
-4.982974950335126778e+03
-4.520713937676367095e+03
-4.884499547850465206e+03
-6.234169553393682691e+03
-7.382739452412207356e+03
-8.133318363747087460e+03
-8.384948482366728058e+03
-8.220547774637385373e+03
-8.285096515585206362e+03
-6.857668244094348665e+03
-4.860384146346707894e+03
-4.378185830180881567e+03
-1.296999951736908315e+03
-5.702984767528229249e+00
2.198687607778909296e+03
4.370199882067837279e+03
4.343807189081536308e+03
4.724544205320980836e+03
5.253478543269982765e+03
5.186675730840696815e+03
4.472194443692546884e+03
2.811104696590358344e+03
1.579324167493316736e+03
1.198815923957880841e+03
1.152743730416879316e+03
8.561985513845435207e+02
3.581665735579895795e+02
7.336256033976391109e+02
1.680518191387982824e+03
1.829875906877022317e+03
1.290725234405824494e+03
8.840178568129600762e+02
7.696229823969176778e+02
1.037742378515064274e+03
1.286641787639898212e+03
1.896445129913218807e+03
2.618135755072011762e+03
2.741701540177541574e+03
2.034182816983362272e+03
1.385519969168967691e+03
3.417132009530594132e+02
-2.561878704048037321e+02
-7.091723285967417496e+02
-1.011247411350254197e+03
-3.681004319724187894e+02
1.432445279085819038e+03
2.316898774891789799e+03
2.460939670019894947e+03
2.285882231548867367e+03
2.160177936039825909e+03
2.141306865760984692e+03
3.270316140617800102e+03
2.909428079838304711e+03
2.039840551359492110e+03
1.590530339997107149e+03
2.380411938405104593e+03
3.072691740069433308e+03
4.288149373119350457e+03
4.548816946112428923e+03
3.091882711515557730e+03
2.427148975780810360e+03
2.065911589908823771e+03
1.925071548831061136e+03
1.250831746442993335e+03
4.729045198268181593e+02
-1.502827577892597446e+03
-3.091067441438292462e+03
-3.795214252410517929e+03
-3.153887324332066783e+03
-2.279295960908295456e+03
-2.762404272452194164e+03
-3.332137839626197092e+03
-3.049461472607061296e+03
-1.929253753653965532e+03
-3.584858289131639140e+02
2.517966507560733760e+02
1.000525858597777642e+03
2.326683572210472448e+03
2.829402970942557204e+03
2.612770476868552123e+03
