2.226750774623499638e+03
5.221813336349214296e+03
1.722411027100509727e+03
-3.358505513972467270e+03
-4.319016336188668902e+03
-5.159189708334224633e+03
-5.656044563860668859e+03
-5.698590038982534679e+03
-6.195890305732406887e+03
-3.468023636185658233e+03
-5.000472593995492616e+02
7.930898925302643647e+02
-1.976003384164294800e+02
-1.502175656782440853e+02
3.018276908549509244e+03
3.977860904845010282e+03
4.479571780112338274e+03
4.795458357569003965e+03
5.717449278269453316e+03
6.114640597652768520e+03
6.047010482923195923e+03
5.667577706103737910e+03
5.586345604257210653e+03
5.080331682665414519e+03
4.618440313037972373e+03
3.867536047377257546e+03
2.659645642882484935e+03
1.774828230426296386e+03
1.091038004348138656e+03
9.351304858683253087e+02
1.018177678764534107e+03
1.266225018596956716e+03
1.488228021713978478e+03
2.091205205443546674e+03
2.966276316984103687e+03
3.673458289056972262e+03
4.143725301169011800e+03
4.395198155396130460e+03
4.434749846497330509e+03
4.318436353830802545e+03
3.262692839670566627e+03
3.537267154152605599e+03
3.620196914564052804e+03
2.658457040616081031e+03
1.886168254810873577e+03
-1.611281389847433047e+03
3.407824566508354565e+02
1.842657099693537361e+02
-1.461422702852505324e+02
-5.023860958245007282e+02
-8.258279148412062796e+02
-1.108081374526812397e+03
-5.372893466170204420e+02
5.022181530230406032e+00
6.676561562082307546e+02
7.556882110044444971e+02
7.373812814826243311e+02
1.737916894775858964e+03
2.101890292731370209e+03
2.054754589215019678e+03
2.112454731664154679e+03
2.022570544664692761e+03
1.789808689899585261e+03
1.070944938846944069e+03
5.597568212252007243e+02
-1.916779065978915355e+02
-1.274047339599198267e+03
-2.079601128774910649e+03
-2.667516916887749176e+03
-3.272685518828287059e+03
-3.423026156383403759e+03
-3.144444139396316586e+03
-2.309849990904193874e+03
-2.216252047412654974e+03
-1.788576777556607340e+03
-1.243699556110628919e+03
-7.035411778901370781e+02
-2.810834452925688538e+02
-5.152307379042963476e+02
-3.048614903520847861e+02
-3.769774465563199328e+02
-6.655733699912760812e+02
-6.695753598996569735e+02
-8.779327457106885504e+02
-1.572561838314073611e+03
-2.767457412620576633e+03
-3.679666109801933089e+03
-4.088146764324096694e+03
-4.635851091124701270e+03
-4.787810074546449869e+03
-4.989963584885672390e+03
-4.895238502238993533e+03
-4.771527899226277441e+03
-3.990794576256701475e+03
-2.847978170734441392e+03
-2.286953579762786831e+03
-1.684680392443883193e+03
-7.100714029537086844e+02
-3.610485055287863929e+02
5.904790385147109646e+02
7.365120126542643675e+02
7.261829473907929469e+02
4.344906634815282018e+02
-6.161356894423975916e+01
-1.917606289363654071e+02
-9.880127720398804740e+02
-1.003436799595409752e+03
-2.139135458084967013e+03
-7.489946579291315174e+03
-9.852844296134029719e+03
-9.590830203830004393e+03
-8.525892902748157212e+03
-3.199893956212836201e+03
-5.407901338555369648e+02
9.124902466469154660e+02
1.927012601889025291e+03
2.518876215036762915e+03
3.287199314454805972e+03
4.086040139834693036e+03
4.724368087780229871e+03
5.286167791258707439e+03
4.909519062882844082e+03
4.502596726175132972e+03
4.401357167202143501e+03
4.022767660753643213e+03
3.236912542425879565e+03
2.529829039461138109e+03
1.562555195136818156e+03
6.780988238650587618e+02
-1.858697544413657710e+01
-2.948701881863821583e+01
4.124947343918881302e+02
9.793488676184541646e+02
1.031139328798502902e+03
1.316901241729482763e+03
1.829721839122676556e+03
1.950626462915654656e+03
2.679680391285128735e+03
3.142957515105413677e+03
3.308388392704147464e+03
3.441050174682691704e+03
3.392009161348971247e+03
3.324258428019700659e+03
2.934812496383474809e+03
2.391672958490466954e+03
1.235850471871435275e+03
7.929982334819983691e+01
-4.619917771772736046e+02
-1.252036464749751758e+03
-1.658802965694093700e+03
-1.370334473826336534e+03
-1.035670686604488310e+03
-5.697404798064459328e+02
-1.845370469160591540e+02
8.695947214175203044e+01
6.767826155945909932e+02
1.202931774956074150e+03
1.824458287408303249e+03
2.206329261582087383e+03
2.491645813424973312e+03
2.752650940649846234e+03
2.423639746411712167e+03
1.894506112933189570e+03
1.617918519140884655e+03
7.709728460651300566e+02
2.374505542286111108e+02
-1.365820214500012071e+03
-3.242912750124383365e+03
-2.434786618520170578e+03
-2.168425808285369385e+03
-2.130896833691931533e+03
-1.750281073446263463e+03
-1.171544136142777234e+03
-5.967174542701163773e+02
-5.117947603340018645e+02
-3.447596627098052977e+02
3.293650608914656459e+02
9.335753083505358063e+02
1.589836954931650325e+03
2.072096423910305020e+03
2.127365543461396101e+03
1.636639331366263377e+03
1.408927337360415095e+03
1.288204462895546385e+03
6.033975318943757884e+02
-4.715264135097313556e+02
-1.586687195018437478e+03
-2.331130404819306477e+03
-2.641931457558086549e+03
-2.960152795431068625e+03
-2.796859879784422446e+03
-2.831070636164246480e+03
-2.755860633451640751e+03
-1.888222829908963149e+03
-1.072173632017165119e+03
-3.447317792234196077e+02
2.030769963396830349e+02
5.392536447727628683e+02
1.078745274248881742e+03
1.570539048659309174e+03
1.868566132691312532e+03
1.768809858261328600e+03
1.882302956160440544e+03
1.351980928519000599e+03
2.047624989063916132e+02
-6.524659035876493363e+02
-1.302783634205672342e+03
-1.950274268596708453e+03
-2.503054549341295569e+03
-2.789208240959188515e+03
-2.715763387749309459e+03
-2.727754470685893011e+03
-2.691235669655318816e+03
-1.983228219134449319e+03
-1.637769770468309616e+03
-1.024882372359296141e+03
-4.405574403925917863e+02
3.181094155893495667e+02
1.010193337917646204e+03
1.336711514981206165e+03
2.073532443441862142e+03
2.105591683543952968e+03
1.768849553943597812e+03
1.388246495638270972e+03
7.737806206868884829e+02
-5.066876106552008707e+01
-8.441572730132683091e+02
-1.760728856014515031e+03
-2.124517508161442038e+03
-2.366636686572345752e+03
-3.313246800414944573e+03
-2.553257282978611329e+03
-1.664375507337992531e+03
-1.283848046208616779e+03
-7.497262888217693444e+02
-2.499417493853966477e+01
5.797004317676551182e+02
1.001177144235864375e+03
1.417343989641021608e+03
1.865939454270940587e+03
2.267277613349881449e+03
2.258156188560587907e+03
2.179539346066348571e+03
1.859510630312816147e+03
1.100622576639093722e+03
3.371389232808184602e+02
-1.602058056851407457e+02
-7.105265092900147010e+02
-1.407913012574286313e+03
-1.738844135292002647e+03
-1.640000466993396230e+03
-1.749388877106748168e+03
-1.415703902973926461e+03
-8.759746096657232783e+02
-2.985598270700014041e+02
2.007968885851557559e+02
6.631386533372760823e+02
1.604139776846565837e+03
2.246609949457101720e+03
2.712012593695958458e+03
2.889429286237723773e+03
2.755901904787700914e+03
2.542116859543804367e+03
2.579385368264005137e+03
2.159236221953574841e+03
1.306033525727770211e+03
4.962614877555654971e+02
-2.532154321944138076e+02
-8.641089349692116457e+02
-1.298337545120888308e+03
-1.590149285057827228e+03
-1.374766915955775630e+03
-1.203934172881602990e+03
-1.014622484117916883e+03
-4.758267469669041247e+02
4.494092839164527504e+02
1.038096194287325488e+03
1.673196074327004908e+03
2.207722603439487102e+03
2.581717918255401401e+03
2.797278925065351814e+03
2.537378265735115747e+03
2.386079045390961255e+03
2.131436716274507944e+03
1.445373812871510381e+03
6.408826583488537381e+02
-2.400338065337590194e+02
-5.293409129362787553e+02
-1.199096600046752883e+03
-1.841317498996964559e+03
-1.848014125181070312e+03
-1.984254144747159671e+03
-1.374925261452357290e+03
2.303867514107056991e+01
-1.013396271211095950e+03
-2.910002303171449057e+03
-3.572661050571442956e+03
-1.790292373413586120e+03
2.382087403296165576e+03
3.050388181979122237e+03
2.678605757890965833e+03
-4.372073342941937995e+02
1.304264458227986097e+03
1.296603675440818961e+03
-2.707984317470594760e+03
-3.407671304144514124e+03
-6.254219147759016550e+02
-8.940799650783133075e+02
-2.915572493263543038e+03
-4.319211259035941453e+02
-1.286054409612277823e+03
-4.801142870292484076e+03
-4.060076720069705516e+03
-3.470919232299370833e+03
-2.126921257312054422e+03
-1.074895318270689586e+03
1.329410207342306194e+03
-8.239513210567201895e+02
9.890528557403714558e+02
3.202486444473923257e+03
3.571253017189741513e+03
3.337346571687199685e+03
3.303733681800702925e+03
2.727484129048510567e+03
2.143596236380528353e+03
1.533065254243643949e+03
4.768021061541884933e+02
-4.511047326190878834e+02
-1.044444194639633224e+03
-1.727092566936444882e+03
-2.150121743735112886e+03
-2.179651862714796607e+03
-1.419655743733526606e+03
-1.094399462189362794e+03
-6.028701738185085333e+02
8.839848197457167771e+02
1.626170289231889910e+03
1.887081566973798544e+03
2.353221124885072186e+03
2.776465297326750260e+03
3.048685801617336892e+03
3.314875299157629797e+03
3.213991601588334561e+03
2.715969606077207573e+03
2.307691540986819746e+03
1.535977286198914726e+03
5.446019108382516833e+02
-5.180699737682917885e+02
-1.019951329963367698e+03
-1.360027237259048206e+03
-1.702322154529911359e+03
-1.690589108544386590e+03
-1.394252978222049705e+03
-1.109857668809754387e+03
-7.990445929111327814e+02
-4.504308686992366120e+02
-3.118764303198322523e+02
6.730243927699001460e+02
6.604579902551089390e+02
-1.911973228231168150e+03
2.605930466772955469e+02
2.314767211633098213e+03
2.120345639633001610e+03
1.017836551569612197e+03
9.775873818554472336e+02
5.881397542745620513e+02
-3.014151112860854482e+02
-1.056112985021439272e+03
-1.306174873768223279e+03
-1.664898130031178880e+03
-2.263208223883854316e+03
-2.436363408209803765e+03
-2.070364979994655641e+03
-1.445985265923005727e+03
-6.733103657226804444e+02
-3.135400072942958261e+01
2.110252675001325429e+02
5.809561513194826148e+02
1.800535777066769242e+03
1.868774513562841321e+03
1.724413642450481348e+03
1.593596027990475932e+03
1.292427276817099482e+03
1.226766011042536093e+03
8.296212162515029149e+02
3.680063712285896145e+02
-8.919383488039770782e+02
-1.784301322250770454e+03
-2.477212059485892041e+03
-2.796508307737739869e+03
-2.925990909260935950e+03
-2.442721746876057750e+03
-2.139913143037404097e+03
-1.678548604320514642e+03
-6.294169630178425905e+02
-3.525200521440643797e+02
7.416383184630595338e+01
8.116331428543942366e+02
1.363893592733638343e+03
1.966007331389884939e+03
2.045037591847817339e+03
2.105096760179018474e+03
1.939962484977576878e+03
1.735647851802171999e+03
1.306226637016954328e+03
9.538525158497360508e+02
4.114506764923729065e+02
-4.621370567866023862e+02
-1.245880875064428892e+03
-1.692608208155841567e+03
-1.582312935197886418e+03
-1.551071426643037512e+03
-1.907059805607385215e+03
-2.089266703798215076e+03
-3.291839576642995780e+03
-6.012895067840848242e+03
-8.261254621924648745e+03
-7.816856857727421811e+03
-6.427902077223900051e+03
-3.925403319922129867e+03
1.801562650617946247e+03
2.985016790584064893e+03
2.095946302612098407e+03
-1.505955869995549392e+02
-4.404740284971404094e+02
7.648959835111079428e+02
6.704029617329067605e+02
-2.478129791526076531e+02
-8.189629466301198590e+02
-1.347170972440202149e+03
-1.375413876233373003e+03
-1.144854406567598289e+03
-7.215215157294426263e+02
-4.428587561134622064e+01
4.886728105609379895e+02
8.362873407553239531e+02
1.234718396167106448e+03
1.586404451120161639e+03
2.393043268691546928e+03
2.681348227026354834e+03
2.767320664499118266e+03
3.276750218363452404e+03
3.151694304966271375e+03
2.748215309405131848e+03
2.211204571703997772e+03
1.625565823125852376e+03
8.793282210474790190e+02
4.753983849186781185e+02
-3.502823952240178187e+02
-8.627281583321453127e+02
-1.132045887884163449e+03
-1.182378263557020773e+03
-1.021582516250078811e+03
-5.275974126696339681e+02
-1.865052934661968038e+02
2.586540878585202563e+02
6.128847797039896932e+02
9.711529704213934338e+02
1.904564585560785417e+03
2.651067309163249320e+03
3.141545278502152541e+03
3.011130579014634804e+03
2.666837611659827871e+03
2.500909511428984842e+03
2.367426910770180712e+03
1.795848626253236716e+03
9.701491162638418473e+02
1.034208578101862344e+02
-9.044166088710496751e+02
-1.455445298015389653e+03
-1.557681895825241099e+03
-1.997164705174811843e+03
-1.705855263537867359e+03
-1.970688183695083808e+03
-1.467570884948981984e+03
1.146324089136364535e+02
1.072906894329431907e+03
1.688095936918849475e+03
1.859235472494399346e+03
1.872428943851750091e+03
2.337704101926233761e+03
2.418094769402757720e+03
2.237667932897858464e+03
2.190643573060238396e+03
1.799989727846391588e+03
6.796448826064327022e+02
-2.286486261375207505e+03
-4.479459350332848771e+03
-1.626343354816940746e+03
-1.256028464501810731e+03
-3.065607136702409662e+03
-6.489914480452039243e+03
-5.207749999760020728e+03
-3.834204078954157467e+03
-2.557335087323467633e+03
-4.840038883498400537e+03
-2.470320647495154844e+03
-1.521148469329195223e+03
-1.304273736109386448e+02
2.103015000115851763e+03
-9.762810113177488347e+01
1.822685804183995742e+03
2.340278123209608339e+02
-2.175414155930077868e+03
-1.218735027849433436e+03
1.534732714390453566e+03
1.022068341448001547e+03
-1.696595336747310057e+03
-2.774214647723131748e+03
-1.541766904484445149e+03
-4.348215286801860202e+03
-4.411486629070096569e+03
-2.580489530704746358e+03
-7.843153925914500633e+02
-6.499515219319247308e+02
-8.781181828594847047e+02
-2.807801144148799267e+03
-5.779295351249226087e+02
-2.147495134114393750e+03
9.035570456062650919e+02
-1.364746502272332918e+03
7.396352866056400899e+02
1.607177077365991806e+02
-1.233317975895073459e+03
1.185664473683225850e+02
6.603629091080044873e+02
-1.112996674642726930e+03
-2.531543149600734068e+03
-2.438261350925836723e+03
-2.166218647097372923e+03
-1.814409454341945093e+03
-1.124835471613084792e+03
-4.993026270490926208e+02
-7.757812834497893846e+02
-1.426331593147894182e+03
-1.461860658337209316e+03
-7.514144051025341469e+02
-4.361155017603772990e+02
2.751004098902998294e+02
1.078302101152827845e+03
9.086302364258398256e+02
4.350819511763779133e+02
1.975654421364575342e+02
5.080605268755854240e+02
1.233566965801939546e+02
-7.733098201979707937e+02
-1.746770470528583019e+03
-3.721147750334414468e+03
-4.858424560942477910e+03
-5.756678279613975974e+03
-7.899917351689801762e+03
-7.870878638356353804e+03
-6.632009526741552691e+03
-5.449090484578146970e+03
-3.084340487090978968e+03
-1.842994987940868214e+03
-1.962633221007140492e+03
-1.725065671394407218e+03
-8.618492028726084300e+02
-1.940127654743007497e+02
1.245879402980383702e+03
-1.518738486850312874e+01
-1.600681041489542849e+03
-1.763796256438407909e+03
-1.286318059292072121e+03
-3.010869119465073709e+02
1.837706339484837599e+03
2.085963330319410034e+03
3.149351767314798963e+03
3.147683240166326414e+03
4.041396587086762224e+02
-1.296400291643313722e+03
-6.039407049092952775e+02
8.214424018974912087e+02
2.611085012465487580e+03
5.309180903753714119e+03
6.347976027647390765e+03
7.333375334496565301e+03
7.331377702021012738e+03
7.384856353322419636e+03
7.150653904698850965e+03
6.506643828789255167e+03
3.834739545860749331e+03
1.744883715339010450e+03
2.323990953776647984e+03
5.390971200269226756e+03
7.298743329144410382e+03
8.170217523665280169e+03
9.698259599889181118e+03
7.614723943964057071e+03
4.785558347267448880e+03
8.076749278460982850e+02
-4.175121190610821031e+03
-5.526893026405070486e+03
-5.556083484262481988e+02
4.011589928465725279e+03
7.473614138089909829e+03
1.089141874155928599e+04
1.360394898964934146e+04
1.595915511114891706e+04
1.746897345350688556e+04
1.628034915204870413e+04
1.155420653357729861e+04
1.046150966555036575e+04
1.042225726193004630e+04
1.042829832852297295e+04
1.073754520261502694e+04
1.528399915521290495e+04
1.429560439958607640e+04
4.937265022778919047e+03
-1.590133306467888360e+03
-5.312772839031957119e+03
-7.597650422671163142e+03
-5.739802569779456462e+03
-1.108272322580865421e+03
-1.690799629986444870e+03
-5.204226780114911890e+03
-7.780709591830244563e+02
7.376365521375183789e+02
-4.112042514970100456e+03
-7.091047135260281721e+03
-9.135480020287361185e+03
-8.492329739090851945e+03
-5.750508506777508046e+03
-4.562979148676130535e+03
-1.766811348812157348e+03
8.949851139948208356e+02
-4.576423037940477911e+02
-2.619712210225147828e+03
-2.572206682202084266e+03
-3.642125875311947766e+03
-5.240475906187934015e+03
-5.477245206662666533e+03
-4.063347928563430287e+03
-2.095747160172451458e+03
2.345545894559384976e+02
-4.943433598096731316e+02
8.063388059190312163e+01
1.567632055870422619e+03
1.117689449703236505e+03
-3.518828675549586649e+01
-1.661868429636911515e+03
-1.859262322758011578e+03
-2.860227899377972790e+03
-5.611705853152340751e+03
-6.621637673088725023e+03
-5.607987909864857102e+03
-4.985766821868934130e+03
-7.028908567100698747e+03
-9.901345984159001091e+03
-9.791905594166632000e+03
-9.897558260556486857e+03
-1.004719072438541843e+04
-1.033166557410013229e+04
-1.087688362468483683e+04
-1.075568843104156440e+04
-1.013195948923927062e+04
-7.976533420202688831e+03
-9.397262528945424492e+03
-1.136493720705833402e+04
-1.233146641061060654e+04
-1.173070060809920869e+04
-1.169650282225873707e+04
-1.309272543129612859e+04
-1.419623134475856023e+04
-1.266686725646867126e+04
-1.038050020359000155e+04
-8.364092982040654533e+03
-7.619575998764218639e+03
-6.135556460255057573e+03
-5.831966654484794162e+03
-7.007814492305428757e+03
-5.617847847499243471e+03
-2.529489174697820090e+03
-1.817698906215643092e+03
-1.078379318332644061e+03
-6.965056717835270774e+02
-3.111276442053926985e+02
5.794026454577262939e+02
1.421957360714392280e+03
4.156844601266856444e+03
5.027083446248892869e+03
4.584629895970280813e+03
6.407714733495970904e+03
6.672536654621898379e+03
6.115190751040073337e+03
6.460837455592170954e+03
4.590571504112808725e+03
2.396487114930956068e+03
2.690705044791130149e+03
1.045302161894179108e+03
-1.342569949364832610e+03
-1.621777485540371572e+03
4.584840529998891725e+03
8.027453000028083807e+03
9.013137337636031589e+03
1.094805633068975112e+04
1.014735530735916836e+04
9.797115377952412018e+03
1.044453263144014090e+04
1.038573785856540962e+04
9.780845274661183794e+03
9.868928671556581321e+03
9.671129779750954185e+03
8.860523726337722110e+03
8.234213659353928961e+03
7.374248638941339777e+03
4.790687105538040669e+03
4.086585161038268780e+03
4.451955342143473899e+03
3.967821380570759175e+03
3.460242359614901034e+03
3.280258034535345814e+03
2.736994965854417387e+03
3.442487617974897603e+03
4.092714755879800123e+03
2.658731928215088828e+03
1.995615378394302525e+03
1.571433459041142896e+03
4.818242977600907579e+03
1.025408737147556531e+04
9.467948090751202471e+03
8.442845523714573574e+03
9.030766861391566636e+03
8.666748839640535152e+03
7.158751284431710701e+03
5.917698825078854497e+03
3.518554027503760608e+03
1.411328195858458230e+03
-2.670535849504241810e+02
-7.686257578771974295e+02
6.115228253460317092e+02
1.784277882881768164e+03
1.465689411396856713e+03
6.957168035500932319e+02
5.312017898521863799e+02
3.230744299759819000e+02
-1.347696732400973474e+02
-4.873141574695463873e+02
1.801397150202053126e+03
3.611212005167522875e+03
5.204066828667544542e+03
5.613846550258146635e+03
4.011508480975870498e+03
2.491243113793415432e+03
2.153672617433915548e+03
-4.641986855477384779e+02
-1.573559021821180750e+03
-1.214166982772515269e+02
-2.392474890564801449e+00
-1.287248519794817412e+03
-1.846381232958423197e+03
-3.055742438912016496e+03
-4.685454012043764124e+03
-6.445996327998606830e+03
-6.934508458773369057e+03
-5.710855366450177826e+03
-4.815870171449629197e+03
-3.486350211774280979e+03
5.092949679024544594e+02
3.483704651773038222e+03
1.484718768385253725e+03
-2.852560918807965322e+02
-7.812514663138110791e+02
-1.645425143076994345e+03
-2.521614040342505632e+03
-3.387186328044311267e+03
-3.864887451647559828e+03
-3.711298363453873662e+03
-5.415939963924812218e+03
-7.350729689343082100e+03
-6.506722794492005960e+03
-5.899443964664245868e+03
-4.947577071350086044e+03
-4.576549518556464136e+03
-4.046399259826976959e+03
-3.304808025596672451e+03
-2.897316658722441389e+03
-3.394142839801741502e+03
-2.097413120532112316e+03
-5.114631408773967109e+02
9.245509635469545628e+02
1.403621233734949328e+03
1.224689581017360297e+03
1.412534428214341006e+03
3.108682422974717383e+02
-1.309547672385436499e+03
-3.267869635360812936e+03
-2.601297980884572098e+03
-1.750028028131794827e+03
-1.563030019574822973e+03
-1.244694177757592399e+02
8.145039213207926423e+02
-5.027141288083297610e+01
-9.348698479802512793e+02
-1.137439821886792060e+03
4.048941727060506537e+02
1.682095786617324848e+03
1.619073673438615970e+03
9.277822820129717911e+02
-2.524916562789875115e+03
-4.031042104193564683e+03
-3.555632943502805574e+03
-3.965794262857313242e+03
-4.230550746334226460e+03
-4.569053390513224258e+03
-3.667415163010767628e+03
-1.048475195938707884e+03
-5.355526668656078982e+03
-6.315741854854903067e+03
-7.423121972636258761e+03
-8.278906849505468927e+03
-6.034119329868972272e+03
-9.776812875096526341e+02
-5.789650153060387311e+03
-6.541075932298299449e+03
-2.218932620090703040e+03
-1.356255216800592734e+03
-3.348880805626507026e+03
-3.748768845053860787e+03
-3.446000618796381787e+03
-2.247640762927921969e+03
2.612213534101675123e+03
4.813464336925944735e+03
-7.747771487823806424e+00
-3.625495920283991836e+03
-4.637710101980152103e+03
-5.597115967083917894e+03
-5.875776339838010244e+03
-4.261884327343579571e+03
-1.345426670247926268e+03
-3.882384556824313222e+03
-1.378840360828748317e+03
-1.436546265900836943e+02
1.913246448702162979e+03
4.077010175457038258e+03
5.049703480103624315e+03
5.483454443581174019e+03
5.798399025038598666e+03
5.853769357104536539e+03
5.783698098039901197e+03
5.801138401689604507e+03
5.622851056765002795e+03
5.494919827479642663e+03
5.031536055765222955e+03
4.592682638390954708e+03
4.202718433870963963e+03
3.987837320652701692e+03
3.533256727473931733e+03
2.730218576281324658e+03
2.977613350190455094e+03
2.731023615244749635e+03
2.377438176808806929e+03
2.332013742730336617e+03
2.673816895046765694e+03
3.101953347767903779e+03
3.267573047196010521e+03
3.716848942882424581e+03
3.645109682352746859e+03
3.538822732738457944e+03
4.005772162949432186e+03
3.783933929728117619e+03
3.223462031874553304e+03
3.340658866472307636e+03
3.927349171290024060e+03
4.517110709561668045e+03
4.501485863880073339e+03
2.689512108201872707e+03
1.246301969995007767e+03
-6.760950828357358660e+02
-2.069813220548533536e+03
-4.902332101042829891e+02
1.074141987029757729e+03
1.340773982729698901e+03
2.158344173526071700e+03
2.196187568613977419e+03
2.217423496555455586e+03
2.034905751522591345e+03
1.705304856090037447e+03
1.956427994943238218e+03
2.842070034684546044e+03
3.449079180311188338e+03
3.883739565545433379e+03
3.201212223209228341e+03
2.297571814286186054e+03
1.858863524931443635e+03
1.488013294834239787e+03
9.821169489552424920e+02
1.702552073212061146e+02
-4.045791834260054429e+02
-9.004689542363546479e+02
-9.674438479716145594e+02
-1.389561940814730860e+03
-1.830567340344163540e+03
-1.079469328856253469e+03
-6.583219886206675255e+02
-7.299277064910983199e+02
-2.881841260449747324e+02
3.630576034151739009e+02
1.051788168552666093e+03
1.796095952065600159e+03
2.449149197867689963e+03
2.881815820574550344e+03
2.170969335738398058e+03
1.645616931745706779e+03
4.699457174178279502e+02
3.440283890297006906e+02
-4.317710941667053604e+00
-1.054043518292894532e+03
-1.755233825598966405e+03
-2.371854018273376369e+03
-2.639862247293863220e+03
-2.789318311642114622e+03
-2.931293105958439810e+03
-2.842921194217546599e+03
-1.849948485431747258e+03
-1.291309136663506251e+03
-7.170658690101523689e+02
-1.030860875565039514e+01
6.779964286007436840e+02
9.229578682728360945e+02
1.258534208534977779e+03
1.742430387522387491e+03
1.371546326967351433e+03
-3.211886325872243333e+02
5.972579478044395955e+02
7.057618799568043642e+02
-2.883687333888800822e+03
-8.434069215240937410e+03
-9.610645987400446757e+03
-1.001655236799751037e+04
-1.002068346600218501e+04
-1.008514739523855678e+04
-8.255915909018463935e+03
-2.784057425372197486e+03
-2.191511185686862063e+03
-1.176377224777100082e+03
4.911475582289473607e+01
6.341133586618072968e+02
1.279707766817492939e+03
1.775649417279974614e+03
1.846998677532945521e+03
2.070774686622230547e+03
2.158877231221468264e+03
1.928448746661070572e+03
1.694490247631225657e+03
9.687902465468569062e+02
2.904553123478828525e+02
-6.614911602156056460e+02
-1.288198583228276675e+03
-1.453275458336476959e+03
-1.693600383041509076e+03
-1.859051855512260772e+03
-1.887764024159341261e+03
-1.886503203402087820e+03
-1.343276701228722004e+03
-7.311772995499217132e+02
-1.061603570790575048e+02
7.384192693912876848e+01
5.867518815720294469e+02
1.225578724548908212e+03
1.624396573173053639e+03
1.813186688254554383e+03
1.943945288458238792e+03
2.078823654473053011e+03
1.699688847649584432e+03
1.105432599765790656e+03
2.851218819018918680e+02
-7.652901505947123724e+02
-9.888425434998342780e+02
-1.333490533960352877e+03
-1.846364639689049909e+03
-2.193463136588319685e+03
-2.095611664072504027e+03
-2.013797152832946949e+03
-1.702024438256980147e+03
-7.575600502395381000e+02
4.539422876915205762e+01
7.263071600815636657e+02
9.522449054752278244e+02
1.609107583477431717e+03
1.636972160070072960e+03
1.147876146472483924e+03
7.568128599577312343e+02
4.059495156033405578e+02
1.992687452875309475e+02
-6.002273510823282550e+02
-1.348605584056836960e+03
-1.700023712287704939e+03
-9.274556122831467064e+02
2.181835956673112378e+02
-5.300294727452082810e+01
-5.550638044972296257e+02
-1.053999910918448904e+03
-6.477467187227283603e+02
1.637624971951939585e+02
4.063380154268911610e+02
7.100141045293404432e+02
-2.082026649304341674e+02
-3.260222403102096450e+03
-2.717768232033073673e+03
-1.980274668274195804e+01
2.936525938993052023e+03
3.089402196196679142e+03
2.397756880847472075e+03
-6.525380982860904169e+02
1.391570317254246447e+03
5.091724735591818671e+02
-2.114770817494020775e+03
1.388130135950602551e+02
-3.027026938526985305e+03
-6.198247406200746809e+03
-4.649919392989508196e+03
-3.069148935835229167e+03
-5.879882443667378539e+03
-2.533160027732019444e+03
-2.760198960998102848e+03
5.860416940202669593e+02
1.187910442955025019e+03
4.894443306595221657e+02
-3.378376946894700268e+03
-2.266513163502987936e+03
-1.133960104254160797e+03
1.697309484518003956e+03
2.019249525106986994e+03
-3.052590917805712820e+02
9.009668868485271105e+02
2.529957198475194673e+03
-1.060532131068792296e+03
-8.765218770393581735e+02
3.379444837069942196e+02
-4.601240651862515847e+02
-3.617779312963450593e+03
-4.553060230848387619e+03
-1.613921143087158271e+03
-1.532807614355245676e+02
-2.113265796554938788e+03
-1.504910411668769711e+03
8.177444733127696281e+02
2.406778049254260623e+03
3.385243600612850969e+03
4.191039273296088140e+03
4.186231295202486763e+03
4.228898722550428829e+03
3.996100880987657092e+03
3.003577585952043137e+03
3.186245887849205246e+03
2.374098335758402754e+03
1.619956623125942997e+03
1.070827697389655896e+03
7.548260303273521004e+02
4.959095234652919544e+02
3.260353295624327643e+02
1.520327753079897946e+02
-3.271266420759263838e+02
2.663514378085767831e+01
5.153692996108786701e+02
1.429289637656505192e+03
2.584265871441643867e+03
3.429137292279275698e+03
3.783981635803038444e+03
3.670719776012128932e+03
2.927273296581329760e+03
3.495342839312755132e+03
3.070934114920208685e+03
2.481713754473632889e+03
2.848462110736629711e+03
2.442743856626778779e+03
1.507694343970530099e+03
6.371718087840100679e+02
-4.122908872647645921e+02
-1.205910442643801389e+03
-1.503341238498702978e+03
-9.347660460886862666e+02
-6.730466388333144323e+02
-4.071918334992056998e+02
1.839876217908343961e+02
7.985230118038805358e+02
9.149196238408335375e+02
1.293187144349973096e+03
1.850121411617890999e+03
2.359410109438385462e+03
2.655097999375474046e+03
3.127789020513115702e+03
2.893389073096029279e+03
1.832716247553054700e+03
1.244797264397203890e+03
1.021334739652109306e+03
5.188834604029369757e+02
-2.152351007740451223e+02
-7.080138626353530071e+02
-1.097564554512430732e+03
-1.542172542445871841e+03
-1.636533132096293230e+03
-1.451743108895079558e+03
-1.751550747775373793e+03
-1.397012478287481144e+03
2.772760990549674531e+01
5.396890170113332488e+02
5.928957496787489845e+02
1.397279004380187189e+03
1.944870410930353955e+03
2.324667890432177956e+03
2.663635091405708408e+03
2.542744167586418826e+03
2.028976588543359412e+03
1.545345140177124676e+03
1.139698157033828011e+03
-4.893635665522882050e+01
-8.725200925872219386e+02
-1.563097665236284683e+03
-2.425753168235954035e+03
-2.661502418521567961e+03
-2.517341336084321938e+03
-2.264242049889801820e+03
-1.722132020531578746e+03
-2.625978272370870855e+03
-4.826816952791171389e+03
-7.088542740196693558e+03
-6.891117064446777476e+03
-5.340528263551559576e+03
-2.324833884662452419e+03
-3.268031885647118543e+03
-4.723085543656604386e+03
-4.840855966760314004e+03
-5.025305395645323188e+03
-4.011421543439338166e+03
-5.598350054375193395e+03
-7.156888419407660876e+03
-7.797226604370460336e+03
-5.471326925993206714e+03
-1.297155879473697496e+03
-3.256631067943350445e+03
-8.299787940287626043e+03
-5.877569519542337730e+03
-3.876904780266888793e+03
-2.507760356623556163e+03
-5.272146921680904597e+03
-3.301967950669064521e+03
1.268870743202654921e+03
2.901497726957873965e+03
3.282992060418283017e+03
4.015357481625540004e+03
4.104627388300456005e+03
3.607862630185119087e+03
3.396147303430998818e+03
3.270514525432893151e+03
3.143986950525548309e+03
2.538537631210584095e+03
1.628237251963599419e+03
1.184187683249649808e+03
6.023450152177576911e+02
1.597365262349644013e+02
-4.545414355325490874e+02
-4.724251656624462612e+02
3.351173057625177876e+02
1.242147003832208384e+03
2.040738751969588520e+03
2.334957792163003887e+03
3.005883012218445401e+03
3.655700069186852488e+03
3.900479893146937229e+03
3.559293067477246041e+03
3.444120756613569938e+03
3.837051143235583368e+03
3.105230462021089352e+03
2.576660189693849588e+03
2.248376620019291749e+03
1.839415406871190271e+03
1.178796693837892690e+03
7.625693903070075521e+02
2.437965358642838396e+02
-3.035665845491907362e+02
-9.014531203301058895e+02
-8.927916695683821899e+02
-5.405194360836491114e+02
9.943839868143213323e+01
7.411328785613690115e+02
8.036609824399107538e+02
1.369088429685134997e+03
1.923530160307150027e+03
2.609059691867195852e+03
3.392617356103388829e+03
3.719424057433247526e+03
3.171681722931494733e+03
2.130361820774748594e+03
1.976544754904037973e+03
1.717406881759482303e+03
5.689703614918424819e+02
-2.217818488702856996e+02
-1.624891278538333381e+03
-1.267728385155195838e+03
-1.569869385434513788e+03
-2.149524928498751251e+03
-1.831784926650439729e+03
-1.080580198743580013e+03
-5.009111805390438690e+02
1.252687611840928668e+02
6.820615394750565201e+02
1.379466459220256638e+03
