8.855069328304522787e+04
8.613945231886900729e+04
8.584275961030657345e+04
8.603174116361245979e+04
8.515600849857316643e+04
8.553320117055946321e+04
8.453703033012966625e+04
8.108200248502417526e+04
7.872933749638192239e+04
7.777441196226656029e+04
7.636196450299728895e+04
7.517623673409398180e+04
7.426244396441210120e+04
7.346679736301704543e+04
7.259458298481340171e+04
7.035632674471015343e+04
6.721037264556286391e+04
6.432529237516845751e+04
6.119265858634946198e+04
5.754296556651819992e+04
5.359322758721732680e+04
4.981358646435233823e+04
4.555987035152660246e+04
4.101360073691976140e+04
3.703149394382379251e+04
3.336155909961862199e+04
2.944510542679870196e+04
2.631823962376949203e+04
2.327192051074560732e+04
2.040012306055725639e+04
1.828776423663192691e+04
1.651871739614827311e+04
1.546591457066087241e+04
1.419718246716665999e+04
1.272123216503364711e+04
1.150583756158426877e+04
1.075269327426786367e+04
9.302406258732153219e+03
7.597698403797029641e+03
5.926181504269891775e+03
4.171385881552351748e+03
3.032827706125268833e+03
1.036954877814725705e+03
-1.167677420160914608e+03
-4.246353069793496502e+02
4.784164727926986984e+02
-1.572179564051797570e+03
-2.750035355063121187e+03
-3.250826383580495531e+03
-3.396180110684524607e+03
-5.019782776518180071e+03
-6.012280815657535641e+03
-6.652255346865319552e+03
-8.366303032882888147e+03
-1.046811034866535920e+04
-1.224121547927187930e+04
-1.408720280290664959e+04
-1.802460234571978435e+04
-2.312100970278213208e+04
-2.709292144512070081e+04
-3.373776350545716559e+04
-4.059900947272530902e+04
-5.006317488388750644e+04
-6.258076932197001588e+04
-7.570018218150363828e+04
-8.758183157902453968e+04
-9.127104271775815869e+04
-8.306005815060563327e+04
-8.454528706557463738e+04
-9.085314048443114734e+04
-9.312884685257445381e+04
-9.369651485908635368e+04
-9.604615917791372340e+04
-9.838482644522399642e+04
-9.511167681879253360e+04
-9.113507919522968587e+04
-8.747005823389961733e+04
-8.405363959609765152e+04
-8.131457794157181343e+04
-7.751855240413249703e+04
-7.341215077436470892e+04
-7.025885236712136248e+04
-6.718208733042833046e+04
-6.445130464979592944e+04
-6.165198214048522641e+04
-5.873653604297622223e+04
-5.531922129355700599e+04
-5.121621613850771973e+04
-4.705671442682659836e+04
-4.327779526673341024e+04
-4.056446460442480020e+04
-3.780070190885628836e+04
-3.510236497545649763e+04
-3.244313434618885003e+04
-3.013457380047654078e+04
-2.902414513726983569e+04
-2.668428121466976518e+04
-2.242346045934551148e+04
-1.804209006927450173e+04
-1.474044530047302214e+04
-1.170977585076278774e+04
-1.027614030362620542e+04
-8.678559724768563683e+03
-7.120129381622125948e+03
-5.920958190314760031e+03
-4.592795747397928608e+03
-3.177207744975397873e+03
-1.854779812689334904e+03
-3.861877491208566653e+02
8.268414764879883023e+02
2.422570710983994104e+03
3.959245407093330414e+03
5.239440701458022886e+03
7.092013735122115577e+03
9.633712152537365910e+03
1.243416347238769413e+04
1.586827636351398178e+04
1.880921864330652897e+04
2.253395328665494162e+04
2.666340098062977631e+04
3.039559493970774201e+04
3.295458713484660257e+04
3.471755021139151359e+04
3.597168014074813982e+04
3.664519716911354772e+04
3.640247653687832644e+04
3.562171755089846556e+04
3.508622784199795569e+04
3.445543071895987669e+04
3.499798885034230625e+04
3.629532932091161638e+04
3.786382574186858983e+04
3.907415110639576596e+04
4.102794293643401761e+04
4.292861734992993297e+04
4.620180353031423874e+04
4.691928526612542191e+04
4.729884120732308656e+04
4.732685525330861856e+04
4.715654831367144652e+04
4.677502349405073619e+04
4.569231454640482843e+04
4.448106853743512329e+04
4.469408668549083814e+04
4.600931570988709427e+04
4.524943294328772026e+04
4.401711523266691074e+04
4.264702381025732029e+04
4.041905058846103930e+04
3.902007492258683487e+04
3.890063053105845756e+04
3.961137531246338767e+04
3.975307493138829886e+04
3.901891446533065755e+04
3.903341501041780430e+04
3.817611990463272377e+04
3.721805662225298147e+04
3.709616647336792812e+04
3.662203867470213299e+04
3.589995356390054076e+04
3.610746975611478410e+04
3.558630762528293417e+04
3.433975684110083239e+04
3.331064655691227381e+04
3.269421160137987681e+04
3.162993883419956182e+04
3.006368741748918910e+04
2.883037528917011878e+04
2.726711172755870939e+04
2.558116486995877494e+04
2.450068857126853982e+04
2.366959909012502976e+04
2.243443259019831021e+04
2.195799518060766422e+04
2.046322418552585805e+04
1.887439561693809082e+04
1.925251057098169258e+04
1.810468392925238732e+04
1.658162254467354433e+04
1.517362055022811182e+04
1.384260196952568003e+04
1.192158577520294239e+04
8.089298144496484383e+03
5.924325100835875674e+03
4.406141587497490946e+03
1.263512480496085573e+03
-1.249683520018367972e+03
-4.650363313768848457e+03
-8.151116879602994231e+03
-1.009359310057836956e+04
-1.195811187262388739e+04
-1.402369909823140551e+04
-1.488776507927314378e+04
-1.511161211259519223e+04
-1.520794866909898337e+04
-1.559866364266840719e+04
-1.624360623561507236e+04
-1.670561588514879622e+04
-1.706466811042945847e+04
-1.723286859861431003e+04
-1.724609399367053993e+04
-1.799543157321013496e+04
-1.819992445656894415e+04
-1.867486787645190998e+04
-1.994165759577378412e+04
-2.093446318843347399e+04
-2.233683537471198724e+04
-2.396642031478317585e+04
-2.493191358594165285e+04
-2.597761589931526396e+04
-2.706528283267719235e+04
-2.807784650247799800e+04
-2.826890234327669168e+04
-2.784809715665355179e+04
-2.738437810333415837e+04
-2.675061536779755988e+04
-2.634881309864840659e+04
-2.588253761188871795e+04
-2.508096217395446729e+04
-2.390308326528925318e+04
-2.262488544338792417e+04
-2.148064645615012705e+04
-2.021816600576288693e+04
-2.001717245871055638e+04
-1.974158396428034393e+04
-1.896622774231557560e+04
-1.805961216944622720e+04
-1.744208470392248637e+04
-1.713322822458951487e+04
-1.596680524512694683e+04
-1.549012827088737686e+04
-1.565321516778578734e+04
-1.584412700214096913e+04
-1.512354445338548976e+04
-1.382743923165564047e+04
-1.320389460732312727e+04
-1.236903624284163197e+04
-1.139763513707466336e+04
-1.094220022721288296e+04
-1.071360709964698253e+04
-9.890751101162270061e+03
-9.110905232689221521e+03
-8.194361062647913059e+03
-7.700085708876304125e+03
-7.724549933631532440e+03
-7.892203746341379883e+03
-8.598724184550314021e+03
-9.631623429166036658e+03
-9.654344212346024506e+03
-8.546425687670160187e+03
-7.438342993120789288e+03
-6.860538136483438393e+03
-6.282486256794323708e+03
-7.672764577525485947e+03
-1.051998515232127102e+04
-1.125884628934100692e+04
-9.851940540197827431e+03
-8.813373719697548950e+03
-7.044543490164039213e+03
-5.248042479163795178e+03
-4.171331626832952679e+03
-3.833754283410675725e+03
-3.220799831235523925e+03
2.187272642110000561e+03
4.820372087104638013e+03
1.650848562090783673e+02
-4.568971010381585074e+03
-5.553003121323937194e+03
-5.914419791286502914e+03
-5.248473774693170526e+03
-3.543983306988386630e+02
2.315578580588536170e+03
-3.965847740953151401e+02
-2.098892700733753827e+03
-1.031409559164402935e+03
2.208577543697077488e+02
1.241924253573712576e+03
1.999874917783581850e+03
2.706689218152385820e+03
6.980344756086101370e+03
1.100986035673051265e+04
1.219232539743317830e+04
1.314280744846969901e+04
1.345231425842781391e+04
1.284481266372163191e+04
1.211632126506082204e+04
1.128284548774036739e+04
1.009945752358942445e+04
9.600235091299759006e+03
9.729171261578780104e+03
9.452324145465316178e+03
9.548822688773509071e+03
9.819762833799686632e+03
9.386239805161936602e+03
9.776478272628011837e+03
1.077561800731752010e+04
1.159377008592496713e+04
1.216405307773086679e+04
1.202859135337620864e+04
1.232653485340712723e+04
1.260687714203746145e+04
1.215144592904507044e+04
1.141946872566193997e+04
1.098539938900085326e+04
1.048624239018672233e+04
9.976100409190561550e+03
8.444072246832027304e+03
6.921383687887034284e+03
6.103197855256866205e+03
5.569730888416708694e+03
4.697247500552652127e+03
4.523959275266895929e+03
4.489105595614038975e+03
4.653847809346806571e+03
4.884594179793725743e+03
5.772709145613979672e+03
6.519403962477919777e+03
6.739240585423219272e+03
6.110346677593563982e+03
5.730417962133702531e+03
5.666231097604248134e+03
5.334224768577224495e+03
5.232751374021812808e+03
5.977362977650044741e+03
5.580121637336790627e+03
4.054974170651136774e+03
1.980778094586444240e+03
-1.832048916519813133e+02
-1.019340744207897956e+03
-2.202081524738136523e+03
-5.242186682910877607e+03
-5.686905531089098986e+03
-3.129010408807416297e+03
-2.457841801891690011e+03
-1.703599958067638681e+03
-1.721799995983803001e+03
-1.011617135586251834e+03
-2.122672483371324859e+02
1.084258506623942367e+03
1.934863799908210012e+03
1.784753038284415425e+03
1.609157589515803011e+03
1.423869549528010339e+03
1.210820445462052248e+03
5.069187526095985845e+02
-3.110626905957129225e+02
-1.288016309735754703e+03
-2.128771927854691512e+03
-3.264268348004340169e+03
-4.262574472473217611e+03
-4.082603575769489453e+03
-3.822320018252662976e+03
-3.877660362861212434e+03
-3.590570578032089088e+03
-3.102992219526087410e+03
-2.761860903963915462e+03
-2.847062655937169438e+03
-2.036568917853436687e+03
-5.331626779487783097e+02
3.062203334529062886e+02
-1.543956151616480099e+02
-4.468370868852347257e+02
-1.251295666145589109e+02
2.657391466620465508e+02
-2.581810730433868457e+02
-7.537863605941532796e+02
-1.719994867264872710e+03
-2.511744008115503220e+03
-2.927988713891510997e+03
-2.892636172656006693e+03
-3.435598258831713792e+03
-3.173698723486460040e+03
-2.643137771284052633e+03
-2.220068540252842467e+03
-2.240347775123988868e+03
-1.939802498038132853e+03
-1.122570912581401217e+03
-5.158409068326789537e+01
5.143865169912900228e+02
4.555211564877851060e+02
4.469816423541614654e+02
4.538473162744479623e+02
1.022990488427595324e+02
1.755076495518577531e+02
-5.143613801427112548e+02
-1.153276275169304427e+03
-1.787238287737000519e+03
-2.560154283573088378e+03
-3.097055946782370938e+03
-3.480853271457037408e+03
-3.618489139553804307e+03
-3.888806988038863892e+03
-4.326847424643756312e+03
-3.373320024440111411e+03
-2.282924317586241159e+03
-1.344556892221104590e+03
-5.530480130586216774e+02
3.347857595292830979e+02
1.390091354715992566e+03
1.994015765967676316e+03
2.449537317819472264e+03
2.602711509881343773e+03
3.165773327059207077e+03
3.470917805837559627e+03
3.264332055709098768e+03
2.443183851446614881e+03
1.636604985717365935e+03
1.339631859506441970e+03
1.038310012867525529e+03
7.648221930555818062e+02
3.833889411737552564e+02
-6.478297305098857350e+01
2.594414067863816626e+02
9.218659963446571055e+02
1.706624051602429745e+03
2.170987585350778318e+03
2.332936644413498925e+03
2.872442608314487643e+03
3.528693296042831207e+03
4.086809072060144445e+03
4.162862964047022615e+03
3.962010757108279904e+03
3.417369328529266568e+03
3.166148541752812889e+03
3.027531860066249010e+03
2.817550326659305483e+03
2.696102012916800959e+03
2.444163179417382253e+03
1.975794568626152568e+03
1.408108163937774862e+03
8.640914445835305742e+02
1.006314937383784525e+01
-9.281057917935409023e+02
-3.237852333026464748e+02
5.112478470297639319e+02
1.530315602148002426e+03
1.880451994431040248e+03
2.790696146850177229e+03
3.473157403645600425e+03
3.696049197692943380e+03
4.217367083383063800e+03
4.171148857072649662e+03
3.721518930044900571e+03
3.152410950612803390e+03
2.767891591984537172e+03
2.230115469198887695e+03
1.313814277495221859e+03
7.760335249447064143e+02
1.581002504966893341e+01
-6.969861456850472905e+02
-1.290449409070452930e+03
-1.253706281984537327e+03
-6.017021378881573810e+02
1.364170303962337982e+01
7.382554201231315574e+02
1.495062878438998496e+03
2.670053687035172516e+03
8.961081759747044089e+02
-5.876803059785673895e+02
-4.673602489221098608e+02
2.811956457754949042e+03
4.260234477329276160e+03
6.040430140476528322e+03
2.598489121224413793e+03
4.134298652719549864e+03
5.777083482094417377e+02
1.836655798120795225e+03
-6.879352075153868782e+02
1.275864495960669956e+03
-1.824078698727274059e+03
-3.984915297936127899e+03
-4.228142194551263628e+02
9.700953708179437172e+02
-2.028234110530091812e+03
1.074023299147802391e+03
1.269731223670882400e+03
-4.621929115955695693e+02
4.620977172115760823e+02
1.267480684709646312e+03
2.141803197289105810e+03
1.035987604149002664e+03
2.376941058792217518e+03
4.032456522334815872e+03
5.312333607184549692e+03
1.730434199559867693e+03
1.964597845199577932e+03
4.220610019136853225e+03
3.783408123907669960e+03
-3.031559280373795673e+02
-6.202552154412480832e+02
1.215901648039558495e+03
1.868103755066699023e+03
-6.173210070111588266e+01
-1.081693969690011727e+03
2.328101062686904697e+03
3.131521602906203952e+03
3.707448076899639545e+03
4.365702667104028478e+03
5.171176550615348788e+03
5.206701505128708959e+03
5.494197481634490032e+03
5.762559471672664586e+03
5.204685957329639677e+03
4.548451232984420130e+03
3.643675562737526889e+03
2.572159153207720919e+03
1.409702642755338502e+03
3.051805624427723842e+02
-6.995771873060652979e+02
-1.395862887675513775e+03
-1.838635082869061307e+03
-2.431818906394958503e+03
-2.757396114407607911e+03
-2.646562283561693675e+03
-2.474378831659420030e+03
-2.318020803517465538e+03
-1.991588889380757564e+03
-1.861122993096460959e+03
-1.736688819299288753e+03
-1.542325088237746513e+03
-8.825790648538294363e+02
-7.644578698548026523e+02
-4.324060033625112851e+02
4.898725112316772083e+02
-3.160677907025835225e+02
-1.228718808845770809e+03
-2.398291215378255401e+03
-4.333251258201748897e+03
-6.501459910990338358e+03
-8.515617009329936991e+03
-1.023927568120129035e+04
-1.157534029428033500e+04
-1.275771557230013605e+04
-1.281586616216199582e+04
-1.267142397854586306e+04
-1.329530848861429513e+04
-1.443057692947769283e+04
-1.436439099989740680e+04
-1.340590900672493626e+04
-1.298918706967200887e+04
-1.279025411475300098e+04
-1.297405519563572307e+04
-1.388557792703070663e+04
-1.411975815096784390e+04
-1.387338033054536572e+04
-1.383145754893441335e+04
-1.425733998329849419e+04
-1.446031007933558794e+04
-1.446726848816858728e+04
-1.403192697229272198e+04
-1.260915605822643010e+04
-1.091113134577628443e+04
-9.088903109611226682e+03
-7.234284321516915043e+03
-4.455273590105201947e+03
-1.907843148995681304e+03
-1.469817762043026050e+03
-2.271045302256494779e+03
-1.603582713800206875e+03
2.336533617583110924e+02
9.698797229830108790e+02
1.677148482215151716e+03
2.015487885365522970e+03
1.412142578988432660e+03
9.021069554195851197e+02
1.082203621845016642e+03
1.091504684841337394e+03
6.332208159091944708e+02
7.753902528045192639e+02
1.090300667548472831e+02
-6.147908871234880053e+02
-1.471973763673201120e+03
-2.121475141283823632e+03
-1.880126277409985960e+03
-4.467779991373926350e+03
-5.448252536970773690e+03
-4.420351395926154510e+03
-3.377931993506011167e+03
-1.225910797208144913e+03
1.088191705577207813e+02
5.291994514805093104e+02
3.154301028625800427e+03
1.081334238152744911e+04
1.160650371440035997e+04
7.235992145691592668e+03
5.673733427489283713e+03
5.068770646742970712e+03
5.824387958569573129e+03
1.077344052334601838e+04
1.171272670071438188e+04
9.514466153651765126e+03
1.275669767007717564e+04
1.541152042018862448e+04
1.608101620882388852e+04
1.595527924777697626e+04
1.409837006648491115e+04
1.407038082632296937e+04
1.728246740506659262e+04
1.832871590349069083e+04
1.917720644640031242e+04
1.983098072349835638e+04
1.760813534320967665e+04
1.602173753886284794e+04
1.516784027647901166e+04
1.478039622813318420e+04
1.293344780250390068e+04
1.149097476081399509e+04
9.386859329058288495e+03
5.602088644445744649e+03
2.265680597316695639e+03
8.295716346315115288e+02
1.687485642599605455e+02
-2.997865052136525037e+02
-1.076036026688516586e+03
-1.289025641552439538e+03
-1.224794564451919314e+03
-1.609312439393733030e+03
-8.015461905072050968e+02
-8.575180541064680710e+02
-1.501258692498726987e+03
-2.573764170795508107e+03
-3.136082546680280757e+03
-3.852309538242505823e+03
-4.313386428031838477e+03
-5.176502064814829282e+03
-6.150813842994155493e+03
-6.355447941541431646e+03
-3.938444066202211161e+03
-4.041997282911141610e+03
-6.197313512781437566e+03
-7.961573691880560546e+03
-7.303919059881479370e+03
-8.392413535557750947e+03
-9.661262743894050800e+03
-9.981687325292019523e+03
-9.680664867053310445e+03
-8.732161748053809788e+03
-8.424396494639931916e+03
-8.074537658355832718e+03
-7.609260177244755141e+03
-6.212472248982608107e+03
-5.947532549592552641e+03
-6.024491375272704317e+03
-5.348816421724264728e+03
-5.957858692919285204e+03
-7.202797027248398081e+03
-8.465897686229815008e+03
-9.123371910433470475e+03
-1.010053863231593459e+04
-1.133140028592016824e+04
-1.065109752415170988e+04
-1.052299775859527836e+04
-1.003927545664918944e+04
-8.961047051039797225e+03
-8.340451431768698967e+03
-7.766748921861519193e+03
-7.752047653892431299e+03
-7.304355273223740369e+03
-7.439699708541804284e+03
-7.458248817570834035e+03
-7.130174305343502056e+03
-7.593715733197624104e+03
-7.657331638027486406e+03
-7.747281805339304810e+03
-7.914287734724395705e+03
-7.707669316033408904e+03
-7.005815824522688672e+03
-3.974829555217974303e+03
-8.090096557429740187e+02
-1.583550204269985898e+03
-1.394910681510968971e+03
8.434694304385880059e+02
1.503153956790685470e+03
1.476127357795800435e+03
1.913823588866982618e+03
1.779095917229059978e+03
1.247830269333815068e+03
1.788859742817078768e+03
2.202025061525499950e+03
3.671653855716790531e+03
7.130376096388194128e+03
1.024131416014393108e+04
1.117633197145713893e+04
1.140990670368640349e+04
1.175792534408790380e+04
1.229420897372503168e+04
1.268489175285814599e+04
1.576947534572005316e+04
1.670541913925365225e+04
1.399473557749275096e+04
1.138919827958731003e+04
1.146738340087021606e+04
1.136225771454318783e+04
1.114488266154116354e+04
1.103985242211096374e+04
1.079317604966337967e+04
1.130308639594015222e+04
1.268588169631084202e+04
1.380943406863220844e+04
1.430381182208854261e+04
1.424942446928720346e+04
1.562824331743059338e+04
1.483603286781933275e+04
1.448187780987640144e+04
1.430277695493879946e+04
1.372350177008093851e+04
1.284588750335810437e+04
1.068324831865745909e+04
9.062551410091080470e+03
8.517964530891149479e+03
7.726658832455327683e+03
6.526761052876989197e+03
5.966244671307616045e+03
4.683065467663514028e+03
4.547727525096197496e+03
5.313508957590898717e+03
5.479781515383648184e+03
5.295383338863027348e+03
5.740928363376172456e+03
6.105212933121522838e+03
5.674636956595215452e+03
4.799356730751283976e+03
3.931697666734481118e+03
2.941742027339117158e+03
2.058567425400606680e+03
1.424208174222803336e+03
8.806948546768577444e+02
-3.418110271320328479e+02
-1.659416414210083076e+03
-2.341677703561906128e+03
-3.728813141762685973e+03
-5.086840793333230067e+03
-5.438547706029246001e+03
-5.752517252885020753e+03
-5.819456292885751282e+03
-5.708965782930292335e+03
-5.740584006844260330e+03
-5.003295973173891980e+03
-4.356260191222751928e+03
-4.039673436348172345e+03
-3.727665952067522085e+03
-3.854841059325985952e+03
-3.920966571750614094e+03
-3.410056076187209328e+03
-3.552594988084857050e+03
-4.309851247485292333e+03
-5.181638176605738408e+03
-6.409390443506115844e+03
-7.681872147994772604e+03
-8.154762427879301868e+03
-8.063867167483575940e+03
-8.274346710418043585e+03
-8.496643086575741108e+03
-8.610191665388651018e+03
-8.227601775470633584e+03
-7.874438814134206041e+03
-6.959092126812876813e+03
-5.949466013750021375e+03
-4.443487202308762789e+03
-3.216371685771827742e+03
-3.051014864045690501e+03
-2.942172178939228615e+03
-2.463422526684305012e+03
-1.572443684841859522e+03
-1.533442772347744494e+03
-3.930071560649127150e+03
-7.184696514195729833e+03
-1.105022974417358273e+04
-1.238987353173081101e+04
-1.295628191456724926e+04
-1.320483344711223253e+04
-1.345501740517186590e+04
-1.335602155570246941e+04
-1.292287762676744751e+04
-1.273060122827672058e+04
-1.139922381021901674e+04
-1.018566803550778786e+04
-9.609090143842468024e+03
-8.317514298648951808e+03
-2.758281431322115623e+03
2.377763220661101059e+03
3.337005289691283906e+03
3.696731135995944442e+03
3.916359676831260003e+03
5.712455165373826276e+03
7.093298853107577997e+03
1.944270739689476841e+03
4.220326781065047612e+02
1.022118883523681916e+03
-4.467609126037352326e+03
-5.769054426920019978e+03
-5.747737181789943861e+03
-1.398187407053712604e+03
3.110038482250352899e+03
4.350205360942752122e+03
5.327491341325836402e+03
5.702278601841145246e+03
5.922029454571749739e+03
6.016208209225971586e+03
6.649324639527386353e+03
9.837881135790968983e+03
1.419348410960644287e+04
1.519071338619901326e+04
1.160411814662408506e+04
8.512182373808855118e+03
8.644352352950289060e+03
9.482021672189956007e+03
8.452538764440458181e+03
6.756242060906611187e+03
6.796410878616108675e+03
6.152384431650866645e+03
4.278600143759094863e+03
4.202637377784703858e+03
5.630275739577897184e+03
4.945296320051809744e+03
3.920177835183968000e+03
5.058451083306038527e+03
6.172673713794579271e+03
6.933155326083668115e+03
9.101300616527845705e+03
1.042875916322209196e+04
9.015996432912323144e+03
7.366416017986323823e+03
6.704667095505012185e+03
6.005450975187362019e+03
4.401331134343521626e+03
2.477373152484409275e+03
4.359073892375093351e+02
-1.820730293390523229e+03
-3.377634089560803659e+03
-4.916455774571580150e+03
-6.489948135841897965e+03
-6.815771944551019260e+03
-6.061743376740402709e+03
-5.460678748571035612e+03
-4.130213281416721657e+03
-3.409774814983491069e+03
-3.890840050698882351e+03
-4.072158793259830418e+03
-3.995793923227132382e+03
-2.716218235383766114e+03
-2.170531037520777772e+03
-2.589002821092250997e+03
-2.736462535234673396e+03
-3.603615996929167977e+03
-4.905250028018461308e+03
-5.987603199104371924e+03
-7.456699398972353265e+03
-9.611875288951179755e+03
-1.117897285938809546e+04
-1.238668696602720775e+04
-1.304197166005200415e+04
-1.355942387000121562e+04
-1.377917660260603770e+04
-1.363336949579846259e+04
-1.303476133349170232e+04
-1.238525041848604997e+04
-1.140785576727937223e+04
-1.002837367731588347e+04
-8.355834739588239245e+03
-7.374454104628191089e+03
-6.411339053388916000e+03
-5.851488316871503230e+03
-5.792157258600736895e+03
-5.842567364225003075e+03
-6.012983907770559199e+03
-6.724486525067542061e+03
-7.420429736500034778e+03
-8.206308600940627002e+03
-9.531852121940264624e+03
-1.025456465947039578e+04
-1.032904722900472916e+04
-1.002998288011739896e+04
-1.017199618762368118e+04
-1.011971430066000903e+04
-9.232785466449411615e+03
-7.192093016376754349e+03
-5.596619345630688258e+03
-4.250423644570854776e+03
-1.494553027267639663e+03
2.260644818785258678e+02
1.468425248178018819e+03
2.846392727177759753e+03
4.557756211419871761e+03
6.113228670743756993e+03
6.928088822521529437e+03
6.806456937741607362e+03
5.640235922731641040e+03
5.173946809682898675e+03
3.928475572380025369e+03
1.302721193402549716e+03
-3.997278653083810696e+02
-9.993115718414709363e+02
-3.155412982272565841e+03
-6.589436100296357836e+03
-4.816586693107628889e+03
1.280885151049482602e+03
5.024513846368320628e+03
1.119611230629603051e+04
1.440727034059861762e+04
1.538232802087932760e+04
1.650382626749391056e+04
1.654214054165836205e+04
1.619874601006350713e+04
1.337910855658261789e+04
1.195741656229666660e+04
1.232313753797249774e+04
1.047473445137166527e+04
8.274340018638993570e+03
6.442350312378898707e+03
5.039014856283363770e+03
2.525040692840344491e+03
6.096125850188617079e+01
-5.885473287049952660e+02
5.976571572735638256e+02
2.971044755324981907e+03
6.125096320069954345e+03
8.921209691820671651e+03
7.747933468303614973e+03
4.985108661744485289e+03
8.779851401100526346e+03
1.177771957767911226e+04
1.277745507442305643e+04
1.527052635427491987e+04
1.683197720482801378e+04
1.982276303448675026e+04
2.042200060533606302e+04
1.800291653888668952e+04
1.110846411011814416e+04
4.459956766580164185e+03
5.522521820600478350e+03
7.787685380529354006e+03
1.185110740216941667e+04
1.694798206638858028e+04
2.363706625155536676e+04
2.463743752381638114e+04
2.339778839537837848e+04
2.634289890550551354e+04
3.068582814861276347e+04
3.128583129628416646e+04
3.277398221348079096e+04
3.424539207107932452e+04
4.038133866842284624e+04
4.333604289136348234e+04
4.103836042042313784e+04
4.020603491202904115e+04
3.976085095381202700e+04
3.555610200169272139e+04
3.212208136194372855e+04
2.991536677975819475e+04
2.366159920637166579e+04
1.727130828970213042e+04
1.349718749546786239e+04
1.482691734366832861e+04
1.536216972192062713e+04
1.771684058359318806e+04
2.767794708447939047e+04
2.656052048030568767e+04
2.225249015741558833e+04
1.804519678384098006e+04
1.342289247156471720e+04
1.890683317258622264e+04
2.390330234225430831e+04
2.056263360694967196e+04
1.658741784809398450e+04
1.477208529814322901e+04
1.501307440912199490e+04
1.732399641601581970e+04
1.987460561159935241e+04
2.286750634348833410e+04
1.534162052822551050e+04
8.712757696502820181e+03
6.263471482091553298e+03
3.705638819342651004e+03
6.781425902153479910e+03
7.208876772592651832e+03
5.833102182177918621e+03
-4.765619304866001585e+03
-7.079066754269125340e+03
-5.786953317456531295e+03
-9.755933201704938256e+03
-1.174956932738796422e+04
-7.652499210517631582e+03
-2.299195649318060987e+03
-7.685121765077277814e+03
-1.284976588556792558e+04
-1.647050819912398219e+04
-1.774366724453609277e+04
-2.259857399634641115e+04
-2.890050110021557339e+04
-3.370873318002403539e+04
-3.799354892361912789e+04
-4.063512491535609297e+04
-3.573660586720966967e+04
-3.332322438384423731e+04
-3.688105921881918766e+04
-4.822632922323331150e+04
-6.812115379260772897e+04
-7.719145533798640827e+04
-7.715222517880852683e+04
-7.789346947178606933e+04
-7.860614176050711831e+04
-7.888313271797607013e+04
-7.403043742964208650e+04
-7.114397609593225934e+04
-7.182769794673088472e+04
-7.536760144228339777e+04
-8.313771459911756392e+04
-9.378091832087175862e+04
-1.059450617378593015e+05
-1.225251812901187659e+05
-1.443214768365020282e+05
-1.717150474580388400e+05
-1.983949564673282439e+05
-2.101711356707439118e+05
-2.079695294768620515e+05
-1.968982094913306064e+05
-1.871481638055766234e+05
-1.763834387863120064e+05
-1.656130953530572879e+05
-1.475782443261988228e+05
-1.264220139756156568e+05
-1.113044410266056366e+05
-9.716471834557378315e+04
-7.408793076418394048e+04
-4.534920410402685957e+04
-1.942772748615028104e+04
1.028042467003430147e+03
1.890270561817522685e+04
3.609570970170378132e+04
5.233449121038592421e+04
6.739247039029945154e+04
8.271884571213161689e+04
9.556195722340155044e+04
1.060185258649120224e+05
1.095244881525642995e+05
1.118540941875152494e+05
1.131965513755497959e+05
1.133395561223405384e+05
1.136192265962559177e+05
1.154597004068041861e+05
1.155835281420138053e+05
1.153400978188805748e+05
1.189980734525544394e+05
1.260701237112202216e+05
1.274516898239501461e+05
1.261899066152935120e+05
1.262440498231036618e+05
1.266164833278230799e+05
1.270752230317431677e+05
1.270417077379705006e+05
1.249956684313883743e+05
1.216820160814882402e+05
1.180858392244295828e+05
1.137951910398533510e+05
1.086321170207409596e+05
1.037606087668991531e+05
1.006914127990095294e+05
9.877526705425490218e+04
9.746116770977454144e+04
9.669419096904293110e+04
9.608986879170262546e+04
9.527453867369372165e+04
9.433566497499767866e+04
9.242879477206431329e+04
8.823037922844957211e+04
8.179353561513934983e+04
7.499857045399832714e+04
6.854277676465206605e+04
6.291717831876502896e+04
5.885777421463088831e+04
5.551083394343125838e+04
5.392545361387787852e+04
5.244245537111563317e+04
4.850270519929599686e+04
4.233002617668775929e+04
3.602403117573935742e+04
2.789742261816132668e+04
1.730000873266587223e+04
6.209452185484392430e+03
-5.182642779583226002e+03
-1.774168980244062550e+04
-2.600807061186997089e+04
-2.393329858607003553e+04
-8.222050087107818399e+03
4.764114877472987246e+03
7.150566520035748908e+03
4.649633325920731295e+03
2.240540143508558231e+03
-1.165593559707613622e+03
-7.704629440824283847e+03
-1.406736117963285687e+04
-1.915163179838917495e+04
-2.349319265759572590e+04
-2.692676980007146994e+04
-2.925720873115394716e+04
-3.520931444308730715e+04
-4.000589251477305515e+04
-3.672678624121673784e+04
-3.241986340191403724e+04
-3.862398448125943105e+04
-4.053994437567904242e+04
-3.788357785014973342e+04
-4.065584206660313794e+04
-4.458161470296584594e+04
-4.858767390658947988e+04
-5.221483119033926050e+04
-5.791415619339494151e+04
-6.214861240810750314e+04
-6.793920156679039064e+04
-7.310675139082474925e+04
-7.753514961045017117e+04
-8.078825374430403463e+04
-8.396075099480339850e+04
-8.687639212243941438e+04
-8.878595380852436938e+04
-9.134918113161933434e+04
-9.283866582210025808e+04
-9.322504111557902070e+04
-9.350299190252498374e+04
-9.391014652444736566e+04
-9.616299884517888131e+04
-9.529402812821744010e+04
-9.186070676221950271e+04
-8.750749985592524172e+04
-8.539981729440088384e+04
-8.295100515564325906e+04
-7.991039460454377695e+04
-7.697728373068090877e+04
-7.364397225469700061e+04
-6.727960575705164229e+04
-5.903629494626481028e+04
-5.115820056413733255e+04
-4.462649279005786957e+04
-3.933716396294148581e+04
-3.566111231579000014e+04
-3.131430246500937210e+04
-2.747450205489739892e+04
-2.550043482031562598e+04
-2.545680212156421476e+04
-2.595427089893448283e+04
-2.424747821549126456e+04
-2.171699049809658754e+04
-1.830425710502743823e+04
-1.617264760474209106e+04
-1.457455713923502844e+04
-1.154727477360759440e+04
-9.421937365137620873e+03
-8.638860587982922880e+03
-8.175339682138083845e+03
-9.581315291422770315e+03
-9.471365556851178553e+03
-7.617804325171323399e+03
-5.273868076903188012e+03
-2.714025631349349510e+02
5.882107370242153593e+03
1.145808922120909119e+04
1.710400250764114389e+04
2.110309054370353260e+04
2.527974858870569733e+04
3.057545856091567839e+04
3.238988264105343114e+04
3.394349383880950336e+04
3.796771734751355689e+04
3.779630892559185304e+04
3.713403434596020088e+04
3.410655773521324591e+04
3.357455802005499572e+04
3.410590893845762912e+04
3.743350820808744902e+04
3.758805270391148952e+04
3.719622139418358711e+04
3.688776793597080541e+04
3.566854871150911640e+04
3.396155429789752088e+04
3.709503785898997012e+04
3.518917890075749892e+04
3.295758374705373717e+04
3.334139961264222802e+04
3.309393548242848192e+04
2.797020026982403579e+04
2.748231507243994565e+04
2.979925468250491031e+04
2.743334626523106999e+04
3.105406653144510346e+04
2.849206152482701873e+04
3.017068621668817650e+04
2.931960462147116777e+04
2.546094057843215342e+04
2.513876875688214932e+04
2.422810926573895995e+04
2.552601279073539990e+04
2.495414505722253307e+04
2.419098790733551141e+04
2.424757737763851765e+04
2.515300297259580839e+04
2.510374602714089997e+04
2.456002696846227627e+04
2.530019758827431724e+04
2.580901432556059081e+04
