-1.269537981737586279e+03
-3.506637710868329236e+02
7.160690647641716851e+02
2.091720414250629801e+03
2.046276951862094393e+03
2.044650722984920321e+03
2.379789527117249236e+03
1.897799586825740107e+03
1.417744310606092995e+03
1.008585112406284679e+03
1.237288314583984175e+03
2.062909623336207005e+03
2.281438305000503078e+03
2.198871756522131818e+03
2.433200034447986127e+03
2.296418778989739621e+03
1.510558183159542523e+03
1.127544499133955696e+03
7.704339462311851321e+02
3.391226217571031043e+02
4.426298530972973708e+02
4.941141281797671354e+02
4.606301303022121374e+02
5.390349567013212209e+02
6.773336419729507725e+02
2.324802197068519263e+02
1.533630109165620183e+02
2.080034410361140260e+02
6.750592076346644888e+01
1.091843325791297502e+03
1.925982404886371796e+03
2.135993791948772923e+03
1.742080261611246442e+03
1.556220702972295612e+03
1.225310912197088783e+03
4.533015006928114872e+02
-5.884507998768852843e+01
-4.881214943061713143e+02
-1.061645501990165940e+03
-1.295168099784004653e+03
-1.262236552062378451e+03
-4.649472792081953685e+02
2.724304258740634737e+02
9.658566724113680948e+02
7.243640883135379909e+02
4.098880296088462956e+02
2.435622739633633955e+02
5.763759436627291279e+02
6.322453366303910798e+02
1.201803995538203935e+02
7.481937153465349866e+02
1.668291447656160472e+03
1.221425453539879527e+03
6.377040059170678887e+02
2.813497053886558774e+01
-4.362795029312628685e+02
-9.975249654012854990e+02
-9.815958243900400930e+02
-1.006426544629293517e+03
-1.111082548496361596e+03
-5.716022771040642283e+02
-2.330717053141599990e+02
-2.963949672397724271e+02
4.763583389018074854e+01
9.403245257433044912e+01
2.986181500535351461e+02
2.734105571410752304e+02
4.004092388261046835e+02
8.205885202807146470e+02
1.394927290245899712e+03
1.613358054231171309e+03
1.995948952778630883e+03
2.029801445839149892e+03
1.334943967864006936e+03
5.013934309311513857e+02
9.506157495816010794e+01
-2.531493649797983494e+02
-2.921760297075596782e+02
-6.129693536033671535e+02
-7.165573771182559994e+02
-6.739822017665525209e+02
-4.541969778841556149e+02
-2.991625067697290774e+02
-2.558917656999344956e+02
-2.604333754243721160e+02
-2.418748315789387391e+02
7.082837807024583299e+01
1.656293021148158289e+02
5.664305231660724758e+02
1.206296649319868948e+03
1.209331725036277248e+03
1.238578047823251154e+03
1.221060648064008319e+03
1.013787563902582860e+03
3.616512447307552520e+02
-1.954527351997159599e+02
-3.085829123474666176e+02
-4.177848942465792703e+01
-2.040451044454603391e+02
-4.303823182985214544e+02
-3.918434716420772475e+02
-5.523713806181677910e+02
-1.179812074610327528e+02
8.630088666320821744e+01
1.924729168445957441e+02
7.759009934126848407e+01
6.877222251103502515e+01
1.852909013934559255e+02
2.342900992430617464e+02
-9.455382564114108845e+01
-1.273705815068593665e+02
-2.221841967594372420e+02
-5.653248564645556371e+02
-3.007925269456233650e+02
-1.300233617668383886e+03
-1.526749204084347411e+03
-1.492389353276955489e+03
-1.015122366275053423e+03
1.885418900807548326e+01
2.875058769718364715e+02
9.529754202144812325e+02
1.594063648556251565e+03
1.793559038630057103e+03
1.334294721036171950e+03
7.714343532248993824e+02
9.471714231557735957e+02
1.377911111606874329e+03
1.865297195694721950e+03
2.318329874701262725e+03
2.486693672456266540e+03
2.371667787774697899e+03
2.426220317130054354e+03
2.707110078567791788e+03
2.512259287605525969e+03
1.982725370975237183e+03
8.184975495594917447e+02
-5.744191936325360359e+01
-5.761032913975435577e+02
-1.320725828363141318e+03
-2.366220194680539407e+03
-3.328816439432816878e+03
-3.149520583698674727e+03
-1.800963279273495118e+03
-8.559932125824283276e+02
2.489172989120524733e+02
8.416441443007672660e+02
1.681225566791677238e+03
3.256663113820451599e+03
4.233918083034894153e+03
4.280094410382816022e+03
4.353290303045315341e+03
4.360211560573134193e+03
3.369043017518379202e+03
1.962830575584636790e+03
1.425550132882302250e+03
8.361426518354832069e+02
-5.852752236351125248e+01
-7.364876771666953346e+02
-9.377291379860740790e+02
-5.113480956445225729e+02
2.087205084974082467e+02
3.775236653503953335e+02
3.811242233848333285e+02
-1.545307573390275593e+02
-3.274559486545047662e+02
-4.415983368513075789e+02
2.080163673707212695e+02
1.904328161479049299e+02
-7.763436701318476025e+02
-2.615254363508864571e+03
-1.519215055836973079e+03
-8.451800260828215414e+02
-4.184211096788763825e+03
-6.512328561110625742e+03
-5.656538394727677769e+03
-5.127884531973279081e+03
-5.406326591258752160e+03
-6.085826235092363277e+03
-7.560294339331172523e+03
-9.856786032905929460e+03
-1.114428332576751745e+04
-1.039773121382212230e+04
-6.987075178490935286e+03
-8.552592750327246449e+02
6.348125497418681107e+02
-9.782661138364656495e+01
1.723795789976289598e+03
3.555757887442163337e+03
1.715138061999856518e+03
3.920326280782617800e+02
-5.106177218102857864e+02
-5.316675701121150269e+03
-8.320126287802962906e+03
-5.337195757997331384e+03
9.620400292870832573e+02
4.567762197010973978e+03
5.388021829331182744e+03
4.714744870103178982e+03
3.477981889342455815e+03
2.831750301003099139e+03
3.289136820815446299e+03
4.141273151313696872e+03
3.725209989465129638e+03
3.510975937114646968e+03
4.147564906046200122e+03
3.816991155950868233e+03
3.195298069922070681e+03
3.451597325158752028e+03
2.845906464203024825e+03
1.264250684348075765e+03
-2.128754318561059122e+01
-4.286760548999225762e+02
-3.778187540556615431e+02
-4.576696542449682283e+02
8.882056283550285514e+01
-3.172873972920099845e+02
-1.017958369585888931e+03
-4.132186139452084035e+02
1.314908687372128270e+03
3.198502789198630126e+03
3.505600522080409064e+03
1.969274781014277323e+03
5.856780270810984348e+02
1.253808169865617629e+03
2.287585256132345421e+03
2.618031262242727280e+03
1.655126811278340483e+03
8.929336760312314709e+02
4.885122330210710970e+02
3.498616871019951304e+02
3.650572224999557989e+02
-1.687999923149160395e+02
5.592615444034754546e+02
1.650223041838896052e+03
1.636190525962610309e+03
1.260469560869428051e+03
1.291078645833846622e+03
8.797527813683470299e+01
-6.678237310117177685e+02
-1.193222347516826630e+03
-2.859186452572735561e+03
-3.087720947374453317e+03
-2.827771737538431580e+02
5.696349448088923282e+02
4.266302152370391809e+02
5.826653384083753053e+02
1.548479416088848438e+03
2.036762267524437220e+03
2.062569470275208914e+03
1.300865878698952201e+03
3.827470338530383742e+02
3.322530241313636452e+02
1.147237160154015555e+03
2.175615079230570700e+03
1.687339469412328071e+03
8.965272585498490798e+02
1.224178460905154452e+03
4.902157305225719028e+02
-7.003697739663178936e+02
-9.676317658956224932e+02
-5.016343697758313169e+02
-3.963104783599782763e+02
-8.685987493024407513e+02
-9.824606336559702413e+02
-1.048841084125619318e+03
-1.027808354695665685e+03
-7.373029026735297293e+02
-3.172893000172804818e+02
-1.098240026159755161e+02
-6.696923701986484900e+01
7.526487892474953867e+01
-2.331776131601097006e+02
-4.053052182198316018e+02
-3.830103785267766625e+02
9.972080412641699354e+01
-1.017047411955360076e+03
-2.516275187029272274e+03
-2.807103871789269760e+03
-1.379618964951052249e+03
-8.948819683514266217e+02
-7.939979819098975895e+02
-1.221070200702456532e+03
-1.135160464297479621e+03
-1.148322415344341607e+03
-4.645784613699731835e+02
-2.378823041986531166e+02
-1.361299710541451532e+03
-2.359755990992714032e+03
-1.038139685718776491e+03
5.157144416790515606e+02
7.416265696353083285e+02
1.134856462570168674e+02
-1.325694715684597213e+03
-3.163931410403534755e+03
-7.508152487633353303e+03
-9.247327944692236997e+03
-5.363609850258077131e+03
-2.058138205211525928e+03
-1.672099482645814078e+03
-1.589814359979576238e+03
-1.246459066934327893e+03
-1.044987598011084401e+03
-5.846030656176004925e+01
1.106127231945486528e+03
1.165809816564697712e+03
1.191655411118302254e+03
1.051647572044987555e+03
7.567983215974360292e+02
4.040191527497388506e+02
6.213504475089197285e+02
8.377902735622815271e+02
8.663576699921096633e+02
7.449919610411166104e+02
6.926170700015843522e+02
1.600154160286343085e+03
2.103636025133226667e+03
1.407166984034592133e+03
-5.413071606869586958e+02
-1.839798113647649643e+03
-3.883291697284586803e+02
1.955933613581032660e+03
2.655779327257522709e+03
2.894045765211907110e+03
3.040840532581969455e+03
3.261988836756665478e+03
3.335284724212046513e+03
2.460081455457024276e+03
1.933381886380811920e+03
2.465819657099956203e+03
2.887129386405004425e+03
3.627707473327421667e+03
3.775745040832190170e+03
2.725776646336232716e+03
2.027695612711067497e+03
2.240061158175406035e+03
2.101746593632826716e+03
1.154942504762253066e+03
7.205693002844662942e+02
1.523686176374678780e+03
2.706208661891117117e+03
3.306102576897749714e+03
3.144118274310252218e+03
3.499011659642193081e+03
3.278351493700549327e+03
1.866176259411709225e+03
7.181719533464714686e+02
7.974370411654685995e+02
1.406542092051111695e+03
2.742092564395240061e+03
4.375447642350033675e+03
5.176335421844430130e+03
5.030292834057750042e+03
4.594848297689468382e+03
4.054403166919085379e+03
3.461152764962991569e+03
3.079895814965714635e+03
2.126493338833891812e+03
1.760574132856101187e+03
1.166639522626624967e+03
7.024113416330264954e+02
4.554051776690459974e+02
-8.281849317181698780e+02
-2.043693563438148203e+03
-2.271804774663720764e+03
1.801706024995535017e+03
2.374381335473659874e+03
2.434329353818181062e+03
2.270948247186967819e+03
-2.383643249163416840e+03
-5.391037543603678387e+03
-6.027820219360408373e+03
-6.585338094028442356e+03
-6.577498740947373335e+03
-5.924585549851505675e+03
-5.407975869469532881e+03
-4.179200495727586713e+03
4.019956264338593996e+02
1.667177548018003336e+03
-3.284271775297250315e+03
-6.035635767233125989e+03
-5.607968836761558123e+03
-5.364710279222294957e+03
-4.802815492602931045e+03
-1.109166017220477215e+03
1.460495583031715569e+03
-1.809851246133959421e+03
1.549318454706424930e+01
9.020221114651048993e+02
-5.370040978150749424e+02
-3.241300509612451151e+03
-5.473335542152568451e+03
-5.654173936419737402e+03
-4.786457168348986670e+03
-3.780794797635323448e+03
-4.319893326435429117e+03
-5.428549725775738807e+03
-6.636271864051910597e+03
-6.810355214062027699e+03
-6.389699933369392056e+03
-2.654423353434550791e+03
4.410779859559177680e+02
3.432289028894591638e+02
2.530590198204588432e+02
2.313698564482730262e+02
1.261239092249037270e+02
-6.868821257148100301e+01
-4.467134954511321894e+02
-3.298956672672350692e+02
6.227807937731528227e+02
2.015712150805882857e+03
3.717548870364545564e+03
5.117096071537434909e+03
4.824625926600523599e+03
4.301705946018672876e+03
4.273826445502283605e+03
3.049519847636211580e+03
2.062323349337161289e+03
1.676889006735467547e+03
1.621449377822951647e+03
1.416717695912257795e+03
9.488832074428048600e+02
7.755871853574550414e+02
3.346045364409358740e+02
1.407292463097592474e+02
-5.112346487227705794e-01
2.016005848122090072e+01
9.311682154226197099e+02
2.391897101343178747e+03
3.234818239482690842e+03
3.566425723140257105e+03
3.494336779218385800e+03
2.837385019390605066e+03
2.199054107472511532e+03
1.356577057256924945e+03
1.596197772443490976e+03
9.261161623934611953e+02
4.463288215139030513e+01
-7.871809252385937725e+02
-1.603374685409366748e+03
-2.262191339043302833e+03
-2.319808411391302343e+03
-2.544707490910308479e+03
-2.826471404914000686e+03
-3.460194430228112196e+03
-3.346133007740145786e+03
-2.091230714284525675e+03
-1.093885510146501247e+03
5.800804209751516964e+02
1.790177439550976487e+03
1.864748669736027068e+03
1.249005210100610384e+03
1.033285447714561997e+03
9.972215444265426640e+02
5.461953456503703137e+02
7.343101343130120640e+00
-9.701573416371469420e+02
-1.696250800428695129e+03
-2.111018668359452931e+03
-1.862431159789831554e+03
-1.980516342007893854e+03
-2.193544952766150345e+03
-2.253640367789974789e+03
-2.471628909311182724e+03
-2.673328391083858605e+03
-2.851695982637408179e+03
-2.732606810281647540e+03
-2.341856872992726039e+03
-2.218359572624996872e+03
-1.873213125719373238e+03
-2.200492586379701152e+03
-2.244158841894899069e+03
-1.599341438647232508e+03
-6.419924987769087465e+02
-1.391387824463740230e+02
-5.809009247440826584e+02
-9.064439769343706530e+02
-1.392852320340635060e+03
-1.269104621471382643e+03
4.688948726817187662e+02
1.694095327925947458e+03
1.708278259998849535e+03
1.846358973092639872e+03
1.518353006435559109e+03
1.445326139569671113e+03
1.237201855455669147e+03
6.579225644613468376e+02
4.514079894480921098e+02
4.515836814233462064e+02
-9.246156628267619908e+02
-3.709337432748433002e+03
-6.155689340305346377e+03
-5.841666906790562280e+03
-5.345329216097989956e+03
-5.478802683908089421e+03
-5.391054210226009673e+03
-5.115164911527682307e+03
-5.473193174742715200e+03
-5.765313714154071931e+03
-6.317367106213741863e+03
-6.726957212034389158e+03
-6.447222037903946330e+03
-1.977202712604618910e+03
1.284941524022397516e+03
1.594048182299668042e+03
2.022061050058695173e+03
2.226879267269202956e+03
2.970388123564585385e+03
4.035484222417106139e+03
4.601974473923300138e+03
4.780616204704388110e+03
4.340310286930762231e+03
4.203100852967158971e+03
4.125798147696586057e+03
4.340138238671033832e+03
4.447075025278728390e+03
4.222532296234931891e+03
3.673335743264331995e+03
2.486257399652909044e+03
1.868211762614828331e+03
2.064117035875214697e+03
2.181770347484240574e+03
1.211015447520359885e+03
8.227074773905942493e+02
1.618679204888711183e+03
2.762796034063327625e+03
2.908927775568178276e+03
2.758893081485188304e+03
2.275471164029234387e+03
1.273495392680134046e+03
8.538179950862268015e+02
1.002300868581063582e+03
2.295714515297115213e+03
4.633033191207269738e+03
6.459108956661159937e+03
7.877681667952488169e+03
9.091439582038228764e+03
9.650297435064981983e+03
9.370159651280766411e+03
7.800923705149682974e+03
5.738312276730499434e+03
3.304086365588124863e+03
1.012078257553705612e+03
-1.042792161324383414e+03
-2.124538057017435676e+03
-2.013303028003458849e+03
3.056245525949159401e+02
1.300086551606385228e+03
1.215988595643989811e+03
1.162266171378728131e+03
1.497895599372660399e+03
3.531821925720397303e+03
6.925137896340484076e+03
1.002558889003003424e+04
1.297049993464662657e+04
1.578979983796011038e+04
1.563767099930382210e+04
1.375418064335050985e+04
1.171813039490839401e+04
8.735305763022237443e+03
5.728470549644182938e+03
3.627441210083129135e+03
2.327160733199156766e+03
3.506692135698627339e+02
-3.504458227711367613e+01
-5.971788265035623908e+02
-1.558837667012357088e+03
-2.480153773104339962e+03
-2.931007795381107371e+03
-3.728243915427352476e+03
-5.474903885738604913e+03
-7.656154498780630092e+03
-9.391270438515679416e+03
-9.554414502706178610e+03
-9.092509576970853232e+03
-8.085381100662833887e+03
-6.852075006937909166e+03
-6.494887045455980115e+03
-8.739834646308387164e+03
-1.317081586900591174e+04
-1.694490418807370952e+04
-2.365315443862018219e+04
-3.447660338788947411e+04
-4.255122853780513833e+04
-3.807790071951400023e+04
-2.208955631980387989e+04
-4.894217390523525864e+03
8.403156228293069944e+03
1.423058260379314743e+04
1.615316074337893042e+04
1.796507636591191840e+04
1.502736854594748002e+04
9.840003036358897589e+03
6.939079303145695121e+03
2.951765480543547710e+03
-3.528955539964928789e+02
-5.200939027724879452e+03
-1.145032999269852553e+04
-2.273995468215453729e+04
-4.055064594076963112e+04
-5.460140661112371890e+04
-5.747107160890416708e+04
-5.038139490236236452e+04
-3.894526297531096498e+04
-3.064761400742421756e+04
-2.518736338170667295e+04
-1.228647728346462827e+04
8.621566774028705140e+02
1.120973723912294736e+04
1.842347549337438613e+04
2.019351980445334993e+04
2.669103233343966713e+04
3.256219359781263120e+04
3.891112005059201329e+04
4.287303766452338459e+04
4.130307273300769157e+04
3.671441332502302248e+04
2.415021985868990669e+04
1.120464817970800505e+04
4.423923625528059347e+03
7.742631026828951235e+02
-1.482408293930664911e+02
6.955225537652267121e+03
1.769204645359832648e+04
2.345643832620453031e+04
1.821760893468886570e+04
2.560001934991125836e+03
-1.087805261515489656e+04
-2.028338686484044229e+04
-3.057779086632830877e+04
-3.331313761701701878e+04
-2.730846420485828276e+04
-1.186759764704570989e+04
-3.593475332160787275e+03
1.246820482427689740e+03
1.331867972743246537e+04
2.444676041514698227e+04
2.253216368291724211e+04
1.319072989769570086e+04
2.287734483610036932e+03
-1.009859998985457605e+04
-7.842514479058509096e+03
9.277262264994109501e+03
2.656957895170177289e+04
4.103892502492344647e+04
4.894756046898245404e+04
4.879798890291617136e+04
4.088544221876537631e+04
2.875032404173304531e+04
1.674046400653639284e+04
6.236939174384578109e+03
-3.689108073731736113e+03
-1.497841362747955827e+04
-2.405077534014028788e+04
-2.676999379203499484e+04
-2.881100828435103540e+04
-3.285488796199442731e+04
-3.058358899266058143e+04
-2.212276472659023784e+04
-1.224116966096496617e+04
-3.005782161463653210e+03
8.530515920793788609e+03
2.202285407363788181e+04
2.805740270090025660e+04
2.093132935730955433e+04
1.065269662345159850e+04
5.505815683024701457e+02
-5.200916734225377695e+03
-1.493726199981173750e+03
5.722277315545597958e+03
6.753304058555337178e+03
-8.555072635237735312e+02
-3.950085018715551087e+03
-7.842158634919360338e+02
-2.825807030007136291e+03
-4.102794564162823008e+03
3.059867602410070049e+03
1.296727828806635989e+04
1.940854529871083287e+04
2.306176318444461504e+04
2.431098889771428367e+04
1.681821277722856030e+04
8.388472301790407073e+03
6.688874980462230724e+02
-2.091493765551732849e+03
-6.016392127854563796e+02
1.958540419099738756e+03
-1.718870629436492663e+03
-7.191804485417019350e+03
-9.020125956135701927e+03
-1.055178212945125051e+04
-1.125281364029715223e+04
-1.214828112286089163e+04
-1.206107348949711559e+04
-1.192209461678391381e+04
-1.182829072293638092e+04
-1.320759137298201676e+04
-1.466989314337258838e+04
-1.473222954161113557e+04
-1.271877081951250329e+04
-9.981631689918454867e+03
-1.121282489674503086e+04
-1.778138216741173164e+04
-1.887840379941626816e+04
-1.906197938690250521e+04
-1.858815920598297816e+04
-1.339595402241130978e+04
-1.272332108702079313e+04
-1.769319372071692123e+04
-1.770663223602822836e+04
-1.589267581779192005e+04
-1.444635353628654229e+04
-1.203672236067743870e+04
-8.773763961641341666e+03
-5.488525903634287715e+03
-1.035103820410162598e+03
2.118422662256388776e+03
1.588968882915391077e+03
-5.995156559099773403e+02
-2.625109148292641294e+03
-3.680889638206904692e+03
-4.045980785173644563e+03
-4.238431681075751840e+03
-3.376348851943772388e+03
-1.432852462777533219e+03
1.220013612561902647e+02
1.316126767512436800e+03
3.181508417094912602e+03
4.451071499654181935e+03
5.779638808470388540e+03
6.727068336982080837e+03
7.863294851693693090e+03
8.819271048458451332e+03
9.876868133383110035e+03
1.048205719465356560e+04
1.083967146381701968e+04
1.082243051657267461e+04
1.043025176781150003e+04
1.001710651026962478e+04
9.833855218597265775e+03
9.772413506256618348e+03
9.385675322445180427e+03
9.189549992614007351e+03
8.960900583430175175e+03
8.774617279270074505e+03
7.970673962487961944e+03
7.399142511866246423e+03
6.983107756634723955e+03
6.678524378202374464e+03
6.266060483727398605e+03
5.664567006114187279e+03
5.221021502422004232e+03
5.170177889983410751e+03
5.885909180223078693e+03
4.223027489759932905e+03
7.487121107906097677e+03
8.458252517772405554e+03
7.805537386626496300e+03
7.160892110442099693e+03
6.201814996204112504e+03
5.579351255431718528e+03
5.572448619699719529e+03
5.618736698701874047e+03
5.005035980124469461e+03
4.322183572957332217e+03
3.547062006745593408e+03
2.208606353430232048e+03
1.695742201247683852e+03
2.214395993154341340e+03
1.769462304384002891e+03
7.608641788760123745e+02
-2.375512189014017679e+02
-1.179886001337310972e+03
-1.816244483999825434e+03
-2.795700583058607208e+03
-3.303303624618529739e+03
-3.519154908606692516e+03
-4.086429108232398448e+03
-4.705184957103234410e+03
-5.146449699386653265e+03
-5.416385577484413261e+03
-5.074191635594507716e+03
-4.267985749925367600e+03
-3.607823356484704618e+03
-3.421731379790119263e+03
-3.737777829053894038e+03
-3.802955177924157397e+03
-3.283379618068287527e+03
-2.953162710137165959e+03
-2.404455539004417915e+03
-2.281465303988912183e+03
-2.419303647420998004e+03
-2.643039380347883252e+03
-2.597746509962799337e+03
-1.936511460663353319e+03
-8.973028567596252287e+02
-7.740482196590145350e+02
-1.946714039874335867e+03
-2.783300814154904856e+03
-3.218817231032174732e+03
-3.481285705851197235e+03
-3.968852890253905571e+03
-4.028677541035976446e+03
-3.664998542253703818e+03
-3.818842678160081960e+03
-4.038132395475077374e+03
-3.982919066177446894e+03
-3.777237686819341889e+03
-4.085205058996190928e+03
-4.328108333802287234e+03
-6.028040243413079224e+03
-7.144033415696207157e+03
-7.057173499007156352e+03
-4.644191395369753081e+03
-2.529922314137705143e+03
-1.535434254138336200e+03
-1.212814608583293648e+03
-1.607024734309649602e+03
-2.757091272132583072e+03
-2.468177362399634148e+03
-1.310106323172890598e+03
-1.885811155510539947e+03
-3.321530196346557204e+03
-5.580393502901895772e+03
-5.835274882429472200e+03
-3.251952673420474184e+03
4.550434370170937370e+01
2.615118853701712396e+03
3.765178253029223015e+03
3.161529807641622028e+03
2.580990426300574654e+03
2.966471839394761901e+03
3.382892172819666484e+03
3.008195935446615749e+03
4.054459758220626554e+03
5.598885347351048040e+03
6.159652168300399353e+03
5.977560999387676929e+03
5.200223983131351815e+03
4.170367475464666313e+03
3.213919112033262991e+03
2.700662272334960107e+03
2.447401391863572826e+03
2.167868824460013457e+03
1.971214328796498876e+03
1.907522441878870723e+03
2.256310040428671527e+03
2.560590835789485482e+03
2.489648921846239318e+03
2.469841590294495745e+03
2.759246279888119716e+03
3.009009594968549209e+03
3.085055913921286447e+03
3.157583816180399936e+03
3.176818364440425285e+03
3.434326780879760463e+03
2.852963860257374563e+03
2.325649000344638353e+03
2.020877048659651564e+03
1.519964814682915176e+03
1.275991595535529086e+03
1.108172465117628690e+03
6.398162823555342129e+02
5.340740121667878384e+02
7.284138265189619688e+02
1.036278729620278682e+03
1.082684047898305835e+03
1.099890329419745285e+03
1.343471745227643623e+03
1.222456789714851766e+03
1.250765980462386551e+03
1.300533611622100580e+03
1.375228356289083422e+03
1.438249935361169946e+03
1.542468558996749834e+03
1.131226105629995345e+03
1.022320926022410617e+03
6.626571283199156142e+02
4.351461943480377954e+02
-8.582013652300290119e+01
-6.836484813177279420e+02
-1.315113655471036509e+03
-4.149278140135852482e+03
-4.902042677046652898e+03
-3.892236271351679534e+03
-2.220529073568145577e+03
-2.468662931750013456e+02
-2.972251960664780412e+01
1.791112541935875129e+02
-2.029000491338974541e+02
1.425998458068542334e+02
7.296723341851393343e+02
8.066386022330736978e+02
1.086418706062153205e+03
-2.559726236826265051e+02
-6.827767886781992956e+02
-9.363037443970239337e+01
-1.277239977926669098e+03
-1.801540992900276251e+03
5.931844943537716972e+02
-8.223814806967085360e+02
-2.103229238974365671e+03
-1.684883431801251390e+03
-2.367734378692479368e+03
-1.303708459244463214e+01
5.880561290466977198e+01
1.721006956464098323e+02
4.639932068222161092e+02
6.666629972638332902e+02
6.734537622421323704e+02
8.674269039814646476e+02
7.413311176490457228e+02
-1.949743022061701595e+03
-2.567562278325636271e+03
-1.325561749326679148e+02
1.290792688875814520e+03
1.327196567204163557e+03
1.110359134229873007e+03
5.948655955436877321e+02
3.044253315327148925e+02
1.625497851667694533e+02
-4.626543124024940994e+02
-8.647720886936947409e+02
-8.726414612341663997e+02
-7.663991731137266470e+02
-4.066032851911602393e+02
-3.025575663476268460e+02
-1.468850117797566952e+02
1.714293099751456850e+01
2.933522310211984632e+02
4.982926655729203276e+02
7.973056129707000537e+02
8.443511232638202273e+02
8.768064404013130115e+02
8.883213940687476224e+02
1.385933652126900597e+03
1.380771515927739756e+03
3.840061509020498534e+02
-1.331509523010491193e+03
-2.554462653373429475e+03
-3.155891221302201302e+03
-3.303078866134051623e+03
-3.321108710494049774e+03
-3.242233069000325941e+03
-3.236273590042318119e+03
-2.623726572479757579e+03
-1.760497522271689604e+03
-2.170582971081868891e+03
-2.859017319878455510e+03
-3.578667819937464628e+03
-3.867425527218361822e+03
-3.880590329491487410e+03
-3.248294830711925442e+03
-1.020197578423085588e+03
1.970753729121849574e+03
3.191795811402580966e+03
3.089873912089361056e+03
2.431191047764613359e+03
2.148927360944345764e+03
2.134606528058681761e+03
1.194872613320160099e+03
8.087849621702116565e+02
4.844108369571974322e+02
5.376533432811881852e+01
1.221729538116016585e+02
2.274558960682995803e+02
5.800285718196748803e+02
7.355620980081605467e+02
5.730092932206758860e+02
6.781863916189189467e+02
9.769871325996643918e+02
1.024340813399784793e+03
1.584040193390545937e+03
1.642057469332110941e+03
1.839661193345073571e+03
2.147984835581192783e+03
2.286954154396770718e+03
1.748458338635685323e+03
1.481424568426935139e+03
1.116918919735422833e+03
5.108448962232251347e+02
-5.497306526615897582e+01
-4.255143436356178768e+02
-5.678622567680581597e+02
-2.202667652158470730e+02
-1.047183466488171888e+02
-2.610011567400118437e+01
2.575502957624369174e+02
3.201412460821039190e+02
9.657355060138840486e+00
3.921534291027056724e+02
6.196474921019279236e+02
4.760539587887037101e+02
5.043511588851033594e+02
4.964995777245939621e+02
1.855416941405342470e+02
-4.235354659607037888e+02
-9.327705774771897040e+02
-1.505207957220444769e+03
-3.186779807078512931e+03
-5.053460758912193342e+03
-6.025320835439355506e+03
-6.375368395761277498e+03
-6.164679805725441838e+03
-5.268237187277919475e+03
-4.427931498438822928e+03
-3.456787323376632230e+03
-1.428836807140981819e+03
-3.990182571307892090e+02
1.131609195141970758e+03
1.409072826551298022e+03
-2.545487242439314286e+03
-5.422610754324691698e+03
-5.677165824512599102e+03
-4.707984968445128288e+03
-3.563018453861325270e+03
1.307750705145942902e+02
3.055368330451713518e+03
3.375743062969251241e+03
2.708969700926975293e+03
1.908041935340426107e+03
1.461884236387415058e+03
1.260450619163845658e+03
1.209865949167060307e+03
9.321849176720222658e+02
8.854039537102186159e+02
1.322453731734425446e+03
1.573374882683504438e+03
1.885246368362507610e+03
1.902110778641177603e+03
1.875881553941179163e+03
1.635590141769036109e+03
1.713254322568937141e+03
1.595892649836298915e+03
2.005489572127476322e+03
2.209028992765723160e+03
1.976511398485510426e+03
1.570949085933011929e+03
1.381215724951521452e+03
7.142360931305939857e+02
4.280666362975785546e+02
-1.351858750636687887e+02
-3.074977257986343488e+02
-5.448703646882703424e+02
-6.623850533248599959e+02
-3.111303174475678475e+02
2.880697648663338661e+00
-6.831204426176671518e+01
-7.059681751311258324e+01
4.017240130942723653e+01
-5.740414281548869440e+02
-8.653869151118537957e+02
-9.980261796636242480e+02
-8.729048083489875580e+02
-9.168411071361513223e+02
-7.527800888206431864e+02
-3.597900334070729400e+02
-4.849065375065931107e+02
-9.000522330716005399e+02
-1.225213275731013709e+03
-2.270431894378455127e+03
-2.834673039568129298e+03
-3.598018120287372767e+03
-3.933609621414550475e+03
-3.130412381872616152e+03
-3.331327794156501568e+03
-3.757044290178795109e+03
-3.552113218398822028e+03
-3.372877365135488162e+03
-1.767609889715972031e+03
8.464275187504430278e+02
2.862267870026601486e+03
2.731006951747821859e+03
2.578714892672009228e+03
2.632410859636333043e+03
1.059187956930798464e+03
6.939579833841845584e+02
3.017707412368026326e+03
2.495423406044581952e+03
-5.048736201084788604e+02
-2.526015199370377559e+03
-1.312098595739148095e+03
-1.119406960315618562e+03
-1.810068674965323225e+03
6.439010860200660318e+02
1.703629428619851296e+03
2.100280636089838026e+03
2.264865038138148520e+03
2.282294728938958997e+03
2.217546374125586681e+03
2.602716197412881684e+03
2.887802172424370838e+03
2.458716536348060799e+03
-1.468619741355330689e+03
-2.427148828263181258e+03
-2.217933702091171995e+02
2.055448488837645527e+03
1.144635487705320656e+03
-1.194189933726598838e+03
-1.738063393427612709e+03
-2.130489665052349153e+02
-2.936159355846870767e+03
-2.516384093310241497e+03
-1.745770750169265511e+03
-2.631305000649835620e+03
-2.789917207989535200e+03
-9.035327027090867205e+02
9.897528122150207537e+02
1.596911422558237291e+03
1.908980699902421748e+03
1.965933484374016871e+03
1.625763119557262826e+03
1.641416740836519239e+03
-1.940726126037994561e+02
1.833064026679567746e+02
2.646654304566076917e+03
-2.598404915635365242e+01
-1.117705447282276737e+03
5.874148338222009897e+02
1.257382551991981700e+03
-1.955786449944528840e+03
1.669491136742215360e+02
1.521498106101991425e+03
1.464749897745086400e+03
9.487350011673764811e+02
9.444934436665396333e+02
1.177078059260503778e+03
1.217448985209768807e+03
1.074580661876464319e+03
1.245549989055513151e+03
1.434326673791984149e+03
1.369799975828220113e+03
1.428992416977180028e+03
1.187889985276296784e+03
1.112562695325106461e+03
1.287115541663625663e+03
1.429534568530851629e+03
6.836269896041068250e+02
-1.048036461746800541e+02
-1.115293937835763472e+03
-2.758922499250898909e+03
2.740794516406862158e+02
2.457533084235282388e+02
-7.863252493599311492e+02
-3.951658622665145231e+03
-2.595535761112887940e+03
-1.010998693181226827e+03
-8.738671466956714085e+02
-7.790617518784189315e+02
-4.167408743993231042e+02
3.690616846532202544e+02
1.275476477179357289e+03
1.949452522942387532e+03
1.008861828002945344e+03
4.227885213345849138e+02
-1.027680667664285323e+02
-1.021030849955421218e+03
-1.596980130093854996e+03
-6.820806807382493844e+02
1.534055582528117441e+02
8.263967953618177944e+02
1.418616017917670206e+03
2.099025795575527354e+03
2.450510437282903695e+03
2.244567008926849667e+03
1.487111939771253219e+03
1.878887876103571557e+02
-2.931376084665233748e+02
-5.283434816195296690e+01
2.219077622762492652e+00
2.867231029765550261e+02
1.857452261763478418e+03
3.631363801343206887e+03
3.232506323045128283e+03
1.825930024590941912e+03
1.105664102134280483e+03
1.388694543174200135e+03
2.059969024077551239e+03
2.093373891908895530e+03
1.029092508229314262e+03
-3.046804320957384675e+02
-1.891286327405590555e+02
7.056243889066438442e+02
1.107482877444937230e+03
1.006538500765674485e+03
1.468857760980101375e+03
2.276399879173919089e+03
2.229129944320590312e+03
1.650112180522853578e+03
2.005386202955027102e+03
2.731913156841930231e+03
2.370679172750098132e+03
1.719656258687383797e+03
9.549915149296340360e+02
1.152745059983855526e+03
2.190941061198677289e+03
1.081540507320826919e+03
-6.374374586138992527e+02
4.440288208068929521e+02
-1.650468348744443006e+02
-5.805742206738095774e+03
