-1.917333349115375540e+03
-1.776499090500409466e+03
-1.511652789653403261e+03
-7.735376503664377879e+02
-5.833587998059463189e+02
-4.222980194337589523e+02
-2.534042192238373445e+02
2.156081067491840315e+02
5.666096413643285814e+02
3.271920006890474610e+02
-3.964685475055854340e+02
-4.724527816802427083e+02
-1.069925891722536448e+02
-1.958148514144712067e+02
-4.740281223798303927e+02
-6.168679463309293851e+02
-6.891448817116029204e+02
-7.450125575259567086e+02
-1.067678733832626676e+03
-9.034069912877813522e+02
-8.133182923196592355e+02
-6.540996883700123590e+02
2.266030250514223781e+02
1.164669752778452221e+03
1.837601244913321352e+03
2.400069533707883693e+03
3.066164085697604150e+03
3.544004363849237507e+03
3.216637045823497374e+03
2.721373232089588328e+03
2.264962851282680276e+03
1.474186161333894233e+03
-2.243575141821878844e+02
1.830231982339708338e+03
2.057564432877168656e+03
1.523395979524715358e+03
1.359039331159367748e+03
1.314522679983341959e+03
1.340736191455367816e+03
1.524778615495649092e+03
2.561377308879239990e+03
2.910686451504246179e+03
3.159362496577172806e+03
3.509021287288059284e+03
3.644866683094927794e+03
3.745990113108481637e+03
3.947993520008426458e+03
3.858904898884318754e+03
3.929853031953094614e+03
3.390453696189641505e+03
3.153838269774084438e+03
3.722646373410983870e+03
4.067618275179235297e+03
3.612770045760744779e+03
3.802229337845974896e+03
3.729942233497163215e+03
3.026584287536690226e+03
2.725390840387337903e+03
2.043167841879571142e+03
1.948615006158825736e+03
2.199001516742882814e+03
1.383274643862145467e+03
2.600806657334705392e+02
-2.015368991952310864e+02
8.952450928352508299e+02
1.599178397807418605e+03
2.519419235230074719e+03
3.994085815609749261e+03
4.385073166824620785e+03
4.062917559801387597e+03
3.995552154966470425e+03
3.981135669618413431e+03
3.486639898508476108e+03
2.407758243958310231e+03
6.565353388059173767e+02
-3.530098888783561506e+02
6.238132367640962457e+02
1.434950335440159506e+03
1.297510768515148584e+03
6.753806887094424383e+02
-2.863633144956366436e+02
-3.827126110106949000e+02
-8.857043468867256131e-01
-1.062804042119935730e+03
-1.029565219348502978e+03
1.821927382790345973e+03
3.509825514475727687e+03
2.761076036518718411e+03
-9.093081868823785499e+02
-3.767330491859595895e+03
-4.008064371817647498e+03
-3.487438950279152323e+03
-5.786292588945858370e+03
-9.466902339996897354e+03
-1.096730555591493066e+04
-1.154358259481548521e+04
-1.098876563812259155e+04
-9.882644549874978111e+03
-6.432058268037337257e+03
-2.906951422503711910e+03
-3.698142745657277374e+03
-4.792726483337350146e+03
-4.123949285731069722e+03
-4.492730667360602638e+03
-6.445011729743352589e+03
-1.111455245913508952e+04
-1.465628549111947723e+04
-1.506223066432619635e+04
-1.439235586901291572e+04
-1.185051043368549654e+04
-6.328609457934012426e+03
-1.441661621637452527e+03
1.295381535771152812e+03
4.836972331363061244e+02
-1.765692004343054805e+03
-6.956748671319341156e+03
-6.618354081719144233e+03
-1.381484947308508026e+03
-4.761083162823807697e+02
-5.232074766109383745e+03
-7.815328142955911062e+03
-7.182746406224059683e+03
-7.753251808380533475e+03
-4.862670937563073494e+03
-3.310873711878033191e+03
-3.519807218363338961e+03
9.146778273456524175e+02
4.453860031809401335e+03
9.887830581245509165e+03
1.529559141893030755e+04
1.524030102712642474e+04
1.492606170328677035e+04
1.341695323913647735e+04
8.050098864764009704e+03
7.916625826560068163e+03
1.025371024971175029e+04
8.936503750233172468e+03
6.526095817581941446e+03
1.523482569887708451e+03
-4.123292426836614140e+03
-6.193051780366355160e+03
-3.859648868018252870e+03
-1.018988343847926217e+02
-8.876028960274040855e+02
-1.708615605426219417e+03
2.688119529687363865e+03
5.666841194528888991e+03
4.954758231615463956e+03
5.482418608395875737e+01
8.871602129104743426e+02
1.043482664966343873e+04
1.779686733983096565e+04
1.685854162384598385e+04
9.825306628369560713e+03
4.429492987289184384e+03
3.689947639270415948e+03
-3.202921891957209937e+02
-4.849158479526001429e+03
-4.081526861583880418e+03
1.727428828494368247e+02
4.574554995393667923e+03
1.601016504893144202e+03
-4.745756207772731159e+02
-2.143312490238240855e+02
-3.092054286261269681e+03
-4.478761093869535216e+03
-9.324565118301818075e+03
-9.402228150811561136e+03
-5.501638021507618760e+03
-6.798784534706452177e+03
-1.955772616635291706e+04
-3.182046292011687183e+04
-2.349787550104489128e+04
-1.539768537967722659e+04
-1.209881567821619501e+04
-8.157256867086517559e+03
-5.490501223405700557e+02
1.175682548616348868e+04
2.033535645031104286e+04
1.874944762174975767e+04
1.309919634767555908e+04
1.544870376848195883e+04
2.036408989652726450e+04
2.068135764178922545e+04
2.011744220998006494e+04
1.633442005168590185e+04
1.067939441097043891e+04
8.964379312275361372e+03
7.585303019366924673e+03
4.710287725607920947e+03
1.845357851914528055e+03
-4.624567844678937035e+03
-9.909582792549494116e+03
-1.254466503972057399e+04
-1.625888875184840072e+04
-1.513432650931720673e+04
-1.150500601030489088e+04
-1.207795769714822200e+04
-1.245225374892964101e+04
-5.427932093510724371e+03
2.258956980686115003e+03
7.359380093127821056e+03
1.054437341384882347e+04
1.352993205236729409e+04
1.447098006778985473e+04
7.321426580796627604e+03
1.847225693043724050e+03
1.515326573652277148e+03
3.608653985003100843e+03
4.144098388317051104e+03
2.830592212402928453e+03
-2.629561465139973393e+02
-3.925572801696562692e+03
-4.268349123201177463e+03
-4.433306849649731589e+02
4.336349757701176713e+03
8.826569220514595145e+03
7.445254088405191396e+03
5.206280868401733642e+03
3.113537151278930651e+03
-2.190115048762749211e+03
-3.448792327437929998e+03
-3.727510513217207972e+03
-3.884323464234887524e+03
3.966417924278410823e+01
1.360268428861094662e+03
-4.268424061344608162e+03
-1.098261189926941006e+04
-1.410135618700972373e+04
-1.123464867038818920e+04
-2.937572835018568639e+03
3.853859375103026650e+03
2.683314571103251183e+03
7.526627984676218830e+02
1.341686159535514207e+03
2.758427864763461002e+03
5.518146628331998045e+02
-2.043539125304207005e+01
1.264827262490291332e+03
2.429139353453208969e+03
4.263613239625630740e+03
4.346090760605548894e+03
1.518573119393065326e+03
-2.270859792424624857e+02
-1.879906774112632093e+03
-1.714871808265351319e+03
-2.659404526624045957e+03
-4.480487690260971249e+03
-3.245102252832357408e+03
2.667847374713099953e+02
3.095938995988057286e+03
2.101021148712449303e+03
-6.848608099122907333e+02
-1.804763733196408793e+03
-2.111867232170945499e+03
-2.241002590006311948e+03
-3.730573281529061660e+03
-6.100489305164691359e+03
-6.479006383290884514e+03
-3.747953448775412653e+03
-3.028461495563674362e+03
-3.463878087574815254e+03
-4.976949703854253130e+03
-1.497935797648524840e+03
1.836380114813847513e+03
7.347565528084743391e+02
1.231258418029537779e+03
1.403934348238294660e+03
-1.389496686835011587e+03
-2.348107929032987613e+02
1.059749903921593159e+03
-4.998787044363068617e+02
6.282242535844728764e+02
1.494013156189219899e+03
1.507428435673092963e+03
-1.636600056814806749e+03
-7.026106460750840597e+03
-8.114108570739363131e+03
-3.442617172739098805e+03
1.172312190030278543e+03
9.576064336198219280e+02
-2.755754986452107005e+03
-5.535719559652475255e+03
-6.718262334781033132e+03
-6.114417630250763978e+03
6.958785389170201370e+02
6.751704838555696369e+03
1.113914061300428693e+04
1.206728188746024898e+04
1.005624455156136173e+04
3.706694994334325656e+03
-1.112332128861427691e+03
-3.312744961598624286e+03
-6.460448256338838291e+03
-7.192451151269010552e+03
-7.916807586352425460e+03
-1.119450528636767012e+04
-1.391157971955412177e+04
-1.510896034630828763e+04
-1.103157897563981714e+04
-3.974083517042217863e+02
3.309569546510922919e+03
2.034413314250595477e+03
2.523197851360699588e+03
3.582031603777106739e+03
3.719025783248604967e+03
5.253311591685878739e+03
6.229844219678536319e+03
2.196569937178952841e+03
-1.346343361369443528e+03
-2.028818078091869438e+03
-2.946907407962766229e+03
-3.953553438550560259e+03
-2.650652840409708915e+03
-3.088135167482273573e+03
-3.582909044765870931e+03
-3.945943193215075098e+03
-1.530212842226418843e+03
-2.615101428613605776e+02
1.010262482908106449e+03
8.891356013505752571e+02
-1.234932916372797081e+03
-3.458199539761881169e+02
3.118523459174144136e+03
6.785127050706944829e+03
5.846132155105899074e+03
4.503672714167323647e+03
5.818839129121643964e+03
7.501681283371613063e+03
6.357281417919557498e+03
6.662742401045182305e+03
7.861184349429116082e+03
6.473589995756757162e+03
4.245919724045957082e+03
3.801225376027979564e+03
2.641657474285618264e+03
2.737332529104038713e+03
3.260356651833891647e+03
1.531773301194821443e+03
5.096164718524010482e+02
-1.510989151381952752e+03
-2.905156403824323661e+03
-1.686132792299037192e+03
-9.377408047472997623e+02
-1.304740067853150549e+02
1.058058577379125154e+03
1.386874514302704256e+03
1.924862321662509430e+03
4.697021102368910761e+03
4.723647621400526077e+03
3.960905229396722461e+03
1.762656920792079291e+03
-2.147984773075100748e+03
-4.460100403080233264e+03
-4.154040812596210344e+03
-3.174212813386692233e+03
2.206217022819080853e+02
2.524918456201880872e+03
1.267787603574165132e+03
4.311760268492234331e+02
-8.381936788261375568e+02
-2.360661206773895913e+02
9.659823824052058399e+02
1.283021617321118129e+03
1.181871245316062868e+03
1.823440102505772302e+03
2.996547277615501571e+03
2.960871837852076169e+03
2.110429323765322351e+03
2.496519628314136298e+03
2.431166710304949447e+03
1.967396619574116585e+03
2.269446940512000310e+03
1.831918740138797148e+03
7.192750570978622591e+02
8.897254303196243654e+02
6.527919727090417155e+02
4.204142014360197663e+02
-4.076942987774002063e+02
-3.924925236250548437e+02
-4.713141764283777775e+02
-1.247115135114350551e+03
-1.719827319346477907e+03
-5.968297298703872684e+02
1.032865734055473922e+03
1.274965575959040507e+03
2.200348086610996234e+03
2.567365507369835996e+03
1.857032838707103792e+03
1.373434341751689772e+03
1.057868131148297380e+03
6.899392269985848998e+02
7.903916008801372755e+02
1.033445251764890827e+03
7.671997729932232915e+02
-1.891085452584808024e+02
-1.320330041108751402e+03
-2.466699155495365630e+03
-3.109633759079515130e+03
-2.832388590558238775e+03
-2.754633643901410778e+03
-3.366394585245665894e+03
-2.502159926231154714e+03
-5.349214726324977391e+02
-4.854359812283000792e+02
-1.773299323114703157e+02
-8.750255691314704336e+02
-3.886412022696989879e+03
-7.001506514492999486e+03
-6.659775022849068591e+03
-5.614703517182099858e+03
-5.340356179439480002e+03
-6.135053875194797001e+03
-6.898554724402813008e+03
-6.750783214843934729e+03
-6.019159652763870326e+03
-6.973177698357822010e+03
-7.811783777515165639e+03
-7.809398988392997126e+03
-7.566166818523222901e+03
-2.791354200973414663e+03
-7.257575595285803729e+02
-1.282491838281029004e+03
-2.912315507483148167e+02
1.463690119160736003e+03
2.592931740446103049e+03
2.489834322729655469e+03
7.383342021132133368e+02
-7.453856590590236237e+02
1.200607839031722506e+02
1.497462612946136687e+03
2.613965983834825693e+03
2.930394962737500464e+03
3.007371413165430113e+03
2.329292670012860526e+03
1.049202251497252973e+03
2.981541269390529791e+01
-6.674952646098435025e+02
-6.773769815186418555e+02
-7.321522556811631830e+02
-1.378546591645606895e+03
-2.057502829101903444e+03
-1.870705502469460043e+03
-1.021928015514259187e+03
-5.933519634438970343e+02
7.440556420502127821e+02
2.351451848593142131e+03
3.160875290182855679e+03
3.233682556790122362e+03
3.537891219973702391e+03
3.279330245944132457e+03
2.887118165975240572e+03
2.625901745796906198e+03
2.179412607328665672e+03
1.702944633933083651e+03
1.305483992835085701e+03
8.463731063068863705e+02
2.724029740876183041e+02
1.376467506030638788e+02
8.661616227174157530e+02
1.125966092631774700e+03
9.792096130436206067e+02
1.373557906654138606e+03
2.090035505795771314e+03
2.718333787342158757e+03
2.944274171498715987e+03
2.878950072049710343e+03
2.723585403958572442e+03
2.579429007119130802e+03
2.724571985711952038e+03
2.894805143372325347e+03
2.636769246305166234e+03
2.328312358270206005e+03
2.584384676986309842e+03
2.465456870008147689e+03
1.941660083413799839e+03
9.690536699354382790e+02
7.393113909730607247e+01
-3.639605034878190963e+02
-6.586372003477058570e+02
-6.290629710041677072e+02
-2.649533522243368679e+03
-2.711784511413442488e+03
-3.225204934245667573e+03
-3.372581561686538862e+03
-2.400046251049145212e+03
-1.334076434190224518e+03
1.247850633494766953e+03
1.325726797213704685e+03
1.092107598558723112e+03
-7.708972159421311972e+02
-9.364419375296969292e+02
-4.495761789984372285e+02
-2.021929592330079231e+03
-4.557711722838224233e+01
-2.499704238802087275e+03
-2.602311436421464350e+03
-3.711450382964800156e+03
-3.314971436813293622e+03
-3.912597780409338156e+03
-3.561289180288753414e+03
-1.170007403139666394e+03
-3.013779301288922852e+03
-3.619480906435208453e+03
-2.624967240660988409e+03
3.145751140216258364e+02
1.572947139783513194e+03
-8.707741982016938209e+02
-9.952858743760922380e+02
-8.353753206190488072e+02
-2.018145729199997277e+03
4.093689542751347403e+02
-1.184824800088241773e+03
-1.027582722528434488e+03
-3.133743966730861302e+03
-2.071402120193648898e+03
-8.937523989302851533e+02
-4.002657594579644410e+03
-3.341058389401007389e+03
-5.367874336915415370e+03
-3.514488805065736869e+03
-3.876940508703367868e+03
-3.282859939049650166e+03
-1.758311305790746474e+03
-2.606255554902401855e+03
8.236328220194041023e+02
1.867080292821405010e+03
2.610108155518513740e+03
3.067945504883513877e+03
3.566401014273182227e+03
3.820464981035923756e+03
3.190207346908835461e+03
2.793934238544925392e+03
2.310922130842871866e+03
1.930942623721656446e+03
1.841502608551116964e+03
1.169494300430129442e+03
5.423095787619165264e+01
-4.949293120839746507e+02
-5.239946641210926828e+02
-1.155083166532749601e+03
-2.030313499999181204e+03
-2.470242578078972656e+03
-2.155962307444443013e+03
-1.120529647982903498e+03
2.754630001868767408e+02
1.262384306298122283e+03
9.945462767696943729e+02
7.270950109796167453e+02
1.716645978262761219e+03
2.555595715552926777e+03
2.474526358119296674e+03
2.272345077074694018e+03
2.119503647319063930e+03
1.808775322805357291e+03
1.773279974787916217e+03
1.684626622403245847e+03
9.718763946598387520e+02
1.785583852677521293e+02
-3.481194574789914782e+02
-5.438747062098746028e+02
2.049587716241487954e+02
1.507330166296390189e+03
1.915992149085026767e+03
1.757341487762768566e+03
3.022639156738669953e+03
3.972709187460156045e+03
4.202713685526454356e+03
4.137713163007388175e+03
3.782353026200639761e+03
3.702722763979560568e+03
3.381879744516366372e+03
2.992540188245805439e+03
2.265984654785949260e+03
2.061861092166240724e+03
1.564997152152755916e+03
8.616510298223067821e+02
1.757592425983232545e+02
-1.235858321276670750e+02
-3.546214915815018003e+02
-2.855974755758394394e+02
-1.486303946563829470e+02
1.206090317034311141e+02
9.701670172515874810e+02
1.801884665277785416e+03
2.423693250082194027e+03
2.811760355962395806e+03
2.877968974000272283e+03
2.150223063147859648e+03
1.919680582369946933e+03
1.495431415082135118e+03
1.213316974906276528e+03
9.413974056848329610e+02
5.885797911070095552e+02
6.918102410878140063e+02
1.029268863883687118e+03
6.749096016759360737e+02
-1.208204806790420889e+03
-4.497101292874355750e+03
-7.678988685891959904e+03
-7.872883491498572766e+03
-7.226838324119536082e+03
-6.980912565002744486e+03
-6.513057687478056323e+03
-5.701294349500979479e+03
-4.430818028110865271e+03
-3.463501538529505069e+03
-3.050269013131930024e+03
-5.799382119342290025e+02
2.321696313765727155e+03
1.415521333482524142e+03
-2.767678410912225445e+03
-3.934979958764660296e+03
-3.651644941016858866e+03
-2.641690784161854936e+03
-4.498434104051717668e+02
-3.116124436901300214e+03
-5.230488199387854365e+03
-6.057024656244571815e+03
-6.197825071584972648e+03
-6.124867770575489885e+03
-6.139144405070428547e+03
-6.200715685903205667e+03
-6.370601097323952672e+03
-5.509703245127372611e+03
-1.254963235114699728e+03
8.955609627026384487e+02
2.057908256095978231e+03
2.727143073765234021e+03
3.543225133296555668e+03
3.400184749325544544e+03
2.516067268072685692e+03
2.257758416679419952e+03
2.731280943350614962e+03
2.884647111084311746e+03
2.716918653890967107e+03
2.318022784653180224e+03
2.013985318001306950e+03
1.237890137214603556e+03
1.048744364648182909e+03
1.244393516460387218e+03
1.121788314875185961e+03
1.175018164107901157e+03
1.358010005402652041e+03
1.845856967965690728e+03
2.479648547675020382e+03
2.669421431124898845e+03
2.741240857092811439e+03
2.728077994978815241e+03
2.421881780665525184e+03
2.193685346355993715e+03
1.836520489831611485e+03
1.828462194889944158e+03
1.948576387041759517e+03
1.714855642866205471e+03
8.862539347477604679e+02
5.767651948673881179e+02
1.754417749896489909e+02
-3.586640034631945468e+02
-7.976338917792759275e+02
-1.047591066124682129e+03
-8.845133969768411362e+02
-2.773987001783954724e+02
-3.758020211730861320e+02
-1.026968453461916084e+02
1.257074241980326121e+02
3.495142592292775134e+02
2.747913585106289815e+02
4.835616761056739961e+02
4.959481094351188517e+02
4.080162370623593233e+02
2.966559864321924351e+02
-1.690205829635425289e+03
-1.353394495586619541e+03
-9.266387910125257754e-01
5.311649646013214578e+02
3.258868262805829659e+02
-3.021216926099448301e+02
-1.114513449650190296e+03
-1.639260113890904677e+03
-1.854635917034422164e+03
-1.373785615730194422e+03
-6.556862342588815409e+02
-5.472495363016448664e+02
-2.072542929013937965e+02
2.353696386853715978e+02
6.863951172755467951e+02
3.267763144675867579e+02
-2.774676132734907128e+02
-1.142462638422990153e+02
1.004359287721745062e+02
2.856002796575105549e+02
7.663070692925373351e+02
1.396602231997490208e+03
1.618490937034115177e+03
1.431919769466928983e+03
9.359110431062483713e+02
2.235035185851198776e+02
-2.863202656542198383e+02
-1.073604522367741083e+03
-1.250398125657942956e+03
-9.567131570410676886e+02
-5.046816176189395833e+02
-8.829154640786917696e+01
2.925577371900407684e+02
7.848848850160705979e+02
9.276739717211224843e+02
8.599965203606890327e+02
9.238655815134062550e+02
8.233070173723452854e+02
8.143493851164490707e+02
8.049551818525235376e+02
6.820927610625132047e+02
4.547407421042752276e+02
1.509467685054418666e+02
-4.733210598944637013e+02
-4.921543361365286273e+02
-2.965373771855166751e+02
-7.044881144965165731e+02
-1.105998801316573463e+03
-1.385075754998907769e+03
-1.569762047644801214e+03
-2.091041568548517716e+03
-1.997882446546798519e+03
-1.213247822095506308e+03
-8.141205698814617335e+02
-4.545137995922715959e+02
-2.624945204286727858e+02
-1.800115062839442714e+02
-1.130631558927862130e+02
2.303008435557861162e+02
6.450727898657229389e+02
1.143217522944068605e+03
8.967654896369895141e+02
8.769999545875627689e+01
-7.100059791025284994e+02
-1.557324917538718864e+03
-2.203333350025809068e+03
-1.799854844129497451e+03
-1.365037754719816576e+03
-1.216872573436608263e+03
-7.333972834753504912e+02
-6.977291195702888444e+02
-1.688754344499039348e+02
4.999839554774126782e+02
7.740079982556151208e+02
8.912090893460737107e+02
9.457399171877370918e+02
1.023483888940374641e+03
1.792385775658746525e+03
2.632587467520674181e+03
2.723787253398939356e+03
2.556272605902851410e+03
2.272880704920109565e+03
1.849683946693314510e+03
1.079555193639586378e+03
6.845442053816991574e+02
-1.984523721896029542e+02
-3.956835278988929190e+02
-7.238014538067741341e+02
-9.358635397283981092e+02
-1.033034469254075702e+03
-1.255566771153914715e+03
-7.383464318195241276e+02
-2.220915897302494102e+02
4.550625049557062880e+02
6.570819769739002822e+02
6.810440878698778988e+02
5.026525308688339351e+02
1.612095434001868455e+02
8.360497242356426284e+01
8.399726187805845257e+01
7.590982945197272329e+02
1.507882457384335567e+03
1.712681805009121035e+03
1.285206947949531695e+03
7.626876282646182972e+02
2.782283563296458695e+01
-5.932661906866418349e+02
-9.666989080860040531e+02
-1.500606210450224125e+03
-1.532826327094284807e+03
-1.646707257163428267e+03
-1.253111614043713416e+03
-9.720102195545906625e+02
-6.863695342589483062e+02
-7.222111049261396829e+02
-8.395326360824940366e+02
-8.132480540024580478e+02
-7.713694378452838691e+02
-2.809451374145029945e+02
1.120431079435831379e+02
2.435555370419199903e+02
1.262218415775217650e+01
2.513199361211505618e+02
4.315720066233450325e+02
9.633063156407334304e+01
-1.633478340760638901e+02
-5.064462134965592099e+02
-1.293998003991163614e+03
-3.611988944565802285e+03
-3.924525380388572557e+03
-2.573669877282045491e+03
-2.575392587177042060e+03
-4.016082617392081033e+02
-1.303268531687345330e+03
1.545518499420182252e+03
1.367771667066494274e+03
-3.214149362159102452e+02
7.669914531881539688e+02
-1.253003482044696284e+03
-7.404194909572087226e+02
8.906858190821611743e+02
-8.736648733729051628e+02
-9.724213695376525948e+02
-3.262573640811637688e+03
-2.210118215241519479e+01
3.019730959900914513e+02
-7.504226288353144128e+02
-3.773340394167419163e+03
-1.963720042840435326e+03
-1.828537096766322975e+03
-4.671890474222594094e+03
-3.126764007289005804e+03
-5.010831560971120098e+02
-2.467780307254808577e+03
-7.338184035083684194e+02
7.837782754171414581e+02
-1.355933984164272260e+03
3.290762703552482549e+02
1.134864831439090722e+03
-8.246235305936352233e+02
1.124645017481470632e+03
1.588744914633483404e+03
1.213620716202445237e+03
8.022842190300851826e+02
4.977634079641534299e+02
-3.398444042370518758e+01
-4.939946286306476964e+02
-9.802717477599395579e+02
-6.668417103927801008e+02
-1.587505922375377168e+02
4.101446065153739085e+01
3.424879129751033702e+02
8.007278936601339865e+02
9.558280499903144118e+02
1.203807720173365396e+03
1.069705348133482630e+03
9.665284046408798986e+02
9.902503685275048610e+02
1.056873163766234939e+03
1.278322716064423275e+03
1.530492285495707165e+03
1.434405689273713051e+03
1.381359819968451347e+03
1.476635165040564971e+03
1.378283948042435441e+03
1.025118644765853787e+03
6.610810310174630331e+02
3.611804491981031902e+02
2.383782640831125832e+02
4.456246588361421459e+02
2.485307263788189758e+01
-2.748665134892771675e+02
7.344604288073726650e+01
8.256561449729865672e+02
1.205951706544607532e+03
1.421315588557458113e+03
1.726688770233080959e+03
1.874167155843553701e+03
1.564733860264252826e+03
1.395146464134810913e+03
1.128358592797687834e+03
7.438036757055245971e+02
1.065513472751978497e+03
1.188382206986774008e+03
9.533947792032554389e+02
3.775109964097218267e+02
-2.952910156417628400e+02
-5.529913640295620780e+02
-6.656271196428364192e+02
-1.026311008109195427e+03
-1.023289013275993057e+03
-9.463566040184086887e+02
-4.716187893884908249e+02
3.638333878787090612e+02
9.819160643562945552e+02
1.397684069914694874e+03
1.533188242894252653e+03
1.511411423195749876e+03
1.534250772217333179e+03
1.560703214560938477e+03
1.289778839459036590e+03
1.117447354160902478e+03
1.110688075478503379e+03
1.271542641419492384e+03
1.029977176751910065e+03
8.709444849150506798e+02
5.374636533754594439e+02
-1.685044969129164372e+02
-3.279636264786740298e+02
-6.879233962082638527e+02
-7.244429316561120231e+02
7.449341321661948712e+01
3.349128139101173360e+02
2.258401621974030036e+02
5.943714755385946091e+02
7.544374274896233601e+02
8.900683965388906245e+02
1.325252996561841428e+03
1.226931496106901477e+03
5.371100624789547737e+02
3.628810006203053149e+02
5.411444425216742502e+02
4.769202518838330320e+02
7.252357672037127259e+02
7.230951015993869078e+02
-1.074516872940699159e+03
-3.274639564164897820e+03
-1.021308851144779169e+03
-1.154480972078581772e+03
-5.701199977844369641e+03
-6.759507943508398967e+03
-6.343400173534194437e+03
-6.377826955892702244e+03
-6.139781131649182498e+03
-5.274260549971396358e+03
-5.020246615369134815e+03
-5.159702083034156203e+03
-4.918441416551848306e+03
-5.168542184992755210e+03
-5.307196946646366086e+03
-5.238208561668626317e+03
-4.668463242334028109e+03
-1.036987829995603533e+03
1.163348009227433295e+03
1.674490263563057852e+03
1.351221344562451804e+03
8.344559582371398392e+02
4.024185802762286812e+01
-6.441876210810076486e+01
5.043908950661095787e+02
3.627368215253640642e+02
3.019488105636048090e+02
4.520902873261393893e+02
1.148986717394368043e+03
1.648555281872502974e+03
1.536858332122805223e+03
1.186005482828487402e+03
1.265911808973423149e+03
1.478447793060278400e+03
1.585728801614918893e+03
1.942833641924066114e+03
2.153805191988187744e+03
1.903644018730338757e+03
1.828400276425875973e+03
1.916081440502827945e+03
1.553695328765646764e+03
4.313683471963445868e+02
-1.157538986619008767e+02
8.221356973071686980e+01
-1.268855657528958432e+02
-3.370849029124963181e+02
-2.133733005959612683e+02
-1.226480008403257642e+02
4.322285755380955834e+02
1.275382104861949301e+03
1.678940889364452914e+03
1.743890405196894562e+03
1.372007053718616362e+03
1.375384337210223748e+03
1.389092895595808841e+03
1.227146474346196783e+03
9.535648516411789615e+02
-2.363815491855754658e+01
-4.255391721639637694e+02
-4.050019510883787461e+02
-8.139633969018773314e+02
-1.343527844564068801e+03
-1.773728133860684466e+03
-1.822567630665921342e+03
-1.553782589956564379e+03
-9.419462496870570476e+02
-9.282376792310099063e+02
-5.191831806574318762e+02
4.395837000299545139e+01
8.485445483740378450e+02
1.547467753356854928e+03
1.559666689509784874e+03
1.477982028729192280e+03
1.136763247803903823e+03
8.332939815176084721e+02
1.124699542678880107e+03
9.381073363274084613e+02
8.855958094726245236e+02
8.138460572256657315e+02
5.166234835991823502e+02
1.548616746238646442e+02
-3.691987232802322865e+02
-4.801521628000741657e+02
-7.328247951152411588e+02
-9.483890169117569258e+02
-1.195175540190057291e+03
-1.214506328195938295e+03
-1.071003877344197917e+03
-6.454657792559700056e+02
-2.660107985691864769e+02
1.774403507501783110e+02
1.057714596237441924e+02
1.977883386421926275e+02
3.316696190990918467e+02
5.403073449997310718e+02
6.663150967865325356e+02
6.493319643174640987e+02
-5.980473961145862383e+00
-2.312662869662192975e+02
-4.764069255014275939e+01
-6.835410278205272050e+01
-7.328914478445510667e+02
-9.704954944375499508e+02
-1.327111139093414067e+03
-1.287528204774151163e+03
-1.176863862949666100e+03
-1.364824479097131416e+03
-1.427863110847990811e+03
-1.328987045582055543e+03
-8.234901996371029327e+02
-5.080328559899014067e+02
-6.541115546517977464e+02
-5.399688778523151313e+02
-5.034211789918533100e+02
-5.638110698368536760e+02
-3.352804514814867503e+02
1.598386424778882713e+02
4.801066958206642994e+02
4.619344608773039340e+02
7.818175416235082764e+01
-4.891784823036177272e+02
-9.121064776642593870e+02
-1.374318508069020709e+03
-1.520967949315885335e+03
-1.279407539863621878e+03
-1.020672479497494919e+03
-7.563217554291397846e+02
-1.599097982466515191e+02
6.045531910896818317e+02
7.044573342858808473e+02
1.144047876986398478e+03
1.441619569347803008e+03
1.534756726470690182e+03
2.058895974871244107e+03
2.051885238407358884e+03
1.891268428238216302e+03
1.760861540519256323e+03
1.368150672742644019e+03
6.909010689805862739e+02
8.921204666715412941e+02
6.305324654814739915e+02
1.457000178119979523e+02
-1.769281169477059734e+02
-7.119637627052520656e+02
-8.250747100383732686e+02
-1.073751542031384133e+03
-1.086868586528726155e+03
-7.376328000373031273e+02
-6.537369007621684602e+01
8.120077750586489174e+02
1.327947083621251295e+03
1.328203824838100445e+03
1.497260772141182997e+03
1.532212090202674517e+03
1.315771343344119941e+03
1.356362270024468671e+03
1.254040270407809203e+03
1.139136112222904103e+03
1.068739935951525013e+03
9.855025079352742523e+02
5.005860989015623090e+02
7.987615005794962997e+01
-3.999605908967241135e+02
-7.295660014707436858e+02
-6.378569172348488792e+02
-5.330759708142149975e+02
-6.700941791218028811e+02
-5.194007433004215954e+02
-2.055209498597326672e+02
3.164527029800119635e+02
4.929582491881128021e+02
6.411170192318265890e+02
1.382746814632793757e+03
1.213603839963835526e+03
1.347686963120623432e+03
1.825356251485574148e+03
2.032776886801715591e+03
1.789872503645626693e+03
1.519218106552802510e+03
1.519289880154597995e+03
9.647116091828770550e+02
2.952460028992350090e+02
-3.068631182701249145e+02
-6.618770851248467579e+02
-8.819489522015031753e+02
-5.782715308578920030e+02
-4.869447021937391895e+01
7.081532468190345071e+02
1.141528294562933979e+03
1.470053019328106302e+03
1.219310059394181735e+03
-4.222515233997215773e+02
-3.090268468496382411e+03
-4.362540195299993684e+03
-4.351395120552683693e+03
-4.471908965332580919e+03
-4.494881312634413916e+03
-4.351926610841161164e+03
-4.346823087261785986e+03
-4.538180985440939367e+03
-4.922666656982907625e+03
-5.553840109880933596e+03
-5.342544235097993806e+03
-5.783347104094534188e+03
-5.538191905463547300e+03
-1.117027361340416746e+03
3.279061258552467280e+02
-3.179190851226914219e+03
-3.625977182810927843e+03
-2.861674260198972206e+03
-4.355235028904741739e+03
-5.084345748242504669e+03
-5.234396826195225913e+03
-4.984341212709181491e+03
-5.097707464035825978e+03
-4.718579988303847131e+03
-4.463611545279411075e+03
-4.417429151300855665e+03
-3.990885039514491837e+03
-3.997134253211145278e+03
-4.230514549069800523e+03
-3.343091061587533659e+03
-4.699298447577468778e+02
1.224029120461336561e+03
1.936937291687974721e+03
2.161845963314696291e+03
2.404971054886354523e+03
2.607801122102904628e+03
3.315229396650043327e+03
3.745744745725141911e+03
4.144360752401849822e+03
4.598396891054187108e+03
4.548206215521614467e+03
4.338037558033558525e+03
4.130571877041580592e+03
4.045409830940691791e+03
3.835701770160096657e+03
3.640479273189335345e+03
3.142574960498870496e+03
2.762017672101817425e+03
2.704819120426639074e+03
2.212196213716687453e+03
1.521215000836858280e+03
1.019737489068123068e+03
7.287585757931586841e+02
1.463446226310335987e+03
1.480522547094254378e+03
1.791106128812305769e+03
2.449302512928106808e+03
2.660791820993503734e+03
2.671705699739796728e+03
3.272514044362950699e+03
3.068355666317440864e+03
2.945124306444140984e+03
2.951476893054514676e+03
3.036437360871462715e+03
3.087011142676188683e+03
3.077416549463157480e+03
3.198651917735342522e+03
3.294248710323684008e+03
3.236119444215115891e+03
2.565575897210278981e+03
1.811432329724317015e+03
1.213379692922977483e+03
8.426514664493122382e+02
1.401916392305274996e+02
-7.009678493748733672e+02
-1.390970791071635404e+03
-2.120406764384030794e+03
-1.896986661098310833e+03
-3.143862761569664144e+03
-2.642298579518038878e+03
-1.246676007359694950e+03
-5.800098896352193378e+02
1.652630909809607374e+03
3.770462672250795549e+03
3.440200513407597100e+03
2.467636488947918679e+03
2.223656711714738776e+03
1.204412951170496171e+03
-1.201040927287472641e+03
-3.330783517301249958e+03
-1.305882415573344133e+03
