3.290962884889356701e+03
3.566345470649158415e+03
3.389708246392871388e+03
3.644138116885513682e+03
3.413675096715310701e+03
2.835185196274723239e+03
2.236347778729966194e+03
1.850892127599174955e+03
1.165745914193673116e+03
9.058907513986904405e+02
6.424185743567783220e+02
4.743021741481858840e+02
4.141961650110597475e+02
2.440208143062463932e+02
5.228143147222633615e+02
1.196303016296465785e+03
1.335253827707593473e+03
1.446555187047225218e+03
1.749270662498944830e+03
1.910238181958866562e+03
2.075343322593103494e+03
1.963566686023824104e+03
1.790638091200006556e+03
1.498453014674391625e+03
1.409892488697218596e+03
1.269803828875397585e+03
8.737796604189946947e+02
-4.731171148639092507e+02
-5.857890445706900664e+02
-8.352370942482225473e+02
-8.736169294818561184e+02
-1.624046073913616283e+03
-9.816162216279752784e+02
-8.094090687245479785e+02
-1.530437545104806077e+03
-1.506877201104086907e+03
-1.837991911473249274e+03
-1.838697016805963358e+03
-1.172025305009796512e+03
-3.063250538952033253e+02
5.204269689080344961e+02
9.155077105065785190e+02
4.917090781342010359e+02
-4.903681613868109253e+02
-6.794086381452054866e+02
-8.341362031601146327e+02
-1.430832559774403535e+03
-1.254709441132867369e+03
-4.887458914453758894e+02
-5.520860242254698278e+02
-3.707822012067805986e+02
-1.178906659882208174e+01
-3.571431904370517714e+02
-6.857984241101240741e+02
-5.935741720432268949e+02
1.771688011090121222e+02
2.091510336452976730e+02
3.825442943030973311e+02
7.003945442137028294e+02
1.204920148418927738e+03
2.132104639259103351e+03
2.501828340314087200e+03
2.004011643655693888e+03
1.520624338974023431e+03
1.430864381031648463e+03
1.419841408566111113e+03
1.020587797702394937e+03
3.402143586135898090e+02
2.586521821934741183e+02
-8.715627117207424135e+01
-6.651123491426676537e+02
-3.763948815904723801e+02
-1.130129160653382314e+02
-9.081279389496796739e+01
-6.279047698260130517e+01
6.341084372524550190e+02
1.142865805161546405e+03
1.617568722375984407e+03
2.354289793727164579e+03
3.063029391394113190e+03
2.956742085529849192e+03
2.833143464823071554e+03
1.557415200867647400e+03
6.818453204621536088e+02
1.187438479318823283e+03
1.260175131971900782e+03
1.343055352824780584e+03
1.279215454369699728e+03
1.248771281847068849e+03
1.045010148967614441e+03
9.686160716428729529e+02
1.165515952029395066e+03
2.068808154845884019e+03
1.885870217039595502e+02
-3.208153891282227505e+03
-5.852295375039741884e+03
-4.587837192030250662e+03
-3.815808446078913221e+03
-3.433990033214747200e+03
-2.949278445635950447e+03
-2.620823220816811045e+03
-2.278461030099723303e+03
-1.084237402996526725e+03
-9.430507702759024369e+02
1.279847104454125656e+03
2.682660925055840835e+03
-1.833611241777620648e+02
1.537424981060929213e+03
1.451867991861174971e+02
-3.673930678560715933e+03
-4.600952589324358087e+03
-2.901733107747646500e+03
4.057379948632565743e+02
-1.846570093774301540e+03
-4.073674578032512727e+03
-4.349692899809251685e+03
-3.669693309607663195e+03
-2.699556448902436841e+03
-1.562132194023108468e+03
-1.158318058585155995e+03
-1.452088400679459028e+03
8.296283179351927402e+02
3.321825221778353807e+03
-3.144995124045415196e+02
-1.630273914594936741e+03
2.743563789778651881e+03
4.055929770983298567e+03
3.310826077540428287e+03
-1.956683835976277805e+03
-5.087578859194813049e+03
-1.150775960627676795e+03
1.813798768330896564e+03
2.668006372339025802e+03
3.103745656561480246e+03
3.215146074914873680e+03
3.293327368686019781e+03
3.665367084385299222e+03
4.055314265391080880e+03
4.392303399221073050e+03
4.757270974924821530e+03
4.678107999266363549e+03
4.523899928802688009e+03
4.446644742311766095e+03
4.169427538370779985e+03
3.484331128055178397e+03
2.696020034818758631e+03
2.754498991276491779e+03
2.823054348561950974e+03
2.554677219850884285e+03
2.294253159983220939e+03
2.306720212906888719e+03
2.123152391876566071e+03
1.857570351358454673e+03
1.773965062020715095e+03
1.267302942073736176e+03
1.321569928682668660e+03
1.725776762675550117e+03
3.064982573354724082e+03
3.421205503235203196e+03
2.986390079652398072e+03
2.575620439689465002e+03
2.060028195426873481e+03
1.845448412250128513e+03
2.226944401833049596e+03
1.606575694697143717e+03
6.920610207672125398e+02
3.671131208209516217e+02
8.520663756662610240e+02
1.023188326147414728e+03
1.036433232077066123e+03
4.774167638527772510e+02
-1.142007524206141085e+02
-1.712177724111051873e+02
1.034486691732771959e+02
7.049258563134585529e+02
8.850304068193178182e+02
9.124654921204755738e+02
1.552399996061285492e+03
1.772388361127503458e+03
1.600969819674527116e+03
1.580600929687318967e+03
1.822664202948001730e+03
2.278152212597935431e+03
2.030061402410740357e+03
9.582729884762724168e+02
-2.754531970345400964e+02
-6.031004337746790043e+02
-1.925808675690679479e+02
-6.020240792280003461e+02
-1.262505827435889159e+03
-2.105932818505402338e+03
-2.460294994241189215e+03
-2.044706218296776797e+03
-2.113373773087864720e+03
-1.532365855521877165e+03
1.143631183873567920e+02
1.390810176971167493e+03
2.088961581380897314e+03
1.889724325012502504e+03
1.381143931541969323e+03
1.362196417758639200e+03
1.272772725037799319e+03
9.157795217818586480e+02
3.101520395562748718e+02
-9.831628388647197880e+02
-1.648198126811222437e+03
-9.839997807794159144e+02
-1.433670428085349840e+03
-1.493217938674682955e+03
-1.855651363988436970e+03
-2.204074265500056754e+03
-2.383606676641410104e+03
-2.059350519903611712e+03
-2.655342415271159553e+03
-4.336587725657242117e+03
-7.418099803795788830e+03
-8.695872024188925934e+03
-8.388962030378910640e+03
-7.581416414745055590e+03
-5.745204545452820639e+03
-1.299457548721334206e+03
5.457867272785756541e+02
-1.686536486256681656e+03
-5.743464685942295546e+03
-7.118983843443228579e+03
-2.959105439398968429e+03
-3.201901031707600850e+03
-3.959539732666664804e+03
-4.894293578891439211e+03
-2.737078909171377745e+03
-3.335852957745774347e+03
-7.846642518798112178e+03
-8.410509993616764405e+03
-5.763536069678784770e+03
-2.587732292984196192e+03
-3.661201910130095030e+02
5.711667787472041482e+02
2.261979147908552648e+02
1.138871089369548372e+03
3.167065168927612831e+03
4.608797063864435586e+03
4.060113416720315399e+03
2.692990726909865771e+03
1.477363387873522015e+03
6.702263483365229604e+02
-6.614848981963834831e+02
5.519327181899156187e+01
1.398236408316613733e+03
1.140609121401550283e+03
5.912312177998342122e+02
6.309374101532579004e+01
3.302223358007847196e+02
8.617047349498835729e+02
7.386501297673665931e+02
1.364055426213452165e+03
2.236864595876037583e+03
3.384107551477742163e+03
3.492785824702076297e+03
2.450010761465494397e+03
2.386825534020271334e+03
3.349920756969437207e+03
4.025076016862736651e+03
4.053388296005334723e+03
2.335854547388525589e+03
1.224412572003498553e+03
-4.178401229492513380e+01
-2.416684616852586203e+02
4.728695627763770517e+02
-2.108384033992088291e+01
1.015962169301452889e+02
8.509300567587442856e+02
8.466180520497009354e+01
-1.047299822998421860e+03
-4.718851785806604653e+02
1.922796986416078198e+03
3.234014355937700202e+03
3.363339290884655384e+03
3.450564570782024475e+03
3.502401560752850855e+03
2.865520592298465090e+03
2.445327154491525562e+03
2.033809482530490641e+03
1.117986436273903109e+03
4.454710341531286986e+02
-3.270383089563190993e+02
-3.598335400606645749e+02
-9.038825420977825331e+01
4.192036585605516166e+02
8.581029903421314202e+02
-4.564641797176784621e+01
-1.026864100852435513e+03
-5.452280408477756737e+02
-1.410880382772136727e+03
-2.344165887820608532e+03
-2.102255659594637564e+03
-1.551436806996150381e+03
-6.016995638042342307e+02
1.816269434478585936e+03
3.498296152428613368e+03
1.616147018126722060e+03
2.657418557982479115e+02
9.809991445622342781e+02
1.435120537979128812e+03
2.204803542481296518e+03
1.475024445975183426e+03
3.158941801351460299e-01
1.674585757541503881e+02
1.015502399694078690e+03
1.477366754020272538e+03
2.284783984422761876e+02
-5.446883246332104136e+02
-5.871722174901428843e+02
-2.275570614291560503e+02
2.268918075831781493e+02
-3.921673178346445070e+02
-1.914756342504763609e+02
1.486692531271272628e+03
2.275362154203950467e+03
1.899847048042326378e+03
4.530683521632304860e+02
-1.157099772323083471e+03
-1.956560637764032890e+03
-9.837824214085144376e+02
1.854666204313407661e+03
1.943077457075623897e+03
9.369290686573060611e+02
1.073729589161753438e+03
7.680418003891687704e+02
5.323312236228566690e+02
7.848119289909284362e+02
1.101096103526531351e+03
1.738309236616889166e+03
1.997238888022424590e+03
1.440016921167426062e+03
1.129239403570543118e+03
1.456762690901372252e+03
1.721094648011828667e+03
2.052596661664288604e+03
2.219331377746896123e+03
2.067151411247943997e+03
1.900910875280219216e+03
1.257657489643218014e+03
1.063525166134937081e+03
1.464989451864215198e+03
1.611179332151201606e+03
1.722848303749605293e+03
1.462066603851274522e+03
9.979778741963762059e+02
1.095316008685351107e+03
6.434225372045306131e+02
-4.368570959682812145e+02
-4.838327704662295901e+02
-4.065976608329710302e+02
-1.117408300227287441e+02
-3.979031898060518984e+02
-3.373231601556834676e+02
-2.816519866267478278e+02
4.067983655267627228e+02
1.746663473091822198e+03
1.805682174350518835e+03
1.409664118943545645e+03
1.827274755840665875e+03
1.728958154701551621e+03
1.238940477469918505e+03
1.032895734646167739e+03
8.825161857333170019e+02
-3.501036817369553660e+02
-4.697923370218324521e+02
-5.631262801114515923e+02
-4.078647283063592681e+02
-1.558982829973101900e+02
-3.850324915483240602e+02
-1.115604196427647821e+03
-1.899202651387186052e+03
-1.150857125892310023e+03
-6.322355950979792851e+02
-4.898343841346041359e+02
6.672103399951200231e+01
3.771766435094751841e+02
4.879882564853120925e+02
5.348059463297054208e+02
1.347563891502946944e+03
9.545514808569697607e+02
4.057826398499282732e+02
-4.014695569251773009e+02
-9.744396638936865429e+02
-8.662680737541002145e+02
-1.052568832465624155e+03
-1.820285520238892786e+03
-2.948978892870120944e+03
-3.915378773237929636e+03
-3.789913163130023349e+03
-3.155552378790606781e+03
-2.868017858554298527e+03
-2.549526773105438224e+03
-2.417673741139908543e+03
-2.019627841291627419e+03
-1.741902125919141326e+03
-2.537132127507338737e+03
-2.878444727820861317e+03
-1.585627740357318771e+03
-2.963968648444454175e+03
-4.334882200558440672e+03
-2.292000542341394521e+03
-2.070123551281040363e+03
-2.983685650622466255e+03
-3.905415340508162444e+03
-4.041163329660579166e+03
-4.192570339221364520e+03
-4.729181606060904414e+03
-5.732499589619122162e+03
-6.410907872407712603e+03
-6.328143465254146577e+03
-6.371556412169494251e+03
-9.658728524568119610e+03
-1.012489864964752633e+04
-1.019749066341649086e+04
-8.378162673860368159e+03
-7.971680165231296996e+03
-6.396276042758555377e+03
-4.809664552217100209e+03
-4.766212416741533161e+03
-7.637110210394906062e+03
-7.059931871981896620e+03
-5.576761204393073967e+03
-6.030317553764344666e+03
-6.648931953378410071e+03
-7.313917965597258444e+03
-7.451663516572507433e+03
-8.470889445965336563e+03
-1.091743565180123551e+04
-8.921110445589230949e+03
-1.147459463973340644e+04
-1.188758209491463458e+04
-1.139770284555074613e+04
-9.477705686681827501e+03
-1.071321377071608185e+04
-9.816537736810165370e+03
-8.659165921202593381e+03
-6.613861841587525305e+03
-5.428472990436181135e+03
-5.233132038975400974e+03
-5.521322091043281944e+03
-5.581669669547009107e+03
-5.523019951335201768e+03
-5.606000677536388139e+03
-6.519079055157094444e+03
-7.248288382785194699e+03
-7.832647694410992699e+03
-8.109504111390901016e+03
-8.012602040942305393e+03
-8.159386284547808827e+03
-8.075370771188237995e+03
-7.573774509896923519e+03
-7.347751268976614483e+03
-6.210035673206398315e+03
-5.068286083947731640e+03
-4.418082757932996174e+03
-3.762080252381066202e+03
-2.649968980436966831e+03
-1.986757366433525476e+03
-1.562282701801306985e+03
-1.265069950602699237e+03
-1.497780964741112939e+03
-1.377640497376302847e+03
-9.910107879715794752e+02
-7.131044192084791575e+02
-1.010675580602275659e+03
-1.395840564915940377e+03
-1.511328487365398360e+03
-1.289274391842189743e+03
-1.194433388846085563e+03
-7.014540861316536393e+02
-3.043844509288504696e+02
5.593761289354320070e+02
2.643228543289793834e+03
3.866529611064306664e+03
4.866686254413595634e+03
5.785592186908374060e+03
6.621087086285910118e+03
7.496185907475603017e+03
8.627375016873442291e+03
9.078604758570623744e+03
8.759914581134842592e+03
8.633354765960455552e+03
8.522988363324704551e+03
8.751848399496302591e+03
8.994918985525739117e+03
9.428087855640096677e+03
9.838220441894112810e+03
1.019444322164904224e+04
1.062793120708020433e+04
1.099899441889778973e+04
1.188325297306532411e+04
1.370844478262916891e+04
1.508468344155802151e+04
1.576719541993578423e+04
1.661727650197230469e+04
1.759042883825998797e+04
1.816204334202082100e+04
1.884038697893520293e+04
1.876878773502263721e+04
1.866156342951836996e+04
1.836885331176004911e+04
1.850276834537380273e+04
1.780360363078111550e+04
1.609467915748896303e+04
1.410323779728715272e+04
1.334931178785730117e+04
1.403113520468769639e+04
1.486296951714754869e+04
1.548802365691052000e+04
1.650650567556333772e+04
1.776555199626401009e+04
2.118545826162896628e+04
2.572660404300693335e+04
2.753917427891310581e+04
2.604619244149852602e+04
2.495686478485734551e+04
2.321545230058170273e+04
2.002435143493348369e+04
1.750790457954843441e+04
1.541550068236759398e+04
1.407341055939832768e+04
1.346685020581924800e+04
1.443715608801520648e+04
1.567053823449087031e+04
1.385610854230927544e+04
1.055724974493632180e+04
6.587298193641840953e+03
-4.376484909704537927e+02
-5.637294762831813387e+03
-4.343133214254175982e+03
-5.973657479352325936e+03
-1.299562344620504882e+04
-1.266384476949153031e+04
-6.733758574879876505e+03
7.702545210206892534e+02
1.059875275192192021e+04
1.725999182962687337e+04
2.014835290367049674e+04
2.087141936795268339e+04
1.468448274339075579e+04
5.496133801237312582e+03
-5.024953703501590098e+03
-1.654816814620069636e+04
-2.943086213563969432e+04
-4.275863325710561185e+04
-4.691514209916102118e+04
-4.330560990991518338e+04
-4.095812286425005004e+04
-4.137096944546329905e+04
-4.134750558144498063e+04
-3.645486607294381247e+04
-3.288128090807642729e+04
-3.247302425337161549e+04
-3.377086019910667528e+04
-3.567332639863332588e+04
-3.487247802400067303e+04
-2.373295126362687370e+04
-8.200685420826368500e+03
-8.186421936896578700e+03
-1.153425930817147673e+04
7.359442958305570528e+02
1.674561895730716788e+04
2.940015074387705317e+04
3.925286101806830266e+04
3.847973818167153513e+04
3.107496976500226447e+04
1.805394997929118836e+04
1.224999107251680107e+04
9.959620891557780851e+03
4.445134850749083853e+03
-4.949752702261213244e+02
-1.572009427749635279e+03
-3.997565780871336301e+03
-2.282984575777572536e+04
-4.456227072335089906e+04
-4.922328119979805342e+04
-4.852929154205250961e+04
-5.769082089957384596e+04
-6.109498438413460099e+04
-4.262090434924138390e+04
-9.475799797343317550e+03
-1.481874965550583056e+03
-1.602539539570948909e+04
-2.479358469736342886e+04
-3.306158506611496705e+04
-4.488350319207974098e+04
-4.239740640933397663e+04
-2.901529633244811703e+04
-1.189624682451096487e+04
4.770740596993044164e+03
1.776773526834330914e+04
2.243078639166468929e+04
2.647595129115107557e+04
3.143134755884225160e+04
4.187103020631400432e+04
5.885114403642518300e+04
7.514179845017549815e+04
8.527116892228853249e+04
8.199939800768626446e+04
6.558067346561844170e+04
4.806521524603287253e+04
3.788921735354384873e+04
3.195788100667806430e+04
1.973248843500803923e+04
-2.371728229192119670e+03
-1.704262366293377636e+04
-2.519396717856352916e+04
-3.030458720537170302e+04
-4.045120415952226176e+04
-4.808958789200659521e+04
-4.786247603580034774e+04
-3.804372358265463845e+04
-2.791020424270857984e+04
-1.854260544027791912e+04
-2.339262803800737311e+04
-3.854220179095240746e+04
-6.050611938229104999e+04
-7.470615222396371246e+04
-7.252217704368781415e+04
-5.792708009302378196e+04
-4.939563063818583760e+04
-4.450479435710880352e+04
-1.797651757137784807e+04
1.124124503793643271e+04
2.130455762166786371e+04
1.584146394732864064e+04
1.519404186018439941e+04
1.359928552656049396e+04
1.079047504151927342e+03
-9.665664960978341696e+03
-2.039390231072515235e+04
-3.656982835390977561e+04
-3.704048735415813280e+04
-2.246706259233469609e+04
1.032423037501194085e+04
4.776617587255741091e+04
4.797762212262234971e+04
3.336533508317350061e+04
3.230805804307203653e+04
4.271947113493731013e+04
3.846112569087630982e+04
3.131759827501221298e+04
2.409643842683456751e+04
1.563627871987990511e+04
9.837660969187396404e+03
1.441995117608609507e+04
2.174251773834106643e+04
3.980069439916929696e+04
5.137181276825429086e+04
4.601426370552108710e+04
2.752230029878328423e+04
1.983019387024876414e+04
1.894432510053058650e+04
1.668285658954682003e+04
1.960273353073226463e+04
2.760446273508272134e+04
4.020127113068638573e+04
4.064065502634583390e+04
3.009662180867716233e+04
3.071036227941941979e+04
4.434704922670985979e+04
4.791860353023419884e+04
3.981186489214740141e+04
3.211868195333547192e+04
2.586295055996700830e+04
1.728238088838896874e+04
1.117954720438579534e+04
5.639180673069702607e+03
3.608236341221951534e+03
3.309135564178654931e+03
2.591500269478399332e+03
-4.493114794458065830e+02
1.847560544484193542e+03
4.459404694243651647e+03
1.075630269114379189e+04
1.031806429709344229e+04
1.132244132249388167e+04
7.138523478367130338e+03
3.585538907405699547e+02
-3.962957924455956800e+03
-5.398711687320143028e+03
-3.597380295000270053e+03
-1.702611895229948232e+03
-1.472012925949101373e+03
-2.777803740510745229e+03
-5.009297942801130375e+03
-8.351640645929577659e+03
-1.117676489825856879e+04
-1.617546496894159827e+04
-2.216760470614418227e+04
-2.415532847988809954e+04
-2.324774468779877498e+04
-2.248362092399812173e+04
-2.413487790072586358e+04
-1.855637891822086749e+04
-7.911270522848801193e+03
-6.011578989998880388e+03
-3.679338973443405848e+03
8.324083870813906287e+02
-3.552372774383205524e+03
-1.293668677865115751e+04
-2.768654849673103308e+04
-3.886301811138425546e+04
-3.770918184775751433e+04
-2.928615161066981454e+04
-1.135895967550452406e+04
7.333347403827356175e+03
1.314869026801977998e+04
8.064979272309418775e+03
5.423112585331852642e+03
8.304049810722117400e+03
2.140753280384065420e+03
-1.591839922031950664e+03
-6.697866974659516927e+03
-1.147828049694358560e+04
-9.449023405791907862e+03
8.408647615515440066e+02
1.113244012091999502e+04
6.531661262110904318e+03
-9.904797685155759837e+02
-4.981936378501126455e+03
-9.281646216204309894e+03
-7.497612098986855926e+03
-5.203781700797073427e+03
-1.163305399408270932e+04
-1.351835685406264747e+04
-1.134560692488899804e+04
-8.507682833327091430e+03
-8.386508802040081719e+03
-1.134206565038118242e+04
-1.494706699793709959e+04
-1.796237099455012503e+04
-2.349073301849915879e+04
-2.774796496311116425e+04
-3.258778458079915072e+04
-2.650593291859033707e+04
-1.583406738219911131e+04
-9.758817765895060802e+03
-8.886860585512022226e+03
-1.076484045897324904e+04
-8.584391719163477319e+03
-4.615106114275658911e+03
-4.106590376516405740e+03
-3.750321688007539251e+03
-5.182941870995467980e+03
-8.537992730564579688e+03
-1.035397775316620391e+04
-8.617366998537818290e+03
-8.368566526117245303e+03
-8.001007967930994710e+03
-8.161132584658545966e+03
-7.797366246421273900e+03
-7.305023159362247497e+03
-7.295394201530379178e+03
-6.469754128295980081e+03
-5.670248849045147836e+03
-4.210151135790745684e+03
-3.413600907023768741e+03
-3.362884892245965602e+03
-2.597091400859043461e+03
-1.626243858809856192e+03
-2.410464185687993449e+03
-2.885915869996472793e+03
-3.627827477654002905e+03
-3.831269129295926177e+03
-3.749298958578535803e+03
-4.238025731343648658e+03
-4.748470970391740593e+03
-4.519765633189411346e+03
-3.795034132194947233e+03
-4.485100263257201732e+03
-5.769646357717339924e+03
-7.648566520641744319e+03
-1.001068365720785732e+04
-1.135570697280643253e+04
-1.158547485025136666e+04
-1.066282077956835747e+04
-9.030552821335915723e+03
-7.298507430582114466e+03
-5.424593183747591866e+03
-4.762599600753637787e+03
-4.437090101250419139e+03
-4.373741440755788062e+03
-5.786125502370508912e+03
-5.742551994946478771e+03
-4.126939195431272310e+03
-1.164698354846353823e+03
5.699794855536196110e+02
-4.009023205730047721e+02
-4.565086342501475656e+02
2.216955858364045525e+03
7.074617871163297423e+03
9.367507608111283844e+03
1.071003015424273872e+04
1.313260497964879505e+04
1.338983375465117388e+04
1.457490175773591727e+04
1.786561913977958466e+04
2.230635147303834310e+04
2.675370954948405415e+04
2.847242620358233762e+04
2.730614099285082193e+04
2.525166084808317464e+04
2.487579073822878854e+04
2.487295052276579008e+04
2.315370008475263967e+04
2.223335520608475781e+04
2.200183607299590585e+04
1.911453488032540918e+04
1.592402024724267540e+04
1.948886999867036866e+04
2.593453890208022858e+04
2.469118018143456356e+04
2.394125469272609189e+04
2.401151867072363530e+04
1.991244879319104075e+04
1.632671165396730066e+04
1.642342281676907078e+04
1.900236105774414682e+04
2.155290717395171305e+04
2.100844632258393176e+04
1.938207732794799085e+04
1.871475939256708807e+04
1.731953425747854999e+04
1.618642889464612199e+04
1.361159093970620233e+04
1.268666902496207877e+04
1.388112024343332632e+04
1.232707237450158209e+04
1.237398594232012329e+04
1.166873960249442098e+04
1.048231672690908272e+04
1.011389128421319583e+04
9.476407228709598712e+03
8.577068117268763672e+03
8.122844225980567899e+03
8.993180731793814630e+03
9.694712685207861796e+03
9.422247785936089713e+03
8.690819504065430010e+03
7.783431145681513954e+03
7.157445504318066924e+03
6.308702650949868257e+03
5.107445581257034974e+03
3.177835742386426773e+03
1.630502120144740502e+03
5.973276144417681053e+02
-2.094664450194944152e+02
-1.163116073860102006e+03
-1.933394695385758268e+03
-3.342184172417299578e+03
-5.100906144962442340e+03
-7.003153314276504716e+03
-7.995934340524113395e+03
-9.411743977638032447e+03
-1.067533514702619868e+04
-1.187324340837041200e+04
-1.340477539320343203e+04
-1.445589594603313526e+04
-1.506653203595933519e+04
-1.620085592779955550e+04
-1.739569054798948127e+04
-1.833405667818875008e+04
-1.969671948334766785e+04
-2.101579149498687912e+04
-2.198330055594528312e+04
-2.235661107612159685e+04
-2.283319599488742460e+04
-2.346123209020997092e+04
-2.378997831993443833e+04
-2.315447522200321328e+04
-2.302274340101127382e+04
-2.287729805807922821e+04
-2.225007531899019523e+04
-2.162958619905324304e+04
-2.119237992799820859e+04
-2.053365576481381504e+04
-1.974239384164425428e+04
-1.933706667432914401e+04
-1.902148709637667707e+04
-1.841065087233497616e+04
-1.816399350105396297e+04
-1.776745606382238475e+04
-1.767501258036973013e+04
-1.770548337833405458e+04
-1.710709141230527166e+04
-1.646138149759662701e+04
-1.615881542136233838e+04
-1.489673934933023338e+04
-1.407317510604830568e+04
-1.378838026814342265e+04
-1.274017802654715706e+04
-1.166712734150924553e+04
-1.033297802480473729e+04
-8.717995143852987894e+03
-6.642852356828270786e+03
-4.745650246254454032e+03
-3.285982711044292046e+03
-2.773357043062977482e+03
-1.660545073137301870e+03
-2.899565099035660154e+01
1.451148225020642485e+03
2.854165057155816612e+03
3.194868624990259832e+03
3.016350208468123583e+03
3.279945303364418123e+03
3.136056602472119721e+03
2.831108732272832640e+03
3.180667870769336332e+03
3.352379193282908091e+03
2.281534318473768508e+03
3.317924185360886440e+03
6.186235360273866718e+03
5.620047965416763873e+03
2.881311787006608029e+03
8.791082742453611445e+02
1.217859301659876564e+03
2.447535928009628151e+03
3.371880541343200548e+03
4.080944608111417438e+03
5.518976040782805285e+03
6.582123047974291694e+03
6.335884138403682300e+03
6.288352387371510304e+03
6.217734221449824872e+03
5.643887664568354012e+03
5.571768219881714685e+03
4.796504775533463544e+03
7.274341036699674987e+03
8.930934380837314166e+03
5.751480746991864180e+03
5.446726460505957220e+03
6.209181749470993964e+03
6.410806950975875225e+03
6.307993269312853045e+03
6.722144025422666346e+03
6.829267070343450541e+03
7.428232905841122374e+03
1.015384221104948665e+04
1.498115533634596795e+04
1.285428838443196037e+04
7.829307020121449568e+03
6.246325887325118856e+03
5.121521638421220814e+03
5.982925574165868056e+03
9.653818753725980059e+03
7.561324984974838117e+03
4.663105697219455578e+03
4.185961327081277886e+03
5.704881985930327573e+03
8.876059378274067058e+03
9.775956230254774709e+03
1.003800705243937227e+04
1.029263676638007018e+04
1.051875494079406053e+04
1.061504649720238194e+04
1.018814034383808394e+04
1.009846145275098934e+04
9.874697373940207399e+03
9.419741547865891334e+03
8.514577904748277433e+03
7.543482578014029059e+03
6.837416279798208052e+03
6.309774578972099334e+03
5.076245546674667821e+03
4.178552651169151432e+03
3.675429033873781009e+03
3.021335316484000487e+03
2.224882180728231106e+03
6.428525504560809622e+02
-3.776183663775791501e+02
-4.996621192088948078e+02
-9.309096856168662271e+02
-1.045233943445012073e+03
-1.342085235408120298e+03
-1.538541510387632570e+03
-1.371427834661434645e+03
-1.315715189540089796e+03
-2.096359277951984495e+03
-2.914082470423914401e+03
-3.102043926009668667e+03
-3.622538100218269847e+03
-4.000153537052506636e+03
-4.398504215033260152e+03
-5.051788175871373824e+03
-6.023014460509213677e+03
-6.079292512960240856e+03
-6.803534433456493389e+03
-7.055863450928647580e+03
-7.859918211399872234e+03
-8.165085180967295855e+03
-8.185861468274740218e+03
-8.060139868650072458e+03
-7.979574705761920086e+03
-7.949241898826961915e+03
-8.006782729673181166e+03
-7.930130192667268602e+03
-7.704747564672426051e+03
-7.614119621233033286e+03
-6.341264075302469791e+03
-6.354351155371100504e+03
-6.757220156706113812e+03
-7.615894572613232413e+03
-8.203884209658050167e+03
-7.139704060185928938e+03
-6.185455228127671035e+03
-6.332512932658110003e+03
-7.138075951480845106e+03
-7.521292356321670923e+03
-8.019298536210741986e+03
-8.248278775682711057e+03
-7.657517765329846952e+03
-7.519169049819856809e+03
-6.549446976123281274e+03
-6.263498379467053383e+03
-5.777418865762712812e+03
-4.878422222605599927e+03
-4.571754410263234604e+03
-4.065454136896225918e+03
-3.940607291706849992e+03
-3.525323492577262641e+03
-3.290910464554323880e+03
-3.636526300395871203e+03
-3.839186492293180891e+03
-3.211045614314471550e+03
-2.416314544802452019e+03
-1.945187939531095708e+03
-1.676686091829672250e+03
-1.244875332137655505e+03
-1.053812228626470869e+03
-9.744623893300654345e+02
-8.539326890869083400e+02
-9.513990764107649056e+02
-6.211247304186128986e+02
-1.591130468265502884e+02
5.145510877487889729e+02
1.781699511255931384e+03
2.732266061041088960e+03
2.522250329944551140e+03
2.798611941968705196e+03
4.140435200155445273e+03
3.176535343571038993e+03
-1.590230530329743488e+03
-3.725066371507466556e+03
-3.800002757028732958e+03
-3.611872664439330038e+03
-3.845754238055687892e+03
-3.427866126646775683e+03
-2.306543946696829607e+03
-1.343638275784306188e+03
-2.283079318234633774e+03
-2.183972791878153203e+03
9.860014877116434491e+02
5.587773298290770072e+03
6.766992352091906469e+03
7.181570825101854098e+03
7.687511345424952196e+03
7.780047948399726920e+03
7.473448009070183616e+03
7.591872049623429120e+03
7.931245423835091060e+03
8.266583942270681291e+03
8.302171987209030704e+03
7.991046466331597003e+03
7.600185971009214882e+03
6.883853803118539872e+03
6.818187862593770660e+03
6.716741124642582690e+03
6.261234275683726082e+03
5.873371269151049091e+03
5.282327182978080600e+03
5.206110088303713383e+03
4.937176766743130429e+03
5.202767111030711931e+03
5.207649363325494960e+03
5.589835162616760499e+03
6.159452930360030223e+03
6.458703402087571703e+03
6.352708156554266679e+03
6.352529039446559182e+03
6.628314306850141293e+03
6.535160264809725959e+03
5.757435939366017010e+03
5.324160455307732263e+03
5.029274960414680208e+03
4.312004982319153896e+03
4.118334110380069433e+03
4.181463301190009588e+03
3.179565840430375374e+03
2.259659825965540676e+03
2.005874914334076720e+03
1.857454324543296934e+03
2.132463699717761756e+03
2.987710608791807772e+03
4.004353969883966329e+03
4.337598807569374003e+03
3.927614992653610443e+03
2.916506329416421977e+03
3.214326895422209873e+03
3.935254259961149273e+03
3.984361066060560006e+03
4.047711407018740829e+03
3.503309791272162329e+03
2.775285531850692678e+03
2.603725263161633393e+03
2.730570325508549104e+03
3.470847614963086016e+03
3.270673332639227738e+03
2.321166070055111504e+03
1.520416583997202224e+03
1.089385729810875318e+03
7.742282399426611619e+02
1.449587915851480489e+02
-4.444694182881321467e+02
1.191056295698509615e+02
1.095828568025786353e+03
1.467700403680821864e+03
-2.013431007931672525e+02
-2.499318349725421740e+03
-5.782109003067032518e+02
-7.059251675178296637e+02
3.085466689108534410e+03
6.449245155705156094e+02
-3.675576004703960734e+03
-1.377042863432445756e+03
-8.465763518315966394e+02
-7.272503484735752863e+02
-3.830206681467206636e+03
-2.804427213732487417e+03
-1.049909901314008721e+03
-4.523804340773344848e+03
-1.627177785618682037e+03
-1.950985237045869383e+02
-2.975635236354459721e+03
-2.469817231078112400e+03
-5.377571963568105957e+02
-2.930467434431333459e+03
-9.129240079492153654e+02
-1.818217125063880530e+03
-1.640355023179067828e+01
1.572412519772611631e+03
-1.532899841889173331e+03
-2.215432308965944230e+03
-1.643091859436046320e+02
1.623719461816384637e+02
-5.355167294506433109e+02
-2.129035379292051402e+03
-4.682231272556256044e+03
-2.171272937969311442e+03
-4.906301848027591404e+03
-4.294461590420745779e+03
-2.430823836400136770e+03
-3.839500740447575481e+03
-3.037589783053444989e+03
-1.970121395739858144e+03
-1.635131623355420061e+03
1.059235699713329268e+03
1.336913684195286578e+03
8.148070290710676318e+02
3.487998051006462674e+02
4.389394729835182716e+02
3.662587576795164637e+02
2.096146918321852866e+02
9.590454043783500993e+01
-1.569593304514268652e+02
-1.263128172530298571e+03
-2.479550475265251407e+03
-3.110156087966469386e+03
-3.089194440123219465e+03
-2.934853382318461172e+03
-2.829913864167907832e+03
-3.001304182178585052e+03
-2.513037255087724589e+03
-1.994263409829152351e+03
-1.393094761006565022e+03
-1.277578812993861220e+03
-1.409722697201620804e+03
-1.787624717969796620e+03
-1.673393334130400717e+03
-1.262018447111769092e+03
-4.242361054783715417e+02
-8.196611033115536316e+01
-1.182203566255217879e+02
-2.990296968785715421e+02
-1.519340198300259999e+03
-3.438486357481006053e+03
-3.179431720972871517e+03
-2.215800276237910566e+03
-1.455809280424507051e+03
-4.355071768175313309e+02
-8.318439523254986625e+02
-1.000717319143857821e+03
-8.141681532520091196e+02
-7.849441409422496463e+02
-5.731691432904517569e+02
6.758760842596436760e+02
1.908672793349359608e+03
