3.943086963043090691e+03
3.667672628921956402e+03
2.925450986364634900e+03
2.148469657798999833e+03
7.876686226970444977e+02
-4.710723584912340698e+02
-9.628298545479924542e+02
-1.453557453863868886e+03
-2.143224836106171551e+03
-2.696872686989961039e+03
-2.662505330668108400e+03
-2.358097324468035822e+03
-1.407650603665118751e+03
-2.671281510710457496e+02
6.235539529463071631e+02
1.462516660280571841e+03
1.748858632648454204e+03
2.432541606451085499e+03
3.103509419295443877e+03
3.466818356677767952e+03
3.553540803316674555e+03
3.367646170998577873e+03
2.547078398930321782e+03
2.020835302337918165e+03
1.042892189464258536e+03
1.024978846007812727e+01
-1.051082090276538338e+03
-1.651142293566498893e+03
-1.800872030283118420e+03
-2.256268145094358715e+03
-2.195384512535736576e+03
-1.724197112780279440e+03
-8.066587874477903597e+02
-1.567294124161327034e+02
4.163283838106507062e+01
9.494638812263266345e+02
2.001881710198719020e+03
2.640133973219179097e+03
2.850342484408701239e+03
3.260072886065698185e+03
3.408525175266092901e+03
3.018157430023781217e+03
2.364858811088916809e+03
1.252174417539625438e+03
-3.626567286613991996e+02
-3.738470705064505182e+03
-4.190685653671624095e+03
-4.253358522650402847e+03
-2.622177687277535370e+03
-2.685293415506802830e+03
-2.551814054647470130e+03
-2.287697346687329627e+03
-1.972864458867392614e+03
-1.341327160099590174e+03
-7.420449734704375260e+02
2.270071862768508595e+02
1.618814050254486801e+03
2.715505988111851366e+03
3.336191668656063939e+03
3.554788218502449581e+03
3.510303103536924482e+03
3.017819586873534718e+03
2.399273335574227076e+03
1.727634395332449230e+03
7.949235894052874301e+02
-5.048768245296510031e+02
-1.443827682457823130e+03
-2.354997895371578579e+03
-2.840444801992378416e+03
-3.101174192842431239e+03
-3.131160908232317524e+03
-2.606382138939078686e+03
-1.758777357403238966e+03
-6.253317980378867560e+02
2.219415968953556728e+02
1.023101872094310352e+03
1.784214763592285635e+03
2.252258409641564413e+03
3.078207829093072178e+03
3.164077280218171381e+03
3.393870332318797409e+03
3.000598921873171548e+03
2.373316454732832426e+03
1.523998901352032817e+03
3.855673561270240270e+02
-7.560712555099428300e+02
-1.846966011757910564e+03
-2.725138168672317988e+03
-2.980631841718310625e+03
-3.004504171568897164e+03
-2.770771538498529026e+03
-2.528456751182112384e+03
-2.012525419812235214e+03
-1.193952229034215179e+03
-3.047356361657876960e+02
3.891057355700428957e+02
1.774633665003286524e+03
2.620826731070260848e+03
2.389642537189862651e+03
2.369132287734513739e+03
2.465326067388294177e+03
2.420218718440128669e+03
2.148847980882755110e+03
1.486115182550997133e+03
7.978152306167061170e+02
2.099035393183810356e+02
-3.257026209086686777e+02
-1.434178883287976305e+03
-3.248406208899290959e+03
-2.664519544276093256e+03
-2.332526934413989693e+03
-2.650390537972291440e+03
-1.384893184259515692e+03
-3.398609457343671352e+02
8.765745088539626977e+02
1.696455732087936440e+03
2.192714880273273593e+03
2.915075334395656228e+03
3.951586132744441784e+03
3.865776282908440407e+03
4.198464412855730188e+03
3.730093974640749366e+03
2.980804246353276994e+03
2.461957682734719583e+03
1.814963126942805275e+03
6.901337388914049598e+02
-5.769892973346441067e+02
-1.354286664599130290e+03
-1.913915004870195844e+03
-2.351945858535792922e+03
-2.111216555631493975e+03
-1.613837572020538573e+03
-7.897528887175217278e+02
1.958011825964171919e+02
6.630038901375085061e+02
1.582942360825667038e+03
2.752594290814619399e+03
3.383974348937316790e+03
3.730036431057796108e+03
3.851594975440828421e+03
4.252701641099099106e+03
4.004661196728126470e+03
3.401115010692736178e+03
3.084837014972003089e+03
2.148835204708919264e+03
9.359908378663221811e+02
-8.450445725501135996e+01
-9.326656646529187356e+02
-1.516890743926980804e+03
-2.263103843611474076e+03
-2.421421860729092259e+03
-2.028877776588537245e+03
-1.039524688619040944e+03
-4.743299672772927806e+02
5.072871438367280916e+01
1.242654378181322500e+03
2.282515279086842384e+03
3.096369953486527265e+03
3.505181964029894971e+03
3.879945858623545064e+03
4.360636898551080776e+03
3.824325804602734479e+03
1.559963864966126494e+03
-1.683517542677891697e+03
-4.874180134427614576e+03
-5.900016477203316754e+03
-6.711047886066097817e+03
-6.614345352605568223e+03
-2.665968195281234330e+03
-7.729416078203266807e+02
-2.421303977325388587e+03
-5.261009118379896790e+03
-4.971078097618344145e+03
-5.066339533971543460e+03
-4.513844365818017650e+03
-4.057530714173521574e+03
-3.593334526642702258e+03
-2.489307190163585801e+03
-1.767334505528616546e+03
-1.694374700166195908e+03
1.165264643108541947e+02
4.276405266219988334e+03
4.957316468808327954e+03
1.384253080778754565e+03
-2.930790142184928754e+03
-4.330840149803766508e+03
-5.578918003500091800e+03
-6.683075329623480684e+03
-7.215324916615042639e+03
-6.612708864234731664e+03
-2.359163958209758221e+03
-2.686964069168734568e+02
-2.682338863101263541e+03
-5.622019719411713595e+03
-4.635657503416445252e+03
-3.718146912907487149e+03
5.961185473002795021e+01
2.264643246702347369e+03
4.224013552591470216e+03
5.269751199541236929e+03
5.896911467299391006e+03
5.777556731244897492e+03
5.288663406022201343e+03
4.795302098874408330e+03
4.023476462543582784e+03
2.869158354599485392e+03
1.466328006686784192e+03
4.029484981319496910e+02
-7.972276890733523302e+00
-2.274410431399285244e+02
-1.624898828866058977e+02
-2.060364891277453694e+02
2.640185939897936578e+02
8.417195771850578012e+02
1.382178225250282367e+03
2.056464326859663288e+03
3.112614992064801754e+03
3.658731925740426959e+03
4.172877401048208412e+03
4.706084788061724794e+03
4.530437486013664056e+03
4.452987609756296479e+03
4.216801438856012282e+03
3.296896331429001748e+03
2.104286621817439936e+03
5.289107780305604365e+02
1.767060813887962922e+02
-9.301919326789465003e+02
-1.871733221039593900e+03
-2.062648928203157084e+03
-2.028949342524948634e+03
-1.950605103080138178e+03
-1.405736019513589099e+03
1.514850333144871684e+02
1.050718292300561643e+03
1.379826163494019283e+03
1.514735064749124149e+03
9.485522468793230928e+02
2.757381740669242845e+03
3.742292029114686102e+03
3.718264444234464918e+03
3.488370795087581882e+03
2.997421449241434857e+03
2.184560366121225798e+03
1.274881406454480839e+03
5.292365772380832141e+02
-2.748858877992342400e+02
-1.650112480996543354e+03
-2.274836764989884159e+03
-2.505768803860062235e+03
-2.614709206533066208e+03
-2.187703324838621938e+03
-1.744943148311452887e+03
-1.163289920326068341e+03
-4.916094016253782684e+02
1.920860925541206541e+02
1.539817615752303709e+03
2.074661256665969177e+03
2.432642996247836891e+03
3.008776106357412118e+03
3.494049773692437157e+03
3.532509475682486936e+03
2.659146591587864805e+03
1.880876872300977311e+03
8.728197852436200037e+02
-3.339788806408392929e+02
-1.541638724870504802e+03
-2.250300628303108169e+03
-2.823009052220869307e+03
-3.223688521314655645e+03
-3.338365538983508031e+03
-3.209068986409094123e+03
-2.557768266747523285e+03
-1.469269887952295221e+03
-5.215566248438937009e+02
1.363225658605908279e+02
9.032949059026584564e+02
1.381387335996005959e+03
2.115580372706095204e+03
2.356810727388683517e+03
2.420081730496317959e+03
2.497456637573200169e+03
2.309028773089955394e+03
1.548773426886961715e+03
1.006556219102829346e+03
4.574452038118829478e+02
-7.045067576254938331e+02
-1.675551924710209505e+03
-2.257804053907302659e+03
-3.879174205093304408e+03
-6.035770947379029167e+03
-9.000570147235892364e+03
-9.284499373451051724e+03
-5.866458392381234262e+03
-7.835737284211481892e+02
-2.856931866639878990e+03
-5.466478678120391123e+03
-4.754244337544593691e+03
-3.823221988263993353e+03
-3.243612685650662115e+03
8.955164365831099360e+01
2.881427496447626709e+03
1.235153706298116958e+03
-4.367600891351274299e+02
1.311814744800886501e+03
1.741102949970693089e+03
8.473276448472832953e+02
-5.977984242834296538e+02
-1.343539664314979746e+03
-1.754109206643487141e+03
-1.827645633744576344e+03
-1.561236363325842603e+03
-1.219872287794372824e+03
-3.948076508370244824e+02
7.771666138280811538e+02
1.648746107605600855e+03
2.298943861657273828e+03
3.331420002833056969e+03
3.959902665674367654e+03
4.143142451685715059e+03
4.464987161459232084e+03
4.407581934183554949e+03
4.038145691002237527e+03
3.781798408669129913e+03
2.953260460899505688e+03
1.872365344269634761e+03
6.641047039648149166e+02
-3.445836545222898621e+02
-8.825292183435894913e+02
-1.358025592823945317e+03
-1.520353981467769017e+03
-1.280301839807648321e+03
-7.238296320292357677e+02
-1.569844969662557332e+02
6.599788357714595577e+02
1.617173002315648091e+03
2.466929738418505167e+03
3.273082092174880927e+03
3.618282522134106330e+03
4.014672256283559364e+03
4.269571542368030350e+03
4.401143264522226673e+03
3.807263225408217295e+03
3.320864960767142293e+03
2.698838306179827214e+03
1.551670242517433053e+03
6.872452490427838256e+02
-2.562818258466446082e+02
-1.133575440053392640e+03
-1.327898587933991166e+03
-1.339512342872289764e+03
-1.394286520645898236e+03
-7.020090295602999504e+02
3.836249695433536999e+01
3.536588055640580137e+02
1.032437260217748872e+03
2.249911073432906051e+03
2.966002618115449422e+03
3.579581966339867904e+03
4.210286593423047634e+03
4.302498321899587609e+03
4.016714800534689402e+03
3.858624807196144957e+03
3.089872093094246338e+03
3.097521496079792541e+03
9.036732038813552208e+02
-1.630727010389976613e+03
-5.192313904398114573e+03
-8.402110097315273379e+03
-8.827465931180502594e+03
-8.886364546704451641e+03
-8.367438322127583888e+03
-8.055518402207449981e+03
-7.119660648630685500e+03
-4.431179134298069584e+03
5.067982505094443013e+02
2.251838155379539330e+03
-4.589566379624799879e+02
-2.134723927046189601e+03
2.004650767333831254e+03
-6.837875217764376430e+02
1.503983296119946090e+03
-1.501090928353706886e+03
-3.113945735962657182e+03
-3.714586915163428330e+03
-3.441118161344209057e+03
-6.965100209558586357e+02
-4.180378495725422994e+01
-2.273154294813919023e+03
-6.660394668161471600e+03
-8.049494950851479189e+03
-7.936676587980702607e+03
-7.333039387633968545e+03
-6.500311830789277337e+03
-5.777192774908449792e+03
-4.719731523748620020e+03
2.799627648337063874e+02
3.563810939731082271e+03
9.758127706884611143e+02
-1.879991607622282345e+03
-1.700407265641994854e+03
-2.104273852668167820e+03
7.133433202266006390e+01
3.609403667279784713e+03
2.274961157535884013e+03
2.301859623470899351e+03
1.493931853044709669e+03
4.981155054805250302e+02
-4.955275849802040398e+02
-1.100894877199413258e+03
-1.068106625439923164e+03
-1.032212274206230859e+03
-7.791062943676688519e+02
1.843224524197705421e+02
1.220949853722501075e+03
2.006699605756773735e+03
2.623654631445225277e+03
3.888834010662889796e+03
4.607297688894536805e+03
4.952225215889942774e+03
4.900703501584281184e+03
5.109772674361137433e+03
5.044356704642072145e+03
4.439440241046655501e+03
3.524972683416024211e+03
2.687629744424399178e+03
1.221499730812875441e+03
2.078606664294474982e+01
-1.508549146401526741e+03
-1.745735613640081056e+03
-1.948863079010614683e+03
-1.856085099573435400e+03
-1.059192415351647014e+03
-4.443260543967373906e+02
5.773840947460944335e+02
1.988993445055734583e+03
2.528612103711616783e+03
2.952254363890606328e+03
3.848416500250175432e+03
4.274475769563073300e+03
4.475404084606712786e+03
4.457543871304335880e+03
4.597623886399307594e+03
4.205608299106830600e+03
3.698585871821787350e+03
2.552186563681221742e+03
1.537406771020686165e+03
6.930563372199976584e+02
-5.440063883090243735e+02
-1.200524652647157836e+03
-1.401574056957612584e+03
-1.275575975308273655e+03
-7.723900308202880751e+02
-3.965546044060037190e+01
1.024155188977354101e+03
1.654279734826213598e+03
2.508547722035812512e+03
3.538937835206302680e+03
3.971707395903059933e+03
4.649746160933883402e+03
5.105853232875029789e+03
5.368936743195086819e+03
5.192019880416769411e+03
4.528064955044008457e+03
3.577150246905680433e+03
2.511386144776373385e+03
1.145740593720286142e+03
-1.499274707280502810e+02
-1.137969022677369821e+03
-1.686517399577314563e+03
-1.569514620946212062e+03
-1.468836500673824730e+03
-1.229291885824404289e+03
-3.569311758324143398e+02
4.470748076943951901e+02
1.140663622214063025e+03
1.976799961922905595e+03
2.810589510794920443e+03
3.695090815128270606e+03
4.217237729478077199e+03
4.893029750075598713e+03
4.725436024134303807e+03
2.975546916596421397e+03
3.823077253390505348e+02
-3.737297671302159870e+03
-5.039326634050244138e+03
-5.799685465076047876e+03
-6.738308395719118380e+03
-7.295262884465285424e+03
-7.240681067923889714e+03
-5.247742934866480027e+03
-6.256246912288485873e+03
-7.464307157043386724e+03
-7.003890300689829019e+03
-6.403613430080420585e+03
-5.357758284790091238e+03
-4.597318937354029003e+03
-2.966199067583873784e+03
8.266454324004218961e+02
4.600331071186228655e+03
3.923895894682868402e+03
1.790341126591435795e+03
-1.740305551331289053e+03
-2.752026032585006305e+03
-1.937577524214368907e+02
-2.955668155564819131e+02
-2.444056679498086737e+02
-9.442062386362739517e+02
-1.943078801782979099e+03
-2.425079491066720493e+03
-2.083143546652469922e+03
-1.698270227000509522e+03
-1.582295527507364795e+03
-5.892066539684337840e+02
5.589839738128699764e+02
1.418351343408451612e+03
1.993965892621086141e+03
2.334907655394581980e+03
2.314352449203647211e+03
1.625500034586820675e+03
2.337320347084189052e+03
3.549793190897170462e+03
3.369961780501757858e+03
1.707933061077192178e+03
-6.912708242868269508e+02
-1.705618749583520639e+03
-2.824129851106223668e+03
-4.632832977623875195e+03
-6.283701170129352249e+03
-5.984726507498153296e+03
-4.668869344448802622e+03
-3.399993689914934748e+03
-2.914024443818729651e+03
-2.006920078496417318e+03
-1.296579793082539709e+03
-2.026952265725983352e+03
-2.614992802261089764e+03
-2.997602308389726204e+03
-2.265725064371400094e+03
-1.784239750229801075e+03
-2.599048993202452039e+03
-1.962095701164767434e+03
-4.843258771321307563e+02
-1.428666787661833951e+03
-3.455031578210512635e+03
-3.721521515886992347e+03
-5.415972737819239228e+03
-7.334235269281396540e+03
-7.455999278266242982e+03
-5.338336615418296788e+03
-4.329438309846908851e+03
-4.305232259244818124e+03
-2.782616209739896931e+03
-1.078800669402765607e+03
9.894034885690788315e+02
6.702801314312556542e+02
-5.818892663760223058e+02
-4.476078001936425608e+02
-5.418101184051969312e+02
-4.662044207455928699e+03
-7.289393619129607941e+03
-4.736221501462942797e+03
6.636125185815233181e+02
4.205203107012882356e+03
5.665553307031338591e+03
5.116609615385838879e+03
3.406419050430967218e+03
5.599616822873903175e+02
-1.852788316660487908e+03
-7.456788659378358716e+03
-1.121804641166955298e+04
-5.720657344018624826e+03
1.721454355440433801e+03
6.580330475395757276e+03
8.790973064192879974e+03
8.177480144624953027e+03
5.368902931345136494e+03
3.794259804112910388e+03
4.693577422295282304e+03
8.201822241752235641e+03
8.887937829340058670e+03
8.101030909080626770e+03
7.593160346650699466e+03
6.713316295466922384e+03
9.276502105664283590e+03
9.315656335230414697e+03
6.273819867756450549e+03
5.829871960740048962e+03
6.408560033322140043e+03
7.011839604241905363e+03
4.205777782022605606e+03
3.118339081530829844e+03
6.169436198713113299e+03
8.156123180815623527e+03
5.112364964065095592e+03
3.034262422709641669e+03
4.787799900399708349e+03
9.055938392609781658e+03
1.265763077832534145e+04
1.633692259732056300e+04
1.971573856825507755e+04
1.733698799157620670e+04
1.298276397411501785e+04
1.010897501695792380e+04
1.155553981407190986e+04
1.009441312802840912e+04
4.949506236550822905e+03
5.216975261071501109e+02
-2.145058860011038178e+03
-3.981956315153756805e+03
-9.318079942803948143e+03
-9.372372635112735225e+03
-6.302926601886351818e+03
-3.520895044342101301e+03
-2.184297635143007938e+03
-6.344871573295163216e+03
-6.964746177700319095e+03
-8.990306109506365146e+02
2.087224852243444275e+03
3.699956226252178340e+02
-2.059732764448380749e+03
-5.267214493280969691e+03
-7.968182826912605378e+03
-6.545717691849134098e+03
-6.093428770137400534e+03
-9.057533763243805879e+03
-1.294559275193190661e+04
-1.243627489434178642e+04
-9.837864880725483090e+03
-7.863605731056904006e+03
-9.909681404728764392e+03
-1.428333333770908212e+04
-1.321371882413918502e+04
-1.024657927835426563e+04
-9.814886498033953103e+03
-8.505568609866071711e+03
-6.481903746406253049e+03
-4.239665694707862713e+03
-3.313097860468777071e+03
-2.030017274058944167e+03
-5.173566004023347205e+02
-3.403662233343067669e+02
2.198050679528928697e+01
3.519986503091735131e+02
-1.381992359157486817e+03
-8.767650094386018509e+02
4.076635131747738114e+02
-1.850973309645351719e+03
-5.834994958995240268e+03
-6.718087885669213392e+03
-4.073243184822939838e+03
-1.831958643921306930e+03
-9.860814856106291018e+02
-9.099712354897964133e+02
-1.785725936110036855e+03
-3.111866822084155501e+03
-1.990337014768832887e+03
7.426510940333914732e+02
2.400144004579692592e+03
4.120860646845197152e+03
6.597551539972776482e+03
7.691450436428016474e+03
6.236722833447051926e+03
3.950419670803534700e+03
2.550412992801703240e+03
3.140654108799385995e+03
1.884145322643810005e+03
-3.591602424424970650e+02
-6.863249854164312183e+02
7.095690041657270513e+02
7.393960022360686253e+02
-5.968891640340542608e+02
-9.902882455126505192e+02
-9.176962350027652064e+02
-1.050118897042097387e+03
-8.925233370675322249e+02
-1.242845555205732580e+03
-1.858993968476539749e+03
-1.731927159287590030e+03
-1.588637624284495132e+03
-9.490871517167444154e+02
4.197369373377738384e+02
2.326886814573208540e+03
4.095416357788939877e+03
4.132292153761035479e+03
4.378660171619074390e+03
3.358349718717865017e+03
9.753625061841498791e+02
1.415759097492506498e+03
4.624748902650330820e+02
-1.315503084239106556e+03
-2.569195737207253387e+03
-2.795602842064831748e+03
-1.756165782157349042e+02
-1.831610631976996899e+02
2.540811691344811607e+03
7.653822837455742274e+02
1.925661895019850363e+03
2.410715488625960006e+03
2.816604488789135303e+03
5.026405366661112566e+03
3.418137302884056680e+03
3.171908898985852375e+03
5.562715508605765535e+03
5.628589597370497358e+03
4.841626373142724333e+03
1.839842143586876546e+03
-3.534783665330297026e+03
-7.737248443748696445e+03
-3.378562981040543491e+03
-5.122651413514822707e+03
-3.071511484515638131e+03
-3.076061537380251593e+03
-3.196255519617311620e+03
1.009275021002264339e+02
2.689667329001164944e+03
3.390044400898413642e+03
2.886067813319041761e+03
2.289735164471926964e+03
7.221517688499055794e+02
2.884303922071647435e+02
2.318677798254003847e+03
5.057948365358240153e+03
7.297321773809141632e+03
5.346840503780073050e+03
1.905506003807052366e+03
-1.063657514408423140e+03
-2.635684613364170218e+03
-1.211580770433656198e+03
8.926949824747719049e+02
1.041115053862799186e+03
6.917026298667518631e+02
1.255168517340546686e+02
3.955728657894663911e+02
1.877926509646565819e+03
2.778652153730771261e+03
3.148847620348868986e+03
2.692539214462789914e+03
2.713814543159510322e+03
3.175824585388782452e+03
2.561647850435014334e+03
8.827416161109426866e+02
8.410396240698541988e+02
2.042516802978853548e+03
2.709210901894851304e+03
2.263078765411456061e+03
4.760688537945877670e+02
6.771191144878961268e+02
-1.330635339247108050e+03
-3.760415664130622190e+03
-2.320152647349854760e+03
-1.900790088255662113e+03
-2.031363238846965942e+03
-2.065800293359831358e+03
-2.035119339431385470e+03
-1.002358085823745228e+03
2.341360536959932404e+00
6.101791583363601603e+02
1.392228902867252827e+03
2.008686433313325779e+03
2.369405485294529626e+03
2.026948640576983507e+03
2.197383494449721638e+03
3.088085549545895446e+03
2.835344238059652071e+03
1.349931699158634274e+03
1.766934971714279641e+02
-1.597541978418886401e+03
-1.848817976535048047e+03
-1.530058792891457188e+03
-2.595431713006743394e+03
-3.620986286757426114e+03
-4.230680839188859863e+03
-4.519485006478698779e+03
-3.483375699374812484e+03
-1.113306823291393130e+03
6.348236722702253019e+02
1.328895323979767227e+03
1.558890426965946972e+03
2.325897513293185966e+03
3.192026945373054787e+03
4.001337476919766232e+03
4.079764847861107683e+03
3.255306004577500062e+03
2.097973703511168424e+03
6.417271496651045481e+02
-7.106180506217867787e+02
-1.145188075670921535e+03
-1.540031419804046436e+03
-1.962114719167633666e+03
-2.039518112492412001e+03
-1.785294313678917206e+03
-2.101316839252531281e+03
-2.098561218211586947e+03
-2.127021774607987481e+03
-1.582769129924200797e+03
-1.117790129196915132e+03
-4.829661602513674552e+02
1.156082538555801733e+02
1.678782130817712073e+02
5.969509037536028018e+02
-9.370945679350310229e+02
-2.841413287746251171e+03
-5.084953036015957878e+03
-5.904681664308409381e+03
-6.189739049256947510e+03
-5.377343339133804875e+03
-7.594817420386401636e+02
-1.719165780509016486e+03
-8.118543598680043942e+03
-1.082669698361387782e+04
-1.035370817203977094e+04
-6.421445182940145060e+03
-5.621868129189681895e+03
-3.931873287473685650e+03
-5.783835220876482026e+02
1.468073937839354585e+03
2.203280140010933337e+03
3.572833247163760461e+03
4.715427847422207378e+03
4.847134867718720670e+03
4.323057589769846345e+03
4.201313743491698006e+03
3.745022036761731670e+03
2.895239151390169809e+03
2.318982639925971853e+03
1.944524588396747731e+03
5.037656562103132387e+02
-5.160858725305264443e+02
-1.467321713465519906e+03
-2.181881341481958316e+03
-2.056606467397095457e+03
-1.680267790741281033e+03
-8.046552167858594657e+02
2.472412298978044589e+02
6.472949943917036535e+02
3.532626988606051555e+02
7.463613001243500094e+02
1.610742914868932075e+03
2.204425789085229098e+03
3.075474800389414213e+03
3.808593737737481661e+03
5.533938251552121073e+03
6.551797327130304438e+03
4.940950637310856109e+03
3.012301337731105377e+03
2.030825078620750901e+03
1.095809134812204093e+03
-6.008626474469816685e+02
-1.468563992807384011e+03
-2.512240985554039526e+03
-2.312472829106421159e+03
-1.665288790992914301e+03
-9.879208565142266707e+02
-3.815915781865552958e+02
7.137082980205096874e+02
1.558938246986601371e+03
1.600099121873071681e+03
2.800687960209016637e+03
3.711946132192586902e+03
4.047850708395032143e+03
4.365086487623978428e+03
4.868868257139996786e+03
4.709537214561270048e+03
4.587127203381515756e+03
3.357556198682828381e+03
1.605772169729511461e+03
6.750567701442988664e+02
-4.979019797265193574e+02
-2.555376460863727516e+03
-4.993414267523665330e+03
-3.381945939682906101e+03
-2.159557843846034302e+03
-1.851485368917396954e+03
-1.808245142875714009e+03
-1.173653567658996508e+03
-5.273144385790440083e+02
-1.782150256320817562e+03
-1.441975799666007561e+03
-2.382664583064762155e+03
1.001384076038393800e+03
2.554152689024340816e+03
-3.905593915479744282e+01
2.857850078394330467e+03
4.196473698892306857e+03
3.276582025103180058e+03
1.293114453379395627e+03
-1.296639246476898279e+03
-2.295509672727851466e+03
-1.520885132175875697e+03
-4.491995786718187446e+03
-5.908712852318859404e+03
-3.944121570523568607e+03
-4.836286317466210676e+03
-3.232286426088049211e+03
-3.713073063500686203e+03
-1.613673187921630642e+03
-9.161433772209604740e+02
2.188610446221929578e+03
2.315668105732277695e+02
1.318700126951381662e+03
3.322161313997808520e+03
2.976755649540295508e+03
1.947371538900789119e+03
-1.815787202314139904e+03
-6.655840911603760333e+02
2.166733027257689173e+03
-7.051696212736836742e+02
-8.743460596789966530e+02
-3.437734688119631983e+02
-1.264478173154840761e+03
-1.529411042939692834e+03
-1.686466464400041332e+03
-1.474865505286892130e+03
-7.637750040093227426e+02
-3.311318875190352742e+02
-6.379767443404992946e+02
-2.522411961729591894e+03
-8.643666427178392269e+02
1.250334473347384346e+03
1.889776197415344313e+03
1.953886520835482315e+03
2.506467325650155544e+03
3.390652869154613199e+03
3.819481696521422236e+03
3.613760388206241714e+03
2.606325031919281173e+03
1.085243663249874089e+03
-9.154178077676854173e+02
-1.981819818910145614e+03
-2.503105701577952459e+03
-3.146322959837123108e+03
-3.469371583396867663e+03
-3.144003146153391299e+03
-2.006217753606924589e+03
-9.510107631386952107e+02
3.630580591444273697e+00
5.686428392489418684e+02
1.606973370959359272e+03
2.379524096895536786e+03
2.477295958550756495e+03
3.648610260586428467e+03
3.534050991783563404e+03
3.029447420859016802e+03
3.215893541048710631e+03
3.047432685440968271e+03
2.210213656708850067e+03
1.061331130806464898e+03
-1.181382325911106506e+02
-1.311620455988162576e+03
-2.311383787548459168e+03
-2.769107022695120122e+03
-3.151049312324811581e+03
-2.826891344545429547e+03
-2.342789495163237916e+03
-1.287661564996252991e+03
-1.224976296806158871e+02
7.175597133106176670e+02
1.740808920989028366e+03
2.140191102161484196e+03
2.368556711121042554e+03
2.622222031022042756e+03
2.892176441410657389e+03
2.650213266846481474e+03
2.049494336171752366e+03
9.354066256957045198e+02
3.398930180105174372e+02
-4.825212169519711551e+02
-1.338746494933086524e+03
-2.055822459653714759e+03
-2.973009368376844577e+03
-2.766492264614391388e+03
-1.651379258302297330e+03
-9.384958421574417571e+02
-9.467513733383103727e+02
-6.780782140816021411e+02
-1.253303218442531204e+02
8.364628092370571721e+02
1.713134969922705523e+03
2.600591585167535868e+03
3.367873050184302883e+03
3.727301380606432758e+03
4.179032257314616800e+03
4.326114870441900166e+03
3.830467262643971935e+03
3.387813543278735779e+03
2.689035315843090302e+03
1.686247875682985750e+03
7.415245753452461486e+02
-4.851187558540495957e+02
-1.625725797614022440e+03
-2.313396471942752214e+03
-2.584086339481645609e+03
-2.800731613447828295e+03
-3.283208641800121313e+03
-4.380512681679540947e+03
-6.851575661821380891e+03
-6.622286430101127735e+03
-5.377457152904285977e+03
-4.263144291713692837e+03
-3.123445046507133611e+03
-2.435333313370888845e+03
-2.011768991051872945e+03
-1.455801091350036813e+02
6.940948368586763308e+02
-2.316600343261437956e+03
-3.659648995412055228e+03
-4.499062967771797048e+03
-5.586775885037822263e+03
-6.223858020497035795e+03
-6.175361205155696553e+03
-3.564164333180970516e+03
-1.334433211221065676e+03
-3.061332380099986494e+02
-1.441893970157280478e+02
3.724210524980557580e+02
1.011748481842322121e+03
-3.371011377268188767e+02
-3.842026989628181582e+03
-2.742024836788260927e+03
1.984890369792219417e+03
4.191812101930297104e+03
5.216835538234856358e+03
5.031004564256286358e+03
4.412407685821709492e+03
4.605930379186113896e+03
3.680500199139115011e+03
2.364277198386355394e+03
1.351266420371909589e+03
4.804509721179758799e+02
-3.361737648806270613e+02
-9.767152160182949956e+02
-1.062261002540108166e+03
-1.213824335534696729e+03
-6.702387856951979757e+02
4.359992895438882243e+01
7.776721200771818303e+02
1.320996158444890170e+03
2.367614746619079597e+03
3.484642703745327708e+03
4.158187056824188403e+03
4.382344386120284071e+03
4.298120859175222904e+03
4.055532856323208307e+03
3.672515622143802830e+03
3.336067290051968030e+03
2.704181545470638412e+03
1.404830783777199713e+03
1.950095179444589917e+02
-7.882567500971645131e+02
-1.630983856584813793e+03
-2.176174998126950413e+03
-2.540868409862449880e+03
-2.553033253637377129e+03
-2.070694784855359558e+03
-7.108195261298233163e+02
1.956840010410360833e+02
1.116791135948052897e+03
1.982713726904944451e+03
2.236543799908662550e+03
2.542327325670964910e+03
2.945910128366649133e+03
3.442218968669666538e+03
3.782238072603106957e+03
3.368804338903686585e+03
2.874412410100979741e+03
1.973690040918673731e+03
7.990471283892345582e+02
-1.070806427140238384e+03
-4.068243573359609854e+03
-4.869127922974802459e+03
-4.897542482972829021e+03
-3.078816787572176509e+03
-3.097643397633190489e+03
-2.943978210275202855e+03
-2.625846216877191182e+03
-1.830267488377707195e+03
-8.221808823435700333e+02
1.225116463852231306e+02
1.494789516635336668e+03
2.198652558838738969e+03
3.172109881390750161e+03
3.696106504095356740e+03
3.760666736435849543e+03
3.215858810647760038e+03
2.517595765843432673e+03
1.451865262574541248e+03
4.225918806439781861e+02
-5.822951345752634325e+02
-1.895851023712838014e+03
-2.774178574164909151e+03
-3.118343202657107668e+03
-3.586321457461783211e+03
-3.717043915791839026e+03
-3.485554403664093570e+03
-2.929915500288992462e+03
-2.021105277228266004e+03
-1.136130437712717367e+03
-3.329559770901370257e+02
8.453264346916261047e+02
1.455714070312275908e+03
1.899389649650415095e+03
2.205412988054347807e+03
2.475663738470929275e+03
2.386104136078841293e+03
1.692784934065653488e+03
9.965943134625075572e+02
2.155404729806579383e+02
-1.048527506107804129e+03
-1.909736860742613089e+03
-2.676113333955244798e+03
-3.304663570657969558e+03
-3.760464663970143647e+03
-3.881548612715408581e+03
-3.444866172451260809e+03
-2.871499678497181776e+03
-2.090437462122895340e+03
-1.182631585070868368e+03
-3.580680351657558731e+02
3.582417755431914088e+02
1.047340775803740371e+03
1.614184790052583139e+03
1.825876430026989283e+03
1.157447380921499189e+03
9.727894982965452755e+02
8.138921240190239814e+02
5.108230759264187100e+02
1.426851764907601137e+02
-9.358714240365943624e+02
-2.418954819390950888e+03
-3.413528368575317472e+03
-4.129629602453149346e+03
-4.406359226519327422e+03
-5.042604026250790412e+03
-4.823207687679079754e+03
-2.877484991372470176e+03
-1.553290974219499731e+03
-7.497173789337017524e+02
6.565393344385762475e+02
1.980714988046491271e+03
2.661037025535464636e+03
3.282888875483405627e+03
3.478367240849296195e+03
3.691430245381819532e+03
3.153967742474384067e+03
2.836234483886678390e+03
2.185926978352185415e+03
1.203096180366128237e+03
2.887750987861181784e+02
-1.801649654204585715e+02
-7.304710020946477016e+02
-1.435656154846247091e+03
-1.692448174002555334e+03
-1.865886991985934856e+03
-1.674133092697524262e+03
-1.136451287169293209e+03
-4.262696859165713477e+02
4.761902663145428392e+02
1.514091790752602719e+03
2.750410432398117791e+03
3.528027202779508571e+03
4.029399707861002298e+03
4.280167357999167507e+03
4.446142250472123123e+03
4.582725227524883849e+03
4.387670669789557905e+03
3.414174845844609536e+03
2.064232914309273838e+03
1.421601699564964747e+03
5.052889254809628028e+02
-3.237192770851416412e+02
-6.714863401922664252e+02
-7.890399184309765133e+02
-6.163931881115893248e+02
-7.530954178506718222e+01
5.442380515516450714e+02
1.401112928251163339e+03
2.252374865121859784e+03
2.952046339169513885e+03
3.984165634290812250e+03
4.603700882446891228e+03
4.749688005616529153e+03
5.048162651789713891e+03
5.468193470086980597e+03
5.595850931378684436e+03
4.585172650756702751e+03
1.996170578650096104e+03
-1.993204034043283173e+03
-5.075940740554371587e+03
-5.758060615795327067e+03
-6.842628893832372341e+03
-7.154697683928877268e+03
-7.068295001060489085e+03
-6.966388029989343522e+03
-6.237893804518820616e+03
-5.403860392823936309e+03
-3.697283926018715192e+03
1.774084375595439724e+03
3.257104193876488353e+03
1.312991781745985918e+03
