-2.362998491084896159e+03
-2.631057096676589481e+03
-3.153754864351282322e+03
-2.175029389607274425e+03
-1.040744983675581580e+03
-8.889138625683226280e+01
6.712824554486286388e+02
1.673773310262099130e+03
1.970743205115026058e+03
2.122274241292137503e+03
2.201361673191882346e+03
1.762813421929642345e+03
7.376175169703226402e+02
-5.782226336787983882e+02
-1.111809146748718376e+03
-1.251239103999421559e+03
-2.078638909084198531e+03
-2.885305283509112996e+03
-3.003325064768859193e+03
-2.262804925736458699e+03
-1.381569516157630005e+03
-6.994583742166645379e+02
-3.250888473637863996e+01
2.249503461726019680e+02
7.715409446061117933e+02
1.296563685747316185e+03
9.806855472508570983e+02
2.293363068606990396e+02
6.239080219800601981e+02
1.284942081515797327e+03
2.289763385980118073e+03
3.768520533631141006e+03
3.890982872050369679e+03
3.039155216768042919e+03
2.992869212823260114e+03
1.073917189970414029e+03
-1.347891911889803396e+03
-2.189306662022464479e+03
-2.136802321360162750e+03
-1.389046469781320639e+03
-8.233738525241775505e+02
-1.243321719840848118e+03
-1.076003910306542139e+03
-7.667733978581199494e+01
1.333700685480699349e+03
2.787517162538492812e+03
4.727072654828547456e+03
5.807973867004819112e+03
6.192789786998854652e+03
6.532644103167457615e+03
6.325831584483033112e+03
5.020453191184052230e+03
3.726328354696686347e+03
2.875636700837388162e+03
2.859114893148026113e+03
2.178945290640196163e+03
1.231969830982540088e+03
5.031433762220977997e+02
6.595922048401789652e+02
1.490929348970285446e+03
2.677295731621173218e+03
2.594824682868364562e+03
2.240298250392666432e+03
2.535592058796667970e+03
3.362767417793472760e+03
4.338733735169829743e+03
5.002580856922493695e+03
4.974210135180574071e+03
5.294438517614677949e+03
6.247380926383272708e+03
6.168181908449425464e+03
5.976740049908959918e+03
5.655991510287318306e+03
4.700943379388165340e+03
2.925364757202673900e+03
-6.949035313664835485e+02
-4.635827147032220637e+03
-9.722223506629783515e+03
-1.055197689600235572e+04
-1.073827818306759946e+04
-9.521063902406087436e+03
-8.923229940196602911e+03
-9.855834297489440360e+03
-8.946875739324810638e+03
-7.038470771376266384e+03
-5.533637516107887677e+03
-3.718417611708212462e+03
-4.466504944976996740e+03
-6.302729472789099418e+03
-6.098362334983219625e+03
-4.304325784281569213e+03
-2.885946590190899315e+02
-4.641233377574391852e+03
-7.629305745071872479e+03
-8.112813003242185005e+03
-8.637040898303088397e+03
-8.943895485697776166e+03
-8.324298588595433102e+03
-7.113217823472357850e+03
-6.774497313847496116e+03
-6.924190325854480761e+03
-6.969285517194734894e+03
-6.716697182678236459e+03
-5.829410063064041424e+03
-4.906278729965918501e+03
-4.623455889583191265e+02
1.671416969235252054e+03
-2.963766523424864317e+03
-3.520747894353484298e+03
4.439183108434726677e+01
5.202491736297560237e+03
6.197576866322195201e+03
5.812842315648787007e+03
5.287080388927557578e+03
4.066333262787009517e+03
3.335894125685721974e+03
2.907800692588641596e+03
2.745935838329266062e+03
2.186224721410786515e+03
1.927733939672723636e+03
2.360619803292562665e+03
2.990974967217943231e+03
3.485913803792526323e+03
3.864545057633521992e+03
3.511903884161173664e+03
3.262034538827336746e+03
3.720894907288300146e+03
3.903564055264328545e+03
4.338203300410943484e+03
4.111922110920794694e+03
3.809749794545766690e+03
3.475624123978905573e+03
3.214526858157714742e+03
3.158524906943648602e+03
2.643626877509530914e+03
1.960772137709170238e+03
1.599950320069613326e+03
9.492656392197733339e+02
7.087834736312397581e+02
4.305853049752084871e+02
4.088945198282389129e+02
7.558238478045775537e+02
2.018410967605485666e+03
2.400452965526776097e+03
2.099333417884039591e+03
2.587229812595276599e+03
3.177200001587334100e+03
3.120308940108878687e+03
2.981564324182493237e+03
3.266998040804932771e+03
2.372853513648704393e+03
-1.566012641974376265e+03
8.692826851173444993e+02
1.713571170288352505e+03
7.240900853272760287e+02
-6.244218936179808566e+01
-2.738251672287195788e+02
-5.806282262483233580e+02
-9.889954201352791188e+02
-8.545829124671232648e+02
-1.354709047215147564e+02
3.732839586309165156e+02
8.949362763602275663e+02
1.173078447634151644e+03
9.553710446303180106e+02
1.054667103123353399e+03
1.565738781070683444e+03
1.371196443114871727e+03
1.324740713355362004e+03
1.697236658094706854e+03
1.646747643318004748e+03
9.832669777438924257e+02
5.907009314401966549e+02
-4.538881347037646492e+02
-1.697494983349395170e+03
-2.060208157192571434e+03
-1.814047831713957748e+03
-1.513075994253125828e+03
-1.526296876973341568e+03
-1.187776617651784591e+03
-7.795139868479390088e+02
-8.534697058291552594e+02
-8.056498076452763826e+02
-5.439278678287928415e+02
-2.562258669716165969e+02
3.874260141206706862e+02
1.299002688582261499e+03
1.951444287239054802e+03
1.976716400765228173e+03
1.726809510071695740e+03
2.101679811338779018e+03
2.057354298989087056e+03
1.915814340378492716e+03
1.305005173645520244e+03
1.051888541194620529e+03
3.423822520956986182e+02
-4.075750821069966605e+02
-7.220161966537815488e+02
-9.899631877334751380e+02
-1.449438480173130074e+03
-1.482495759556762323e+03
-1.107148083505449222e+03
-7.083153637966686347e+02
-4.550841497512183764e+02
-6.253694231976547968e+01
5.724108474408519669e+02
6.637895773105924491e+02
-1.906425617513995803e+03
-5.926240887954325444e+03
-1.009073073963147363e+04
-1.020099967433934762e+04
-9.709043201832604609e+03
-6.380745440688719100e+03
-3.223256262416181471e+03
-2.835777438160640145e+02
-7.108401231427195626e+02
-2.523902175570440704e+03
-2.685946561734766874e+03
-2.126979226977019152e+03
-1.901149452837553781e+03
-1.582443637091163509e+03
-4.399108627573446029e+02
2.184325520446762425e+02
1.277548228661743906e+03
1.413432474340167346e+03
1.580105688401646375e+03
1.964652381861314097e+03
1.794112997161363637e+03
1.987441789966649139e+03
1.847498859995572957e+03
2.331173478426287602e+03
2.377455751684126881e+03
1.706431648897179457e+03
1.510069315305664304e+03
1.385320228516637826e+03
1.125121404369209358e+03
-4.754913466728748972e+01
-6.616963360153833946e+02
-7.193577439210228022e+02
-5.776407941921837619e+02
-3.145084695424577035e+02
2.601395751208863061e+01
5.209192841220830132e+02
5.631635856797217912e+02
4.397387160192787405e+02
7.487211913365068767e+02
1.619184954244295341e+03
1.817102525727178545e+03
2.491398735201561522e+03
2.313051058676818229e+03
1.638186544813588625e+03
1.581843075965309481e+03
1.006966096967117210e+03
3.015672003506285250e+02
-6.703265675076954722e+02
-1.642739543020036763e+03
-1.297771872804004715e+03
-1.123442266744758172e+03
-8.016878992660991798e+02
-6.865172334468466033e+02
-5.890314156705029518e+02
-3.632166629993726588e+02
5.320053090292133220e+02
6.866015714407219548e+02
5.505081781205265088e+02
8.188046041628666671e+02
1.234619887373939946e+03
7.759618541308212798e+02
3.298641441274394879e+02
3.063860111155207733e+02
1.822557910950862379e+03
3.295337701803635809e+03
3.164670188103736109e+03
2.132632859672475206e+03
1.282278106962645779e+03
1.746013581906753416e+02
-2.454523312624744449e+02
-4.109707964852028113e+02
-1.867956764134435389e+03
-6.848303728950015284e+03
-9.105969202914122434e+03
-6.612954357171824086e+03
-1.739169222725301779e+03
-3.169534840596071263e+03
8.890621858989459270e+02
-5.693937768031526048e+02
-2.008890902132205611e+03
1.906499376066652303e+03
-1.616316556906505184e+03
3.067656704386840261e+02
-1.685220731935544336e+03
-2.015300991115352872e+03
5.696892933944012611e+02
1.509841827963288551e+03
-1.385943299111554325e+03
-3.996805084079372818e+02
-2.566360251230755239e+03
-2.759087255151731028e+02
-4.561157139663260750e+03
-1.568235941938864926e+03
-8.462456855550142336e+02
5.276205387780406397e+01
9.128471621361323969e+02
-8.019017358771188810e+02
-3.799270932449252541e+03
-5.287242759944764657e+03
-1.934009453512808932e+03
-6.395366446009056745e+02
1.086277391902996442e+03
2.821506968645884172e+03
-4.867679599015636995e+02
-1.094511096000626367e+03
-1.537652760211992018e+03
-2.879183347778237930e+03
-1.125950576361341064e+03
-1.440086161968697525e+03
-4.967402277426740511e+02
1.545283659749872641e+03
6.131168135237754768e+02
1.574827116943265892e+01
5.389511820391062429e+02
1.245549707803351254e+02
3.286509159933444835e+02
8.484722450523078123e+02
1.489531423098357664e+03
1.946601412806132203e+03
2.089422361795765937e+03
3.093168429773326352e+03
3.928668586079354554e+03
4.637603693317579200e+03
3.818169949872043617e+03
2.645822652448764075e+03
1.848588744866165371e+03
1.741784694002448305e+03
1.915960227971243285e+03
6.847324454718317384e+02
6.252072474478316622e+01
2.065621053156454252e+02
3.282290313243609603e+02
1.424042195743173806e+02
2.821728960855114110e+02
4.259526981041996692e+02
-1.579374312218128352e+03
-6.540249566339995226e+02
3.037609408907417674e+03
3.614657114584545980e+03
3.772643900367205333e+03
3.954590247668774737e+03
4.290129304144737944e+03
4.535983833889542439e+03
4.261664371377323732e+03
3.558775298636385742e+03
3.330403527678453884e+03
3.312560592769124469e+03
2.763919053128911401e+03
1.619928067498617793e+03
8.928377662619822104e+02
7.991406060993540450e+02
7.351519020447452704e+02
5.624081199250053942e+02
7.300832263423317272e+02
9.503496553290843849e+02
1.449842809039143049e+03
1.730662822172171218e+03
2.091894285182003387e+03
2.229364139401212469e+03
1.547198682527334086e+03
1.433656732133188825e+03
1.668457086970013734e+03
1.666979717555367870e+03
1.645218299165856934e+03
2.818506596582167731e+03
4.046839122282121025e+03
3.223367142625521410e+03
1.577367383666650539e+03
4.677006259785415523e+02
-1.169293714218876516e+02
-6.546214689112028964e+02
-7.274479019225151433e+02
-1.744219083145758020e+02
1.503520517953716649e+02
6.796729739595934916e+02
3.173294156857120925e+02
2.750696041476425080e+02
1.168905506278262010e+03
2.659323351817526600e+03
4.309646186698484598e+03
5.020572002425970823e+03
4.868899201765084399e+03
4.504399326553509127e+03
4.620239111748305731e+03
4.421391095731416499e+03
3.484789885298163426e+03
3.239616813818498485e+03
2.830088430629234153e+03
1.680384001268742622e+03
7.701739688972882050e+02
-2.691890015541978300e+03
-6.531141329585891071e+03
-1.107539660281072975e+04
-1.193027828829473219e+04
-1.149542426562195215e+04
-1.068956520506906418e+04
-9.705791442979281783e+03
-9.008253769333074160e+03
-8.161372819025906210e+03
-5.189145329261737061e+03
-3.682619865805744212e+03
-3.551166139495072912e+03
-6.350159874840915109e+03
-7.052512020297031995e+03
-6.529020163134890026e+03
-6.613809756278091299e+03
-5.734999095600443979e+03
-2.490403080527252769e+03
-6.231691673792241090e+03
-9.621641396486627855e+03
-1.053243154204363782e+04
-9.358927942181335311e+03
-2.602594903861815965e+03
-8.080015571459787793e+01
4.458371390793832347e+02
-2.401048671679799099e+03
2.068853316372767495e+03
3.106257339086511365e+03
2.787224923973461955e+03
3.246963520290599718e+03
3.705718530936181651e+03
3.670660592097981407e+03
3.703874310990518097e+03
3.852797785144406134e+03
3.465867733308594325e+03
3.142334909490692553e+03
2.473207237599344353e+03
1.761792180432959640e+03
7.119436054747554863e+02
-5.116120063116155734e+02
-1.366097466086668874e+03
-2.218696976646165240e+03
-2.327339206469686360e+03
-1.858345252031587506e+03
-1.322347225703152617e+03
-6.273107770070567994e+02
1.222528768848464580e+02
7.123618164977116294e+02
9.643976866785269522e+02
8.095860985411374031e+02
7.363324754031519888e+02
8.018079272141288811e+02
1.227100172872705116e+03
1.392974678385910920e+03
1.016660346656336174e+03
7.671937020912381513e+02
1.824252651654644808e+02
-4.835187099610993755e+02
-1.232476344515083156e+03
-1.870343828326500216e+03
-2.462251587259873759e+03
-2.726240279884180381e+03
-2.962561542441114852e+03
-3.118316579369270130e+03
-2.912451790643000550e+03
-2.429316599217769181e+03
-1.786553372633583422e+03
-1.080676852102469411e+03
-6.433689753190080864e+02
-6.333205718348996243e+02
-3.785649886641450621e+02
1.420116799922381858e+02
3.744808645045843036e+02
-5.024107933064232157e+02
-1.632371030472769235e+03
-8.967038477409602137e+02
-7.218652373162965432e+02
-1.016388846635791310e+03
-1.910830214766775953e+03
-2.647902988448480755e+03
-2.862560430191465002e+03
-2.954898498234674207e+03
-2.901853442344947780e+03
-2.798478563117587782e+03
-2.659777247501843249e+03
-1.962282302168679280e+03
-1.491829594930361964e+03
-9.317222204374787680e+02
-3.454628215476733999e+02
6.688176011581896319e+01
2.005830826867585586e+02
8.208376325047610180e+02
1.212125719147005157e+03
1.639209219398615232e+03
1.734163050301020121e+03
1.430766526550381514e+03
1.592082674137130198e+03
1.243099009089379479e+03
5.115751544305603034e+02
1.464213771646921032e+02
-3.534864891118177184e+02
-5.961055842460827989e+02
-5.481876192490107087e+02
-9.370712358960660140e+02
-6.261567257509328783e+02
1.657200690811101822e+02
5.884712692361343898e+02
8.665392477367308857e+02
1.159409726768161136e+03
1.890314395613955639e+03
2.962559520796744437e+03
3.375059764045689917e+03
3.623730478147927897e+03
3.803996022065045963e+03
3.928568345336008406e+03
4.001086057448955671e+03
4.300048311127216948e+03
4.280317339769055252e+03
3.599949734217065725e+03
2.877707012598909841e+03
2.477455542049431642e+03
3.032404589046563615e+03
3.095996044462009650e+03
2.543983972459517190e+03
2.124940935661921230e+03
3.109394458254557321e+03
4.170265092614695277e+03
5.105554596257656158e+03
6.007219254498707414e+03
6.647954483111654554e+03
7.186260309540232811e+03
7.126708899212805591e+03
6.954168671693266333e+03
6.972553458712794964e+03
7.270728703523325748e+03
7.613591363522821666e+03
6.839915229538755739e+03
5.449246647912160370e+03
5.028986447386564578e+03
4.391845070881122410e+03
3.596504873980585216e+03
3.613357187052891732e+03
3.442957525362473007e+03
3.811496821536454263e+03
4.906246957185189785e+03
6.564496615327697327e+03
7.912234081524251451e+03
8.801275407486418771e+03
9.783242351667267940e+03
9.921145977452508305e+03
1.012522792804402889e+04
9.983328953717125842e+03
9.545466746474650790e+03
8.463552430791420193e+03
7.400961503075677683e+03
6.728768457004603079e+03
6.582869010152211558e+03
7.430855682790338506e+03
6.908588455960826650e+03
5.541861667193291396e+03
3.494910083764269984e+03
1.842896131102751724e+03
1.708037531837612960e+03
3.799663833928490931e+03
5.859704695286201968e+03
5.425968010881237205e+03
4.438110775119320351e+03
2.848728786068993941e+03
1.193441134424461325e+03
1.167725765515724561e+02
-1.896199740067401649e+02
-6.788973921252406853e+02
-1.961091078910610577e+03
-1.590092079358964838e+03
-2.308177847951960757e+03
-4.709649832058747052e+03
-4.379146336838297429e+03
-3.444122505002110302e+03
-2.883956179064643493e+03
-4.864978272063626719e+03
-9.277153870262427517e+03
-1.333129508667527261e+04
-1.538249644734998037e+04
-1.125978704731698053e+04
-8.843040254307070427e+03
-8.616063061850882150e+03
-6.762806666855298317e+03
-6.980193930625470784e+03
-1.212705979724740973e+04
-1.676932009001795086e+04
-1.734376887459705176e+04
-2.051117694780565944e+04
-2.130138194200726866e+04
-1.663829948849020730e+04
-1.187976376040118521e+04
-1.326455030606302716e+04
-2.416152581469454890e+04
-3.290059712971669796e+04
-3.266858208820416257e+04
-2.858123306926937948e+04
-2.984233477360690449e+04
-3.270674983490896921e+04
-3.832289760865209973e+04
-3.896067025316687796e+04
-2.420516644561789508e+04
-9.216122918454371757e+03
-1.230310012640368086e+03
-6.745349140956283009e+03
-1.206693877156781855e+04
-1.012088937687438920e+04
-1.016790866290539816e+04
-8.183631831907263404e+03
-4.298795816237733561e+03
-1.917258024732930380e+03
-4.935754242218796207e+03
-4.863918749858756200e+03
3.085496963529236382e+03
4.549730827608068466e+03
1.137086946376902915e+03
1.327864920754352170e+03
5.610274058547874120e+03
1.185262233181097872e+04
6.185133069623901065e+03
7.832063607143063564e+03
1.249772337572360993e+04
1.204243364953468335e+04
1.962560737556881213e+04
2.266352736893060865e+04
1.709839424141927884e+04
1.054355930460604759e+04
6.905351736769182935e+03
3.329963727044064854e+03
2.020562926949487974e+03
5.545559730306592428e+03
8.427332769844570066e+03
8.931155607622684329e+03
9.838201866251671163e+03
1.120468032042973209e+04
1.364380323088026671e+04
1.609186089607719623e+04
1.625812454146061646e+04
1.411876235498159622e+04
9.134005871001061678e+03
3.190102988835501492e+03
3.542329192359157332e+03
8.529769844895099595e+03
1.084853331315370269e+04
1.118187643821904203e+04
8.606953411010214040e+03
8.224939490534121433e+03
6.963094045965823170e+03
4.169616081680578645e+03
3.555717858552881808e+03
5.552489326033514772e+03
1.119591052514347211e+04
1.358010995412051670e+04
1.176738478971384029e+04
4.848454281629496109e+03
-3.605008444482468235e+02
-2.634279958241927943e+03
-1.398924269966483507e+03
4.706506638575471698e+03
1.116193577865749648e+04
1.621839632336610703e+04
1.596306731592274809e+04
1.563587254005083560e+04
1.241059709730451505e+04
1.260029370333305815e+04
1.365118860118738667e+04
1.419987538546328324e+04
1.490609197738338480e+04
1.300021745396199003e+04
8.266626171294552478e+03
3.545201881366654561e+03
8.566609712433446475e+02
-2.536829113364315802e+01
-4.371928212050392176e+03
-9.544265327297223848e+03
-9.707535551835759179e+03
-2.286480465229981746e+03
1.091095062260057603e+04
2.154152010978967519e+04
2.427939366470882305e+04
2.133383223675532645e+04
1.694885739294527957e+04
1.316342256327931500e+04
9.670363404710022223e+03
4.998540012893314270e+03
-1.597156264595558468e+03
-6.668884023337979670e+03
-9.446766103858411952e+03
-1.068393332461941100e+04
-1.363360854511098296e+04
-1.495897721070073385e+04
-6.551285836228474182e+03
-1.345687591191100182e+03
1.976463642725539103e+02
-3.170554773120412392e+03
-8.555540425376369967e+03
-7.451568941985955462e+03
-2.671906827605796934e+03
2.429181929199472052e+03
-1.175659664699006015e+02
-5.424430911762859068e+03
-9.542620776398305679e+03
-1.418336110044646011e+04
-1.576984942439563201e+04
-1.801828862229757215e+04
-2.207297154548779872e+04
-1.894720636602983359e+04
-1.341522457142362509e+04
-8.469194409163294040e+03
-6.562431184852856859e+03
-3.861177147129469176e+03
9.635779887919846942e+01
4.612895351168937850e+03
7.216213793055891074e+03
8.829017902370487718e+03
5.697023739590530568e+03
-1.589060709264560728e+03
-1.168256564786174386e+04
-1.643276910509336813e+04
-1.949095613219605366e+04
-2.133536788803753007e+04
-2.322929000551512217e+04
-2.396396417730186658e+04
-2.272253557108538735e+04
-1.988815254876728432e+04
-1.239910690449887625e+04
-6.592710739646778165e+03
-9.732047489544382188e+03
-7.853240504167760264e+03
-1.473050321318171108e+01
3.319285292029935135e+03
-1.412912075524147895e+02
-1.072529900121078072e+03
-1.721762643428170577e+03
-3.052272332920633744e+03
-4.282207073087442950e+03
-6.029781443354092517e+03
-9.243206459402505061e+03
-6.349669699349739858e+03
3.945991251066467953e+02
4.442455479728176215e+03
3.174766412120866789e+03
7.264088006887195661e+02
2.988209326313995462e+03
9.205112487110616712e+03
9.607048198752605458e+03
8.042976320137355287e+03
8.264715100423598415e+03
6.282205627402131540e+03
4.661389241108625356e+03
4.127053558700219583e+03
1.894170653854164584e+03
-5.372561428793457026e+02
-3.705238170382116550e+03
-5.308862105452647484e+03
-1.618222973139002079e+03
-3.533687898655156800e+02
-2.831278683775513400e+03
-1.016027377956587202e+03
3.063269230103438076e+03
1.798599810628101523e+03
-4.433044239182003366e+03
-7.641633862109386428e+03
-5.538096507875137831e+03
-9.074115595239114782e+02
5.852499642859788764e+03
8.585748469090214712e+03
1.021146029869173071e+04
9.654661778145393328e+03
5.963416346089707076e+03
2.053744202549774400e+03
1.127784341089468171e+03
-6.584143416900628836e+02
-1.793824789045471334e+03
3.231544555704902450e+03
5.736676930891306256e+03
8.001866068604037537e+03
7.672357897914179375e+03
4.133227035275210255e+03
2.019432318030476154e+03
1.683082054477862812e+03
3.902274701119756173e+03
6.161100056335673798e+03
7.187680294147999120e+03
6.081307142106552419e+03
4.517258953519422903e+03
3.440660876374840427e+03
3.412636083413452525e+03
4.699259491477613665e+03
7.033682305724448270e+03
7.008144309706289278e+03
-2.210869808478925904e+02
-7.978954497536659574e+02
-8.670795648799378341e+02
-1.129383735708883250e+03
-9.107269531459045311e+02
-1.323957692871377276e+03
-2.773984511436773118e+03
-3.272955293414259359e+03
-1.494333411488860520e+03
-7.203915376371901402e+03
-1.109266829934429734e+04
-7.191400225317514924e+03
-3.068688084874887636e+02
-4.235950617395631525e+03
-2.774435825341282907e+03
-1.011069095807490385e+03
4.599404366537388341e+03
4.806114156582147189e+03
2.052224738377277845e+03
-1.971023548200044218e+02
3.848214823931576120e+03
1.493441232206112090e+03
1.773838779803954594e+03
6.810566602212588805e+03
3.728784873206881457e+03
3.083571044448991415e+03
4.758491498176479695e+02
-3.362318255971398685e+03
-6.374625947307972638e+03
-2.075841566048219192e+03
-2.067974811642777979e+02
-3.452260555114504768e+03
-3.330023167774262220e+03
-2.481052589902387808e+03
-1.363215441337414177e+03
7.357112012585726006e+02
3.215762735470042571e+03
-8.180439055694370154e+01
2.473199735320463788e+03
5.985472382282597437e+02
3.784262689710893028e+03
2.739463500578845469e+03
2.592491297398937604e+03
3.403679001012884328e+03
2.894095531978445706e+03
1.284694606783681365e+03
2.410450692253892839e+02
4.132836963457484103e+02
-3.274326411273810891e+02
-5.393084952406694583e+02
2.479679971641189340e+01
2.754293304712296049e+02
-7.426742291466592860e+01
8.448595896165794272e+01
6.468562127175193837e+02
9.957460265838709574e+02
1.836822525763944441e+03
1.965973412270116341e+03
1.913489231231900021e+03
1.316052939672468028e+03
4.196428580981551022e+02
-3.882930751169390646e+02
-9.336702533582629258e+02
-2.715196420277886318e+03
-2.448886500583694215e+03
-6.225845251387094095e+02
7.753822518071651757e+02
4.962030573641734321e+01
-1.470402889059700101e+03
-1.454395688217180577e+03
-4.702782812161246966e+02
-2.179618616191690705e+02
-4.904408545934631292e+01
9.935063804822376596e+02
2.674614205271468563e+03
3.167146054870314401e+03
2.968422604807974039e+03
3.090782453790709951e+03
3.006312921449278747e+03
2.877235338294720350e+03
3.051874118168576842e+03
3.365498734254546434e+03
3.059807059272316565e+03
3.121370643368239598e+03
2.708824821178507136e+03
1.608971042142359920e+03
6.971147936393633699e+02
-1.701029836115711760e+02
-4.593911475511250728e+02
-3.444600277356987590e+02
-1.010805120987289229e+03
-1.096288071654676742e+03
-5.109567026095934921e+02
5.380234983175063235e+02
7.446458800688361634e+02
7.576875473638665426e+02
1.080721190683095529e+03
1.842615264599575767e+03
1.918406366406776215e+03
1.225882508172790040e+03
2.089017063370617677e+02
3.432973817565909940e+02
8.469655851303327836e+02
8.809022544140570972e+02
-4.583452071615719348e+01
-5.900683269858129734e+02
7.642911530529462425e+02
1.715736905224998736e+03
2.187764507348460484e+03
2.943499534893051532e+03
2.464033638128177245e+03
1.374475637294138551e+03
1.680604117508893978e+03
2.136506918493912053e+03
2.458299269138976797e+03
2.558719994731174211e+03
-4.350302315930504449e+01
-4.666726535086469084e+03
-8.272852455610867764e+03
-7.747580207354633785e+03
-7.594496182781876996e+03
-8.003682836574856992e+03
-7.041369029594614403e+03
-6.410813996162736657e+03
-7.133496684986133914e+03
-7.995656643692682337e+03
-7.297451580766536608e+03
-7.724629475820094740e+03
-8.920130666581091646e+03
-1.107463732467346199e+04
-1.212140282951396694e+04
-8.583580108286763789e+03
-5.896154294751732778e+03
-9.968094727492914899e+03
-1.000317165396039672e+04
-1.004009350194489889e+04
-1.030376840094148247e+04
-8.700307012464318177e+03
-6.982764713136558385e+03
-5.078769316846564834e+03
-1.182244717285634806e+03
1.982475662457112549e+03
4.941732576950344992e+03
5.113867259471104262e+03
5.347861722064590140e+03
5.307147185901309967e+03
4.483175527473641523e+03
3.388204862662896630e+03
2.671308992392399432e+03
2.131505372012255521e+03
1.743084632970525490e+03
1.496395511116484840e+03
2.147449861481306016e+03
3.139222091548391745e+03
3.934667012321961010e+03
4.615960694066235192e+03
4.631099591520054673e+03
4.851328570357004537e+03
5.275802572726969629e+03
5.234800514969779215e+03
4.617782999002721226e+03
4.157029335608705878e+03
3.850023552689490316e+03
3.344536632856509641e+03
2.778574715522464430e+03
1.834712883266574636e+03
1.245237041661073818e+03
6.072159539145638973e+02
1.598721443507496360e+02
4.270805470729401918e+02
4.240240313477016230e+02
1.968914898290767042e+02
1.311765831272026901e+02
7.807461597231393853e+02
9.096308474165938378e+02
8.899872606271219411e+02
1.393802633831142430e+03
1.547071913188505278e+03
2.312718047787478099e+03
2.737866263219749271e+03
3.262473021258856988e+03
3.493913448563771908e+03
2.834860623400550594e+03
2.148096931336626767e+03
1.280427420234743067e+03
7.107761887219112396e+02
-2.587743668628491491e+02
-1.571121484618667637e+03
-2.251247715336954570e+03
-1.465400927469276667e+03
-8.446161904297064211e+02
-1.442200477976972252e+03
-1.465702268876224480e+03
-6.118240472245253159e+02
-6.900002830873544326e+02
-1.049741780045789938e+03
-4.378103342113830081e+02
1.476388859699053455e+03
1.947820787724884667e+03
1.711526532796536685e+03
2.100638527943159716e+03
2.299187450909319978e+03
2.129263503542158105e+03
1.723101645759410076e+03
9.723072910418947004e+02
6.642674953516666392e+01
-6.403577919677078398e+02
-1.111633335653730683e+03
-2.389227543535398127e+03
-3.283447516716228620e+03
-3.098603857352687101e+03
-1.959285780853010692e+03
-1.505278763662533038e+03
-7.046263736570850824e+02
2.568841457355016473e+02
4.739191408213764589e+01
-2.021481898820992456e+02
-1.435144165962509533e+02
8.513499175528753540e+02
1.303634202927651813e+03
1.286316348037836860e+03
1.360924652870864293e+03
1.602601558453190364e+03
1.884656248427163973e+03
1.420826319768489839e+03
4.478364701426058332e+02
-1.092935114514309134e+03
-2.778025292548400557e+03
-3.576547083782802019e+03
-4.103847255173548547e+03
-4.739282700586873943e+03
-4.699196440784499828e+03
-3.599255123997319970e+03
-2.679412073806198350e+03
-1.553485131021165671e+03
-5.411757879967511826e+02
1.353642204230481866e+03
2.440772453371011579e+03
2.678290056656719116e+03
1.660176848285708047e+03
-2.891427803888929589e+02
-5.465640564755808555e+02
2.988625943990908240e+02
7.642818675156223662e+02
6.469254823272929116e+02
6.018568127632146343e+02
1.848843794740659234e+02
-8.432790849790104630e+02
-2.575736870448451100e+03
-2.663458125702773032e+03
-1.542360424685344242e+03
-7.103889550605424574e+02
3.542429867117548525e+01
8.596912139363786309e+01
9.410639041677475802e+01
-1.832462779736269738e+02
-1.420066035603379078e+02
-6.765559244292826691e+01
3.825712822956983672e+01
9.797978239451102809e+02
1.633169353995692290e+03
1.888342823072873443e+03
1.611299611763558005e+03
-2.519957926477253750e+03
-1.564500233217552250e+03
1.064748976409349126e+02
-1.055294973728471888e+02
1.573212850878280165e+02
5.913500784492518960e+02
4.241539484365732164e+02
2.475281561664495200e+02
7.080588218215926872e+02
1.473793466686428928e+03
1.485097265427329603e+03
1.554887791291533631e+03
1.989677044192079165e+03
2.527503991712657353e+03
3.163862276667646711e+03
4.200186984438225409e+03
4.249204926917520424e+03
4.280441423763095372e+03
4.707435136529490592e+03
4.814919229216617168e+03
4.327030108030014162e+03
3.470856106601040665e+03
2.873426610138888464e+03
1.479971089000632446e+03
5.968483426802509939e+02
8.911121598864033331e+02
6.270275407968887293e+02
1.858193648354539107e+02
5.838925318417788191e+01
5.866333314828490302e+02
2.249441722423275678e+03
3.390215880294498220e+03
2.999705244447683526e+03
2.483314183972425781e+03
2.147135589562909445e+03
2.500359301191761460e+03
3.087838426494316991e+03
3.080460028196076564e+03
2.956197746817880670e+03
3.118090711291597927e+03
3.728052952336947328e+03
4.130996601847196871e+03
3.289948127493773427e+03
1.673769887430379413e+03
7.643676030023378871e+02
5.027073674626684578e+02
6.027951862268733976e+02
-4.444917845451927292e+02
-1.117193178222863480e+03
2.174341995319460707e+01
1.516183509037899285e+03
1.385130754750903634e+03
-1.233432803461391359e+03
-5.086458251958732944e+03
-8.755897906249143489e+03
-6.632765814445555407e+03
-4.647072874052995758e+03
-4.046630808763697132e+03
-4.608721893963238472e+03
-4.500514387159623766e+03
-4.157975843480190633e+03
-5.879013607123328256e+03
-7.521606786875366197e+03
-8.012860210156564790e+03
-7.865862711433665936e+03
-7.686573086497916847e+03
-7.964986757885272709e+03
-5.736179850594289746e+03
-6.012211356861259901e+02
-3.589988277145771008e+03
-7.627392666119041678e+03
-7.303415206532853517e+03
-6.913063934137151591e+03
-6.438350054378411187e+03
-6.530280211751786737e+03
-6.211786949554405510e+03
-5.469798807676012075e+03
-4.770337285087114651e+03
-4.351381013195967171e+03
-4.978850685667861399e+03
-5.371695341929933420e+03
-5.540855678801425711e+03
-4.658364324280408255e+03
1.607713646371151299e+03
2.812524031107824612e+03
2.017095694983637713e+03
1.710392194033989881e+03
1.593373939459683470e+03
1.438128791578865730e+03
2.250691063143183328e+03
3.015101596284167499e+03
3.726389781018257054e+03
3.574664944894283508e+03
3.511013920372838129e+03
4.111539326193327724e+03
5.415206402394955148e+03
6.103039924052392053e+03
6.165127824318288731e+03
5.754580490071328313e+03
5.058457718179829499e+03
4.321672642589993302e+03
3.291230225859846087e+03
3.033172597723353647e+03
3.306543677278026735e+03
2.687444564353472288e+03
1.757997683023651916e+03
1.636146561667609149e+03
1.832912941436917663e+03
1.227363596873226243e+03
6.065088257706764807e+02
8.015175986051798418e+02
8.286286483467831658e+02
1.364084701650010857e+03
1.752079934387940284e+03
1.944714777841092655e+03
1.837060523517235424e+03
2.511034576538380861e+03
3.746711163693570597e+03
4.772181859002298552e+03
4.470487210441063326e+03
2.890498577076770744e+03
1.945387429879894853e+03
1.897305959461335988e+03
1.876418045916931760e+03
1.041625748989986960e+03
5.371494757725603364e+01
-2.523051977046013405e+02
-3.353428543259163348e+02
-3.204577804059302935e+02
-3.034120634171110851e+02
-6.520608827468589652e+02
-3.565765864924142647e+02
7.650791744653973865e+02
9.618981264864042942e+02
1.241675407764925694e+03
1.648819832918473821e+03
2.083058290331537137e+03
2.784287027385511010e+03
2.634436653236645725e+03
2.082538336285215337e+03
1.907647898834016360e+03
1.701842195574424750e+03
3.891143760902767781e+02
-1.665502798490887244e+02
-2.071977175310117616e+02
-6.427597335654988910e+02
