2.121914561460192772e+02
5.601550224161826463e+02
6.668024645750386981e+02
1.049065762378089403e+03
1.607921062205558655e+03
1.344428595210451931e+03
8.203782127507346331e+02
1.535693684326221955e+03
1.864458473033509108e+03
1.742675434056358654e+03
1.505352724462814649e+03
1.307410150843222254e+03
8.427959551759331589e+02
-1.424902722078258819e+02
-5.453938086241803376e+02
-7.988876746651453686e+02
-9.110167464475479164e+02
-1.289852626876543354e+03
-1.223349440548412531e+03
-8.654417783532887825e+02
-6.740933413516263499e+02
-2.332673585865881307e+02
-2.493764678883533392e+01
4.607765254759348181e+02
5.968915892048734122e+02
7.843561511700237361e+02
6.981930645938937232e+02
6.615169330967393080e+02
5.302742918262637204e+02
4.844004999882716334e+02
2.809212229030369485e+02
-7.416879109876693121e+01
-6.618607976028988560e+02
-1.200155008667305765e+03
-1.605020105044187176e+03
-2.071493429926701538e+03
-2.439585234490997664e+03
-2.690337073435380262e+03
-2.948682814197843982e+03
-2.564631752995459465e+03
-1.637256300489208570e+03
-8.144839509159756972e+02
-2.693587325814178257e+02
2.171689096650250121e+02
7.170913946315370140e+02
7.973528550295770856e+02
8.680156180808919544e+02
8.501048251858771891e+02
6.496289144865983189e+02
3.659534518910056988e+01
-1.920644696369637359e+02
-2.073305284807262865e+02
-3.052718251221576224e+02
-3.628837833881717074e+02
-4.731845491487085837e+02
-4.592258103084042205e+02
-6.409803028351368539e+02
-3.974062075388241055e+02
-6.665417623868086139e+02
-5.183344303551003804e+02
9.323574606629608752e+01
1.070321618049036374e+02
6.410190096115837832e+02
6.701761179764009739e+02
7.058356077609702197e+02
6.949164778737225561e+02
2.783599043101862662e+02
-4.919015692640207931e+02
-1.081940888889037979e+03
-1.250759865087630715e+03
-1.139350605358513121e+03
-1.462761674499123501e+03
-1.752044380686666955e+03
-2.188025424315278087e+03
-2.583812555622885156e+03
-2.975295096942289547e+03
-3.342422309981515809e+03
-2.805131621346131396e+03
-2.520784735930354600e+03
-1.681282372098677342e+03
-8.223186124517944791e+02
2.649109907601305736e+02
1.073125173095971832e+03
1.639622390318500038e+03
1.937253967574430817e+03
2.043092215829819452e+03
2.056050433494898698e+03
1.850188790470627964e+03
1.644279964548298494e+03
1.717714793151405047e+03
1.545047608714460694e+03
1.147387182618876750e+03
1.058817333781048319e+03
4.994623474808595915e+02
-3.320842004496692113e+01
-6.882165011971125068e+02
-9.523075592651949819e+02
-8.781833713622653477e+02
-1.052993975712897964e+03
-9.119793682674144293e+02
-4.871800951632517922e+02
3.841301435803853792e+01
5.790834279022291184e+02
1.089733871491932632e+03
1.245379463481407356e+03
1.334146236465041284e+03
1.696886789716942076e+03
1.342372846200466256e+03
8.914761639487430784e+02
8.404928084770356236e+02
7.433086331150855131e+02
7.975239138755721342e+02
6.654557387138618196e+02
-2.990193955774402070e+02
-1.184921965951470156e+03
-1.626147718772830558e+03
-1.662720522481729404e+03
-1.269771307004451728e+03
-9.253888068202413706e+02
-7.325664590349582568e+02
-5.322956868049622869e+01
7.066507144872199433e+02
1.174058428333273469e+03
1.533991073983732576e+03
1.421585967436316196e+03
1.520781836266633945e+03
1.875476526963399920e+03
1.484763972391511970e+03
1.131704850784913333e+03
7.582564442550072954e+02
6.594783620749011561e+02
5.662652397494066463e+02
-2.841594249145364515e+01
-9.305624301171638990e+02
-3.993158304202558156e+03
-5.886240563581838614e+03
-6.389775328423697829e+03
-2.694776555538335288e+03
-2.545325844486012556e+03
-2.618425844529154801e+03
-1.910953424121315265e+03
-1.626909977926456577e+03
-2.882997390983176729e+02
-1.144132487641601301e+03
6.005797931849104998e+02
8.467942421771313093e+02
8.955861143353583884e+02
-1.296125142524438090e+01
-2.025835768112412779e+03
-1.960032590452647810e+03
-5.246437443872182484e+02
-1.736685503337922455e+03
-4.631578188787060526e+02
-1.971983861056395654e+03
-1.078239900470786552e+03
-2.371922214263026035e+03
-2.949975175301362015e+03
-3.370361700098829260e+03
-2.002053588802745026e+03
-1.852058399187446867e+03
-9.073936854137455157e+02
-1.587995337172445716e+03
-1.657748051469731536e+03
-5.955999529588672203e+02
1.008294498043489739e+03
9.890206671655046193e+02
1.025687428169703480e+03
1.187327815247463604e+03
1.488953275540754930e+03
1.594509542607574303e+03
1.198946748782194618e+03
8.652851625277991161e+02
3.844989273675317918e+02
-1.545285220872514458e+02
-8.197392279494239347e+02
-1.102045520077879701e+03
-1.827506917941323763e+03
-2.006217912226623184e+03
-9.101691186645778089e+02
-4.892427664591595544e+02
6.675087851592307331e+00
4.956239921553774934e+02
1.137788103657812599e+03
1.582254564778929534e+03
1.590989292126902228e+03
1.906890381638583222e+03
2.014841552922285928e+03
2.111855334116139602e+03
1.688988778963735967e+03
1.745525986305123297e+03
1.659719709593422976e+03
1.472489175159247452e+03
1.143073226478906236e+03
5.594777581121498997e+02
-1.234939317726908996e+02
-6.140439164454735419e+02
-8.593178933659442009e+02
-1.086654165358403134e+03
-1.485089984256815796e+03
-1.402401507893959433e+03
-8.795651502232730081e+02
-1.005444880257602875e+02
1.446757316406267364e+02
2.211545231820482513e+02
2.648354977214304427e+02
3.129008706125030699e+02
7.236402417630949913e+02
1.139602850303071591e+03
1.281386847227890485e+03
6.325668488892378036e+02
4.697842374176873932e+02
1.013110412789756992e+03
1.332680597178953803e+03
9.012869678739219808e+02
3.209048690752429138e+02
-3.445280088238810663e+02
-6.741944802525792966e+02
-8.079560061055458391e+02
-9.037942449440538439e+02
-3.127451064801263101e+02
1.202943654302946612e+02
2.925385915475738443e+02
5.878514727165825207e+02
5.200415624447064147e+02
5.771663681227504412e+02
3.634291543675091702e+02
2.159713562640971531e+02
6.718006276318464920e+00
7.249987680547093305e+01
-3.662142010971838602e+01
-1.605617966347304275e+02
-1.924663965330110500e+02
2.496258027912910791e+02
2.374811523596344216e+02
-1.890578524896459669e+02
-2.108503495984813014e+02
-5.449036021361902158e+02
-9.969974780410441326e+02
-6.969533978174692948e+02
-5.730392183571067335e+02
-3.615091724314877411e+02
-1.865443449984452684e+02
1.878094059811280374e+02
3.646007781162131778e+02
4.442084982681367933e+02
8.468711265336970655e+02
1.245601301801445288e+03
1.054185999345068467e+03
1.109880922558036900e+03
1.125736290796789262e+03
4.124710909620713437e+02
-1.318305638367186930e+03
-3.735325985888035575e+03
-5.633128936066334973e+03
-5.689996021408954221e+03
-6.469119261935944451e+03
-6.339612820234863648e+03
-5.920366769879236017e+03
-5.681249715144911534e+03
-5.425437113279736877e+03
-4.935298499925775104e+03
-3.805963905449963022e+03
-3.915291295468230601e+03
-2.941137914855836698e+03
-1.422601552485140473e+03
7.185972978448562571e+02
1.686685435489556539e+03
1.654509193547132782e+03
1.740709554007906263e+03
1.545279393600324056e+03
1.228460424165213226e+03
9.462930994914000848e+02
8.708068436498635947e+02
8.508040929258711458e+02
5.133930455690044710e+02
-2.315621691506147215e+02
-5.401772600696768905e+02
-7.294457495235834585e+02
-5.063758834527893669e+02
-1.158461386834909348e+02
6.242270060159507921e+02
9.739770167697203078e+02
1.553416747330042881e+03
1.857376732788541631e+03
1.420880501090970483e+03
9.230744142568631787e+02
8.858916760956228700e+02
6.702853245563049995e+02
3.903269591121521671e+02
6.503442789947575875e+01
2.373824936753171357e+02
8.525836454586352602e+02
1.219777944572682145e+03
9.308536401532022637e+02
7.064552629632000844e+02
-9.136249734341758710e+01
-5.762803320200115422e+02
-7.264472231113072667e+02
-1.017965645999181106e+03
-5.380085875157221835e+02
-1.383913011304455551e+02
1.850693405088327097e+02
8.394627258744958453e+02
1.581830392858015102e+03
1.694296001907280925e+03
1.946865736207623513e+03
2.172128230422858906e+03
2.146718521574327951e+03
1.715859322818970668e+03
1.461093594672720656e+03
1.549470252084787035e+03
1.184825635568093048e+03
7.351856686999649355e+02
7.936289950974176008e+02
5.533244702483111723e+02
-1.672606158506081897e+01
-2.266968815354200331e+02
3.950382760497262780e+01
-1.032211733846808556e+03
-2.897082272065452344e+03
-8.431363967820975631e+02
1.786633435498810911e+02
7.594744903750788581e+02
1.446487988671891571e+03
1.475871526263110354e+03
1.110710697058152164e+03
1.218883529143651231e+03
8.117110034042042344e+02
-1.245730272774768537e+03
-2.465152458111811029e+03
-2.403430467563419825e+03
-4.429290078279637441e+02
2.797787296996707482e+02
-1.250016445849776048e+01
-3.250901630701029262e+03
-4.405794564177649590e+03
-1.596618758717443370e+03
-8.807047509669321244e+02
-3.110334167607433301e+03
-1.710362535935528740e+03
-2.831352607954412179e+03
-2.285912467318018571e+03
-2.218185671080276734e+03
-1.453483331954712639e+03
-3.845379996965587452e+03
-1.224896985416668485e+03
-2.267556259097629209e+03
-3.013365575462703987e+02
-1.297557830272868387e+03
-7.189059461380456924e+02
-1.848984383263407381e+03
-1.535682148951507770e+03
-3.577141385370935041e+03
-3.146919348985418310e+03
-1.328462066053133185e+03
-1.901144809634426110e+03
-3.549969782008276525e+03
-5.977321282152018284e+03
-4.255386103955887847e+03
-4.013628799163050644e+03
-3.513430137418687991e+03
-8.957582382902412519e+02
3.973398929571721965e+02
5.975977408972903504e+02
9.015928428129249141e+02
7.747960820072313481e+02
1.114000260067725094e+03
-1.565659373750810914e+02
1.212755929964947200e+03
8.435204764946917066e+02
2.655490565966732674e+02
1.021376674749649283e+03
2.143057449656408608e+03
2.136782013735771216e+03
1.352658955901699528e+03
1.185022320829331051e+02
-4.912048103153181842e+02
-5.795613327289750032e+02
-1.337650445509394103e+03
-2.160110232365082538e+03
-9.757755650448015103e+02
-1.684970443236960591e+02
-5.585621888418213530e+02
-8.313345114765098742e+01
1.012185949760448921e+03
1.911397334393228675e+03
3.230666189271703388e+03
3.828331326532627372e+03
3.711925894322568183e+03
3.132114588913224907e+03
2.719172439948908959e+03
2.260602597373472690e+03
2.328560319077188524e+03
2.339695337196325909e+03
1.762437018400205261e+03
8.912919522016658220e+02
9.223166559358148788e+02
1.206131731397430713e+03
1.674661588222210639e+03
1.800709397904674006e+03
1.646295766497032673e+03
1.457271210803705799e+03
1.868878108995520961e+03
2.881149804157598737e+03
3.948042593007246523e+03
4.892109905672965397e+03
4.724177100702502685e+03
3.934548895335785801e+03
3.092358970369972212e+03
3.038901803747336999e+03
2.438225195758767768e+03
1.981345190805595621e+03
2.003932589101210397e+03
1.493484431411955256e+03
1.180616329810180787e+03
8.402222936641163642e+02
-1.309434342705371819e+02
-1.123010211827051535e+03
-3.781029781015562321e+02
4.205588522907875699e+02
-1.093543296026894495e+03
-1.873220756196155662e+03
-1.082962836732682717e+03
2.909259893879226979e+02
1.694253327635871301e+03
2.668088987681706840e+03
3.971266392690928569e+03
5.027455721823303975e+03
4.803694543053373309e+03
3.599126972843995645e+03
2.864808933476560924e+03
2.759744979760361275e+03
2.028823813155913058e+03
4.024041167969263455e+01
-2.730949812368186485e+03
-4.294989954308161032e+03
-5.318374613929521729e+03
-6.383848428209046688e+03
-5.532779436071826240e+03
-3.623974990422847441e+03
-2.381303343694670730e+03
-2.122184689329873436e+03
-3.003780095011627964e+03
-4.851909278478839951e+03
-8.299369211693825491e+03
-1.108625895173997196e+04
-1.169578850039709141e+04
-1.156787588426372531e+04
-8.109706636744615935e+03
-3.112394123675791889e+03
2.596382466231110584e+02
1.591578961519483073e+03
5.565907669259126124e+03
7.394449169387166876e+03
3.218335877336695830e+03
-5.630411818938055148e+02
-3.073623112122508701e+03
-5.789178869081679295e+03
-8.065283387969653631e+03
-1.052153488990429105e+04
-1.456556309901409804e+04
-1.603026701256168599e+04
-1.178338493816549999e+04
-3.425767870308127840e+03
2.661690375984465845e+03
5.178091799223479029e+03
3.035337041106968172e+03
1.450456017485894790e+03
1.943325803584747291e+03
2.585650373304744789e+03
4.808469897897297415e+03
5.114065065648428572e+03
2.398761690048216224e+03
1.486407716403724180e+03
6.871332318303358306e+02
-9.829596520958010615e+02
-2.093036331756164600e+03
-1.641143221406360340e+02
7.707468412222009420e+02
-1.698487271620536831e+03
-4.236688483394587820e+03
-3.851920870527029820e+03
-1.423016160613490456e+03
6.614569082389737105e+02
7.734856526869367599e+02
1.759844861171442062e+03
4.137467999418230647e+03
5.815052611437929045e+03
7.754341016301966192e+03
6.276678636019481928e+03
2.769190960055028881e+03
6.069778642428037756e+02
-1.252049900378272014e+03
5.912778992316938087e+01
4.924473133653082186e+03
7.315930427034148124e+03
6.704677691968349791e+03
3.843652216135061281e+03
-8.952123279810369922e+02
-6.218700052376168969e+03
-8.167749819667747943e+03
-6.824406420073754816e+03
-5.138758959312192928e+03
-5.813192604999077957e+03
-2.876300499811979535e+03
1.366334317800776944e+03
2.352665680503664589e+03
-2.374484349142012888e+03
-4.243070975763624119e+03
1.439040851394561287e+02
2.359303971644183548e+03
2.780876396221844516e+03
2.649939046824361412e+03
4.275576401962521231e+03
8.355630866905579751e+03
1.105513118120280888e+04
9.688265458026775377e+03
6.500963321529849054e+03
3.685940119243631671e+03
1.821435191744598569e+03
-5.122238848759430994e+02
3.656776707628015970e+02
4.449934272488999341e+03
7.400569012016155284e+03
6.009538741868972465e+03
3.768695268587961436e+03
3.676113263801608355e+03
4.681106188249338629e+03
6.571533516160114232e+03
6.293222545330664616e+03
7.223036152336628220e+03
6.956968251956122003e+03
5.352157743599523201e+03
3.278622889929673875e+03
8.383675427527878128e+02
-7.407206544482116897e+02
-1.188717136584972877e+03
-1.685240112899946610e+02
1.394227709934850054e+03
5.534865461408261353e+02
-2.369143177582199655e+02
6.739007842958585570e+02
8.479342372384647888e+02
5.722304863508685457e+01
-2.861672581646693061e+02
-1.003207029667846655e+03
-2.559021385398088114e+03
-1.571724522969429700e+03
1.451635081046335245e+03
3.608132171959855896e+03
1.084851561173548134e+03
-1.612333527241642742e+03
2.107228904091343225e+02
1.056054872278350786e+03
6.284950490429138199e+02
-2.781971967401495931e+03
-4.614252467093267114e+03
-4.359430098434654610e+03
-3.339546704704361673e+03
-1.620692847901678988e+03
2.133217120203992181e+03
6.677240094766552829e+03
5.733212515304183398e+03
-7.797027034120627604e+02
-6.002380312069962201e+03
-5.155906028417128255e+03
-3.578861877473847017e+03
-4.300255607359997157e+03
-4.999310377120100384e+03
-5.273077584476091033e+03
-2.902546099219768166e+03
-6.357839938228022447e+02
-3.986158101936788967e+01
2.516293619991995911e+03
3.737692159116368657e+03
2.263454610842688908e+03
-8.074131574196813972e+02
-4.495231098907648629e+03
-7.302900642264582530e+03
-8.969387474797902541e+03
-9.553538499810938447e+03
-9.347186477714893044e+03
-1.080733902707759808e+04
-7.926982068713063200e+03
-3.825122937699215527e+03
-9.312699179533216011e+03
-1.515171919167256056e+04
-1.371315916206575275e+04
-5.878209568092013797e+03
1.215206941436811576e+03
9.415157927969425145e+03
1.443993380556991542e+04
1.529045357906493155e+04
1.178729195580678606e+04
3.572614786536767042e+03
-5.133136101309877631e+03
-1.024496369130612402e+04
-1.148673122142116699e+04
-1.560983930964283900e+04
-2.593412462426614729e+04
-3.368554838722734712e+04
-2.969380667250702754e+04
-1.738634093933772965e+04
-1.481988770051951178e+03
-6.869953520567006535e+02
-9.550011021492589862e+03
-1.094027283531314652e+03
1.148305156873244596e+04
1.077523371598080485e+04
2.050822326271946622e+03
-6.544660482353496036e+02
4.872156218721637742e+03
1.255988508248865401e+04
1.752590677430871801e+04
2.176527501253731680e+04
2.088871598536495003e+04
1.451638114303440489e+04
6.608313083903065490e+03
-4.270729888971540277e+03
-7.102730510832305299e+03
-2.972555427563089324e+03
-5.541144307346758069e+03
-1.146440475649092696e+04
-9.513638860873163594e+02
8.053077741197156683e+03
1.323678739008868615e+04
1.654395520343549288e+04
1.412655236330805565e+04
1.243445012948901058e+04
1.379167019325900583e+04
1.808231489551649793e+04
2.137041686166152795e+04
1.831808680659875972e+04
1.394429048931665238e+04
7.658053956193427439e+03
4.958428192983848021e+03
4.144370717642478667e+03
5.038669907493580467e+03
2.434353300281226439e+03
-2.781441344074678000e+03
-4.380756888268004332e+03
-6.344613493330741221e+03
-6.424040116358218256e+03
-1.088092267066468821e+03
-8.626934475289039028e+02
-6.012804457485374769e+03
-9.058318807899308013e+03
-8.500296842067526086e+03
-4.682765272262624421e+03
-3.419713864907660536e+03
-4.655170324462844292e+03
-2.030106671580747616e+03
2.228498995616203047e+03
3.424587575562964048e+03
3.800054638419748244e+03
3.100874475278400496e+03
2.850473819023857232e+02
-2.251418684116690201e+03
-3.204499337013159675e+03
-3.968241073193114516e+03
-6.692713681662239651e+03
-3.616936793209665211e+03
7.903914021047722827e+01
-3.408721881322836907e+03
-8.841088937916330906e+03
-8.573984827914000562e+03
-1.065951348197683910e+04
-1.037773658643421368e+04
-2.553869844335255038e+03
8.860037068909907703e+02
-1.180142323715578812e+02
-6.249654722260618200e+02
-5.959866718086794208e+03
-1.366672967945994242e+04
-1.255559750955976415e+04
1.096372677325028690e+03
-2.032907340245722708e+03
-2.192311775284927990e+03
3.621028783832532554e+03
6.866934676750119252e+03
8.549398909973138871e+03
1.214236334026935037e+04
1.433974430241606024e+04
1.183847888548691844e+04
9.207497096635446724e+03
7.701841590982378875e+03
6.405563885377342558e+03
4.494529086801204357e+03
6.646265831575224183e+02
-2.126122677737575032e+03
-4.502694995134380406e+03
-9.680030966521007940e+03
-9.620260337841758883e+03
-5.673488780969243635e+03
-5.968738147737364670e+03
-3.286239178711358818e+03
1.976835732665480919e+03
2.076410535030261599e+03
1.105249895114389744e+02
-9.189096737406406135e+01
2.527132496760938920e+03
3.689831005575168092e+03
2.454303308712771013e+03
1.736404090962731061e+03
-2.280978284929572965e+03
-9.659237584874666936e+03
-1.143868788154147660e+04
-1.156037292584553870e+04
-4.843188915384017491e+03
1.266511553571023569e+03
-3.865177561540212992e+03
-5.273769545337204363e+03
-5.965185923548992832e+03
-3.080843673692717857e+03
7.263116993153561452e+03
1.127977132750564670e+04
6.910331752666535067e+03
2.523675894187769700e+03
4.955206385663345827e+02
3.205339128282572005e+02
1.564251033585653886e+03
4.239600924600916187e+03
5.056706303043596563e+03
6.802897812028561020e+03
7.942224264631156075e+03
4.723541610248520556e+03
1.772739754328654982e+01
-2.540381968816661356e+03
-1.603866982395345076e+03
-2.660583471171137262e+03
-2.215727020880131022e+03
-3.653617077768166155e+02
2.266100648805299329e+02
4.801140443921916017e+02
-5.142762632728328072e+02
-2.350545901236431746e+03
-3.483425563841933581e+03
-6.030879365116228655e+03
-7.472138918868927249e+03
-3.213407049112021923e+03
1.792262836758586445e+03
5.089018701387138208e+03
8.038795530023357060e+03
7.218447782398353411e+03
2.273967380997984492e+03
1.387246619075262970e+03
1.459580172264176326e+03
2.323095474386840124e+03
2.370689404591701077e+03
2.170381870565948702e+03
9.509251292312353598e+02
-7.660250559792093554e+02
-6.553572231744273040e+02
-1.434881562500112977e+03
-3.566375611645321897e+03
-2.988556732672378530e+03
-1.619276995272183512e+03
-7.017600082728325788e+02
-4.992270058893477653e+02
-5.947695844350033440e+03
-7.824010348510408221e+03
-3.981444590941664046e+03
1.928427162961083070e+02
1.976129579608109225e+03
3.374905111486240457e+03
3.736080877312392658e+03
2.130132372579946605e+03
-1.862827786722632936e+03
-3.319640660855217448e+03
-3.016259706486275263e+03
-4.528877088199189529e+03
-6.178691816354942603e+03
-5.446587282567450529e+03
-5.139219906261188044e+03
-7.959374622669137352e+03
-9.364934589515649350e+03
-4.963900050401769477e+03
-2.415177430334196288e+03
-8.189497463024277977e+02
7.745779528367195326e+02
1.258471862096864925e+03
-1.018732690317816179e+02
-1.056226951185472899e+03
2.183317009489623615e+03
4.357717967268001303e+03
4.921934155447010198e+03
3.785173722935553087e+03
1.894393877359389307e+03
9.446585094783010845e+02
4.091267895077629646e+02
-8.105039662785408439e+01
-1.819764470169001470e+03
-4.849960504464949736e+03
-6.732660411243328781e+03
-3.973910870192490165e+03
-6.867144052766489040e+02
1.012178092535956466e+03
5.878429541939470937e+02
-6.878610632256258839e+01
1.444175290047337796e+02
1.222590715138555879e+03
2.999846048780486854e+03
3.411309875811546135e+03
2.899134960744783257e+03
2.226145181537310236e+03
2.389154697096768359e+03
3.177295890289673025e+03
2.384969124392618596e+03
2.754263673892240149e+03
3.962874716094403993e+03
3.408916254738232055e+03
2.280558183116472264e+03
3.156144072701762980e+03
3.133624931211481908e+03
2.527923778306706026e+03
9.290171489216568261e+02
4.048638821097591176e+02
-7.367157136938745055e+01
-2.966732742925196817e+03
-4.375844697061393163e+03
-4.728380093129772831e+03
-7.123270624954973755e+03
-4.097900325722463094e+03
-2.527343564583113533e+01
1.307847470478453033e+03
1.961524622257703186e+03
3.403706720992438932e+03
3.802303792645593603e+03
2.668375555645026452e+03
2.437916832854248696e+03
2.717783412188924558e+03
3.064169705855149004e+03
2.099285928075148604e+03
4.922595520370441022e+02
-1.047741784344666712e+03
-3.029685913360405721e+03
-3.277581517543549126e+03
-2.034455880899510248e+03
-1.297341493136024155e+03
1.139268769417981559e+02
9.420511439848000919e+02
4.069317717142412221e+02
-2.096041387989988891e+02
3.766476618767019318e+02
5.441162374435098172e+02
6.012240552992386711e+02
2.678565833462740216e+02
-1.062956946161270650e+02
-3.631561250385134940e+02
-2.484439839910010051e+03
-5.007803259758273271e+03
-5.742726292185771854e+03
-3.053957466715279679e+03
-7.356215480607251038e+02
-2.156972393507757715e+03
-2.398700071140428918e+03
-1.567178822826129363e+03
-2.194538881935630172e+02
4.635619086713560364e+02
-5.719566746486119655e+02
-2.313571955550371968e+03
-3.053293136151070939e+03
-2.528283492447556455e+03
-2.866874086898327732e+03
-2.032593128271267460e+03
2.024360925350944171e+02
1.178920276499474312e+03
9.134804803198098853e+02
5.613556985359508644e+02
9.422513912684190700e+02
3.942236635862678895e+02
-1.278241083584612703e+01
-1.640975350216594109e+01
7.128524200727570133e+02
6.922394003283683332e+02
-3.258804579318489800e+02
-1.039977166183499776e+03
-1.215666234435302158e+03
-8.745051747434514482e+02
-5.811557818751529112e+02
-1.033941260252634038e+03
-8.349358847808848623e+02
9.896734527111600244e+01
2.297798777213146195e+02
-2.030363736813952471e+02
6.509069318427228801e+00
4.171243961070557589e+02
1.835108215371635083e+02
4.766061107624790338e+02
5.988910704183391545e+02
1.470478317756140314e+03
2.318594286526016731e+03
2.363033607847829444e+03
1.554572623819578894e+03
6.831211266268409190e+02
1.832771632651565028e+02
-1.689431725603713801e+02
-3.811476105748016607e+01
-2.730674779789192144e+02
-6.267584634364675367e+02
-5.346627057749257119e+02
-6.094271148172333596e+02
2.263442584058773264e+02
4.865787577295843107e+02
2.929968642228304248e+02
8.101944970936104937e+02
1.116303963535499179e+03
1.286452599014001635e+03
1.420240364648045670e+03
1.805431969270453692e+03
1.299222975928774758e+03
8.016182611285109942e+02
8.335517325405749034e+01
-8.172137088559026097e+02
-1.460007021714584880e+03
-1.980967770527845914e+03
-2.490436668575560816e+03
-2.759363514353626670e+03
-3.376052605398774631e+03
-4.066622758572086241e+03
-3.539506334886915738e+03
-1.632468640394891281e+03
5.150937258800922791e+02
2.142328874167777485e+03
1.580096116247606915e+03
6.307298953331220446e+02
7.574202397822407420e+02
9.774184702842810566e+02
1.484362344194040588e+03
1.673707778995156104e+03
1.616918169551058554e+03
1.862410107077920429e+03
1.871754926053882627e+03
1.693090396563248532e+03
7.651910365810618941e+02
-5.375170562108254444e+02
-5.729795936837429053e+02
-2.521150735164972048e+02
-4.271638529587094695e+02
-7.506109023592138385e+01
2.165791923665751426e+02
6.858373866419639171e+02
1.537680720478368357e+03
1.747100829956571260e+03
1.850173196390264138e+03
2.335086684524182601e+03
2.364842586355759067e+03
2.594444384070985052e+03
2.672160755376061843e+03
2.430610047937080253e+03
2.436430162472247048e+03
2.226906438243536741e+03
2.064809599809118026e+03
1.455810454820449195e+03
1.355250571938526264e+03
-2.156380203918239715e+02
-3.236932629043530142e+03
-5.333869255332723696e+03
-5.778381647622055425e+03
-5.482273564088255625e+03
-4.922503261885190113e+03
-4.589759431357666472e+03
-4.716662382261656603e+03
-5.137498753249594301e+03
-4.825368974160907783e+03
-4.856866720789153078e+03
-4.192053824720789635e+03
-2.496013930390246514e+03
1.046987548047058226e+03
9.639170128341444297e+02
-1.271484609931862451e+03
-2.345917578854835938e+03
-5.410328295840574810e+02
-1.811134210232747591e+03
-4.512072929276490868e+03
-4.951925509982827862e+03
-4.805768995057837856e+03
-5.209728188259740818e+03
-5.917914371061357997e+03
-6.492181879200711592e+03
-5.692562608928048576e+03
-3.805933541682833038e+03
-2.068891505895617684e+03
7.648110343267347844e+02
2.163166159640419664e+03
2.981938080296664339e+03
3.381333341915783421e+03
3.516322334979098741e+03
4.438765283428517250e+03
5.436745407893641641e+03
4.703402023949925024e+03
3.876844372589321210e+03
3.212253899062900928e+03
2.595637551939067180e+03
1.944191253086803499e+03
1.382928479030313383e+03
6.084077999773571719e+02
2.605177609125029790e+02
3.883596077999927161e+02
8.459533099328444905e+02
1.422624838387766431e+03
1.676835831241834057e+03
2.713378682220217343e+03
3.044260624863005432e+03
2.817454813828864189e+03
2.724042401810452247e+03
2.650162988258086443e+03
2.594936199501008105e+03
2.470418062159179499e+03
1.917541848652273075e+03
1.323467167380794081e+03
1.354372790478874322e+03
1.325130352575811230e+03
7.067021392306176040e+02
2.601322118349130506e+02
1.675155002676675622e+02
-3.455903539909785422e+02
-7.483577534591194080e+02
-1.260184527759860430e+03
-1.058124921625793604e+03
-1.027980072064648766e+03
-3.386968252064600620e+02
3.885507136055121435e+01
3.148910603946868605e+02
9.316982474199637636e+02
1.370156259770267070e+03
8.540747593614266862e+02
3.915755529547390665e+02
3.608817569123430076e+02
2.840458674628168296e+02
-8.692069645986329363e+01
5.289651992954148341e+00
-1.674122129957464153e+02
-8.653420302662823360e+02
-1.700311516103360418e+03
-2.102501402479895660e+03
-2.657968344127931232e+03
-3.119643533747003858e+03
-2.675385306238243629e+03
-2.203146756914736670e+03
-1.633255056296966814e+03
-9.136005675203689407e+02
-3.003600701374420723e+01
1.083589446311328629e+03
1.299413205486720244e+03
1.196328406618402596e+03
1.281354580706341039e+03
9.815347745141984888e+02
8.829583543010661515e+02
5.267347777550997989e+02
2.458012404436835538e+02
-5.918467877222560958e+01
-3.613173853727568030e+02
-7.545188333281133737e+02
-1.212625093630850415e+03
-1.568642087681833118e+03
-2.167600637791618283e+03
-1.893601280515887311e+03
-1.204756113339556123e+03
-2.889759259479206435e+02
2.237978867869163366e+02
1.806520860281879663e+02
9.455276176999767586e+02
1.493346893136371818e+03
1.624225864840057511e+03
1.465105730356099684e+03
1.337889826225663683e+03
1.397672572381782629e+03
1.671479973893406395e+03
1.481116902438232955e+03
1.440610659670129508e+03
1.310999700079438071e+03
9.523673861602052284e+02
8.455617046826732803e+02
-7.544831835955680788e+01
-8.664494561377700848e+02
-9.925569869592867462e+02
-1.226887851828395014e+03
-1.625287203633645959e+03
-1.709201138882244095e+03
-1.521822511303241981e+03
-1.225990364234754225e+03
-1.912715486920962121e+03
-1.413092846007929893e+03
8.187661680360122318e+01
-1.506973376809236811e+02
-4.599505984678091295e+02
4.499978178200945536e+02
1.019107078612058899e+03
5.644441281313414720e+02
2.050401264080500141e+02
-2.241391359444752140e+02
-6.970559688053573382e+02
-1.196865602145171806e+03
-1.833718807189024346e+03
-2.661651714956614796e+03
-3.252787566237179817e+03
-3.337122824446265440e+03
-2.753607199321686039e+03
-1.335309107042299956e+03
-3.943713042059592340e+02
9.202365899598909209e+02
2.200455561756190491e+03
2.700239517563644313e+03
2.616564300921850190e+03
2.563342357702788831e+03
1.923734646591258979e+03
1.385747765579738598e+03
1.149249532194405674e+03
9.989048393878215393e+02
5.696240184481800952e+02
5.476177797947210593e+02
5.937690389423459010e+02
4.449608968770294268e+02
1.307920883107470367e+01
-3.849346218308315315e+02
-5.389868097495476604e+02
-7.540056505005201188e+02
-8.221200052421551163e+02
-5.175276370206851198e+02
2.007825316518960221e+02
7.666872677320072853e+02
1.456049965729707992e+03
2.160884745274197030e+03
1.986232215758412167e+03
2.143048847738115001e+03
2.172252627512454637e+03
2.128894621468903551e+03
2.128930061166644919e+03
2.426353339778583631e+03
2.581025775296697248e+03
2.263894279617061329e+03
2.466015880217151334e+03
2.268373296781422141e+03
1.525913422906868846e+03
8.745761499661357448e+02
5.492901187372436880e+02
7.041036378989327886e+02
6.329132527925502245e+02
1.826110735319485059e+02
3.032779478515571441e+02
8.710010404386507616e+02
1.112731971162763784e+03
1.601443981862830469e+03
1.654275843906222690e+03
1.901074436532874870e+03
1.582753655010155626e+03
1.080237512693197459e+03
5.764881150639878342e+02
-1.300427474149426871e+03
-2.646499183445467679e+03
6.293222403056547591e+02
1.446023476995031160e+03
-2.329407191971794873e+03
-5.144042519729095147e+03
-5.768783357474307195e+03
-6.034611363591844565e+03
-5.667618252909510375e+03
-5.737790153953927074e+03
-5.163227879766523984e+03
-4.181822401990342769e+03
-3.858506117886896845e+03
-3.052352769114263538e+03
-2.398331266255191167e+03
-2.216382408106802359e+03
-1.954456395198966902e+03
-8.595590277960055801e+02
4.793172276584026577e+02
-2.412917764163713400e+03
-3.407035499564004112e+03
-3.457010615108736147e+03
-8.318807895532313523e+02
-1.928580770198514301e+03
-4.837085346737411783e+03
-5.847384620508719308e+03
-6.657391862056042555e+03
-7.058126572208630932e+03
-7.201712084455388322e+03
-6.957260783712114062e+03
-6.896801646005556904e+03
-5.908285708890013666e+03
-4.022453041418752946e+03
-1.589123229875270681e+03
1.031632978532416928e+03
-1.002356061073879374e+02
-8.036957592940442510e+02
9.212667836792479648e+02
4.227661063665644178e+03
4.608502092405039548e+03
4.691807502162630044e+03
4.817639187948555445e+03
4.637154696994523874e+03
3.986495847882438284e+03
3.597578299486060587e+03
2.789361872008286809e+03
2.170856395989715566e+03
1.781074364433735354e+03
1.677074243566491077e+03
1.862816293934677788e+03
1.928297807876696425e+03
