3.548171631252956286e+04
3.445533813674271369e+04
3.676674110961564293e+04
3.672994558652532578e+04
3.625577491161387297e+04
3.817204636826593196e+04
3.934771532564551308e+04
3.645369677696227154e+04
3.833177666019562457e+04
4.102691607905851561e+04
4.178297513463786163e+04
4.094766982745681889e+04
3.816183869074238464e+04
3.544942700527678244e+04
3.689337206731780316e+04
3.529241664541570935e+04
3.170652791246242850e+04
2.900164870782889921e+04
2.592851643872743443e+04
2.343701547076716452e+04
2.249000986952477979e+04
2.191534803936999015e+04
2.099100693956998293e+04
1.919898178455575908e+04
1.580516946342131450e+04
1.235251877980377685e+04
9.021758742754927880e+03
8.417896010843338445e+03
7.923075042410546303e+03
7.501997383390781579e+03
9.248431993801154022e+03
9.128166558123557479e+03
8.673208484238939491e+03
8.606569342570141089e+03
8.997340441568429014e+03
9.594449885780270051e+03
8.947889734441410837e+03
6.801242514722088345e+03
5.806754746223110487e+03
4.785241074988172841e+03
4.867440604934663497e+03
6.194973876894771820e+03
5.325055238009915229e+03
4.039654988850250902e+03
3.549843812591086589e+03
2.939734886797591571e+03
3.016521670465764146e+03
2.875681699609579482e+03
1.792626414676722334e+03
5.856003098356516148e+02
3.398880383513675270e+02
7.382969474221963537e+02
1.351558130079040666e+03
3.373126977845580768e+03
6.035179736909780331e+03
8.222891981498883979e+03
9.085129576477076625e+03
9.099601089092839175e+03
9.017392788292561818e+03
8.730554442018852569e+03
8.681120280514447586e+03
7.956992513454337313e+03
7.178663760671517593e+03
7.182181585751723105e+03
7.059998719975809763e+03
5.924736885925719434e+03
5.036479338162062959e+03
5.012677835728607533e+03
5.154394998789154670e+03
4.138507790819997354e+03
2.378819649033624046e+03
6.241233022581283194e+02
6.311173242895729629e+01
-8.114323029930880011e+02
-2.686690134294798554e+03
-4.016790097798084389e+03
-5.015493616168478184e+03
-5.582118492000804508e+03
-6.291255210411973167e+03
-7.592287308201234737e+03
-9.346468350875067699e+03
-1.043130146215086643e+04
-1.049912462042306652e+04
-1.105032024460189314e+04
-1.057926986075926652e+04
-1.015176276536053956e+04
-1.095025400973968863e+04
-1.165310858242566428e+04
-1.221435687923339719e+04
-1.300361002789192389e+04
-1.401318515122480858e+04
-1.550145641264275946e+04
-1.691100660189949485e+04
-1.817126860345337627e+04
-1.832765918897051597e+04
-1.653869880399849717e+04
-1.520480318256735700e+04
-1.480920797150656108e+04
-1.501941556030053289e+04
-1.586029264597230940e+04
-1.651426769448431151e+04
-1.701762401799450527e+04
-1.611302950455603786e+04
-1.517297144916741854e+04
-1.486672614483514553e+04
-1.425498901836219557e+04
-1.352577306752714503e+04
-1.356584218051982498e+04
-1.296851398328086543e+04
-1.200510545787521733e+04
-1.097537341674557501e+04
-8.271811034225127514e+03
-5.020870351863924952e+03
-3.339315793400768598e+03
-3.680845745898866426e+03
-6.723015046542066557e+03
-6.966386345852210980e+03
-5.244850147002560334e+03
-1.737216287545265686e+03
5.068816389108927751e+02
1.116796260811808679e+03
1.581565450052361712e+03
1.812280045321610714e+03
2.623315661675489082e+03
2.956786733144347636e+03
3.542670863203624322e+03
5.393910022221113650e+03
7.312564176495643551e+03
9.431738094393549545e+03
1.096629910968949844e+04
1.263402180146400133e+04
1.487696186173888054e+04
1.749920999343087169e+04
1.908477769042883301e+04
1.888665694604773671e+04
1.817501130343883051e+04
1.928265500809402147e+04
2.025835323170017364e+04
2.025196831156525150e+04
1.921025231841516143e+04
1.915000587189808721e+04
1.988096589300304549e+04
2.001073465858324198e+04
2.059192511468463999e+04
2.144929009644679172e+04
2.077845647243445637e+04
1.945997761387506398e+04
1.865944661360690588e+04
1.795932551659619639e+04
1.753008714379681624e+04
1.767422109458438717e+04
1.743527835183515344e+04
1.811277792504529134e+04
1.827239808340558375e+04
1.823962940826601698e+04
1.768268627734640540e+04
1.619699477472523904e+04
1.422995005732282334e+04
1.283091345998142970e+04
1.131134885391691023e+04
1.026163096050962668e+04
9.939125936404992899e+03
9.276160069365836534e+03
8.881008294773373564e+03
8.808945942257487332e+03
7.945056357833891525e+03
6.660106551875731384e+03
4.889285705060533473e+03
2.183526846591471894e+03
2.168263612135754556e+03
1.309956183429407247e+03
2.314877421367139505e+03
3.387802209197333468e+03
2.875958281870224255e+03
3.097671419365154634e+03
3.004708521568852575e+03
2.769239166890522483e+03
2.493625297446421428e+03
2.365053904962458091e+03
1.470727782540829367e+03
-4.443272422698814239e+02
-1.775158325870216458e+03
-1.348625640321178707e+03
-1.433501001501509336e+03
-1.815993169660198646e+03
-2.068152647225205783e+03
-3.106948729925920816e+03
-4.304205269054006749e+03
-4.485722447068083056e+03
-3.702296660402470025e+03
-2.622792011814643502e+03
-3.265217859054618202e+03
-4.266542345860883870e+03
-5.168566282426442740e+03
-7.014110786494794411e+03
-8.077133912437549952e+03
-8.979507181412247519e+03
-9.570081711512113543e+03
-8.643841432314204212e+03
-8.511632851738973841e+03
-8.338078853078128304e+03
-8.615139092312272624e+03
-1.015784855667829106e+04
-1.095619043099914597e+04
-1.023522799076390402e+04
-1.010888039041638149e+04
-1.119501168657616472e+04
-1.248386873338351143e+04
-1.297162182326097172e+04
-1.256304860255125823e+04
-1.220886516409617798e+04
-1.076598423837368864e+04
-8.449425352527498035e+03
-5.766106229835256272e+03
-4.158003957586532124e+03
-4.419023131278725486e+03
-5.069909365457994681e+03
-4.983443184264095180e+03
-4.207555814206125433e+03
-4.473126764671759702e+03
-4.562945586780971098e+03
-4.731694459157530218e+03
-4.614209509128701939e+03
-4.253268478645087271e+03
-3.736517116764990988e+03
-3.530651423742853240e+03
-3.953793374187931022e+03
-4.103682344169525095e+03
-3.203789927735921538e+03
-2.602543340249259927e+03
-2.693619347444859613e+03
-2.353904436548113608e+03
-2.587197896160714663e+03
-2.729088574260666974e+03
-3.186074130211519332e+03
-8.637073551491095031e+02
2.848473600139863393e+00
-1.020504297045813757e+02
-4.783786276828004702e+02
-5.675550530419820916e+02
-9.239793670486736801e+02
-6.769885706933284837e+02
2.494433515605116014e+01
1.201198937775035773e+02
-1.106875802734546141e+02
-4.785352904650015375e+02
-1.785084550818706361e+02
5.381503681900866241e+02
1.107904128677967719e+03
2.809865169801790671e+03
3.602342595425324816e+03
3.620340101322886312e+03
3.616498350493608086e+03
3.293764090477202444e+03
3.142135184883213242e+03
3.105519056113860188e+03
4.048545598939388128e+03
4.765527601083746049e+03
4.368245672334125629e+03
4.585237559575249179e+03
4.904466150065358306e+03
5.123076271350754723e+03
5.144978558418366447e+03
4.895227674234388360e+03
4.842571225404845791e+03
4.814260903082945333e+03
5.241310597493158639e+03
6.093642591266640011e+03
6.297823027124508371e+03
6.089535890181649847e+03
6.477562381893702877e+03
5.927266296086127113e+03
5.328775198258948876e+03
4.355188961347975237e+03
3.567673281524341746e+03
4.455482014299015646e+03
6.521910222745796091e+03
8.449104968013112739e+03
9.738886764981205488e+03
1.015434749252111396e+04
9.721013276659992698e+03
9.442061710318801488e+03
9.179793751808965681e+03
8.485787643633180778e+03
8.709963409176612913e+03
9.776536163323948131e+03
9.855683979272311262e+03
9.533663093129165645e+03
8.258802559270752681e+03
6.428449562169867022e+03
6.771570848961288903e+03
5.537888228464688837e+03
6.828584739686053808e+02
5.568017463731457610e+02
1.606450387992229025e+02
1.099473078371004931e+03
4.421489467671531202e+03
9.543748932885837348e+03
1.081936833940100769e+04
5.599453055703951577e+03
2.626217300362187871e+03
3.042986034049192767e+03
6.457170984678080458e+03
9.611825166241371335e+03
5.911384736836462253e+03
2.530512376814952404e+03
1.929658563757425554e+03
1.931881695570749116e+03
4.338846833890989728e+03
2.858963062946382252e+03
2.150031652828942697e+03
4.429621545994737062e+03
5.018842451622173940e+03
1.926911913579957400e+03
4.679360092226819461e+02
2.107340736629811545e+03
6.380446644374735115e+03
6.575443675416020596e+03
6.514620954245910980e+03
6.600816377948666741e+03
4.956586951504082208e+03
3.559681427472376527e+03
5.957315688132718606e+03
3.505051764632589766e+03
3.790584931598000367e+03
3.169796724839605304e+03
3.557429458635940136e+03
5.039485975935723218e+03
4.792136231649384172e+03
4.192803191199005596e+03
4.171272887624330906e+03
4.047380770402226972e+03
3.404528846426598648e+03
2.717586194005025845e+03
2.295386373401962373e+03
1.723822803086393378e+03
6.569809504602936840e+02
2.414502114259101404e+02
-6.073649479589711575e+00
-1.920817462494474626e+02
-5.019253093931227454e+02
-1.140118666931989083e+03
-1.509401362299625589e+03
-1.648069546999829754e+03
-3.014574854850997326e+03
-4.536602681473782468e+03
-5.284344351476313022e+03
-5.009282426622242383e+03
-4.973439212849212709e+03
-5.263029895919721639e+03
-4.366266336716016667e+03
-3.921706689318370991e+03
-6.098672152975126664e+03
-7.574062746332951065e+03
-7.587158466367491201e+03
-8.060085340588655527e+03
-9.055500626995351922e+03
-9.504236837694126734e+03
-1.078218984875737442e+04
-1.252565126236125434e+04
-1.129664304673351035e+04
-1.112808554756722879e+04
-1.208903978052455568e+04
-1.382857071559338510e+04
-1.493413538169296407e+04
-1.398154811982596038e+04
-1.353264723335249255e+04
-1.503547815747935783e+04
-1.495075893392713078e+04
-1.485996072457947776e+04
-1.660823070403283418e+04
-1.749239800950423160e+04
-1.700491286119952201e+04
-1.747098318357841345e+04
-1.873472882201699758e+04
-1.988225249149280353e+04
-1.888522455970466399e+04
-1.897876523016913779e+04
-2.073177495717121565e+04
-2.181018133876652064e+04
-2.287316873006134847e+04
-2.361135433408495010e+04
-2.402097235666472625e+04
-2.313633472995829288e+04
-2.221835689364489008e+04
-2.244876280030263297e+04
-2.351413931240476450e+04
-2.449447403511755329e+04
-2.504673192711365118e+04
-2.550076195866057606e+04
-2.548953585676939474e+04
-2.567678979140501178e+04
-2.615715536994497597e+04
-2.703232266050192266e+04
-2.728004009187004340e+04
-2.733988786310627256e+04
-2.783324276919873955e+04
-2.779788498543851892e+04
-2.773501960698127732e+04
-2.825842436340154381e+04
-2.810687471165402167e+04
-2.809537183110057595e+04
-2.879963029387221468e+04
-2.949052422738103996e+04
-3.013011948910508727e+04
-2.984157376977732929e+04
-2.951503228583454256e+04
-2.992565795539017563e+04
-2.965465158443972905e+04
-2.757340997398557374e+04
-2.568630862496929694e+04
-2.536775842590553657e+04
-2.495210663091142851e+04
-2.454157420938076393e+04
-2.471746899336414208e+04
-2.526241462608403890e+04
-2.573682589282556364e+04
-2.484415114197531875e+04
-2.467708441120527277e+04
-2.608336503503187487e+04
-2.754888518379659945e+04
-3.030839948771108175e+04
-2.607546211571852837e+04
-2.179572344323374273e+04
-2.284068251803524618e+04
-2.386215931591785557e+04
-2.251459234440632281e+04
-1.722777946302469354e+04
-1.490694394016419028e+04
-1.416461236913454741e+04
-1.335234890539502703e+04
-1.290865517784365147e+04
-1.382998663083933025e+04
-1.269689669560329094e+04
-1.072225896129541252e+04
-7.504331866454225747e+03
-4.515192418284360429e+03
-3.500838079179313354e+03
-2.844470484608842071e+03
-9.235414781115318874e+02
4.507332771593094662e+02
1.323133942106158429e+03
1.530084412571020266e+03
1.743022740016492889e+03
1.996511223653098568e+03
3.266030772641768181e+03
5.611855738286557425e+03
6.756217993305495838e+03
6.849630593766688435e+03
7.423425653818149840e+03
8.904954659765871838e+03
8.982618137704184846e+03
9.680605488406581571e+03
1.209098203729296256e+04
1.336677330294389139e+04
1.407617551185821321e+04
1.747338458289974005e+04
2.127930390125874328e+04
2.466498249090616446e+04
2.835845228918384237e+04
3.063970105405565118e+04
3.332460899692030944e+04
3.790210229158910806e+04
4.046016162809794332e+04
4.011264634419959475e+04
4.020426092257778510e+04
4.150566459731590294e+04
4.290471643466076057e+04
4.496800989293195016e+04
4.788515130438008055e+04
4.932683265983522870e+04
4.943380312782373949e+04
5.012979379914082529e+04
5.100945747234404553e+04
5.117152977186163480e+04
5.099065204526699381e+04
5.111662296738888836e+04
5.197120157575923076e+04
5.256006718043421279e+04
5.272689653485162125e+04
5.444738567250611231e+04
5.704638265723718359e+04
5.786068475063842925e+04
5.702904348509787087e+04
5.694827912629635102e+04
5.875326065352587466e+04
6.042077995831956650e+04
5.767186864594148938e+04
5.564139617791443015e+04
5.373965004079350183e+04
5.203911320494729443e+04
5.052242672526628303e+04
5.232251619060537632e+04
5.352001348965852230e+04
5.355917149706963392e+04
5.203817613427233300e+04
4.964636788963862637e+04
4.774531881428603083e+04
4.353048896909569157e+04
3.668242339633616939e+04
3.214985515499588655e+04
2.727445099271768777e+04
2.171891217732731093e+04
1.987600486817547062e+04
2.341160245382106223e+04
2.380083497475019249e+04
1.754076732399525281e+04
1.149328380670604747e+04
7.447654034385772320e+03
1.418382596586682666e+03
-4.474040824573204191e+03
-8.686010195615222983e+03
-7.663086917186849860e+03
4.309073730076478341e+02
8.849389750296937564e+03
3.635268328883232243e+03
-4.889598735262320588e+03
-1.352834860773448600e+04
-2.249446910018491326e+04
-3.338323186386593443e+04
-4.134630641458791069e+04
-4.276484519439538417e+04
-4.306590645459998632e+04
-4.679730628934673587e+04
-4.577435195167271741e+04
-3.787797462201901362e+04
-3.241117514283821947e+04
-3.102415419405270950e+04
-3.188589071607332153e+04
-3.575855306467809714e+04
-3.957042909086732834e+04
-4.347654206027172768e+04
-4.587769568078948214e+04
-4.717359497722351080e+04
-5.302696103011611558e+04
-6.176044924585211265e+04
-6.873550253900721145e+04
-6.508336393621812022e+04
-5.905234523425884981e+04
-6.040562273955629644e+04
-6.292627840651492443e+04
-6.524349319181284227e+04
-6.792015687765961047e+04
-6.721185906964653987e+04
-6.565612928634211130e+04
-6.131814149640742835e+04
-5.814821821786071087e+04
-5.993526687875444622e+04
-5.751960650906308729e+04
-5.348866083968461317e+04
-5.388864155378920987e+04
-5.473841506375074096e+04
-5.562017765896770288e+04
-5.730659240131805564e+04
-5.863497368773839844e+04
-6.382028638840547501e+04
-7.082201715365581913e+04
-7.716080464726133505e+04
-8.236161597290693317e+04
-9.043355814756324980e+04
-9.761265682769811247e+04
-1.013396108238817978e+05
-1.029556493392836419e+05
-1.062630974409241171e+05
-1.177642646898801759e+05
-1.293804019753863540e+05
-1.338011524843248189e+05
-1.329004908501527098e+05
-1.331411289015959483e+05
-1.345435817048331082e+05
-1.389137563927800802e+05
-1.417219817081916844e+05
-1.442477798122729291e+05
-1.478458584897382534e+05
-1.525151906614661566e+05
-1.498629401508292358e+05
-1.407172986823605024e+05
-1.359616035276535549e+05
-1.311610412567537278e+05
-1.197862298163665837e+05
-9.687827929361717543e+04
-7.146898241229628911e+04
-4.635245324838514352e+04
-1.738327969805542671e+04
-9.634151879938754064e+03
-2.425771425204563639e+04
-3.479959555529867066e+04
-2.558341713644844640e+04
4.719129459594017135e+03
3.986235213144601585e+04
8.123677991944561654e+04
1.460977716496466892e+05
2.145653673775020870e+05
2.659585185685465694e+05
2.982261620487861219e+05
3.183204160529336077e+05
3.377275137701416388e+05
3.555441306798550067e+05
3.667329931554595241e+05
3.740931215072547784e+05
3.752583795013346244e+05
3.646504216987931868e+05
3.451507432074570097e+05
3.240056868508564658e+05
3.066235987805102486e+05
2.913880740609383211e+05
2.638066269140891964e+05
2.305274138857857033e+05
1.941298692738812824e+05
1.567014630940628122e+05
1.256880776318219432e+05
1.048774372643483075e+05
8.877684302300700801e+04
7.664219658514959156e+04
6.833417214250474353e+04
6.045072087724779703e+04
5.537349054608749429e+04
5.424290762596933928e+04
5.688975796738270583e+04
6.397054872754388634e+04
6.965080422003963031e+04
6.954988542715190852e+04
6.108595160837224830e+04
5.282617965434745565e+04
5.145078383093490265e+04
4.661458064064045902e+04
3.914069986150979094e+04
3.154022536068632689e+04
2.759099024424207892e+04
2.327471236259183934e+04
1.929928716255043764e+04
1.613445650348530035e+04
1.675864139783583960e+04
1.458666996382345133e+04
1.328020616650099146e+04
1.237154068553267825e+04
9.013980091397255819e+03
9.516879982118469343e+03
6.602445067579305942e+03
-6.460633086922982784e+02
-8.992445945092013062e+03
-1.587457412879497497e+04
-1.988225635558513022e+04
-2.538651290500676259e+04
-3.194245978111883960e+04
-3.827411341317357437e+04
-4.789159452748054900e+04
-5.961304453406947869e+04
-7.141364193082650308e+04
-8.126544883882053546e+04
-9.137246955941323540e+04
-1.003820846311552159e+05
-1.051817110723384685e+05
-1.079587023610910837e+05
-1.141184832077825413e+05
-1.197023373614100565e+05
-1.230505485396122094e+05
-1.266215451348146453e+05
-1.281775873326503934e+05
-1.284113011055363313e+05
-1.280214432095412194e+05
-1.281214207125104440e+05
-1.279568302945827309e+05
-1.267422692926143209e+05
-1.252752911013275152e+05
-1.242625084438279737e+05
-1.245615662644378463e+05
-1.262580770663137519e+05
-1.287395332799213502e+05
-1.304524652096481295e+05
-1.315073611329508421e+05
-1.344927211832062167e+05
-1.369471976625146926e+05
-1.377703840111224563e+05
-1.388987646939148835e+05
-1.415256342454588739e+05
-1.469345831703639997e+05
-1.530343330131242110e+05
-1.576612475104367768e+05
-1.607604674695594877e+05
-1.590064280570944829e+05
-1.555282426392151974e+05
-1.536112343908992771e+05
-1.471153259871746995e+05
-1.367272599772102258e+05
-1.265543105350567203e+05
-1.183718591830017394e+05
-1.083313722028954944e+05
-9.532432680183045159e+04
-7.874099525145564985e+04
-6.109109565348349861e+04
-4.646091467801952240e+04
-3.318790223263558437e+04
-2.004326244922478145e+04
-7.282162097542268384e+03
3.990201861801465384e+03
1.538035051332527473e+04
2.796254243532658438e+04
3.825853032937689568e+04
4.556885484242016537e+04
5.232017936988900328e+04
5.951527764792696689e+04
6.534485516429092240e+04
6.902466997448922484e+04
7.233268759521153697e+04
7.452090811948795454e+04
7.679622989425109699e+04
7.933535376605721831e+04
8.179320086485435604e+04
8.244472627237552661e+04
8.106869442503177561e+04
8.188013936660996114e+04
8.360208095638829400e+04
8.361931348321399128e+04
8.350379939508362440e+04
8.229561122308099584e+04
8.175174872478884936e+04
8.219729155574606557e+04
8.276630215464660432e+04
8.373769935480772983e+04
8.478370454840052116e+04
8.524965436975756893e+04
8.498267773599586508e+04
8.603686360925227928e+04
8.660444229542030371e+04
8.698651462771779916e+04
8.816421877113134542e+04
8.958680199313108460e+04
8.979752126138130552e+04
8.869356272098237241e+04
8.847914022336460766e+04
8.817658168718297384e+04
8.798821183762485452e+04
8.854529417435392679e+04
8.849303361931160907e+04
8.789667437558878737e+04
8.669860625526114018e+04
8.667606490807654336e+04
8.658624416954105254e+04
8.489756647317502939e+04
8.275849692589836195e+04
8.143734388913470320e+04
7.814529280912812101e+04
7.472761883283867792e+04
6.945625460334896343e+04
6.619761614172997361e+04
6.855205723697534995e+04
6.463604712350475165e+04
6.001800383019295259e+04
5.953909831381135882e+04
5.828986165506759426e+04
5.489182309356929181e+04
5.081359045597563090e+04
4.779273447824826144e+04
4.466866615791775985e+04
4.175017744899164245e+04
3.970116953984978318e+04
3.702405374901816685e+04
3.319636434564008960e+04
2.881385879579756511e+04
2.411387395621130054e+04
2.110840760627464260e+04
1.987519568441564115e+04
1.484140332217117066e+04
9.303672252735950678e+03
6.164509197450308420e+03
4.365767589720495380e+03
5.408145797675082576e+03
6.481247301100357618e+03
3.706294963629887206e+03
-3.066756192395367634e+03
-1.028444103770282345e+04
-1.819503168302922131e+04
-2.872941911587557479e+04
-3.462078431688669662e+04
-3.270023806010102635e+04
-2.788368064986205354e+04
-2.714237940331068239e+04
-3.174303965043958669e+04
-4.045307687523445202e+04
-4.821145344645535806e+04
-5.174673146790991450e+04
-5.197765726221984369e+04
-5.091529753147443989e+04
-4.792551673445021152e+04
-4.555634902567742392e+04
-4.740873025051931472e+04
-5.144462135421945277e+04
-5.429692878179012769e+04
-5.549271654325610871e+04
-5.732203252747473016e+04
-6.088052589346437162e+04
-6.522187014958142390e+04
-6.900809724523068871e+04
-7.316508277500593977e+04
-7.703210349525994388e+04
-8.077650094169587828e+04
-8.524696053533017403e+04
-8.719630064481534646e+04
-8.452332645902143850e+04
-7.537932854776216845e+04
-6.902936143534297298e+04
-6.912335137656569714e+04
-6.891402483181400748e+04
-6.462984901784107205e+04
-6.047591614416003722e+04
-5.907618295243070315e+04
-6.193918923591968633e+04
-5.911767231767372141e+04
-5.466800915269437246e+04
-5.840573998340895196e+04
-6.028044828849816258e+04
-5.783134348189483717e+04
-5.785463036322413245e+04
-6.424807735251145641e+04
-6.615637813582818490e+04
-6.477480382430295140e+04
-6.330276695154737536e+04
-6.258184933299068507e+04
-6.119157551509774930e+04
-6.090322055467077735e+04
-5.883232678812457743e+04
-5.304517990587383974e+04
-4.248377765991389606e+04
-3.348001364856683358e+04
-2.876013173967974944e+04
-2.368334380922945638e+04
-1.847363078985202446e+04
-1.341226919628747237e+04
-1.081237865300030353e+04
-8.332236431461185930e+03
-4.885020804576489354e+03
1.175029337365551640e+02
2.892522810337149167e+03
7.393027346663393473e+03
1.283877323512935072e+04
1.733195035038623610e+04
1.933911425812157540e+04
2.471252529141944251e+04
3.019758492231835771e+04
3.528328026864847925e+04
3.774872818761617964e+04
3.889570857173469994e+04
4.015316479000599065e+04
4.043950136537906656e+04
3.953462355968939664e+04
4.150442405333511851e+04
4.582771183236250363e+04
4.881067804624342534e+04
4.902981394181232463e+04
4.757647918722168833e+04
4.701266786567583040e+04
5.006811572496400186e+04
5.023473002492485102e+04
4.796665979923155101e+04
4.845057152527106518e+04
5.116092998003192042e+04
5.279849308809932700e+04
5.267066290136182943e+04
5.012077558309066080e+04
4.598076475765615032e+04
4.307512264835477981e+04
4.136938455480848643e+04
3.879428106069648493e+04
3.842021980620473914e+04
3.949848757509556890e+04
3.834417794476685231e+04
3.417570463017831935e+04
3.357193896626232890e+04
3.251103167075649981e+04
2.975516601516572700e+04
2.829338073972098937e+04
2.528095847158053220e+04
2.233687469131108446e+04
2.146380662222216415e+04
1.977037585028450485e+04
1.839906907683663303e+04
1.765980085257032260e+04
1.782792708546070935e+04
1.773310768494778677e+04
1.680334560443467126e+04
1.389908537438269741e+04
1.244440048535258757e+04
1.075042018093238039e+04
8.946161291919992436e+03
7.147722021086651694e+03
6.286466853803324739e+03
5.192170582979665596e+03
8.804102080545754916e+02
1.949741312046131043e+03
4.903786798812448069e+03
4.572854802107643991e+03
3.568346562471565449e+03
2.565890662418295960e+03
5.215699325198251017e+02
-1.182100209466730803e+03
-1.267482330254036015e+03
-8.221001906283801191e+02
4.122864227660970755e+02
2.806332192592045089e+02
-1.446817018120823377e+03
-2.680813718754068304e+03
-4.517227736606520921e+03
-6.365618504310951721e+03
-8.960572434046780472e+03
-1.047192226272125117e+04
-9.430839558595052949e+03
-8.926337778901604906e+03
-9.578499543227155300e+03
-1.112070012917913118e+04
-1.335636109341466545e+04
-1.452946714852224977e+04
-1.475629079666691359e+04
-1.408836580689603943e+04
-1.029603070297704471e+04
-8.329802937356280381e+03
-9.670233871071794056e+03
-9.849920890371742644e+03
-9.950315059454293078e+03
-1.064791214220205256e+04
-1.231448603397852821e+04
-1.436574483470808082e+04
-1.561321281708343486e+04
-1.732127199837814624e+04
-1.965340599811387438e+04
-2.163216475861495928e+04
-2.261330808487678223e+04
-2.322359118353330996e+04
-2.550954333770884477e+04
-2.868396189655856142e+04
-2.974873058626693091e+04
-2.762745164764112997e+04
-2.712560088592330794e+04
-2.926067999279739161e+04
-3.126846017832150028e+04
-3.433883020476068486e+04
-3.545123238032618974e+04
-3.642593531488865847e+04
-3.514395766870015359e+04
-3.690308224331522069e+04
-3.740151161721858080e+04
-3.736352059395136894e+04
-3.754504913715334260e+04
-3.783188003530781862e+04
-3.921122199214190186e+04
-4.064437670958974923e+04
-4.497163961533548718e+04
-4.792908429875827278e+04
-5.104147361146723415e+04
-5.256869651138245536e+04
-5.412969342289229098e+04
-5.497132690320924303e+04
-5.734020954897273623e+04
-5.305018109898693365e+04
-4.794412538753948320e+04
-4.553667474194664828e+04
-4.442525470877174666e+04
-4.360249712504998024e+04
-4.316908307749217056e+04
-4.237164140941511869e+04
-4.096664986305437196e+04
-3.871264331564761960e+04
-3.545197122555932583e+04
-3.336804299794200779e+04
-3.257024696857425079e+04
-3.100999217947367652e+04
-2.994153931829527937e+04
-2.899405994866008041e+04
-2.829612256746559069e+04
-2.746707823449603529e+04
-2.641196656098329913e+04
-2.467004050283843753e+04
-2.256140744186785741e+04
-2.120630119603260027e+04
-1.940797018056618253e+04
-1.734762420991171530e+04
-1.524347033755638222e+04
-1.338274204108160848e+04
-1.165359046411524105e+04
-9.756998069197330551e+03
-6.837226974586639699e+03
-3.931406248685692844e+03
-2.365881985984470646e+02
3.135126456162246086e+03
5.784585700318893942e+03
8.376813685300048746e+03
1.078998213596845017e+04
1.337806599981288309e+04
1.626597868511147863e+04
1.923967544600807378e+04
2.196327123554131322e+04
2.372799378951709878e+04
2.597603881284792078e+04
2.888756644010158561e+04
3.150418561115993361e+04
3.378191034859605134e+04
3.576390317939453234e+04
3.755148574722617923e+04
3.885859055748488754e+04
3.867560302536639938e+04
4.054167142505690572e+04
4.268800093807040685e+04
4.364452464211659390e+04
4.480527581760544126e+04
4.542475911637643731e+04
4.572423591253404447e+04
4.672541776384040713e+04
4.759548411041455256e+04
4.848171157161482552e+04
4.917433771986656939e+04
4.867244845554497442e+04
4.865918414335638226e+04
4.970975600739111542e+04
5.049221485338861385e+04
4.992373169257715199e+04
5.028754787126302836e+04
5.109086462005773501e+04
5.065184448030764906e+04
4.991152351139362145e+04
4.948490579942072509e+04
4.855141790876829327e+04
4.726927817149554903e+04
4.598048081896595977e+04
4.445002128548175824e+04
4.315179702749939315e+04
4.154287808136573585e+04
3.937855417648623552e+04
3.717213909451943618e+04
3.528280697398082702e+04
3.379175629455509625e+04
3.156538708061658690e+04
2.898457967690162695e+04
2.675476596311655885e+04
2.516461694213631563e+04
2.338942640786994525e+04
2.039068627455398382e+04
1.669984569895546520e+04
1.262890015787055745e+04
9.282531498070864473e+03
6.602530198894210116e+03
4.593793944547017418e+03
1.814108286572152338e+03
-2.460542423297892583e+03
-6.227870528391049447e+03
-8.968618116170395297e+03
-1.090688108540234134e+04
-1.188984280601717728e+04
-1.303749871328486006e+04
-1.420771735577799882e+04
-1.577738412579473152e+04
-1.852647675226288266e+04
-2.180289948337300666e+04
-2.428957771371307535e+04
-2.531251581056529540e+04
-2.527052197421724486e+04
-2.461869570928731264e+04
-2.589849067166563691e+04
-2.882568162108629986e+04
-2.959025905567235895e+04
-2.925767229621772640e+04
-2.931779361372314816e+04
-2.906189218543253810e+04
-2.884989479141561969e+04
-3.029469237787530801e+04
-3.335894697653422190e+04
-3.316100341800146271e+04
-3.249994734689842880e+04
-3.094501619338733144e+04
-2.840215299271158437e+04
-2.331359236007800428e+04
-2.084505449087970192e+04
-2.014884721369016552e+04
-2.068787638120439078e+04
-2.119447625513859748e+04
-2.085454437547404086e+04
-1.957070287400898815e+04
-1.799181468036379010e+04
-1.445657357177643462e+04
-1.156886447217134082e+04
-1.079975273083698266e+04
-1.178443045647037798e+04
-1.256466377548741730e+04
-1.330198049277973769e+04
-1.357611519286307157e+04
-1.289980054243155610e+04
-1.011873732718907013e+04
-8.861279468212034772e+03
-8.695979864581697257e+03
-8.281842651216262311e+03
-7.374545758418678815e+03
-6.502322259579252204e+03
-4.963814032613847303e+03
-2.715637361975677322e+03
-8.042245447781486973e+02
2.437166531815504186e+03
6.194009337136610156e+03
9.372604830135873272e+03
1.140352000573658006e+04
1.351950202931553395e+04
1.611534402932964622e+04
1.811775592645141296e+04
1.945356618613386672e+04
1.938354248580244166e+04
1.905523718049775198e+04
1.827521237554536492e+04
1.669736477455755812e+04
1.515372451367696522e+04
1.456626490472621299e+04
1.419267310138453468e+04
1.276152946180447361e+04
1.185000300812609566e+04
1.197330963242240978e+04
1.190421128736752689e+04
1.155145105158966180e+04
1.116490166032308662e+04
9.997610291091326872e+03
8.752701140392529851e+03
7.627248035807928318e+03
6.549182242923862759e+03
5.237455627596338672e+03
4.092140517992646437e+03
3.434025344450720240e+03
2.815040671417178601e+03
2.098378597755684495e+03
6.172963563058413001e+02
-1.327479751558595353e+03
-2.506987775940337087e+03
-3.390053664942290652e+03
-3.136624336329015023e+03
-2.295628894862953075e+03
-2.348041631187482380e+03
-3.015039916799320054e+03
-4.107624825277079253e+03
-5.328850722334583224e+03
-5.952780545506433555e+03
-5.994538236548822169e+03
-5.885204483569075819e+03
-4.560785464356002194e+03
-3.228099305239108617e+03
-5.133233248868776855e+02
5.378405152422079482e+03
7.278918337326908841e+03
4.339064014705169029e+03
2.498579603792691159e+03
4.023015096127639367e+02
2.314296853508203185e+03
3.547959079393874617e+03
3.699873666251240138e+03
4.011973513238654050e+03
4.848990130117642366e+03
6.319610040990291054e+03
7.251631222146145774e+03
7.609716015675092422e+03
8.316298508645058973e+03
9.584924135045110233e+03
1.024408279017278255e+04
1.010142183474450394e+04
9.714560426255162383e+03
9.116913694339682479e+03
8.911936260431584742e+03
9.944033069092511141e+03
1.154469181629503692e+04
1.209024235285114992e+04
1.190078254652265241e+04
1.197965773610531141e+04
1.301418923484705192e+04
1.355367782651239759e+04
1.397542898610271368e+04
1.460455099067272386e+04
1.445210090753126315e+04
1.409704066471681108e+04
1.410713596613732625e+04
1.420750851123959910e+04
1.361534298646906609e+04
1.338246538882476125e+04
1.413676868431268849e+04
1.349428073549940927e+04
1.158499943549818090e+04
1.017672720450818088e+04
1.053917710528578391e+04
1.146612514208847460e+04
1.279227022335149741e+04
1.358032345634258127e+04
1.406493747973892459e+04
1.454480701304524882e+04
1.387865703503552504e+04
1.221803608555568644e+04
1.155435272075276407e+04
1.255880635766847263e+04
1.337585529832782231e+04
1.198725031924009818e+04
8.718412177895410423e+03
1.023181571717838597e+04
1.062870377125219238e+04
1.070727362352444834e+04
1.010658438045193725e+04
9.914996355943745584e+03
9.622556180096456956e+03
9.879575313905768780e+03
1.067610484489618284e+04
