9.900280062568710491e+03
1.752396577885678926e+04
1.297778287310109590e+04
3.292755774880548870e+03
-4.323710352486490592e+03
-8.113518375042935986e+03
-1.068758804048683851e+04
-1.210697355767553745e+04
-9.654814491636536331e+03
-3.983184072964689221e+03
7.200147013660639459e+03
1.453729150293804742e+04
1.221928894281004978e+04
6.290089907375345319e+03
3.532710670972007392e+03
4.183131770533470444e+03
6.341450761159704598e+03
4.712583632878732715e+03
1.261455303342787147e+03
1.192104293914182108e+03
1.798826055031081069e+03
1.364072338732428307e+03
-1.029848760369518686e+03
-4.847874539787840149e+03
-4.187082928556050319e+03
4.795644556935108085e+03
1.335646218694373420e+04
1.253336162847405285e+04
1.339524964725686459e+03
-7.964252747522324171e+03
-9.290781555637149722e+03
-6.286969113106250006e+03
-5.099949627935105127e+03
-4.301699637722176703e+03
-6.898938608745878810e+03
-1.101677785686055358e+04
-1.275546177154447105e+04
-1.262561729907497283e+04
-1.376976500265987852e+04
-1.296437100425985955e+04
-4.623581628991745674e+03
1.053251900009514975e+04
1.967204552770213195e+04
9.358299664930091240e+03
-3.930718739509384704e+03
-9.656918592175084996e+03
-1.503021719004220176e+04
-2.404034440738138801e+04
-3.102818558234027296e+04
-2.985376929422942703e+04
-1.716604112793700551e+04
-9.043091279774811483e+03
-1.121782689593515170e+04
-2.701009538903648263e+03
1.578852138511043449e+04
3.289978166853681614e+04
3.612890147555134899e+04
2.593877708225157767e+04
1.907146988972045801e+04
1.446193274653521985e+04
1.137216701761952754e+04
7.174350848059282725e+03
2.601536524509164337e+03
3.238837324456658735e+03
3.996433963282549939e+03
-6.243533090288749008e+03
-2.413918675822022487e+04
-2.355645768103364389e+04
-1.225318441104697376e+04
-1.114340670950718231e+04
-1.692411824722831079e+04
-2.007533992934711569e+04
-1.531002021078373582e+04
-1.071506735880108863e+04
9.185797191994582818e+02
2.734588198771738462e+04
4.559997829364044446e+04
4.374284715358637914e+04
3.216741504614509904e+04
1.547793242535348509e+04
3.084310632431036652e+02
-1.006516803739115130e+04
-1.396889193584294844e+04
-1.346371830308470999e+04
-9.493621610042344400e+03
-1.039461060892278692e+04
-1.536164837532374804e+04
-1.378269020402245224e+04
-2.909605732846920091e+03
1.327848653917845877e+04
1.614953592536654651e+04
5.825495998771963968e+03
5.001443944390057368e+03
1.648947948723172158e+04
1.955465671921932881e+04
1.735990130845765088e+04
1.441035960358257034e+04
6.204087966320636951e+03
-8.410079483507118425e+01
-5.582379012332765342e+03
-6.986762021013850244e+03
-8.579222904483951424e+03
-1.270377040786554062e+04
-1.318535546052979407e+04
-9.400950145377952140e+03
-7.220603353970375792e+03
-6.731342974961103209e+03
-7.031688739930599468e+02
6.895879635263733689e+03
7.622787954688721584e+03
-2.914870943728585075e+02
-2.399008458373442863e+03
5.391047210991875545e+03
5.641603469146612042e+03
-5.042564991868454740e+02
1.194691611778117135e+02
5.452649841068444402e+03
8.695306801505177646e+03
1.430484395502650841e+03
-1.801085737018706641e+04
-2.272672665089724251e+04
-1.008408796902274116e+04
-9.488713037124341554e+02
-1.843223893128113559e+03
1.036600439027110269e+03
9.917594886260647399e+03
9.052810415878182539e+03
4.400173786175027999e+03
3.062584573255764099e+03
3.093057895229863789e+03
3.538590240224034005e+03
6.208176738159695560e+03
8.947777471090577819e+03
1.162741373793068669e+04
1.191001041228684699e+04
3.929436917593856379e+03
-6.623594361488045251e+03
-1.065615207729134454e+04
-1.008815312311025264e+04
-8.036574540253111081e+03
1.351499729672065087e+03
1.100106029143031446e+04
1.005211496049676316e+04
5.081608597067210212e+03
3.628489591013953032e+03
1.622669684286970323e+03
-4.409887746239995067e+03
-6.925234288232527433e+03
-4.964392449887351177e+03
-6.328382370924137831e+03
-6.330339907327139372e+03
-3.568347314027741504e+03
2.684465517024411383e+03
9.906134847355171587e+03
1.614570255242771600e+04
1.915910742044137805e+04
1.743328834929737422e+04
1.097125397568594235e+04
1.969913128058333314e+03
-7.179779918516001999e+03
-1.546179572535963052e+04
-1.735915796095912810e+04
-1.846189960721442549e+04
-1.656902559001572808e+04
-1.250059584954165439e+04
-9.063714547129022321e+03
-4.812345171865911652e+03
-6.753563848386071186e+03
-1.088340297689769432e+04
-7.403799387976519029e+03
-1.143272468556020431e+04
-1.217819787574470138e+04
-1.401134571331267034e+04
-1.728930487397605611e+04
-8.924064870773738221e+03
1.773711270093822066e+02
3.000202405362159652e+02
1.108702559668940069e+02
-2.324051731483657477e+03
-6.331922093952018258e+03
-4.721728946532876762e+03
-2.341362515714594792e+03
-7.008206452770259602e+02
2.012924158108215124e+03
6.513799991561077150e+03
9.723813178773525578e+03
1.254900589178839982e+04
1.195033459933976883e+04
4.714774845365189321e+03
-1.429639545122847267e+03
-7.638695305422832007e+02
3.202120403134164462e+03
3.710284008732660368e+03
5.164627148715516341e+03
5.879164678948578512e+03
4.405888496261492946e+03
1.591742274337677827e+03
-6.503136959565432562e+02
-3.068221010102559376e+03
-2.530069876157551334e+03
9.601777904798580039e+02
3.039589880868143155e+03
4.568117998732494925e+03
4.316742791903358921e+03
3.319778878513743166e+03
3.159338496361649050e+03
3.193121461880690276e+03
3.040098371767120170e+03
2.472641795920058939e+03
2.949912308461976863e+03
2.987043212851740009e+03
4.110931253670363731e+03
-9.099568327337917708e+02
-1.134920816450415623e+04
-1.969244803338019119e+04
-2.782778734799895756e+04
-2.570918599206352883e+04
-1.024211141038980895e+04
4.738334422218244072e+03
9.658449441659548029e+03
6.153251142802114373e+03
3.634438890321325744e+03
4.997026872155956880e+03
4.951027626184635665e+03
1.020773438900430961e+03
1.538213543339042417e+03
7.141375393258562326e+03
1.342382898274996296e+04
1.187317652168686800e+04
7.102403190552943670e+03
5.607602363738060376e+03
5.272766111308350446e+03
4.711510889422721448e+03
6.144214511982529075e+03
7.951455487999518482e+03
7.219676478159272847e+03
4.016475148339313364e+03
1.126585513853593284e+03
2.082819442937983695e+03
4.502691009750317789e+03
1.323689652066082544e+03
-2.815564972315857631e+03
-2.873150105893816999e+03
-1.569503308424609429e+02
3.494875423360142577e+03
6.353447330953772507e+03
7.597868415868598277e+03
7.305015845509530664e+03
4.890886857776538818e+03
2.328817616912673202e+03
2.544164019467846629e+03
2.875025891905280332e+03
3.390202278195376039e+03
2.418362905071361638e+03
7.755104041229822087e+02
1.634696603341266155e+03
3.782502881649536448e+03
3.639496176798120359e+03
1.198582978399867216e+03
-2.429318883477613781e+03
-2.085596539986050630e+03
-8.302385691909496472e+02
1.400579007711449549e+03
2.909817456609191140e+03
2.363447160723690558e+03
3.271679011952994074e+02
-7.135014707743037832e+01
7.383207057849504054e+02
1.853302010776372526e+03
2.091258978394082533e+03
2.320554312236066835e+03
1.906035984785268511e+03
1.625461713194368485e+03
-5.323035875756265796e+02
-4.926932429356937973e+03
-1.079326110432748828e+04
-1.583746666973437641e+04
-1.672663717520247519e+04
-1.432670970349953313e+04
-1.161347014364951974e+04
-1.043373081980190909e+04
-8.287815357004021280e+03
-6.951444654144926062e+03
-8.225791223053496651e+03
-8.851264460002585110e+03
-6.091074042593106242e+03
-9.878419151856112990e+01
2.248044406297330625e+03
-1.816105298230101425e+03
-4.012141729155345274e+03
-4.031018769117826650e+03
-5.816451941365241510e+03
-7.854345160188546288e+03
-3.609757344679064772e+03
4.774114119471883896e+03
7.484365301455859480e+03
7.562866101690437972e+03
5.732937817186687425e+03
3.526806775786110393e+03
3.254683520190762010e+03
2.267094064793584039e+03
9.465246271020065478e+02
-6.593610065991714464e+02
1.153421611279299519e+01
1.528546076763724841e+03
1.899659151000606016e+03
2.370267078060568565e+03
9.043558939605123896e+02
-1.075963595762196292e+03
-1.132988015654710580e+03
-3.458866522892495254e+01
4.632032980052875359e+02
2.169153722512916829e+03
2.963126613649262254e+03
3.626235862115523560e+03
2.570405052464349865e+03
2.226151952394111504e+02
-9.111504171594885975e+02
-2.314684931267985576e+03
-3.537847948542166705e+03
-2.607026606247424752e+03
-8.022493863752114294e+02
-1.118574317967581919e+03
-1.014137630486103831e+03
7.148025149062522132e+02
1.257353097295167572e+03
1.335142167077185150e+03
8.257088752506193714e+02
-7.905466395534529056e+01
-2.947871460954175973e+02
-4.055796745510452439e+01
-5.620854770415211306e+02
-2.193973533586251179e+01
2.751045037479088364e+02
-1.155517014198510424e+03
4.815756653448615765e+01
1.827859649699674264e+03
2.254767024629189564e+03
2.443836774532047002e+03
2.535723924636397896e+03
2.345036801352171551e+03
1.841405699361142297e+03
1.134138579030075334e+03
1.223880590352525587e+03
2.034274826236011677e+03
2.151816719353364533e+03
1.551709636410572330e+03
5.442500598461355565e+01
-1.376967230192105262e+03
-1.989006105068848456e+03
-2.029704900799518782e+03
-2.401578561058309788e+03
-6.322027712299568520e+02
2.235510930708277101e+03
3.589096331363909030e+03
3.027589774642484826e+03
2.197055877480253002e+03
1.354242345675706702e+03
2.141913772097544495e+02
-4.985131068926310149e+01
3.809154731107582279e+02
8.021308610578092839e+02
6.088597409809189003e+02
7.102177112542159421e+02
7.976866824868570802e+02
1.426994137738212430e+03
1.556622301631159417e+03
1.454319130378596583e+03
1.053691963006486048e+03
3.499451176264644801e+02
3.126895580598715583e+02
3.784394889196050826e+02
-4.383441941879395358e+02
-1.454094439623731205e+03
-2.091728873737397862e+03
-3.167403681888162737e+03
-3.453839266544634029e+03
-2.704910671423164331e+03
-4.070996828690849725e+02
1.206599493049807961e+03
3.688904288911203935e+02
-8.905091620928144494e+02
-1.052195946750805888e+03
-7.655052300459573189e+02
-1.440113409488750449e+03
-1.424203465490951658e+03
-1.433857420184420562e+03
-1.508117751405688068e+03
-1.431187402711306504e+03
-9.951281623303609649e+02
-5.450114039744017873e+02
8.803080730031302892e+02
1.087502094732780733e+03
-2.620297115417222358e+02
-1.149647587814168674e+03
-1.101737032745878651e+03
-9.054671189865209726e+02
-7.564586227420994646e+02
-3.188775990764490302e+02
3.939521220118374458e+02
1.359360773741057756e+03
1.674150734459457226e+03
1.308395331918304237e+03
1.138464658219984585e+03
1.109159669718055056e+03
1.374116577707581200e+03
1.061575659130035092e+03
8.354044894894045683e+02
5.335109331234460939e+01
-2.679397781717316889e+02
1.513082407184349165e+02
-1.359814414870205326e+02
-6.866802792094487131e+02
-5.244576231198037704e+02
-2.799911310393735562e+02
-7.693304793458051449e+01
-1.507364968906530400e+01
-5.420790838813423989e+02
-4.662690375714868196e+02
1.772448901833459729e+02
4.582214813587474396e+02
2.454082011538357619e+02
1.267892274774923322e+02
-4.048792848343992432e+02
-1.086161595099841406e+03
-3.188753175411510483e+02
1.219374055405736271e+03
2.147198324642004081e+03
2.449377554032793796e+03
2.034082388268000386e+03
1.236246046742259523e+03
7.875321995301590050e+02
4.888961376246194845e+02
2.900812144743012482e+02
4.313630155175122383e+01
-4.318140340491237907e+02
-6.096223366611216079e+02
-8.487134013979336942e+02
-5.162056340958735063e+02
-1.971175427145592209e+02
-6.853605233552329423e+01
1.405935963728531419e+02
2.629746852460125979e+02
2.541389527043989460e+02
1.153315230725212132e+03
1.730478656825794815e+03
1.762739210033408881e+03
1.926700792329039587e+03
1.748852143496319968e+03
1.145327662540686106e+03
5.879760596283969107e+02
5.137918151136437928e+02
4.368983438211139969e+02
6.940635048256494599e+01
3.313088364626100883e+02
5.786500606340276818e+02
1.382304267099498531e+02
-3.962437990573939715e+02
-1.618774459638535291e+03
-4.873371334617084358e+03
-3.528867840407352560e+03
-4.011757447861981518e+02
-1.005404271794715783e+03
-2.954547078724378025e+03
-2.578567064832942378e+03
-1.454451405425878875e+03
-1.400346335579984498e+03
-3.071949614412541791e+02
-4.613098216837453947e+03
-3.897578183401214574e+03
1.429956657915930236e+03
3.177504752154513881e+03
3.677196968698651290e+03
1.195269719637808294e+03
-1.990508032893164227e+03
-2.004407280844302704e+03
-8.487978775102439499e+01
-1.321217198825218020e+03
-2.338447379988592729e+03
-3.542860090753195891e+03
-1.071286509959219757e+03
-3.338408268943696385e+03
-3.062539026271450894e+03
-4.885093864546269288e+03
-5.482400726476847694e+02
3.576246098913488822e+02
-1.722078764942329201e+02
1.998104541214376923e+03
-5.884904902268552860e+02
1.280029853053641546e+03
1.148568699693771578e+03
-1.467947320176500170e+03
1.112655560448975621e+03
-7.723134878411431146e+02
-2.121836473232067874e+03
-3.331665676910592992e+02
-2.770369330786480987e+03
-2.124044283829619417e+03
3.479994986445164500e+02
1.757584387475468930e+03
2.023410171696926000e+03
1.865357451051007729e+03
2.592521157671581932e+03
3.332975433608127787e+03
3.165820800692373723e+03
1.807349553069069771e+03
2.298630077646256268e+03
2.570493688154943356e+03
1.935967616975890905e+03
1.654099887827997236e+03
1.269999536596822281e+03
9.177723185361758169e+02
1.363294115284057852e+03
2.161447790785079178e+03
1.790425923833343404e+03
1.150513297468334258e+03
1.130869334470508875e+03
9.182732784151019132e+02
6.676800650746260999e+02
2.040070314811197250e+02
-8.371470344851218215e+01
-2.402600953507553356e+02
-3.474691891414548195e+02
-5.738297757242646213e+01
4.299212705001933728e+02
4.314245817395181462e+02
2.712274166756334353e+02
6.238176486845135571e+01
-2.480259571402873178e+02
-5.440151765553360974e+02
-4.235121580787467792e+02
-7.632416213131807581e+02
-4.949583937159268885e+02
-6.043075066999055025e+02
-1.004526237118052109e+03
-1.052837058904494370e+03
-9.102318799738334292e+02
-7.997416211879876755e+02
-2.454115724740740632e+02
8.588577086487408963e+01
-4.435859737847662245e+02
-3.283883315700506955e+03
-1.493305345709333096e+03
1.710789466540502417e+02
2.356450043162493557e+01
-1.797604704194756096e+02
1.687303770877105080e+02
7.302463966611815067e+02
2.132525771065037645e+02
6.466020138983434435e+02
3.446876793480970491e+02
-9.472451815343653436e+01
-2.433364986934253125e+02
-2.761126388077924503e+02
-2.789314277969049840e+02
-4.357606435224705592e+02
-7.296409953378864657e+02
-9.884971075638792399e+02
-4.552920675293469230e+02
4.930475180627532268e+02
4.804273706653361842e+02
3.547456343811102784e+02
3.059356869669831891e+00
1.613830039913303835e+02
1.028557429351935468e+02
-3.924058031031714791e+02
-5.695170012885838560e+02
-4.596177646449015697e+02
-8.359909942454753207e+01
4.039378551234376147e+01
-1.326823203786908607e+02
-5.358710498671940741e+02
-7.199826603407464063e+02
-8.308856294552166446e+02
-4.776908140069252227e+02
1.446062814950252857e+02
5.010792463494868230e+02
7.725169258164440862e+02
8.528286776469039978e+02
6.121917291244650414e+02
3.805336272796279786e+02
1.089669564027005663e+03
1.488659597362357545e+03
1.354525551193057936e+03
1.289322051386493968e+03
1.164052484117150470e+03
1.228655564925551289e+03
1.224069576899481035e+03
6.523284630230521088e+02
2.853134425798699567e+02
-9.896776897431006148e+01
-1.184131840435790366e+02
4.477174401394886871e+01
-5.385016162197441645e+02
-5.112045337049813156e+02
-4.323629645949307587e+02
-1.658006207947409621e+03
-4.158116866826591831e+03
-8.137686890376205156e+03
-9.501742942760452934e+03
-9.679381603436682781e+03
-4.923656966187079888e+03
-4.685992235072046128e+02
-3.811393779972657967e+02
-1.043150508813608212e+03
-8.906221412132746309e+02
-1.356685554374749358e+02
2.477384761626863678e+02
7.765915313173362620e+02
8.056420563144105245e+02
7.106640493346510539e+02
9.016156199749692632e+02
1.058540647221058407e+03
1.075447166412690876e+03
9.613868034561826335e+02
6.013957547622783295e+02
6.503574043225614787e+02
7.671705830446643404e+02
9.108090363839750125e+02
1.230337266352848474e+03
1.300684953003674764e+03
1.158809393960414809e+03
1.341628561626254168e+03
1.486164231530675579e+03
9.454165287381752023e+02
6.613404904708672802e+02
1.791948870097412055e+03
2.537198713298678285e+03
2.443041175745514010e+03
2.208507449502450982e+03
1.961585061566401464e+03
1.353246210692038176e+03
1.420445981851321221e+03
1.962134814884420166e+03
2.108242811070445896e+03
1.788562232484468950e+03
1.564092100913369904e+03
1.800994992805946822e+03
2.018277729938372204e+03
2.143866800023767155e+03
1.902698406447919979e+03
1.822808443850725325e+03
1.941149405095309248e+03
2.087711159762025090e+03
2.382490921022175826e+03
2.820445906083792579e+03
3.141519408526093684e+03
3.441724894886930542e+03
3.148942894608983352e+03
3.020186544065409180e+03
3.008613243125814734e+03
2.305213087706257284e+03
1.247833880604484648e+03
1.100410904544229652e+03
1.822923426400246854e+03
2.017399821293690138e+03
1.751836145563775062e+03
1.709137865699840404e+03
1.759317217496747389e+03
1.657448151179750766e+03
1.585559460851437052e+03
1.462582416460070135e+03
1.414523471656431639e+03
1.054453624186844763e+03
7.633475566921071049e+02
8.032503300986076056e+02
9.552059661422388217e+02
1.128142145373569292e+03
1.094046229031141365e+03
8.039906834783005252e+02
-1.374053737351923246e+03
-4.179124414233985590e+03
-7.448223340535470925e+03
-8.141329835071548587e+03
-7.631387487730388784e+03
-7.777388402039925495e+03
-7.568356189832216842e+03
-7.223264516009265208e+03
-6.209053803668623004e+03
-6.024711559305140327e+03
-5.762188241135277167e+03
-5.798439239111532515e+03
-5.758535184757035495e+03
-4.984599343408628556e+03
-3.758554647681689403e+03
-8.263348695077934281e+02
5.512415436308375405e+01
-3.904113689431572766e+03
-5.795039797612111215e+03
-5.838632978903649928e+03
-5.210859911954744348e+03
-5.197684903782428592e+03
-5.435077185574389659e+03
-5.557060495434456243e+03
-5.609521171475873416e+03
-5.847509472247059421e+03
-5.222024327304123290e+03
-1.289987436864971926e+02
2.104588268197609978e+03
-1.169254171076797320e+03
-5.430475110456250150e+03
-5.182067347262714065e+03
-3.771965956050069508e+03
-5.011870780310322857e+02
1.002268031886263998e+03
1.940473142046767862e+03
2.587493834866107591e+03
3.089396326286277144e+03
3.187192806920029852e+03
3.008918574500388331e+03
2.822583740933798708e+03
2.592156990373503959e+03
2.727680282570300278e+03
2.827214613879451463e+03
2.378793825900895627e+03
1.755550533406893237e+03
1.718772212206381027e+03
2.079105492839157705e+03
1.862414776187683628e+03
2.011996550094226905e+03
2.645986629041052311e+03
3.190102186836203600e+03
3.029248411382250652e+03
3.324825309647192626e+03
3.720178477945778013e+03
3.710442910471710093e+03
3.958151377744267847e+03
3.970909469291116238e+03
3.879905168291712016e+03
3.613223824661175058e+03
3.319943320069269703e+03
3.113065598784466147e+03
2.388915089090550737e+03
2.362371752069717786e+03
2.042646181860419574e+03
1.533717146131586787e+03
1.831593599736753276e+03
1.726020264829214966e+03
1.418454640386379879e+03
1.508726229969881160e+03
1.533966338062078421e+03
1.920616527873925179e+03
1.800941152577388948e+03
1.861295636988243359e+03
1.958078603036781715e+03
1.751590449775460456e+03
2.188721218442135523e+03
2.286655403671375552e+03
1.892616396720559806e+03
2.166435871129172483e+03
1.886211916004150453e+03
1.572454595439880904e+03
2.040019855539151649e+03
1.645554202216948852e+03
1.372881003359015267e+03
2.098765441049030869e+03
1.844389833889204056e+03
1.406961444500328298e+03
1.895239771174929047e+03
1.938072728058305984e+03
1.377430559235068586e+03
1.631395058226343963e+03
1.565923446340850205e+03
1.349856134509937874e+03
1.207238413153863576e+03
1.583112412542763423e+03
1.408476760214080286e+03
1.078316055290223176e+03
1.075538771035126956e+03
7.721296463607525311e+02
3.702495608887163030e+02
4.939222343788017611e+02
2.089967924437325166e+02
1.443829585568101663e+02
1.893611709839228752e+02
1.701053463262667265e+02
-1.814842491130571034e+02
-6.670272532879991445e+01
-1.929276852650277760e+02
2.874149456786888379e+01
1.134140174103394685e+02
7.116441963303574880e+01
1.780508725830043204e+02
6.270516008797889072e+02
1.207303875632514291e+03
1.218994196257230897e+03
-7.059631597527311442e+02
-3.202847209390568878e+03
-6.553896439540239044e+03
-6.812888162582758014e+03
-7.171609936502502933e+03
-7.284142102410542975e+03
-6.540601335468792058e+03
-7.577211983573101861e+03
-8.360687823516804201e+03
-8.281788746548492782e+03
-7.651782061220220385e+03
-7.567076673442958963e+03
-8.004737267314970268e+03
-4.888880241493064204e+03
2.666572149730884576e+02
3.299637812146410738e+02
-4.213042006599192973e+03
-5.147355637302111973e+03
-2.053171543175389161e+03
-1.289620296707000307e+03
-1.905784913922449277e+03
3.074196973521403606e+02
2.529137269855396880e+03
3.112466220179405809e+03
2.989348407866833895e+03
2.063576108712463338e+03
1.932082565017602974e+03
1.705977025498250214e+03
1.086330009987332460e+03
4.759485861183324573e+02
6.697576822879209431e+02
6.397906626370731829e+02
3.369370672969420752e+02
3.321399682776204827e+02
-4.643758429430968704e+01
4.349413792177814742e+01
3.602712750194940554e+02
2.149232092863601622e+02
1.229235112822570272e+03
2.183158324744160382e+03
2.182565671087231749e+03
1.678361869714245131e+03
1.873624501597369090e+03
2.176387023196666632e+03
1.936771350729093001e+03
1.158468329174225573e+03
1.229191308582581996e+03
8.412148563269659007e+02
6.364020453377536342e+02
1.001922494889784957e+03
1.095365761469905692e+03
8.817573173455741653e+02
7.279816985707108188e+02
6.718734888461294759e+02
9.407352960067840968e+02
9.642028379753827494e+02
1.024093001617455229e+03
1.065403337191872652e+03
1.031988780413537370e+03
8.154221525240197934e+02
8.646828694601449570e+02
6.567522888283718885e+02
7.369677985737247354e+02
1.045399330189682814e+03
1.048747180731642857e+03
8.897502722061663007e+02
5.862245697788863481e+02
5.211054493834128607e+02
5.127882957880508457e+02
1.224472348069741230e+02
-5.504541061136717417e+02
-8.168467164996583278e+02
-1.824745993060871797e+03
-2.573316419586064058e+03
-2.572614313321534610e+03
-2.321520568087394167e+03
-2.571461193560920037e+03
-1.424668974854584576e+03
2.811417983462668246e+01
1.446919506028298201e+03
2.448105400105885565e+03
2.547704424488856148e+03
1.748244766067455885e+03
8.055801458480774500e+02
5.742877405347690001e+02
6.705906876742471923e+02
3.768307888620514632e+02
-1.659963633716940592e+02
-6.388182350986671736e+02
-4.766485647366612852e+02
-4.880918278001607291e+02
-6.317873601204386205e+02
-8.153413058677280105e+02
-7.163375407793319027e+02
-3.788918103040990673e+02
-5.566540486848823548e+02
-6.497153783498031316e+02
-2.887784683964761712e+02
4.033739249369035207e+01
2.570872010481952543e+02
3.042372567196963473e+02
5.957178799305723942e+02
3.494941522071526308e-02
-3.607763838896480593e+02
-1.637215170448587855e+02
-3.111618624318402908e+02
-3.127607242219454520e+02
-2.377296835852768595e+02
-4.766776469116334169e+02
-4.653428497269530908e+02
-5.067046717571015506e+02
-8.557632904115389465e+02
-9.919833469400809918e+02
-1.033261598896224768e+03
-9.132672256292452175e+02
-9.260764151690891595e+02
-1.015648133517951123e+03
-5.226464994607255221e+02
1.692229279892856209e+00
-5.381423920819062090e+01
4.437669302797708042e+02
1.340164335089791393e+03
1.403231587889417142e+03
9.185605437120901797e+02
1.396281414651687101e+02
1.053972495906942726e+02
6.128825619660840403e+02
5.178042998059733009e+02
9.300131747756792322e+01
-1.072610594848184746e+02
2.346917729116209443e+02
-1.878995945689281086e+02
-2.684753229073354532e+02
-1.289922889146427920e+01
-6.983898883559714932e+01
-3.172204033125445335e+02
3.161999316151042194e+02
8.697330264971927818e+02
5.276908444404231204e+02
6.263866875412149966e+02
9.738585278289698408e+02
9.049488781521530427e+02
6.628056368045779436e+02
3.682951382015286867e+02
-1.103878467608928702e+02
-1.880357666385177708e+02
-8.775092473416744099e+01
-7.364893949405646367e+01
2.352477696601230761e+01
1.360913242266285579e+02
1.740286123734815931e+02
2.506137608697569590e+02
7.003480928259228904e+02
3.989199618567246262e+02
4.938849821821684714e+02
7.197262695743615950e+02
7.629667712398902495e+02
7.748482310866817215e+02
7.615466898570468857e+02
7.431446565691240949e+02
8.704057639359720042e+02
1.053995279113563811e+03
9.839621123812087262e+02
3.853708918521584224e+02
7.490787394806280872e+02
7.426885983683091581e+02
4.170801541499754990e+02
4.069620467034454805e+02
4.150466357129130870e+02
7.179103659664778547e+01
-2.002676045719163938e+02
2.816959260756884760e+02
1.268102475252520208e+03
1.320720139093682292e+03
1.090136928839921666e+03
1.021278837601730743e+03
8.290444906488129391e+02
9.747369401623425347e+02
1.349788155535326268e+03
1.885474105890820283e+03
1.887162698419200979e+03
1.693719516316082945e+03
1.682498325504464674e+03
1.309080436641833103e+03
6.293379227491597021e+02
2.152764038341585149e+02
4.953451345932064100e+02
2.406234460144902698e+02
2.414752622990545774e+02
3.159608515001192472e+02
9.107005097244946512e+01
-2.336481952000558977e+03
-6.211776256053137331e+03
-6.808530234148663112e+03
-1.501672355017541349e+03
3.456366158848895793e+02
7.543715700016055052e+02
1.372489419029431247e+03
1.593904166995180276e+03
1.721837141846396435e+03
-1.019802273045714628e+03
-6.561353702855823030e+03
-6.132556937766177725e+03
-5.138200271131413501e+03
-4.544629374833238217e+03
-4.442836585921824735e+03
-4.972630714208497011e+03
-5.242053383990966722e+03
-4.460097411837048639e+03
-3.526699454904183312e+03
-3.175003740834045857e+03
-3.647063140603349439e+03
-3.644020756448197972e+03
-1.038848855778582845e+02
-1.138456231101241201e+03
-3.679810354280419233e+03
-3.690893134298393761e+03
-3.093750868938948770e+03
-2.346446953322780246e+03
2.096019097672261069e+03
4.321538271990064459e+03
1.391256439282997803e+02
-3.721229173399771298e+03
-4.112610813911302102e+03
-3.909996326403534567e+03
-4.483332899947290571e+03
-3.099901254670312028e+03
7.933881133743169585e+02
1.953028155339847444e+03
2.460272972262238454e+03
3.075690924149196690e+03
4.302039022207525704e+03
3.851439240258343489e+03
3.102663274416514923e+03
2.870759280502874844e+03
2.309587436584413354e+03
2.051611715544587241e+03
1.505689579363047187e+03
-3.935965961374465678e+02
-1.920308855874466872e+03
-6.894417908975220826e+02
2.400511759385523760e+02
-9.767743349233674053e+02
-3.012893449364664320e+03
-1.495185572683752071e+03
3.247570316911489044e+03
7.948241889978574363e+03
1.018657959889055201e+04
8.007475261849738672e+03
4.111984614921120738e+03
1.513215720635463413e+03
-6.791738467822160885e+01
-1.408497226907237064e+03
-3.354524825368589063e+03
-3.642949739832182786e+03
-1.117773461632592216e+03
1.186869137733941898e+03
8.883525698287127170e+02
-3.225931153507226554e+03
-4.252905102543976682e+03
-2.513803880012956142e+03
-1.495538550239287815e+03
-1.195135470377254705e+03
-3.530678728104175207e+03
-1.983081133550474760e+03
4.570646829370655723e+03
9.439415825542924722e+03
9.139235309587411393e+03
5.041089727232574660e+03
3.556331972123174637e+03
4.797106341950230672e+03
6.243960081091792745e+03
7.177782860115714357e+03
9.494375398478488933e+03
1.039441131571689039e+04
8.763324239499552277e+03
6.831449170737969325e+03
5.059892497726986221e+03
4.898686310484256865e+03
6.672425261098884221e+03
8.510980338465427849e+03
8.138429991723585772e+03
6.722846335564135188e+03
6.507113875237714637e+03
7.450277421451813098e+03
6.988429099579015201e+03
6.166678823000064767e+03
4.783311035915205139e+03
1.316227124794153497e+03
-4.303885440403096254e+03
-8.637984337844167385e+03
-1.025906563662965345e+04
-8.030197511079042670e+03
-4.467261432820360824e+03
-2.713007359860808265e+03
-7.933423561556762706e+02
-4.201697319202382914e+02
-1.741830023227263837e+03
-2.738419636745093158e+03
-3.469778555874517679e+03
-2.685108582506203220e+03
-5.794383880023808160e+03
-1.380827742520079482e+04
-2.059584394995311595e+04
-1.696315562078296352e+04
-1.016722403129182567e+04
-8.032970406476592871e+03
-5.170296723937783099e+03
-2.213981913061079013e+03
-1.214945387081468652e+03
3.783751068854006007e+03
4.757837828495573376e+03
3.016309178694454204e+03
6.933358249804184652e+02
-4.818095296786468680e+03
-4.563972111968401805e+03
-4.760267568546290931e+03
-5.750033569790888578e+03
-2.010240202964113450e+03
3.831203816231617566e+03
5.812352436299182045e+03
4.884183265565217880e+03
7.417532479856664622e+02
-7.621786013032311530e+03
-1.509248966480747731e+04
-2.538326660065942997e+04
-3.021610699421760000e+04
-3.487303909907904745e+04
-3.533009955673821969e+04
-2.303518013437985428e+04
-1.265925067904012030e+04
1.297840222136169132e+03
1.377711584925028001e+04
1.242761592184512301e+04
1.404914530878232290e+04
1.674967910432163626e+04
1.008828396822107243e+04
1.492069230041867968e+03
-1.848823125774274331e+03
6.142654612453362461e+03
9.896422171566933685e+03
2.864367058265468586e+03
-1.889346539515054019e+03
6.780449975319446821e+03
1.902562167039316410e+04
1.988418111880552897e+04
1.216221633221755110e+04
6.995761761332400965e+03
5.585782480372797181e+03
-4.806729763945713785e+03
-2.043574369170212958e+04
-2.212428688381383108e+04
-1.114325027386805777e+04
-5.848550660767535192e+03
-1.157927859787006309e+04
-1.354147023723419989e+04
-5.312051819892471030e+03
4.019046767113603892e+03
8.119884663782783718e+03
1.454148948939471484e+04
2.339491085119797935e+04
2.922205621466685989e+04
2.645606290806367906e+04
1.974897451252713290e+04
1.729686252539235647e+04
1.797173066942690275e+04
1.905546941561499625e+04
1.998799847633292302e+04
1.441834209619646026e+04
8.844503439321511905e+03
6.437476975170938204e+03
2.271383813581804134e+03
-2.443732378031134886e+03
-3.830949386338519616e+03
-9.283295882307937063e+03
-2.003249187196002822e+04
-2.041243655381006465e+04
-1.028820717491686810e+04
-3.609166573190415761e+02
5.756589849893413884e+03
6.808350184168491978e+03
8.705298890549487624e+03
1.093335812966133562e+04
9.174480460092501744e+03
4.717674939734708460e+03
2.938016363571080092e+03
-4.414598894615538484e+03
-1.050135524404780881e+04
-1.033315410450509989e+04
-8.124885218080534287e+03
-7.925665061216086542e+02
9.875823420448810793e+03
1.303235295670230153e+04
7.235935671002033814e+03
4.482569128544646446e+03
5.412306028283284832e+03
6.951173915164205937e+03
4.198097926577935141e+03
1.448071626645548804e+03
-5.446876754953832460e+03
-9.070738223879865473e+03
-9.253472532477162531e+03
-1.159613305513493287e+04
-1.584172380591124056e+04
-1.727723255258480640e+04
-1.332065240463696864e+04
-9.132995669373576675e+03
7.767186845819636574e+02
6.264436192586254037e+03
9.210112985881733039e+03
7.780798614157145494e+03
-5.925009777756206404e+02
-8.958153110177305507e+02
7.558533671554632747e+02
