-2.168266129665890548e+04
-2.235988180791043851e+04
-2.268795186860702233e+04
-2.288238626448249124e+04
-2.432360666113405023e+04
-2.601211521036014165e+04
-2.551894629840113339e+04
-2.193103489244874436e+04
-1.756667264870790314e+04
-1.320471603992004384e+04
-1.262751624743047068e+04
-1.272766035335532433e+04
-1.152065176082657308e+04
-1.044396176476350774e+04
-9.616896234212405034e+03
-9.388654462148082530e+03
-9.414438156207641441e+03
-8.343625538512589628e+03
-7.223844218441115117e+03
-5.665662538129946370e+03
-4.542536475818565123e+03
-3.402721942718746504e+03
-1.295314338226561631e+03
7.671783366085289799e+02
2.291054259981683117e+03
2.981055731017374001e+03
3.804683977717058042e+03
4.671358762492129244e+03
5.931888716259509238e+03
7.492980138999580959e+03
8.591188384396384208e+03
9.243231849830659485e+03
9.831812018964186791e+03
9.878508230100916990e+03
9.459931820186617188e+03
9.628714689700394956e+03
1.019366883644012887e+04
1.084865520903037941e+04
1.132330347401430481e+04
1.118309530550691852e+04
1.082061789472758392e+04
1.017887773217714312e+04
9.720875239056818828e+03
9.483521157200424568e+03
8.683629584882410199e+03
7.260968010705010784e+03
6.181173005429737714e+03
5.414831628389559228e+03
4.071749876094172578e+03
2.556737627428842188e+03
5.675384311208078998e+02
-9.349922878198360650e+02
-2.989197669953873174e+03
-7.119441798284994547e+03
-1.228811712139646079e+04
-1.591154018621281830e+04
-1.736481777645221155e+04
-1.773042128319495896e+04
-1.830168683630771193e+04
-1.456796059524457087e+04
-1.296661355907959842e+04
-1.277107351768235822e+04
-1.334185129401354607e+04
-1.223240071259943397e+04
-1.087710283579367933e+04
-1.118150595497964787e+04
-1.143723590717717707e+04
-9.623891513398772076e+03
-7.457977375406761894e+03
-7.142053873063668107e+03
-6.951679979267029012e+03
-7.837603892205925149e+03
-8.818655604388759457e+03
-9.321660712698410862e+03
-9.680329546412549462e+03
-1.048835735967544861e+04
-1.058544137230995329e+04
-1.053537379037308528e+04
-1.074300390843236710e+04
-9.542162490395818168e+03
-7.806795253663462972e+03
-6.016746227870786242e+03
-3.824731125235370200e+03
-2.514506548139260758e+03
-1.026956958199581777e+03
8.988376976587565537e+01
9.989575187684398543e+02
2.725103105377108932e+03
5.946196917373378710e+03
1.143011941870000737e+04
1.575354825250438444e+04
1.755321297663917358e+04
1.944314075158512787e+04
2.109820084770254471e+04
2.416810670234852296e+04
2.788054818703631827e+04
3.169416871565456677e+04
3.578760637839810079e+04
4.049855719652504922e+04
4.394288888482722541e+04
4.517640426826854673e+04
4.531163316215258965e+04
4.498208939676787122e+04
4.528035141863709578e+04
4.525008916089979903e+04
4.438699772109577316e+04
4.419251908917632682e+04
4.421892602723530581e+04
4.292370044486836559e+04
4.060150649525913468e+04
3.844221272113572923e+04
3.779914473303960403e+04
3.629179803281252680e+04
3.473375047874363372e+04
3.397244121396332775e+04
3.262910929037515234e+04
3.075008855596831563e+04
2.913682190632172569e+04
2.749455443604387983e+04
2.852172855780104510e+04
2.571408246728987433e+04
2.265479990409468519e+04
2.094510314803182337e+04
2.003746868881779665e+04
1.748728041515582299e+04
1.412689974053941114e+04
1.021067803436720169e+04
6.249872023427709792e+03
2.738851416310171317e+03
-7.100798505539783037e+02
-4.541728195259893255e+03
-8.097856586235112445e+03
-1.088912138129095911e+04
-1.316712224667590635e+04
-1.531662698839187760e+04
-1.853841500977779287e+04
-2.180210762583688120e+04
-2.426137585879551625e+04
-2.664179890885652276e+04
-2.828394072950072587e+04
-2.921741680138503580e+04
-3.042608510799581927e+04
-3.140165743954458594e+04
-3.176870554565672501e+04
-3.191780829568309855e+04
-3.115950777392775126e+04
-2.968137781912567880e+04
-2.877202977107785046e+04
-2.886908176668806846e+04
-2.764407619110613450e+04
-2.649249050810666449e+04
-2.715888623820798966e+04
-2.800587161482733791e+04
-2.829288835954599199e+04
-2.889540182231168001e+04
-2.983389927020797768e+04
-3.035678212488685676e+04
-3.088243204194527425e+04
-3.105409473370247724e+04
-3.131315854198566012e+04
-3.139699093323190391e+04
-3.131700382127453486e+04
-3.116565904228982617e+04
-3.101639937815094527e+04
-2.989155225411913125e+04
-2.876907272595100585e+04
-2.688188296764982078e+04
-2.393605546892139682e+04
-2.179376540887083684e+04
-2.058316788114242809e+04
-1.938146074343259170e+04
-1.752196175313238928e+04
-1.605494874116578831e+04
-1.462362140745339457e+04
-1.212317418604593149e+04
-1.026189242901277066e+04
-9.805875396738814743e+03
-9.471256544055881022e+03
-8.370310058290755478e+03
-7.098256010499620061e+03
-5.792264479555889011e+03
-4.124532627125108775e+03
-4.434089754997998170e+03
-5.542970878414210347e+03
-2.251934829492542121e+03
1.046969309431968668e+03
3.325627524549132431e+03
5.724568820638734906e+03
8.224019327983160110e+03
1.013840910014986366e+04
1.175696822069377959e+04
1.304282960272609671e+04
1.397658000420813187e+04
1.465491780207740521e+04
1.572208719460542670e+04
1.705912076882447218e+04
1.817284491777192306e+04
1.881133339450677886e+04
1.922300357232063470e+04
1.919324278764530754e+04
1.844338744783559741e+04
1.724691881212998851e+04
1.672428899801871739e+04
1.848703419160995691e+04
2.091100928031594231e+04
2.266126557785367913e+04
2.335917753909769453e+04
2.539892934899767715e+04
2.746658961747978537e+04
2.928876268834879738e+04
2.977331565580313691e+04
2.968717085169824350e+04
3.019530182597981911e+04
2.926620623663822698e+04
2.568778047646211053e+04
2.227783081915903676e+04
1.982673716609362964e+04
1.758165102084567479e+04
1.533878550965231079e+04
1.300425651786684830e+04
1.263627564731525126e+04
1.316799711153111821e+04
1.457163739075243029e+04
1.594433553547039992e+04
1.712801514208059962e+04
1.800977771548493547e+04
1.910461928673734292e+04
1.832850012939095177e+04
1.736534097883570212e+04
1.537936839251678066e+04
1.336265661721784090e+04
1.198120559504335506e+04
1.046441817233166876e+04
1.075748636869727306e+04
1.539636386577364647e+04
1.796229632924994075e+04
1.602741430521191978e+04
1.173152609997523723e+04
4.524420967312711582e+03
-5.109489550345873567e+02
-1.702867893520862310e+02
2.025686790111419668e+03
3.093273215628702019e+03
3.067419393663658411e+03
4.641823945483170974e+03
6.817205220924936839e+03
1.091043784395545663e+04
1.487507863967957564e+04
1.604028945804000796e+04
1.517960075070963831e+04
1.458789453461203811e+04
1.423305331672215289e+04
1.536909020340475399e+04
1.878781948526635097e+04
1.770096563209691521e+04
1.506397128298052849e+04
1.476860739089417075e+04
1.356613537615388850e+04
1.057258991894004976e+04
8.871933578587146258e+03
1.027446028194923383e+04
1.524157017385919607e+04
1.465208709438454389e+04
9.115178684865100877e+03
7.236708468347741473e+03
1.088797904909478166e+04
1.438861453326399533e+04
1.526002118841571064e+04
1.447489276380691626e+04
1.274624494466742362e+04
1.114712959045865136e+04
9.718883445188734186e+03
7.515775089111193665e+03
5.188704863561121783e+03
3.302426712457586746e+03
9.395439713345928112e+02
-1.695788491459307352e+03
-4.321486476360796587e+03
-4.176120601013103624e+03
-3.751068075440688972e+03
-5.236713730071895952e+03
-6.632586867719074689e+03
-8.310551529334888983e+03
-9.264275351736438097e+03
-9.336392185363818498e+03
-9.404852488779501073e+03
-1.024699560410744380e+04
-1.129168331503065383e+04
-1.166293601985372698e+04
-1.351607167558573565e+04
-1.677696067911514183e+04
-2.056221897186876959e+04
-2.334595086913519117e+04
-2.332385904228081927e+04
-2.154790302436871934e+04
-2.132053971363456731e+04
-2.294055418190495402e+04
-2.284919930117825425e+04
-2.055787651266203102e+04
-1.688985999265015926e+04
-1.284951840154177080e+04
-8.883920184685490312e+03
-7.506169621004724831e+03
-7.977815258545569122e+03
-9.289229992663404119e+03
-9.392381993376664468e+03
-8.658853550742769585e+03
-7.480259631803464799e+03
-7.618227284009147297e+03
-7.510567967473369208e+03
-7.839574416785540052e+03
-9.767873241989449525e+03
-9.584344038522176561e+03
-9.647999418851150040e+03
-9.827787075986452692e+03
-8.932285075614654488e+03
-8.450710223560698068e+03
-8.696797345059630970e+03
-9.064885963830041874e+03
-8.687066763867171176e+03
-7.860826610683760919e+03
-6.757485697733648522e+03
-5.868004397104554300e+03
-5.275817880660763876e+03
-4.598780198734330042e+03
-3.651873964472055377e+03
-3.683221833186537879e+03
-3.712296405049887198e+03
-3.890892322069991678e+03
-4.854761940771839363e+03
-6.014172163973350507e+03
-7.822379808419028450e+03
-8.999293147083890290e+03
-9.759936811160865545e+03
-1.146728625982893573e+04
-1.357325181772373435e+04
-1.604619021974297721e+04
-1.869755259224782640e+04
-1.978751622490648879e+04
-1.965444756721507656e+04
-1.854933352379332791e+04
-1.641502052784004991e+04
-1.332827319366578195e+04
-1.130409429318748153e+04
-1.085836400027258605e+04
-1.071588440494540919e+04
-1.130741864005574280e+04
-1.289824436504955884e+04
-1.375452065379434680e+04
-1.345458282306305955e+04
-1.290538441706852427e+04
-1.198731013704956786e+04
-1.199166227851350413e+04
-1.373074770656747387e+04
-1.519162472571324906e+04
-1.502083243354516890e+04
-1.261965008877014407e+04
-1.059979294435059091e+04
-1.001416874858208212e+04
-1.026492870016594134e+04
-9.915388863164680515e+03
-8.325117024715898879e+03
-7.308509762569779923e+03
-8.791887165604623078e+03
-1.142166099109052084e+04
-1.339261171980936342e+04
-1.307263504485641351e+04
-1.372945174126996244e+04
-1.365987628971662707e+04
-1.196354291318065225e+04
-1.127400206469274053e+04
-1.240620195467956182e+04
-1.377905075404188574e+04
-1.445648013298950718e+04
-1.729249741279076989e+04
-1.989408247215041774e+04
-1.872839629394500662e+04
-1.831993036229376958e+04
-1.926366117329100598e+04
-1.935461832653322926e+04
-1.861067226490642133e+04
-1.728742769229661644e+04
-1.609952660461254345e+04
-1.575346582030321042e+04
-1.443770508883059847e+04
-1.296187248694079426e+04
-1.260055223726482654e+04
-1.331708799331528826e+04
-1.370284540845251831e+04
-1.352515263024283013e+04
-1.386237386737766792e+04
-1.506705256682385698e+04
-1.638372381077143837e+04
-1.799894230124430032e+04
-1.933144067004433600e+04
-1.957991649991715531e+04
-1.825217792583086339e+04
-1.836102867989894003e+04
-1.911520700177583058e+04
-1.949761298587729470e+04
-1.926119954339563628e+04
-1.905001858175468442e+04
-1.891324202357166359e+04
-1.894213867987179037e+04
-1.887489403941765704e+04
-1.892466527300795133e+04
-1.931189642580833970e+04
-2.034195129874449049e+04
-2.193313522488245508e+04
-2.384607593011556673e+04
-2.540658803594015990e+04
-2.672141862892150311e+04
-2.879847272679392336e+04
-3.038988977683937992e+04
-3.045778969508834416e+04
-3.104740474868491947e+04
-3.174501563695309233e+04
-3.275018850511571145e+04
-3.439370169421652099e+04
-3.753636328005429823e+04
-4.285406334631298523e+04
-4.627783796832850203e+04
-4.665173869272829324e+04
-4.540777706634152128e+04
-4.322223476979248517e+04
-4.016830755586075247e+04
-3.556615314331940317e+04
-3.141200990955011366e+04
-2.784233124936675449e+04
-2.405059742965921032e+04
-2.013938569380918852e+04
-1.693257597943853762e+04
-1.228603786286766081e+04
-6.663713888388313535e+03
-2.226633797225988019e+03
1.574015447038376806e+03
4.897900065821862881e+03
7.453601316225963274e+03
1.058463601600607944e+04
1.220966040375935518e+04
1.501824769910500436e+04
2.107646685555063232e+04
2.696949890143891025e+04
2.977159872308840204e+04
3.290180517119822616e+04
3.944611184289539233e+04
3.870145388667182851e+04
3.726356749386035517e+04
3.944015351750654372e+04
3.929796155982750497e+04
3.743072067533540394e+04
3.434503722818427195e+04
2.977548417854973377e+04
3.227231560842528052e+04
3.132098655944401253e+04
3.271203765447207843e+04
3.573098417913639423e+04
3.519524654426302732e+04
4.065520113233625307e+04
4.345123926534425846e+04
4.513439948111060949e+04
4.751385969174283673e+04
5.097888125031452364e+04
5.540883094576985604e+04
5.713487383794347261e+04
5.633126656390106655e+04
6.070524251022635144e+04
6.410017823848290573e+04
6.478440130693573155e+04
6.857609050627592660e+04
7.193876101827670936e+04
6.974903363848081790e+04
6.998136848390958039e+04
6.986313996083455277e+04
7.036580432510297396e+04
7.059992862936289748e+04
7.098511207393241057e+04
7.198783321188142872e+04
7.499874087344575673e+04
7.922645903402812837e+04
8.162078840899167699e+04
8.502966583077379619e+04
8.678110425893306092e+04
8.633784642192746105e+04
8.283992286072594288e+04
7.980446999682644673e+04
7.634585211594730208e+04
7.086562594904316938e+04
6.827442667499520758e+04
6.678702640871985932e+04
6.357309571276535280e+04
6.239011196145795839e+04
6.289714373313027318e+04
6.042468680943666550e+04
5.407116140336565877e+04
4.622021842312830995e+04
4.060128619817844447e+04
3.788790715450904099e+04
3.879472266310971463e+04
3.977966246226667863e+04
3.777579105136405997e+04
3.173010873009818533e+04
2.273278670554739801e+04
2.024003922189428704e+04
2.130418529126081194e+04
2.026901918028154250e+04
1.807955277026425756e+04
1.494777431714462909e+04
1.280391117463672890e+04
9.596996791076586305e+03
4.218099219584658385e+03
-6.416269498185572047e+03
-1.917806417446450723e+04
-2.835644043524354856e+04
-3.762526298356067855e+04
-4.625023530517469044e+04
-4.916017400109135633e+04
-4.461880347270989296e+04
-3.773575946986566851e+04
-3.417780786702350451e+04
-3.740649062729081197e+04
-4.493986140117429750e+04
-5.403209730744899571e+04
-5.843656412450551579e+04
-6.428057806235059979e+04
-7.957945353648930904e+04
-9.330619692995870719e+04
-1.009265927699360473e+05
-1.020493831292618270e+05
-9.976407757058253628e+04
-1.082120073327667924e+05
-1.190524105491256196e+05
-1.242903598990957689e+05
-1.242179173198891076e+05
-1.263830440619713336e+05
-1.272857336428322014e+05
-1.276195982307585218e+05
-1.299569119894510950e+05
-1.255500198119477864e+05
-1.231712079363861412e+05
-1.229556986730568169e+05
-1.297625933847485430e+05
-1.367089037332780717e+05
-1.377084192048776022e+05
-1.334298241157555021e+05
-1.262878933153676480e+05
-1.242120569477062236e+05
-1.250476709141510073e+05
-1.209001293127293029e+05
-1.192178186504855694e+05
-1.248993600519017928e+05
-1.331862173719332786e+05
-1.356824042630947079e+05
-1.225098946938986337e+05
-1.060689458811571822e+05
-9.777488827473099809e+04
-1.014770300056530250e+05
-1.026735544699198799e+05
-8.670445509869894886e+04
-6.872550398763170233e+04
-6.032355387929001154e+04
-4.476841354217907792e+04
-1.387796755457135077e+04
2.128475716389839727e+04
4.815974727952089597e+04
6.022519483383264014e+04
7.315610632446980162e+04
8.279962504307246127e+04
8.723492612604623719e+04
8.389379274222995446e+04
7.022624038313060009e+04
4.671207929776841775e+04
2.094395025480500408e+04
-8.350438963218352001e+03
-3.674838640419016883e+04
-6.052520544305229851e+04
-8.179538419167132815e+04
-9.927749304502921586e+04
-1.094562590364864445e+05
-1.159224525517620350e+05
-1.215758301655834075e+05
-1.301673652244030382e+05
-1.331091361510767310e+05
-1.177922525061212509e+05
-9.984494356027155300e+04
-7.715860247831763991e+04
-4.060273937493722769e+04
-1.065011132183162772e+03
3.183686604951984918e+04
5.553392769660823251e+04
6.713810121450072620e+04
7.788324641051524668e+04
9.740818234846368432e+04
1.259254963866406761e+05
1.694894801389654749e+05
2.153352759616508265e+05
2.383777894606417394e+05
2.493235715599753603e+05
2.593910252438178868e+05
2.643824436872485094e+05
2.653051890924263280e+05
2.626315700950143510e+05
2.566796742350937566e+05
2.492123684089879680e+05
2.387303713895173860e+05
2.236782036188408383e+05
2.072402088202177256e+05
1.839866215207168425e+05
1.517394315928642172e+05
1.212095176169211045e+05
9.609970742929122935e+04
7.074338859396419139e+04
4.595466687581376755e+04
2.800141638899489408e+04
1.633349775736547235e+04
9.277617918883748644e+03
6.675216235709061039e+03
4.744569547576066725e+03
5.156733528819550884e+03
1.120159755610429966e+04
2.265699031330745129e+04
3.362059592924154276e+04
4.210687128968298202e+04
5.109914655357931042e+04
6.110749493846739642e+04
7.242281002950365655e+04
8.747677486545163265e+04
1.026440075906918210e+05
1.170606431306568265e+05
1.301168070004505716e+05
1.412584583290378505e+05
1.501125416047483159e+05
1.569189836468350841e+05
1.634128520339739916e+05
1.659607110962823499e+05
1.647336839521871007e+05
1.607745217093583778e+05
1.543830199605420348e+05
1.450079441260641324e+05
1.341520467715222039e+05
1.226108823232417926e+05
1.085368287802061241e+05
9.167741384381179523e+04
7.444202727221722307e+04
5.741869334243478806e+04
4.227532478595068824e+04
2.932587690960556210e+04
1.665517184341853135e+04
3.402816705910345718e+03
-9.383611840192044838e+03
-2.257145707888737525e+04
-3.589917633244494209e+04
-4.956646892554168880e+04
-6.279914670071553701e+04
-7.490064850245586422e+04
-8.664260672761760361e+04
-9.739698162473637785e+04
-1.078776943470951956e+05
-1.180046083602331200e+05
-1.282366168970026920e+05
-1.379676535824767489e+05
-1.464655950066804944e+05
-1.539273229833536025e+05
-1.592836899479672720e+05
-1.622974914250514121e+05
-1.643685741296625347e+05
-1.659487840313077031e+05
-1.657109868010394566e+05
-1.643800325194094912e+05
-1.630026874615467677e+05
-1.604567928267261013e+05
-1.563232280466120574e+05
-1.500117218243942189e+05
-1.434519580622234207e+05
-1.383395400566513417e+05
-1.342909973924725200e+05
-1.315846830882502254e+05
-1.301867781105593895e+05
-1.303827461076998443e+05
-1.297500388527722680e+05
-1.301079892663895298e+05
-1.312847688080800872e+05
-1.320705223426671873e+05
-1.313033382245409302e+05
-1.295010708067406231e+05
-1.265844463645520882e+05
-1.219671266034305154e+05
-1.168446566675772920e+05
-1.114793016970227618e+05
-1.067465595866266376e+05
-1.015647605590283638e+05
-9.569590741714986507e+04
-9.035692564569017850e+04
-8.582647377436578972e+04
-8.162615296437032521e+04
-7.751461493859956681e+04
-7.260885942908504512e+04
-6.641297755636296642e+04
-6.011740250871214812e+04
-5.282225224640142551e+04
-4.515308717047507525e+04
-3.659044514555695059e+04
-2.755683694582224416e+04
-1.965319561367392453e+04
-1.292542626371975712e+04
-6.222745056791800380e+03
1.036087762718679869e+03
8.800982140467338468e+03
1.748750134313598028e+04
2.283442927193778087e+04
2.708306881641320433e+04
3.197079905651356239e+04
3.754525329761929606e+04
4.264580330846716970e+04
4.709811673568679544e+04
5.268122196028800681e+04
5.719111132342724159e+04
6.123960318902901781e+04
6.460849754581617890e+04
6.812095301250074408e+04
7.174638020066542958e+04
7.561849337174055108e+04
7.910484229777491419e+04
8.263278496982989600e+04
8.595109155314849340e+04
8.794535886852350086e+04
9.046421499795190175e+04
9.289917357416720188e+04
9.535203132114918844e+04
9.721595140028733294e+04
9.833695384987774014e+04
9.935771152356537641e+04
9.996599339004093781e+04
1.001997886900889280e+05
1.008921328874743922e+05
1.011960518160974461e+05
1.017727217051119078e+05
1.035177065371834469e+05
1.066674429323215008e+05
1.071257116900738183e+05
1.045064026685240970e+05
9.981547266664332710e+04
9.332583366709380061e+04
8.693454555220592010e+04
8.124773688122723252e+04
7.619725649938228889e+04
7.141615811124368338e+04
6.636384433589880064e+04
6.097054803765793622e+04
5.592347892031113588e+04
4.987021649250969494e+04
4.269853659097618220e+04
3.468903636171285325e+04
3.023608519838408756e+04
2.699298940591263454e+04
2.428693017106987827e+04
2.196334030826928938e+04
2.032298654526120299e+04
1.920584594449814904e+04
1.918689740515296580e+04
1.790223087681032121e+04
1.628493659476528046e+04
1.540306728207808737e+04
1.528815540931802025e+04
1.752471432164920770e+04
1.941854852112202207e+04
2.058819839495249107e+04
1.691624427691498931e+04
1.498071660840213553e+04
1.461337804322948068e+04
1.474449969580854486e+04
1.415262001666387550e+04
1.208512136787846248e+04
9.859869634823327942e+03
7.908373281273950852e+03
5.998466552514249088e+03
4.209355756395383651e+03
2.402531539841297672e+03
-2.360717974453948997e+01
6.961310151230024985e+02
6.553692514541068022e+02
-2.170893508136747187e+03
-5.908965736833697520e+03
-8.682004528766396106e+03
-1.168870192308033074e+04
-1.492194378238410354e+04
-1.734359823118476925e+04
-1.873142149354072899e+04
-1.944271827120353919e+04
-2.100859263721164825e+04
-2.389130460563618180e+04
-2.731062085067820590e+04
-3.010377015658158416e+04
-3.171195416226352972e+04
-3.259324810453101236e+04
-3.385352990306098218e+04
-3.511603690043641109e+04
-3.579213817182026105e+04
-3.682288839494962303e+04
-3.754975307463494391e+04
-3.725580736610673193e+04
-3.726235560132128739e+04
-3.646369863085218822e+04
-3.508941287664840638e+04
-3.394227327009390137e+04
-3.220890087157317248e+04
-3.152243793792047290e+04
-3.133258709708132665e+04
-2.977635211158470702e+04
-2.750356487848821780e+04
-2.511420430794055210e+04
-2.312752217423063848e+04
-2.230694930272183046e+04
-2.255736619984206118e+04
-2.229974313945837275e+04
-2.175654039295412076e+04
-2.211335876310964159e+04
-2.239372760389944597e+04
-2.134757027136644683e+04
-2.077893597656041311e+04
-2.079125194785496205e+04
-2.050064422794064012e+04
-2.065448331155171763e+04
-1.981921607029064035e+04
-1.841828692179205609e+04
-1.718439725053112852e+04
-1.453075262483600090e+04
-1.225161627114625298e+04
-1.065350337067042165e+04
-9.694557823237910270e+03
-9.241754022948834972e+03
-8.075380660728898874e+03
-6.355288288893781100e+03
-4.095495348290231959e+03
-2.265113751674642572e+03
-8.466217449884505868e+02
1.488632714477207628e+03
3.720450507774042308e+03
6.106868330300182606e+03
8.337211974121135427e+03
1.129459820121523990e+04
1.437506228967111019e+04
1.687841190742767503e+04
1.891956088635657943e+04
2.082904977712856271e+04
2.242618342988522636e+04
2.404766742802938461e+04
2.522565627383777246e+04
2.788454470110563852e+04
3.126295746945176143e+04
3.369129579945269506e+04
3.728816575911534892e+04
4.138399724221592624e+04
4.340639169605515053e+04
4.340456284383872116e+04
4.186101104488573037e+04
3.952159153617187985e+04
3.691718336114608246e+04
3.447669368515774840e+04
3.096215159675039467e+04
2.594147362177746982e+04
2.065374906857473979e+04
1.586729785758400067e+04
1.199430967509726543e+04
8.647443779390014242e+03
5.509651953559462527e+03
3.314084559756782255e+03
7.046146399416294344e+02
-1.983499153187981847e+03
-4.154225546289964768e+03
-5.817040490517439139e+03
-7.825420093257375811e+03
-1.114878047228529431e+04
-1.422974731655617688e+04
-1.652164722910740966e+04
-1.952495102083689562e+04
-2.435043815799538788e+04
-3.001397564872631119e+04
-3.547387175108891824e+04
-3.758121881649317947e+04
-4.007533457454449672e+04
-4.122458933574418916e+04
-3.978436945458426635e+04
-3.633515246526474220e+04
-3.628812785669877485e+04
-3.685059683751410921e+04
-3.711358052376063279e+04
-3.834897306403752009e+04
-3.632251591990951420e+04
-3.580570372583997232e+04
-3.243739614714286654e+04
-3.072507770803013045e+04
-3.211310928018907362e+04
-3.462674638991768734e+04
-3.719138790687490109e+04
-3.889320352711409942e+04
-4.155425731352040020e+04
-4.422772068761962873e+04
-4.378169031976660335e+04
-4.129695797786451294e+04
-4.028533233581187960e+04
-3.983689227157287678e+04
-3.766387171683168708e+04
-3.509553528041134996e+04
-3.453287208624524646e+04
-3.511988510970439529e+04
-3.518553902628460492e+04
-3.455674673294241074e+04
-3.451936353308323305e+04
-3.508421913011929428e+04
-3.358425467863004451e+04
-3.095547178325386994e+04
-2.994474439641948265e+04
-2.948597772091391016e+04
-2.909310639320683913e+04
-2.893402183824927124e+04
-2.954055189282651190e+04
-2.981663553542848967e+04
-2.987727320588986549e+04
-2.951337852062320962e+04
-2.829796094137179898e+04
-2.693605960649487679e+04
-2.542158529122085747e+04
-2.348642181830647314e+04
-2.115054906233344809e+04
-1.871486200928743710e+04
-1.636314614045620692e+04
-1.376732227122343284e+04
-1.149035578869716119e+04
-9.329270726143655338e+03
-7.236965575110842110e+03
-5.558190741684470595e+03
-4.079653328726188647e+03
-2.670992605636191911e+03
-1.975811589717994138e+03
-1.111712731412098265e+03
-4.554268090798684625e+02
6.024400777543193044e+02
1.367315440103430092e+03
2.264532779408524675e+03
3.125336111874840299e+03
3.920008174664989383e+03
4.803798763727958431e+03
5.754852579373818116e+03
8.145378909155912879e+03
9.745644884378703864e+03
1.077200162858545809e+04
1.146162108914903911e+04
1.125266900169591645e+04
1.184347817294968627e+04
1.177252129677881567e+04
9.540334595313253885e+03
9.501415238182224130e+03
1.189831580322199625e+04
1.331639884255595098e+04
1.246914526879807636e+04
1.082801014842199766e+04
9.759500969126294876e+03
1.170812784203836600e+04
1.096243625567359049e+04
1.124513543887693777e+04
1.141594801337914578e+04
9.279591520636307905e+03
1.185466398675640085e+04
1.332864457574643711e+04
1.368402450557393240e+04
1.391573714115843723e+04
1.610552587928477260e+04
1.405099182249560181e+04
1.491782131996655517e+04
1.546169471356357099e+04
1.525635408566793376e+04
1.664721861323760095e+04
1.654270167971774208e+04
1.404435270088990546e+04
1.227096074804814452e+04
1.318514137564005250e+04
1.548824607997270869e+04
1.449565783187067427e+04
1.359801570258723223e+04
1.043184327481356195e+04
1.198459264034446642e+04
1.015273110040899155e+04
1.143161597291464932e+04
1.227566581765977207e+04
1.006834314368164814e+04
1.192200873310039970e+04
1.337080372628099758e+04
1.307096152216708833e+04
1.258388410630243743e+04
1.159989658842869721e+04
1.027516170232678269e+04
8.796831499464740773e+03
7.782881473071290202e+03
7.234334625301243250e+03
7.866131529422790663e+03
9.172566126297497249e+03
9.363964542968422393e+03
9.970508811069132207e+03
1.123526000800589463e+04
1.116713931041085743e+04
1.007016269830863712e+04
8.320345025198261283e+03
6.683618159298831415e+03
6.273328788114379677e+03
6.569639459639716733e+03
7.024274807026103190e+03
7.927021795422044306e+03
8.200758768264720857e+03
8.265342461456721139e+03
8.303322269327369213e+03
7.927263730159633269e+03
6.910665105086726726e+03
5.771061080676629899e+03
5.125903340623304757e+03
5.260505003475687772e+03
4.669252386443132309e+03
1.279919591419198923e+03
2.236797491270631781e+03
1.856258753347083484e+03
-4.563150882994494282e+02
1.482300439654940874e+03
2.975690584147771006e+03
3.068260719917964707e+03
3.743553597459966113e+03
4.201677489563045128e+03
4.471834394584438087e+03
5.368335034426465427e+03
6.355530134079152049e+03
7.311989110830147183e+03
7.629970398744487284e+03
8.223414782276400729e+03
8.705451098647723484e+03
8.482627884121537136e+03
7.989298925834436886e+03
7.248321345919221130e+03
6.389521279443718413e+03
5.346908527366001181e+03
4.445832664964334981e+03
3.757901903774051334e+03
2.944266745450529470e+03
2.579157081826818285e+03
2.102734535087126460e+03
1.650060351221816745e+03
1.894244631407862471e+03
2.133592950402776751e+03
2.599385715619068378e+03
3.645035285238839606e+03
3.705064275586927124e+03
3.586826611043986304e+03
3.158587854708434861e+03
2.472625136268761707e+03
2.771347241950243642e+03
2.840123408854150057e+03
1.530207542867228540e+03
4.740099698007535949e+02
-7.998513903854436080e+01
-1.163256127177265626e+03
-3.202206261295484182e+03
-4.023337275547342870e+03
-3.698255311360481755e+03
-3.753451328374266268e+03
-4.183397528939883159e+03
-4.497281965003297046e+03
-3.884274681212029009e+03
-2.886963551040596030e+03
-2.505818252203167503e+03
-2.444102250547292897e+03
-3.470048087787953591e+03
-4.169743636743576644e+03
-4.175225605794510557e+03
-4.345606385528632927e+03
-5.538014337413153953e+03
-5.741495296536290880e+03
-5.436048949517609799e+03
-7.398676716155210670e+03
-1.210932409835167709e+04
-1.553299273799887487e+04
-1.640175913803787626e+04
-1.314844636101058131e+04
-8.806891911991586312e+03
-9.530978108086374050e+03
-1.363344781841582881e+04
-1.302924497068779601e+04
-1.160804460400300741e+04
-1.053638462889657058e+04
-8.743778687392836218e+03
-4.951832707860190567e+03
-7.381873262996664380e+02
1.143670618162146638e+03
1.926288300017159372e+03
2.408264044802689114e+03
2.709245933600656826e+03
3.003777870804269241e+03
2.777613436694501615e+03
2.257408518862804613e+03
2.132752792624786252e+03
1.689244988764566415e+03
1.299683551138406756e+03
1.292044829255130253e+03
1.167272961941997437e+03
5.812366032481417051e+02
-3.511953494646144236e+01
-5.637346016898404741e+02
-1.170517154821654231e+03
-9.014886112910346583e+02
1.384368815694857915e+02
9.123262396441599549e+02
1.214190502370630384e+03
7.410656479917912520e+02
3.233700443053950266e+02
2.233221855855639717e+02
-7.289530415840441435e+01
-6.200106840962946535e+02
-1.805673849253008257e+03
-2.795569342343311746e+03
-3.987285489033325121e+03
-5.390372626374643914e+03
-6.682287915032482488e+03
-7.061485817905029762e+03
-6.844551398770106971e+03
-6.435110337629023888e+03
-6.371847815022654686e+03
-5.483526715288691776e+03
-3.549815930508176734e+03
-2.653259072358809590e+03
-2.324421528598631539e+03
-1.485829009023445224e+03
4.639572306481991859e+02
1.729578359502941339e+03
2.679448949046246980e+03
3.151864006293272723e+03
3.077270574651126026e+03
1.997234817693613195e+03
1.352017068672918867e+03
1.233827510485034054e+03
1.101814745446003599e+03
4.784841659677583721e+02
-8.749861258749226636e+02
-1.533501165729373952e+03
-1.210833977190222868e+03
-2.974868380454428916e+03
-4.969473435579162469e+03
-7.158415597277920824e+03
-9.039440329357857991e+03
-7.858809431159961605e+03
-7.040318886548052433e+03
-6.550154782844700094e+03
-6.192200637386855306e+03
-4.762228887045462216e+03
-4.999185695038818267e+03
-5.960114963706622802e+03
-5.713125549658327145e+03
-5.335239751816427088e+03
-6.724646844426473763e+03
-7.412748344727010590e+03
-5.519977259055217473e+03
-3.961532725896797729e+03
-3.241678447549590601e+03
-3.446813401611887002e+03
-2.978297687230386146e+03
-3.241286381486901519e+03
-3.062105277364418725e+03
-2.881295850104264900e+03
-1.967342438198287027e+03
-3.465995897111561703e+02
1.139560465558196483e+03
2.287307698172373875e+03
3.914977475210070224e+03
6.332983049195809144e+03
8.419539794464813895e+03
1.060989826444943901e+04
1.310131748347801476e+04
1.481895753124737894e+04
1.544385485923515989e+04
1.576008124867614788e+04
1.566870150477341485e+04
1.524977251002117373e+04
1.487430665742424935e+04
1.433127052221941085e+04
1.370550093314221340e+04
1.351180941010442621e+04
1.414783048382768902e+04
1.502436265827121679e+04
1.614411188890708218e+04
1.764877791463979520e+04
1.934010516300631934e+04
2.101685656235950955e+04
2.307665765141592419e+04
2.567609276261051491e+04
2.889770705716825250e+04
3.193906714707503124e+04
3.530859504886782815e+04
3.863373510230286047e+04
4.213783262666070368e+04
4.564428341305606591e+04
4.930356397936696885e+04
5.337505580485505925e+04
5.775918289424170507e+04
6.194334494284551329e+04
