2.692387957818651103e+03
2.764313784246446176e+03
2.878200985441725607e+03
2.923977511739191868e+03
2.902836495526170893e+03
2.609495830085294983e+03
2.109770856553644535e+03
2.017804434428102013e+03
1.666524283065911732e+03
1.223885256589054279e+03
8.698950180762874425e+02
9.944696851981601640e+02
1.010720903760767442e+03
1.045701968941160658e+03
1.025410228254274443e+03
1.337901278942302270e+03
9.241914764429798197e+02
8.783080111344957004e+02
1.788332151037507629e+03
2.136390249432193741e+03
2.820556458062140337e+03
2.648877034811489466e+03
2.893069249692539870e+03
3.453220869316405242e+03
3.384672189950322263e+03
2.728297817221525747e+03
2.323113116761763649e+03
2.507387742828471801e+03
2.609207836051135018e+03
2.286552256209306961e+03
1.664408046348913331e+03
1.415841703884284925e+03
1.311882794823528684e+03
9.166412502536941247e+02
1.061280602373635020e+03
1.513088640783258370e+03
1.745184947376382297e+03
2.165631650411652117e+03
2.071478864809849711e+03
2.814939694721930664e+03
3.430204633284652573e+03
3.525452754489670951e+03
3.382898626609886833e+03
3.095649759461006852e+03
2.565770567187945744e+03
2.265418477106353748e+03
1.611773027474718447e+03
8.770116820157779784e+02
7.922116570005310905e+02
1.056349775509295341e+03
7.734808302323041289e+02
6.066872019995072378e+02
4.142385699932746661e+02
-3.296832559515609091e+02
-2.520090431580949826e+02
3.483681012830448367e+02
1.165613672843061750e+03
1.186858721169909359e+03
1.322271836411062395e+03
1.958002625556548310e+03
2.317123519534037769e+03
2.492854208079932050e+03
2.593284612229826507e+03
2.332640635013578049e+03
9.779238493937126577e+02
-1.168077451858229523e+02
4.455792184882788547e+02
7.701591888105879207e+02
3.090565846295319830e+02
-5.796554801707899287e+02
-4.969324642626272635e+02
-8.027743085111868595e+02
-3.159311668639272739e+03
-5.324462017733507309e+03
-4.892053015737216811e+03
-6.557035286315981466e+03
-7.988213064055596988e+03
-2.493629315351958212e+03
2.136695178508603476e+03
3.416942323722409128e+03
2.908136341931784955e+03
1.360258315613597915e+03
1.926344719109561538e+03
4.259579723542079591e+03
5.456960991129568356e+03
3.799417171559046437e+03
-2.455017835798526903e+03
-5.318391644582474328e+03
-5.720804647068139275e+03
-5.092261564953098059e+03
-6.664741985390688569e+03
-2.151280255468977430e+03
-1.780912507913237278e+03
-1.676672807791322555e+02
-8.425357267848036145e+02
8.724460030330361633e+02
1.330272513304730865e+03
-2.806813838419006046e+01
7.764140962836684139e+02
-1.796348548181081469e+03
2.375009856106354107e+02
-1.894021332437827368e+03
-1.025878790597664420e+03
-5.436107921654795064e+03
-4.434792363125755401e+03
-2.989970470523988752e+03
-1.970683788464653389e+03
5.369838035218492678e+02
3.823964915528345045e+03
3.101267398528495505e+03
1.647715068416896429e+03
-2.004777643713282941e+03
-4.702563235141258815e+02
-2.848758113715515719e+03
-1.754369036453020499e+03
-1.079083017291232863e+03
-4.749875598098111027e+02
2.829804660073473315e+03
4.054244757358135303e+03
2.440383625728175502e+03
4.820176160757287107e+03
4.715502482874904672e+03
4.533295632599366400e+03
4.764592038740821408e+03
3.898327954415751719e+03
4.163431715976160376e+03
4.257869983427295665e+03
3.366553952137835040e+03
2.926334305655638673e+03
2.864237779202238926e+03
1.944254405358358099e+03
1.319259259435706099e+03
1.748864012384973648e+03
3.792808393410635404e+02
-9.845690435226825912e+02
1.243963424814401833e+03
5.018706977197411106e+03
5.162980255609593769e+03
2.030409312588073135e+03
-2.200991039776969046e+03
-1.987319062189527131e+03
1.086647310412785146e+03
3.314539878381299332e+03
3.876286460264742345e+03
4.170026084844724210e+03
4.200608589495103843e+03
3.585844095856970398e+03
2.562017646233988216e+03
1.063700541579276887e+03
-1.162426289487248141e+03
-3.258178956116649260e+03
-1.623560573532623266e+03
5.312665110970685589e+01
2.245746942514575949e+03
3.030825373442994987e+03
9.729248349847456439e+02
5.029270058521585156e+02
6.784278387639187713e+02
1.111674277999479045e+03
9.022122398940933863e+02
2.641568510450297822e+02
-3.422813944231690897e+01
-3.670690683337099927e+02
-1.031494442092859344e+03
-1.625814879458893074e+03
-1.645999393884137135e+03
-1.254184978538203950e+03
-7.724309128585590543e+02
-1.502609893624616234e+03
-3.903316255283677947e+03
-7.454930892774775202e+03
-8.160763258324273011e+03
-7.551147321472638396e+03
-5.716634972159883546e+03
-3.029527641355217838e+03
-1.320929409205519960e+03
-1.879004749205192411e+03
-1.399860867559231565e+03
-2.254723552520744079e+02
-1.358076886203609206e+02
-4.019694380292345954e+02
-4.249446814805119175e+02
-3.907238016371689469e+02
3.627251236115403685e+02
8.073335613363001357e+02
-2.270017432469261678e+02
-9.913573629379415024e+02
-1.383658232188464353e+03
-1.653003178378944995e+03
-2.246476728583073964e+03
-2.729042528289073289e+03
-2.908677452381245985e+03
-2.873508381376328089e+03
-2.309526392962317914e+03
-3.008088617640926827e+02
-5.545293151322811127e+02
-9.176340508306399215e+02
1.069683943821772800e+02
8.802079697432361627e+02
1.234127471263997904e+03
1.797727081243685006e+03
2.192024509995578228e+03
6.420680675348500017e+02
-1.862117981819662873e+03
-3.694583408157760005e+03
-7.964309160703108319e+03
-7.463250120046178381e+03
-6.251338408629388141e+03
-4.935631851819149233e+03
-4.215104897747510222e+03
-3.840697577852732138e+03
9.245077008731444721e+02
7.033906736876455170e+02
-4.413969303383909391e+03
-4.938483037519072241e+03
-4.923197639605757104e+03
-5.631952838530150075e+03
-5.544656900435271382e+03
-3.800253188492919890e+03
-1.812668695647350660e+03
-3.540308315857670323e+02
3.250844756548407986e+03
4.577915224415710327e+03
6.061121745370240205e+03
6.478812854604711902e+03
6.110217712593308534e+03
5.499378373275481863e+03
4.446318024561366656e+03
4.158058608813758838e+03
3.463458562331673875e+03
2.501430303014145011e+03
1.948239702964670187e+03
1.390161315764716846e+03
8.182543534714450288e+02
1.123439761390559624e+03
1.352550661481436236e+03
8.336176055287901363e+02
1.181754820125320066e+03
2.071103165273278591e+03
1.511835380901148483e+03
1.316034266855211399e+03
2.055773610607012415e+03
3.674240807497085825e+03
4.004560057347239308e+03
3.742947043696890887e+03
3.419463805085769764e+03
2.321021812406481786e+03
1.346587328234912775e+03
5.363085090572009221e+02
1.633722837848996505e+02
7.958185996953646146e-01
-1.004252243410851122e+02
-4.973781520868658390e+02
-1.242912350466877342e+03
-1.795784839685079987e+03
-1.676834190902731279e+03
-1.540172424050079371e+03
-1.436859525715107111e+03
-7.907789099904000523e+02
-4.327597750872935762e+02
8.562041548327414375e+02
8.782496722070616215e+02
5.724737949811218414e+02
5.707410322874624171e+02
9.562496265911034925e+02
1.061223987912482471e+03
1.338635445727491515e+03
3.602901493651295368e+02
-5.748353468428084625e+02
-9.465455645818337871e+02
-9.855029185368462095e+02
-1.215680029824643498e+03
-2.074094688657803090e+03
-2.991611268633787404e+03
-2.235119122905362929e+03
-1.338492306614484278e+03
-1.269982946804673247e+03
-1.786465877005221273e+03
-2.611756110934491517e+03
-1.463889893717091809e+03
-3.447533615147299315e+02
-2.938209921957250685e+02
-1.756009875289451543e+02
4.920781624692827450e+02
4.390890827307345603e+02
3.613024725790389766e+02
2.019693502552668747e+02
-2.745360304920343992e+02
-7.323715366736781789e+02
-1.309199976175257461e+03
-1.474248117715982289e+03
-1.191572620793582928e+03
-1.508425097886333560e+03
-1.906245700324335303e+03
-2.801610847998591908e+03
-2.915306122153521301e+03
-2.764471734794310578e+03
-1.613718935662102922e+03
-5.232606958989956638e+02
6.280070579956455958e+02
1.267260105269851238e+03
1.819491154749858197e+03
1.958365599602474958e+03
1.900530397344441553e+03
1.356032529974652789e+03
-1.831110880596738468e+02
-7.979985382341585591e+02
-1.259248179624845307e+03
-4.913230591409816839e+02
7.963693207280996944e+01
-4.789297543896886822e+01
-6.442676959403942192e+02
-7.336498087573904741e+02
-5.932346146649219918e+02
-8.304652293827795120e+02
-7.823757648043724657e+02
-5.687515087849412794e+02
2.840153500341944550e+02
6.852352306652642255e+02
1.770164249305485555e+03
2.565641415910003616e+03
3.168977379302716599e+03
3.185883366997621124e+03
2.877493363032082470e+03
3.000621192985439393e+03
2.801982240424843894e+03
2.684430068739127364e+03
2.681704289741868706e+03
1.776045436741146432e+03
6.465386204302112674e+02
-5.331588961320206010e+01
1.282529937284226378e+02
1.158953844501289495e+03
7.291567293067477067e+02
-9.732544479759273770e+01
1.515415506237005275e+03
2.509131360249773479e+03
2.399724695927584889e+03
1.874682499160391899e+03
2.549627251890902244e+03
3.091977110498964066e+03
3.287033840738194613e+03
4.073137370511975860e+03
3.987330968496627975e+03
3.380018283001175405e+03
3.084932718887795545e+03
2.999744658760260336e+03
2.634381924953273938e+03
2.033236360632587775e+03
1.583151464219639593e+03
1.339319287196683035e+03
8.949504179859383157e+02
8.010299171939883536e+02
7.951871924421465110e+02
1.106523095661424577e+03
9.488968480466875235e+02
7.931865063744342024e+02
1.205726011095289323e+03
1.949992112689774103e+03
2.482388228436351255e+03
2.334689422785248553e+03
2.809699384339114658e+03
3.258218190119067913e+03
3.323022456582621999e+03
3.195769948312369252e+03
3.228529342210849336e+03
3.046993264607570836e+03
2.343301472139872658e+03
1.855634166149152406e+03
1.174732438982112171e+03
4.833021730713636543e+02
-5.392236437620222489e+01
-8.205608384350123288e+02
-1.510629752656177061e+03
-2.257588335684083177e+03
-2.427714741578152370e+03
-2.388361430038352410e+03
-3.016937179025060232e+03
-4.466277918561834667e+03
-4.897579640393860245e+03
-4.893081329337628631e+03
-4.418788013448202037e+03
-4.052154094521285515e+03
-4.052412861250325932e+03
-4.585125711387165211e+03
-4.048732423192124315e+03
-2.510164789360680061e+03
-1.218339226287629572e+03
-2.945762820921161165e+03
-1.808059124458181941e+03
-2.661360386532577493e+01
-9.628831512904974943e+02
-3.930016010827286664e+03
-1.450120171861738527e+03
-3.423354263957132389e+03
-4.527241088921038681e+03
-5.835560987048025709e+03
-2.938314730081721336e+03
-3.561905932825342461e+03
-5.101367365933510882e+03
-3.358997339520296009e+03
-2.029756528790879656e+03
-2.441727005065383764e+03
2.479027686673775406e+03
3.693191558976383476e+03
2.164987632508836668e+03
3.171822890491970156e+03
1.708406248192990233e+03
1.937292587550146436e+03
1.277332040980332977e+03
-3.347346571246290296e+03
-4.444279566745711350e+02
-1.539270489393831667e+03
-5.303882862348133131e+03
-2.733330400937345530e+03
-4.200449136573934993e+03
-5.001090666769615382e+03
-2.632200450775762420e+03
-4.069489630945290173e+03
-2.725866669753932456e+03
-3.781732000429869913e+02
6.377991858475166964e+02
8.805605917654321502e+01
-2.178277343633327746e+03
-1.753975779086665170e+03
-4.349817298894713531e+03
-2.433529478025131084e+03
-3.055796038200987823e+03
-3.890523558030043205e+03
-2.212627937038696473e+03
-1.460058290263451681e+03
-2.418651138662822632e+03
-2.529109484677744604e+03
-2.492928580265847359e+03
-2.817037177357197379e+03
-3.077133936677554630e+03
-3.555795536260823610e+03
-3.814782525932795579e+03
-3.889764539204909852e+03
-2.911395051437267739e+03
-2.693389006078035891e+03
-2.272480021680813934e+03
-2.594300425307019850e+03
-2.077531730912099647e+03
-1.761957204713369265e+03
-2.467334747063443046e+03
-2.221403875532793791e+03
-1.278963829361272474e+03
-8.278659637558724853e+02
4.031349172839384778e+02
7.332194817282589838e+02
-1.018582986100135372e+03
-2.087003079860917296e+03
-1.945889184408576057e+03
-2.439228791218961305e+03
-2.611800086495050891e+03
-2.760432754651516007e+03
-2.592009211410691933e+03
-2.652619880132907383e+03
-2.657072528570006398e+03
-2.360134509194450857e+03
-2.387786907760019403e+03
-2.235787801133042194e+03
-1.436133286239717336e+03
-6.088142713185160346e+02
2.704325759524223258e+02
1.870841028815805430e+03
2.309526746291177460e+03
1.130281115204579237e+03
-1.172683927879239185e+01
-6.225402503152780582e+02
-1.790787373846037099e+03
-1.672262464165321035e+03
-1.183728216080502762e+03
-2.262265518117612828e+03
-3.595038666736404139e+03
-3.553186257295994892e+03
-2.814720464785463719e+03
-4.092783970263854826e+03
-7.087682163002572452e+03
-7.562502162594445508e+03
-5.481251961290339750e+03
-3.082137884503574242e+03
-1.108322833883282556e+03
7.290417643444966416e+02
7.526880191955258397e+02
-1.302351565733332791e+03
-1.700226890570462956e+03
6.307839439875170910e+02
3.753518514567727379e+03
6.012727325976592510e+03
5.492994167096824640e+03
4.161077189972945234e+03
2.724840907095512193e+03
1.769073926707669216e+03
1.439439416616901553e+03
7.966576475155668504e+02
2.413526851313089310e+02
5.031700354699822810e+02
1.007807370018265942e+03
3.169091080478488038e+03
5.907664817234204747e+03
7.052231044064311391e+03
6.589567385052056125e+03
6.766216752144337988e+03
8.383750425971444201e+03
1.013986591033513287e+04
1.093215478077102125e+04
9.958323622311638246e+03
9.279964280008651258e+03
1.046964347894440652e+04
1.388391902803870107e+04
1.573042765041600433e+04
1.540765932887524286e+04
1.543119190672718651e+04
1.681058613506869006e+04
1.740444538541658767e+04
1.890330072958000164e+04
2.072681870076358973e+04
1.955352031945489216e+04
2.016609882653126988e+04
2.277023781318929832e+04
2.439550825980777154e+04
2.252948273801701362e+04
1.917375475171045400e+04
1.648977526965943616e+04
1.692011388951611298e+04
1.674337469547912042e+04
1.561310356835907623e+04
1.424491815628916265e+04
1.341745092856678639e+04
1.442117015774086394e+04
1.054067599936110491e+04
6.877588047873051437e+03
2.925568313613994178e+03
-3.288583557143057988e+03
-1.025149016604100871e+04
-1.324451397339492542e+04
-1.167886819146065500e+04
-7.939828199694675277e+03
-5.203811996147784157e+03
-4.437140219186549984e+03
-1.017116668859575384e+03
7.806002193964493927e+03
1.669509482118769665e+04
1.811091655894440555e+04
1.577394487992126233e+04
1.208483227744782744e+04
3.608306075134312778e+03
3.032539663886810786e+02
2.208448386673460391e+03
7.010715369651453329e+03
1.202784711541742763e+04
9.411604618909195779e+03
2.211730915654081400e+03
-6.069929653709687955e+03
-1.466951555439554249e+04
-2.659114340571736102e+04
-3.236193420856742887e+04
-3.105495857950127902e+04
-2.908927541681156072e+04
-2.569493940504303828e+04
-2.224483587890036870e+04
-1.257500827840963211e+04
-6.481503537465898262e+03
-1.514138699984464074e+04
-1.979263100497293271e+04
-1.504015130116372711e+04
-1.004185931388059907e+04
-5.352725620224689010e+03
-5.912700814436644578e+03
-6.258680350771997837e+03
-2.043515247963001912e+03
-1.662098833057096272e+03
-1.061132936336575040e+04
-1.764396260134045224e+04
-1.392791978595313412e+04
-5.005957233903637643e+03
3.384171849119584294e+03
4.541775114408092122e+03
4.431083638353572496e+03
4.533696415197833858e+02
-6.283021358255002269e+03
-1.662582301381020807e+04
-2.576672345006172327e+04
-3.796633152970793162e+04
-4.573421243851406325e+04
-4.049898538620967156e+04
-2.446646392498726345e+04
-1.161231289492486940e+04
-2.211009604413012312e+03
-3.891160639486952732e+03
-1.104952204833777796e+04
-7.308553454446076103e+03
4.982272008811872183e+03
4.692443622578240138e+03
-7.651057990672396336e+00
-6.454473638703209417e+02
-2.769736496950818400e+04
-5.244895141114211583e+04
-5.996463906000670249e+04
-5.512687872368618264e+04
-5.099114785807933367e+04
-4.780393420211436751e+04
-4.360766226534176531e+04
-2.802873459230636945e+04
-1.358546330912378608e+03
2.120447860747743835e+04
2.581101060328951280e+04
2.736359919163113955e+04
3.080078437317646967e+04
3.776411002221747913e+04
4.305923974389818613e+04
3.267676771917418591e+04
2.344820619298922611e+04
2.261617120045081901e+04
1.347035847170551460e+04
6.155379454975844055e+03
2.591584841049895113e+04
5.008939323935628636e+04
5.107862677156568679e+04
4.219812099075809238e+04
3.835252965333109751e+04
3.582850388814306643e+04
3.340663576567381097e+04
3.350355656715138321e+04
2.597989096524265915e+04
1.725223032867121583e+04
1.235815317357214917e+04
6.774221540066507259e+03
-2.820971772028967280e+03
-5.729845370367551368e+03
-2.757941733008936808e+03
2.152741142987147782e+02
4.374391950867862761e+03
7.066039437910487322e+03
7.752689035518169476e+03
7.357766989429357636e+03
1.362733887812951707e+03
-1.016390759548817186e+04
-2.024769605555161615e+04
-2.523913648717242177e+04
-3.097386360931632589e+04
-3.908558421755542804e+04
-2.828489753990168174e+04
-8.277148608591964148e+03
-5.731174474659362204e+03
-1.044671646744774080e+04
-1.549626143456080354e+04
-2.211134949405231237e+04
-2.314210538076941884e+04
-8.189870058139496905e+03
-3.977363830699420760e+03
-1.017131559175900111e+04
-7.095867525144063620e+03
-5.311555641801931415e+03
4.269881535397353218e+03
1.550138818068394903e+04
1.216916512351780329e+04
4.248452677466906607e+03
1.395876136393005027e+03
-1.993274331697739171e+03
-3.923839317785929325e+03
1.354392668085308742e+03
3.638626008389071558e+03
2.653718989818172759e+03
2.074933691932972579e+03
2.347308851791527559e+03
6.197173510130654904e+03
9.963944467300289034e+03
1.200867691017775178e+04
1.485290896907475690e+04
1.737380198086288510e+04
1.812705431741832581e+04
2.087844536829363278e+04
2.289686253492610922e+04
2.452088643600998694e+04
2.676706852457823697e+04
2.747232361344327364e+04
2.786964734869646782e+04
2.901477677694800150e+04
2.938322652537368776e+04
2.849522335997696064e+04
2.676809669444533210e+04
2.549331888097818228e+04
2.351707678198671420e+04
2.037534275951444943e+04
1.721696803732629633e+04
1.383050920867753302e+04
1.120246766665518044e+04
6.733404284888110851e+03
3.110835613695084703e+03
2.633265095089166721e+02
-3.689561711020401617e+03
-7.071398130283047067e+03
-9.636741593224764074e+03
-1.115524940097926992e+04
-1.268640205529688501e+04
-1.432377102420850861e+04
-1.495285571835284463e+04
-1.550326545700456336e+04
-1.572557622199057732e+04
-1.572536148124514693e+04
-1.577531186239615454e+04
-1.629903016761831168e+04
-1.595103849024897863e+04
-1.485806925407079871e+04
-1.358663518217317869e+04
-1.282624589794867097e+04
-1.225353060241198546e+04
-1.195826827092855456e+04
-1.053212112449101005e+04
-8.572832179175740748e+03
-5.878141966148908068e+03
-5.604765478725052162e+03
-6.543296984604340651e+03
-7.633139603821532546e+03
-1.011898372497687524e+04
-1.483961278794078316e+04
-1.720869436894803221e+04
-2.015287401359010255e+04
-2.053479082179268516e+04
-1.875320713505154708e+04
-1.559286827832427298e+04
-9.187350399373901382e+03
-3.667178430227131230e+03
-3.648938226919238787e+03
-8.402289368928977638e+03
-1.076483760611515390e+04
-1.087729010475806172e+04
-1.083927798331971462e+04
-1.030634381004847091e+04
-9.925053372455298813e+03
-8.641071089234703322e+03
-4.616079308278214739e+03
-4.373383574659525038e+03
-3.185396677090788216e+03
-9.698960626715568196e+02
-1.345352447748967393e+02
1.921081370322663986e+02
-1.345461804138878961e+02
-1.429018821126847342e+03
-6.646998494990675681e+02
3.151490250515122966e+02
6.550711882563524568e+02
1.631359342630424862e+03
2.306382350386078087e+03
1.441772154146238336e+03
3.263519375363250106e+02
-2.952416802053165839e+02
6.316135860306721952e+02
1.710534918543146205e+03
1.550184264028054258e+03
4.122601685036527215e+02
-6.954921030364226908e+02
-6.594474134687965261e+02
3.371084904827305877e+02
5.217837364947270089e+02
1.156259983042235262e+03
2.669402498071004629e+03
2.917132303756277906e+03
2.142267328639107291e+03
2.415500316597857818e+03
2.424617019219257145e+03
3.759588360495390134e+03
4.773379208191923681e+03
4.927873934741800440e+03
4.509864516635501786e+03
5.269102415965588079e+03
4.805560288509002930e+03
4.039348893324276105e+03
3.407435208866018456e+03
2.695749131576525997e+03
2.336328460283131335e+03
1.877154136666117665e+03
-1.575175031465799158e+01
-4.970303881777059019e+02
9.262717829335375654e+02
2.420050408898572641e+03
4.540533226233324967e+03
5.980146916860401689e+03
5.726110199917593491e+03
5.690569738060461532e+03
6.288567558575595285e+03
6.228657546631590776e+03
5.696157569561430137e+03
5.261401458928810825e+03
4.698550647471599405e+03
4.349882284963554412e+03
3.257109987985119460e+03
1.788247762355892291e+03
1.949650104212325687e+03
7.618708382611558818e+02
-4.656034443663987190e+02
-1.032673617816514479e+03
-6.343097702766525572e+02
-5.713324811906358036e+02
-1.133353039982486962e+03
-1.720907074536319442e+03
-1.875983518709753753e+03
4.624144738962663581e+01
3.052060918495416900e+03
3.035404422425091525e+03
2.157990522206412152e+03
1.253371030424875471e+03
1.267450502017209374e+03
1.073393639126753897e+03
6.382328971110755447e+02
7.050992266095101968e+02
3.222834618849766457e+02
-8.822582211321702061e+01
-3.384761433047302148e+02
-2.167400136025777044e+02
-2.484081562897972049e+02
-3.816153032243311714e+02
-5.921782615836907553e+02
-8.141367535603263832e+02
-1.668126424342832252e+03
-1.889911079722436853e+03
-1.665116146541631906e+03
-1.872828438015037136e+03
-1.712435660011584787e+03
-1.429323767062445086e+03
-1.115224964561439947e+03
-8.604702031050826463e+02
-6.767544713686087334e+02
-7.476710012047730061e+02
-1.310413442650896059e+03
-1.362569818358604607e+03
-1.701075724674560888e+03
-2.075269764882383697e+03
-1.870907023202209757e+03
-2.277548419321811707e+03
-2.360551558549249876e+03
-2.194025879361259285e+03
-1.622697684614503260e+03
-1.736709253678640835e+03
-1.486558965854304915e+03
-7.624897272141480471e+02
-3.957789903997232273e+02
2.042142092963104005e+01
1.576559412218440741e+02
9.727893673778282846e+02
2.448993668130382503e+03
2.422647807789552189e+03
2.652017973433987208e+03
3.028382356205268024e+03
2.425128485304278911e+03
1.711315965599774245e+03
1.794780926084632256e+03
1.700991133019824019e+03
1.196425379610494247e+03
4.562269661197490223e+02
4.859910998966243483e+02
1.266707158667473550e+03
2.103969860881852128e+03
2.847510565485931238e+03
3.249751932976870194e+03
3.613039941076636296e+03
3.614522447073268268e+03
3.389353623559708467e+03
3.058607221767235842e+03
3.031444031690224165e+03
3.000713116362925120e+03
3.815446137348394132e+03
4.536941047066980900e+03
4.700456183525173401e+03
4.461987931473138815e+03
4.492326197448662242e+03
4.275869098064939863e+03
3.231826288732984722e+03
2.477043973264198030e+03
2.647356072975795541e+03
2.091811246217431290e+03
2.124503021171147338e+03
2.475265100652189176e+03
2.564394338464799603e+03
1.875541443470138120e+03
1.824907553921725594e+03
2.177327041979834121e+03
1.775334119842448672e+03
1.845956495754242042e+03
2.050423244765400341e+03
2.210480464309116087e+03
2.437437685072633030e+03
2.164170278925987986e+03
2.141999122097848613e+03
2.256077974403001463e+03
1.655767663440139813e+03
1.103840640821544412e+03
4.904972990724153874e+02
1.113716190218188729e+02
5.718899796540392799e+01
-5.320418456531889433e+02
-9.572714814326278656e+02
-9.730808027331624999e+02
-1.245951478700159214e+03
-1.484858480943040831e+03
-1.467046571720150496e+03
-1.734440843196787455e+03
-1.895909889473159183e+03
-1.629111138969650483e+03
-1.099124185957419741e+03
-5.930389259381389593e+02
-2.973871769005969554e+02
-7.401593647538305731e+02
-1.407311576222092754e+03
-1.761400173212613026e+03
-1.474963771766457967e+03
-1.333615772113597359e+03
-1.534664789754454205e+03
-1.737024884689282771e+03
-2.337832484628381735e+03
-2.678962031684305657e+03
-2.423918803011712043e+03
-2.381761756972923195e+03
-2.749190075722552137e+03
-3.706640635419810224e+03
-6.973139370089426848e+03
-6.148948002812381674e+03
-5.555860637094375306e+03
-5.405903050980011358e+03
-2.394001656757034198e+03
-2.917386364293866336e+03
-4.465293268641408758e+03
-3.689230011871492025e+03
-4.419576716457795555e+03
-3.527439367960577329e+03
-2.589114930675225423e+03
-3.238828393173663699e+03
-9.926784138886687288e+02
-1.211037966412531205e+03
-1.465054600931404138e+03
-3.396959284809612654e+03
-4.622044957906068703e+03
-4.176386120008285616e+03
-5.779081802808952489e+03
-7.850332589415578695e+03
-6.347234605369412748e+03
-4.288840288170488748e+03
-6.948234011279032529e+03
-2.660629390823245558e+03
-3.547147497924959225e+03
-1.639771844199505949e+03
-1.519581679618456064e+03
-1.492664826554622778e+03
-1.135172724414345794e+03
-1.398959021297633171e+03
-1.100214269456479769e+03
-2.591868700204013862e+02
6.900532133652930611e+01
9.628224484588591281e+01
-3.554442529029637967e+02
-6.904040975266655096e+02
-1.034751439204299686e+03
-1.340591717728053254e+03
-1.238048031484083822e+03
-1.068267867747020091e+03
-1.770448327826653667e+03
-2.959775218894224963e+03
-3.416373778551344913e+03
-2.957358409964794646e+03
-2.813910769283449554e+03
-1.693191170733837680e+03
-9.763602540472359124e+02
5.084664345088723962e+02
1.756167799969939551e+03
2.456614919902534893e+03
2.354504919759571749e+03
9.916407294940269139e+02
-1.228234222085208103e+03
-3.389160022388117795e+03
-2.338173544801511525e+03
-1.008182941450759699e+03
-1.416038588343679976e+03
-1.830543228907793946e+03
-1.288918041939981549e+03
-4.917324641207996194e+01
2.744533837125368336e+02
4.887005949087249519e+02
7.624268715735855722e+02
8.544753933827722676e+02
1.405355243642671667e+03
2.046945875231200944e+03
2.266703422845843761e+03
2.578758209035978325e+03
3.228951929264788760e+03
3.104151688178983932e+03
2.742360138869414641e+03
2.532390017607618574e+03
1.647804114245913979e+03
1.987469810621227225e+03
1.970716012793503296e+03
9.485810029738921685e+02
1.099706503987388487e+03
1.579032213198772524e+03
1.379536169505109456e+03
1.222237836988062327e+03
6.181614621492881270e+02
2.331678159713362390e+02
1.294205015691130939e+03
2.231216756763173180e+03
2.216184962117888972e+03
2.699148030851828025e+03
3.668141309147975790e+03
4.005265929461500036e+03
3.762552920573757547e+03
3.192833036150693715e+03
2.961951022246247703e+03
2.440919849595122287e+03
2.418892739888949109e+03
2.001951039370879926e+03
1.636962538128535698e+03
1.424835027118283506e+03
1.326622987045902846e+03
1.164293655665168217e+03
9.727696600943359044e+02
1.398162595727910457e+03
1.754529062524165283e+03
1.869806938311392514e+03
2.747124231997352581e+03
2.926373677801620943e+03
2.899648772732431553e+03
3.120069266202302970e+03
3.828670185915495040e+03
3.903342972201871362e+03
3.662209966908817933e+03
3.238291659181775231e+03
3.188661265072749757e+03
2.581401251445143316e+03
2.106448153282495696e+03
1.666802536946890541e+03
1.768646286451976493e+03
1.655942760064320510e+03
9.695534715616165613e+02
9.285106966044345427e+02
8.557824597048398800e+02
-1.013637319713042189e+03
-4.143550350825277746e+03
-7.301940002294085389e+03
-7.050762492610333538e+03
-6.694845548826826416e+03
-5.513135293501307387e+03
-5.045621539701337497e+03
-2.125284087187247223e+03
2.096934111565197782e+03
2.687115212998958214e+03
2.854382100931127752e+03
2.627588788587503586e+03
2.059920320538301894e+03
1.123446803243481554e+03
5.251942001827424065e+02
7.020562726396751714e+02
1.344051415303495787e+03
1.995320125358736959e+03
1.230929397560716552e+03
7.690812786247060728e+01
-1.439265779255505322e+02
2.843004418535298896e+02
8.829319753178048131e+02
1.136165515975074641e+03
1.213027093580421251e+03
1.597484915023061376e+03
1.998655233019526122e+03
2.365617967117591888e+03
2.335322849921305988e+03
1.855786897920574802e+03
1.863069087161835114e+03
2.347228350462673006e+03
2.397191388684408139e+03
1.701053697015641546e+03
1.326891474925709190e+03
1.179738194149780838e+03
1.084636549398837133e+03
3.366389072176938839e+02
-6.031895679104344481e+02
-6.148284565241362998e+02
-2.246373018599727267e+00
5.766154848517033997e+02
1.207794625962039845e+03
1.352363322888523953e+03
1.206388091654384425e+03
1.528867943369548129e+03
1.848825684325890734e+03
1.886375838439237668e+03
2.182538922329386423e+03
2.127345820326631838e+03
1.978826166479327185e+03
1.712979688664614741e+03
1.704884833201243509e+03
1.801529415167827892e+03
1.818974480681377827e+03
1.496169849047882508e+03
1.085135436097536967e+03
6.509319231656378406e+02
5.653688849537245176e+01
-6.859578763676859126e+02
-7.745031499058677582e+02
-2.659708241655171150e+02
-1.994598377166379919e+02
2.429854701287420937e+02
6.705633934250417951e+02
1.139259944103266662e+03
1.966159426596281719e+03
2.267360965409983692e+03
2.629894004786333880e+03
2.649737055775141926e+03
2.736923829403337095e+03
2.666498698541453450e+03
1.203557624821374702e+03
-1.203878580604647823e+03
-4.596933506148030574e+03
-7.180632824138040633e+03
-7.601943179096106178e+03
-7.238821558158924745e+03
-7.105200063729377689e+03
-7.597020415512323780e+03
-7.715197459741641069e+03
-6.937654383804328972e+03
-6.505387229632431627e+03
-5.507344785715728904e+03
-4.357567037424570117e+03
-4.372042749393704980e+03
-4.165705326683862040e+03
-3.917474293960995055e+03
-2.203281156852914364e+02
1.341760250807032889e+03
-2.709115212891585998e+03
-4.288954804272587353e+03
-3.734783452433328421e+03
-3.652589848731636266e+03
-4.022407760517150109e+03
-4.618242646121643702e+03
-5.328989342229914655e+03
-2.452564993114846857e+03
1.483998203542871124e+03
-7.703623218292441379e+02
-4.841550015057710880e+03
-4.998547026694470333e+03
-4.714344460454934961e+03
-4.092905292811533400e+03
-3.061228865202204815e+03
5.626739773963269045e+02
7.488946538525267442e+02
-2.373486269620314033e+03
-2.590420180746585174e+03
1.555037760941295346e+03
4.663866831868762347e+03
4.782049705386006281e+03
4.142492760494411414e+03
3.809220865842939020e+03
3.242292638102133424e+03
2.374644607739170624e+03
1.403260989710870263e+03
1.679135001074246475e+03
2.415285106031119994e+03
2.389722625015711856e+03
2.049424583692516990e+03
2.981333371631901173e+03
3.034450502592125758e+03
3.424744013344537507e+03
4.395217005401198548e+03
5.050705641881451811e+03
5.376465758134172575e+03
6.051751491827947575e+03
5.702480519392298447e+03
5.716225708856594792e+03
4.988173009524347435e+03
3.900376142462739153e+03
2.880516920108671911e+03
1.739647566425075638e+03
1.183077971385690716e+03
5.184828987215868210e+02
6.288552193911166199e+01
2.643178711063372361e+02
3.249928717496330819e+02
2.947489871403486745e+02
4.122073624705112707e+02
9.263695488925898189e+02
1.282175512469774958e+03
2.066988595110710321e+03
3.215437362742448840e+03
3.029493678936298693e+03
2.976432392142353820e+03
3.010076235563392856e+03
2.976080035558947657e+03
2.717853986806603643e+03
2.452852093675814103e+03
2.533165718889395521e+03
2.013655304847413163e+03
9.633977120615080594e+02
-2.175985305706358304e+02
-8.315167730424949468e+02
-9.589581012042899602e+02
-6.972259288388605682e+02
-1.696923262159568822e+02
3.781019978114399578e+02
4.551845932222916531e+02
-9.521803919958072981e+01
-2.586644159396293503e+02
