-1.425780200390970776e+03
-1.740128221602128860e+03
-1.937104833048228784e+03
-2.144721918675991219e+03
-2.965953580865860658e+03
-4.527759289425823226e+03
-5.090111025872412029e+03
-2.548127658174929365e+03
8.660315868137187181e+02
2.705325381204991118e+03
2.533672762055880867e+03
1.778996962416753377e+03
1.276316717061872623e+03
3.445416107332830506e+02
8.875483132431309059e+02
2.054205857593541623e+03
1.125427044138243218e+03
5.161214437048442960e+02
2.242397252956121463e+02
3.906423530643466506e+02
6.681910265835171003e+02
1.138695518580858135e+02
-4.994795614534270385e+02
-3.839574310724047450e+02
1.813577842301065743e+02
6.413572350831536824e+02
9.891964189073850378e+01
1.689161514377119317e+02
1.103564475079934653e+02
-7.681322209821061620e+01
-3.079296846608545124e+01
6.273128907369944045e+02
1.188451997788328754e+03
1.330626672599948733e+03
2.180646091744030400e+03
1.611248827757703566e+03
1.172419315799311107e+03
3.910865579885550005e+02
-8.385311462390072279e+01
-6.215129872986866530e+02
-1.260124977470509748e+03
-1.946700480407665736e+03
-4.052368570085206102e+03
-5.968307387680735701e+03
-3.797495330053570797e+03
-2.599005635295209231e+03
-3.144305881611757741e+03
-1.722303399350160362e+03
-5.328050492005088472e+02
1.590453015340209788e+02
1.319748650004103638e+03
1.911321030904287682e+03
1.602084599978637016e+03
1.550742590241066864e+03
1.711074991827225858e+03
2.092056475826742371e+03
1.788562263552953482e+03
9.464571647118543751e+02
-3.733324710491315557e+01
7.100201648630460340e+02
1.770108585471357898e+01
-2.249357632112466945e+03
-1.880637307822325965e+03
-1.721944151690076978e+03
1.436085968278351572e+02
1.159729474343138008e+03
-6.743924435172142466e+02
-1.810240468327499229e+03
-8.545929973603400640e+02
1.301647320868686847e+03
1.662170736453294012e+03
1.462748233753937029e+03
2.701516530256646547e+03
3.319482161931520750e+03
3.209584322848706961e+03
2.893685212826717361e+03
2.771691049880826085e+03
2.310551258652144497e+03
2.322271592180937660e+03
2.226060380273918781e+03
1.758334875232011882e+03
4.029912006429061648e+02
-4.788376555618179964e+02
-9.981779369367959589e+02
-1.543753846941014899e+03
-2.396855625763070748e+03
-3.406772883114467732e+03
-2.994330836788245506e+03
-1.042792125810319249e+03
3.521316563646223017e+02
2.433847840928524420e+02
9.890581311870905665e+02
6.476697965540407722e+02
2.352630976040882445e+02
8.928832769754168339e+02
1.699544013908316401e+03
1.043255679614625251e+03
1.449481578406543463e+02
-3.839835463745588839e+01
-5.598155574312829685e+02
-1.822313561158010998e+03
-1.753799493551491423e+03
-1.521403336968428675e+03
-1.856281359239641688e+03
-1.534326295235547605e+03
-8.894997771884212625e+02
-1.559288868442957323e+02
-8.254684876043044994e+01
-1.182726733965444339e+02
2.027888614325437686e+02
3.726019265015144128e+02
1.242253537843756739e+01
-1.566571736587754913e+03
-2.708703438434557938e+03
-4.229911355088728669e+03
-4.751209053573898927e+03
-4.885739554269495102e+02
1.204018475102621551e+03
-4.644554878718793134e+01
-2.913910141782362643e+03
-1.743395507054107156e+03
-4.822920627298990439e+03
-9.074464281316581037e+03
-8.024928767386790241e+03
-6.482342107657659653e+03
-6.518649720200408410e+03
-6.899731907333597519e+03
-7.016585801517019718e+03
-7.231206682013552381e+03
-5.926541597683760301e+03
-5.164513284585858855e+03
-4.078982644800663820e+03
1.233047927874064726e+03
4.174600164460716769e+03
4.131756722951518896e+03
3.574925304291775205e+02
-2.139122993897706692e+03
2.842947630165922874e+03
4.130713038140335811e+03
3.943280957496051542e+03
1.810680915358916081e+03
-4.823101736617452843e+03
-7.617986063822882898e+03
-6.224906980342992028e+03
-4.016810186694102413e+03
9.084063142708349687e+02
2.322796127277328651e+03
2.726354570269228589e+03
2.777145297734806718e+03
2.324244053483578682e+03
2.627766235224165939e+03
3.616792641426421596e+03
4.573370183901370183e+03
5.674542863386975114e+03
6.065418110268578857e+03
4.328047699704668958e+03
2.755512199994144339e+03
2.332814682226231980e+03
3.622978645319574753e+03
4.064068721673579603e+03
3.624171701267202025e+03
2.883314099248610091e+03
1.896482305232314729e+03
1.060836504331625520e+03
7.785718651632907950e+02
5.405346862160902219e+02
1.391736245005952924e+03
1.043062014156053920e+03
1.022154536165846594e+03
2.308681066303411171e+03
3.279034049230208439e+03
3.665934284628212481e+03
4.050188552181556133e+03
3.440065828519951538e+03
3.030894252189380495e+03
2.907723138292924432e+03
2.273579316252943045e+03
1.860478598513266888e+03
2.171360003634781151e+03
1.845379372610080281e+03
5.049906556693338757e+02
-1.357744011457966508e+03
-3.399068331550052790e+03
-3.559644777001901161e+02
5.647079625128994849e+02
7.013682617409152726e+02
9.043872890848581392e+02
7.520408091225634735e+02
1.197143513856241952e+03
2.060552338923571824e+03
2.266349802048673155e+03
2.205963146792058524e+03
2.307846068776339052e+03
1.427764163321561682e+03
8.618598956984709503e+02
9.088917641894610142e+02
1.160693133130998376e+03
8.578700668847428688e+02
1.421923052232924078e+02
-6.246750421777948077e+02
-1.240763618105380601e+03
-1.393377360737750905e+03
-1.451527203040828454e+03
-1.594091790595345401e+03
-1.770120499529171411e+03
-1.214597739454303792e+03
-6.994635474292425670e+02
-6.137732279423291857e+02
-1.309455708450263046e+03
-1.135509903933445685e+03
-9.079129989265285303e+02
-9.577094377188881253e+02
-3.227842838312656113e+02
3.738498572815724401e+02
5.318952197130931836e+01
3.052397275628059106e+02
4.829678922537252674e+02
-1.786795860664387874e+02
-1.116673825624932988e+03
-2.008953888936860722e+03
-2.546625370052900962e+03
-2.604666734703039310e+03
-2.859010494749480586e+03
-2.641733735881194661e+03
-1.652877011695853525e+03
-1.690389274753139944e+03
-2.198317516475502998e+03
-2.238701325102287683e+03
-1.616501146382659499e+03
-7.356496378490436427e+02
1.459489286866180464e+02
2.203266953514280999e+02
1.414523351891668312e+02
6.512518028995691566e+02
-1.277276407103842757e+03
-1.192071977977837150e+03
1.596254717466689854e+01
-2.355293523930402898e+03
-4.866930713847803418e+03
-1.979003640969134494e+03
-5.070552913470297426e+03
-3.586571978965326252e+03
-1.787147186304275692e+03
-4.417221191816292048e+03
-9.610866564259986262e+03
-1.034905774793439559e+04
-1.064781241986122222e+04
-6.618819773451631590e+03
-4.601529277841636372e+02
1.005254284959444249e+03
1.516159590738489214e+03
2.676311236303726218e+03
2.957842795074383957e+03
2.772869173065816085e+03
2.680312167059297281e+03
1.966350069965158809e+03
2.215857895948322493e+03
1.994785704359844658e+03
8.753779344556563728e+02
-6.332037910689125511e+02
-1.626001193473322246e+03
-1.270131818957064752e+03
3.153962523028505416e+02
8.195572878478267285e+02
6.353053390876443700e+02
1.015780706834140005e+03
1.215827950699033636e+03
8.022168069459360140e+02
1.000104524352443832e+03
1.730991468211397660e+03
2.096145457663595153e+03
1.944135919018036475e+03
2.107392130751220066e+03
2.031825760573413845e+03
2.079559388639984718e+03
1.937963140722624303e+03
1.602467238044551095e+03
1.273024493176430497e+03
6.967648749674053761e+02
5.359906995757573895e+02
2.353268131526915852e+02
-2.155433741604736610e+02
-5.838194887072256734e+02
-1.248844332643716371e+03
-8.217396047867778179e+02
-2.624718002529855312e+02
-1.026613096218971748e+02
-1.616255896454335073e+02
-1.632584680327955198e+02
5.142933637219063030e+02
1.390624296759653589e+03
1.674399909179307087e+03
1.711134336583209461e+03
1.547510996166779023e+03
1.669201542935092220e+03
2.029097875890796786e+03
1.464242392890788324e+03
1.471217527772958420e+03
9.590770679482014884e+02
-3.572637904317438142e+02
-9.974855902851105327e+01
4.322408383070607556e+02
-3.348394123528325395e+02
-1.782617346689226906e+03
-1.514979960173283644e+03
-2.691193245494031316e+02
-1.446631910493013720e+03
-3.089715378115420663e+03
2.137400641771130552e+02
1.458087324756323369e+03
1.402513998477032146e+03
2.111865509720799764e+03
2.778487541338200572e+03
2.561931466452619134e+03
2.864344199832956292e+03
2.335105000831099005e+03
1.328079877595320113e+03
1.055168320742523292e+03
3.958448581507228710e+02
1.967950616092322491e+02
4.896040488900110859e+02
4.106412175105523374e+02
5.114505249416943684e+02
-2.249384826603292709e+02
-6.148745028775755372e+02
-2.061793548612610891e+02
-3.380516669390767106e+02
-3.127287959418368928e+02
1.053330725437825635e+02
1.147647318843921994e+03
2.292758228573445194e+03
2.933143195189857124e+03
3.395395661229626512e+03
3.673425240737543845e+03
3.511968330343852358e+03
3.352068823543705093e+03
3.059187867358709354e+03
1.809661638542688252e+03
1.432745080020421483e+03
1.322787112757398972e+03
1.377105202725136223e+03
1.036976491428955342e+03
9.701763858154461104e+02
1.294750302457354792e+03
1.571980415856619629e+03
1.283731291252274559e+03
1.793013587406518127e+03
2.055203976206249536e+03
2.098430782022925541e+03
2.245979769329565897e+03
2.377373296848058089e+03
2.290463984779414204e+03
2.797042353219035704e+03
3.551744876866409413e+03
3.790062764058398443e+03
3.667740836419792686e+03
3.870948294314618579e+03
2.785821144398595607e+03
2.112960203608422489e+03
1.551672752721060533e+03
1.182226241872046785e+03
1.122444069900141585e+03
2.420774989021775241e+02
-2.311631626123965759e+02
-9.302087684651908717e+01
-1.816344684158542577e+02
-7.400516715665442007e+02
-1.078612585722912343e+02
3.855336361173156661e+02
7.751289943904853317e+02
9.238966691131798825e+02
1.265554373423434981e+03
1.850574460370304450e+03
1.975526463378862445e+03
1.772243327329796784e+03
1.613233417103167312e+03
1.111949272780356523e+03
5.317455368206998401e+02
-7.577198194380949303e+01
-3.908079898934652761e+02
-8.761665607027845226e+02
-1.396813879932278724e+03
-1.461188478725820914e+03
-1.567345200503217484e+03
-1.971225516317444090e+03
-2.297468113506763984e+03
-2.589572703640515101e+03
-2.030107957340624807e+03
-1.687523603975862443e+03
-1.066212031300766284e+03
-4.619044036767051011e+02
-4.018304710017089860e+02
-5.450220446948079598e+02
-9.099243566168621555e+02
-1.370636072184273189e+03
-8.966638344344655707e+02
-9.022501828625086091e+02
-1.856587974182220023e+03
-2.669804200960383241e+03
-3.365011389980329113e+03
-4.055820230404291578e+03
-3.951818497406872211e+03
-3.361646810056543927e+03
-3.872687731733121836e+03
-4.320680630668287449e+03
-4.509795486724588045e+03
-4.380740129852087193e+03
-3.903335105387654494e+03
-3.787675695110687229e+03
-3.890861618732430998e+03
-3.612746310100332721e+03
-3.533326257341790551e+03
-3.199083487257330489e+03
-3.169512309116244523e+03
-3.898723323318549774e+03
-4.705203618095421007e+03
-4.725741634497918312e+03
-4.779648808646160433e+03
-6.435343096221327869e+03
-7.500372913270810386e+03
-5.408532344210820156e+03
-5.349568369644473933e+03
-6.521132754125750580e+03
-1.168404375789471669e+04
-1.185700608004153401e+04
-6.216726397431064470e+03
-5.279908050633749554e+03
-8.160206034306239417e+03
-1.347315214716061200e+04
-1.269748799859028986e+04
-1.156692057231600120e+04
-1.093534427529227105e+04
-1.058120567262992336e+04
-9.997223599061997447e+03
-1.079502961384977607e+04
-1.169421322976507872e+04
-1.175767928235677391e+04
-1.125718864285733252e+04
-1.129653950077074114e+04
-1.101054837004151705e+04
-6.521310654562314085e+03
-4.563594838008562874e+03
-4.622344214583742541e+03
-5.126329777611892496e+03
-4.325200244181365633e+03
-6.198799978225490122e+03
-8.596892258935326026e+03
-4.542370570814689017e+03
-3.475890989181279110e+03
-6.289313536517623106e+03
-9.408956644578292980e+03
-4.116865969439131732e+03
-1.317689988819501878e+03
-1.901597212760723323e+03
-5.942665679182747226e+03
-3.399623940893284271e+03
-2.492574149043732348e+02
-2.867527813318923791e+02
-9.482846390222302944e+02
-3.365959386183276365e+02
-2.889110378068646696e+02
-4.214008206147175883e+02
-1.937412157289633683e+02
-1.196350653861832285e+02
1.797263650061701412e+02
6.611255309638053177e+02
1.172669263834288586e+03
1.588498970938908542e+03
2.881369512396580831e+03
3.864662249340725339e+03
4.370747605787322755e+03
5.238753486071530460e+03
6.086614639972538498e+03
6.443280172633980328e+03
6.627529183750280936e+03
7.175863567850745312e+03
6.866101246244050344e+03
6.861943194926331671e+03
7.262075953975050652e+03
7.214326122797398966e+03
7.131454249791956499e+03
7.342929473673183566e+03
7.182438335103192003e+03
6.619851514933142425e+03
5.923574742331506059e+03
6.380074922000389051e+03
7.446782345709230867e+03
7.696226400693084543e+03
8.345939827243861146e+03
9.458228704554141586e+03
1.092754917884993483e+04
1.276367963193015021e+04
1.470505240890144887e+04
1.561908525804627971e+04
1.696963977930770488e+04
1.710926133215453956e+04
1.622385021724460785e+04
1.670454482535502029e+04
1.716422146096430151e+04
1.708173893931054408e+04
1.591795790159793978e+04
1.373597741175193732e+04
1.075782592001107878e+04
1.269788001396456275e+04
1.452020835565142806e+04
1.685422329288366745e+04
1.759842954785677648e+04
1.649678613819252496e+04
1.552382026246094028e+04
1.602375304392894213e+04
1.598896109358909598e+04
1.556283266210473266e+04
1.318680739938170882e+04
1.007410006988436908e+04
9.561126638701693082e+03
1.127028787971589554e+04
1.274795855848063547e+04
1.202353065231595610e+04
9.699279207856510766e+03
7.066422698285568913e+03
6.770346672880555161e+03
1.030454721724916999e+04
1.152640972841445728e+04
7.568328288368328685e+03
3.823783654387454590e+03
6.344106994573121483e+03
1.281166880971962382e+04
1.648997523870179430e+04
1.382053135265142919e+04
6.641772846101624964e+03
-8.237379008572002022e+02
-4.940515968074242664e+03
-3.531062918512516262e+03
-2.280815721316526833e+03
2.197645346275659790e+02
7.709207607629259655e+03
1.275108157041989034e+04
1.538390129586344847e+04
1.605423220106990630e+04
1.085169790480882148e+04
3.043994582754356543e+03
-6.689319289324507736e+03
-1.389858246683393736e+04
-1.291807311995474083e+04
-9.202136535367266333e+03
-6.354077992653038564e+03
-8.885154395729727185e+03
-1.603250037541309030e+04
-1.920830340210138093e+04
-1.308779555469572006e+04
-1.034003459562948592e+04
-7.920047283747710026e+03
-4.025020631240400235e+03
-5.031076678320536303e+03
-5.370348291327738480e+03
-8.664748995600819399e+03
-1.202815141563675024e+04
-1.682168715162634544e+04
-3.126326992841981337e+04
-4.610174313774915936e+04
-4.622501695800606831e+04
-3.390724242180628789e+04
-2.647338785306783029e+04
-3.312695582048543292e+04
-3.999655971535645949e+04
-4.416659071478786791e+04
-4.601581103909240483e+04
-4.986363692340021953e+04
-4.880364580992217816e+04
-3.934373045754407212e+04
-2.481074711395164923e+04
-1.452138746219490167e+04
-1.485105797272435848e+04
-1.728214966822373754e+04
3.297034759981196999e+02
2.276786825461567423e+04
3.247682405935518182e+04
2.490912119961691496e+04
9.347260243462495055e+03
2.407863149552072173e+03
4.846640499394356084e+03
1.458407954713405888e+04
1.297672791270806738e+04
7.265174008132693416e+03
-6.028904892195646426e+03
-2.733676173889735946e+04
-4.623081404332356760e+04
-6.344646795181759080e+04
-7.641489940647200274e+04
-6.392731661620629893e+04
-3.613291735897076433e+04
-2.711087705886231925e+04
-2.208133282321543811e+04
-9.601513277778236443e+03
1.072151156738496684e+04
2.951757514930723846e+04
4.600651436430800095e+04
5.861009734474161087e+04
7.324428478317680128e+04
7.988892315824248362e+04
8.165080414224931155e+04
7.138586629899378750e+04
4.516406174206925061e+04
1.669221575228264555e+04
-1.235732663395691588e+03
-5.545847524023284677e+03
-2.501184318237359093e+03
1.648177083086660105e+03
5.417236520708856006e+03
4.310890775129531903e+03
1.060902964814630286e+04
1.666358787734414000e+04
1.268259982408170436e+04
9.221060657188103505e+03
1.572097879891669254e+04
2.972524284940080543e+04
3.721879344020922144e+04
3.102357115285988402e+04
2.034837037887013503e+04
2.819238798084933478e+03
-1.674095009769117314e+04
-2.972547121534757753e+04
-1.755456129194671666e+04
4.034814112293710423e+03
1.053384363392600062e+04
2.157083688528495259e+03
-9.521644459987131995e+03
-7.174852680658462987e+02
3.164373582858100690e+03
-7.601283302878214272e+03
-1.225965898221893985e+04
-1.519394852601945968e+04
-3.083531785965609743e+04
-4.299397145439012820e+04
-4.183022417784015852e+04
-3.264535809029910524e+04
-2.861878746533936646e+04
-3.845795771857949876e+04
-4.646419652475049952e+04
-3.056891960642814956e+04
4.101431920030744550e+03
2.305037978538856987e+04
2.568241541813605727e+04
1.851308064076628216e+04
1.105780296776447358e+03
-9.038028345387152513e+03
-7.437944131722647398e+03
4.564466773725062581e+02
1.758959102321010505e+04
3.128087467155284685e+04
2.445866896344129782e+04
1.683425239531671832e+04
1.367786258848702528e+04
1.590781678635309436e+04
2.216236473702338844e+04
2.857466377038129940e+04
2.941787772700120331e+04
2.011817905616672579e+04
1.418959381512276377e+04
9.021126150631775090e+03
1.609936570271196615e+03
1.380290363823362725e+02
-1.946658102755336586e+03
-5.086159993379033949e+03
-1.362556212165195757e+04
-4.489379357118847338e+02
1.532265576629909629e+04
1.652401645044014367e+04
1.908494865069329535e+04
2.558024174047898123e+04
2.943370606326036796e+04
2.534213448841131321e+04
1.835728259861850893e+04
1.429178877959503188e+04
1.289932587774149215e+04
1.302665734290362525e+04
1.194243137452771589e+04
1.054898593843610615e+04
9.670977947761033647e+03
8.383028158169754533e+03
5.595016095705262160e+03
2.454047159560917862e+03
2.879920741581817083e+02
-1.594459665467893728e+03
-1.698407327596906271e+03
-1.963848867688842802e+03
-3.166695436501486256e+03
-7.056785723461494854e+03
-7.590224951908010553e+03
-8.658389564637487638e+03
-8.244797242533511962e+03
-4.446991373760811257e+03
-2.337677072200143812e+03
-8.566303081286065435e+02
-2.816793512032201647e+02
-7.334931154681115686e+02
2.871004895990100181e+02
3.389680130231918724e+02
-2.241492615694766755e+03
-4.712770405181427122e+03
-5.633821337674278766e+03
-6.154927646195052148e+03
-4.851792330402250627e+03
-4.210119173124428926e+03
-4.269938680227465397e+02
5.113202779167349036e+03
4.920914857382256741e+03
2.872054179911369374e+03
4.950979855473661701e+03
4.558719850799736378e+03
1.543066404498717702e+03
4.807918251436053652e+02
1.666440176664803403e+03
2.988443139099165933e+02
-3.565711257231193485e+03
-4.442042508188068496e+03
-8.560172505691298284e+03
-1.588993720299987945e+04
-1.891420396834839266e+04
-1.730583926437087939e+04
-1.718160508233935252e+04
-1.974339613164445836e+04
-1.886211201094491844e+04
-1.353159459284383411e+04
-8.267676233578002211e+03
-7.183207190440765771e+03
-1.208193342460571330e+04
-1.474864465495724107e+04
-1.538810769245533447e+04
-1.360906191528039744e+04
-1.196836050821389472e+04
-1.388974597536024521e+04
-1.520791573086340577e+04
-1.682749022759815853e+04
-1.856022759522740307e+04
-1.888084565709718663e+04
-1.729803696350281461e+04
-1.678234910483204294e+04
-1.632439642902672676e+04
-1.257180307431110305e+04
-1.008716705573728541e+04
-7.719125763910369642e+03
-6.150373683851566966e+03
-4.204496229138801027e+03
-2.565975513948204480e+03
-3.882490820097815231e+03
-5.732531496358285040e+03
-7.107590683121854454e+03
-7.753156908022035168e+03
-8.048763294517164468e+03
-6.943770544504032841e+03
-5.122782557371604526e+03
-4.566794943008032533e+03
-3.660826239052680080e+02
2.005813192750111739e+03
-2.299498043997267814e+03
-6.481279390189515652e+03
-5.781767887270875690e+03
-6.069143220736480544e+03
-6.258548152597371882e+03
-5.593505610295846964e+03
-2.103309511820722548e+02
4.506723900956226316e+03
3.784579665756309623e+03
6.233192764283569886e+03
6.526483143679851310e+03
6.608203167002920964e+03
7.190308862843849056e+03
8.294852867691775828e+03
8.631961695400399549e+03
9.360727919129936708e+03
9.653942710495999563e+03
9.357328533902968047e+03
9.571872465832258968e+03
9.915841868602354225e+03
9.777503065597114983e+03
8.755017484754300312e+03
8.299283069864370191e+03
8.263083268961076101e+03
7.989687438890123303e+03
7.948650347515525937e+03
7.274132109192611097e+03
6.290747437147283563e+03
5.740296445934323856e+03
5.261118564312581839e+03
4.600892896407305670e+03
4.770364590544581915e+03
5.083875805364726148e+03
5.216521506573832994e+03
5.799187104055426971e+03
6.601169825725003648e+03
7.005611030896192460e+03
8.018341421425010594e+03
8.200722198725987255e+03
7.742156491723394538e+03
7.305101717539630044e+03
7.231414812082329263e+03
7.035754909571741337e+03
6.993814194752916592e+03
7.096853895685640964e+03
6.201619233086160420e+03
4.573258368466791580e+03
3.205094690694105338e+03
3.232896243538998078e+03
2.991528424029144844e+03
1.667188655917319238e+03
1.149503959101450619e+03
2.371044823466004345e+03
3.170090678627992929e+03
2.586829030532044271e+03
1.353200891360190099e+03
9.057527359381165297e+02
1.198290683712944201e+03
1.118596846997790863e+03
2.199892378479665240e+03
3.505350473562571551e+03
4.166783334058837681e+03
2.972505773276360287e+03
1.238866673456279614e+03
1.172440009957363145e+03
3.088651045994202832e+03
2.624121111259180452e+03
3.451302284301378904e+02
7.899260440924301747e+02
4.326129798388154086e+03
6.046768772166296912e+03
4.465484287184815003e+03
2.196068255538314588e+03
1.270983874952045880e+03
2.175297679047274414e+03
2.956589329080993139e+03
2.002572012006747400e+03
1.090894012256764881e+03
1.122602423959795715e+03
3.344327083202772428e+02
5.486629697044828617e+02
1.788192026403528189e+03
2.036738717641318999e+03
2.276049461803396753e+03
1.300215374070484586e+03
4.990182318189695820e+02
1.021559218238800213e+03
9.721849058762037430e+02
-4.285299902715714211e+02
-1.225042499380042273e+03
-1.709105805647407806e+03
-1.952395456093470102e+03
-2.183204192394223355e+03
-1.611156239043462620e+03
-1.733733560124892847e+03
-1.729369920556696115e+03
-1.081749362983755191e+03
-2.408762558207710356e+02
-3.836375620951477003e+02
2.083252009481135758e+02
6.748971135178343275e+02
2.717505659455522391e+02
3.314499815286251874e+02
3.942906125249476190e+02
9.120343368816915586e+01
-2.158136735000547048e+02
-6.938456025005862102e+02
-9.835115074268479702e+02
-1.570166910649233159e+03
-1.673799280073780210e+03
-1.708393869134087481e+03
-2.040950246520772225e+03
-3.026974829538164158e+03
-3.337470064022363204e+03
-2.534531346242898053e+03
-2.042980975026059468e+03
-1.844390354695854739e+03
-1.449340829466710602e+03
-5.703748937154881560e+02
-9.113020670760421353e+02
-3.615120673471499231e+02
2.489901802438537857e+02
-7.330736195450926971e+02
-4.002892772565054202e+03
-6.496483113464778398e+03
-3.513361957957622963e+03
-3.934530217721902318e+03
-4.677995597857212488e+03
-5.349436951364994457e+03
-5.870817441237973071e+03
-6.262741287003839716e+03
-6.914159819501515813e+03
-7.513646060725464849e+03
-6.970944697815318250e+03
-5.722738486165574614e+03
-4.659133551284514397e+03
-3.005884690144896467e+03
-1.820939139558412307e+03
-1.902728973976868929e+03
-1.444426623120843715e+03
-6.247328272105135056e+02
1.141603078124256001e+02
1.934543710548033459e+02
-2.844393221479261911e+02
-4.172037978237274274e+02
-6.904721571364647161e+02
-1.139912502411238393e+03
-1.704589646502458208e+03
-2.166409591539755638e+03
-2.320188239143325518e+03
-2.315013990594529332e+03
-2.006136090310865029e+03
-2.172675640833554098e+03
-1.845678085537862898e+03
-8.490782288818071493e+02
-3.234361059274186232e+02
-2.293587070795765044e+02
-1.677299516915605295e+02
2.895029693669879407e+02
5.513925873935652362e+02
4.907780463883458424e+02
8.177515756690146418e+02
9.342585760789115739e+02
4.972086239812242638e+02
3.004457330209727388e+02
2.179587193720416849e+02
5.120546974997336775e+01
5.013495701782952665e+02
7.217418918951792648e+02
5.133121776760802959e+02
4.498922518528904106e+02
6.279986980358856954e+02
5.716972696338854121e+02
7.105625626339358405e+02
8.609281101952107065e+02
1.088599020790459008e+03
1.080321701066518244e+03
1.807925804751903570e+03
2.798497451569751320e+03
3.401996869119757321e+03
3.742361587249082277e+03
3.954536995383963585e+03
3.392588259661405118e+03
1.257594408874074361e+03
-2.478597450908872815e+03
-5.179151474026616597e+03
-4.079256627371824379e+03
-8.450260251271882908e+02
9.315889851697526183e+02
-3.876176289124812229e+03
-6.105598404237497562e+03
-6.254745886501438690e+03
-5.863880262009149192e+03
-5.673404907624835687e+03
-5.368252427791405353e+03
-5.570450326641906940e+03
-5.139053936894311846e+03
-5.078138224811012151e+03
-4.693953259450093356e+03
-3.371384879631128570e+03
9.077065153726282460e+02
3.733305203794416229e+03
2.130233993967487095e+03
-1.349697235099864656e+03
-5.202817107368290635e+03
-6.175241616124434586e+03
-3.229338371438289414e+03
2.505341624905492210e+02
1.286728855859186353e+02
-1.530749052987531968e+03
-6.950183887932655125e+03
-7.892545364984784101e+03
-4.396649040549335041e+03
-1.212691808585462240e+03
6.414393111452272933e+01
7.589549172885813277e+02
1.557894915490179073e+03
1.680710421763635395e+03
1.638528707090466469e+03
1.185598511067023537e+03
7.887233004913533705e+02
1.370403985599517455e+03
1.622605759712504323e+03
1.285562094393718326e+03
7.770082105961581647e+02
-9.769492503639089875e+01
-6.148089226498761946e+02
-5.501709790680220067e+02
-8.423529465226725961e+02
-4.735664177628792118e+02
6.079743922143902637e+02
1.380084565608057972e+02
-6.365430953459758712e+02
-6.884769547647473473e+02
-3.409273986599670820e+02
-4.568978203102836915e+02
-5.694023427865188296e+02
-1.513593417564298306e+03
-1.221700985363368545e+03
-1.148802589492070894e+02
9.016805904816221755e+02
1.802767247516942234e+03
1.961533323025210393e+03
1.696900462582352930e+03
1.878814377549863821e+03
2.230077604055965821e+03
9.496024662888652301e+02
2.755260006246361399e+02
5.080169965184661862e+01
3.103318602309662424e+02
1.614424260033291247e+01
-1.905987199292145533e+02
-2.593329424329122048e+03
-1.171638760561190793e+03
6.904966685464167995e+02
1.714001330854852313e+03
2.198066774125259599e+03
2.891297292667460624e+03
3.085284361791882475e+03
2.946735995225119041e+03
2.624753536983525464e+03
3.365193279618485576e+03
3.199060614931289365e+03
3.266940107380520203e+03
3.304837894157783467e+03
2.718007252607972987e+03
2.502882358569293956e+03
1.799568263741825604e+03
1.016952674052029352e+03
1.300803964654770880e+03
1.647166294298970342e+03
2.308120569000855994e+03
2.796489461033032512e+03
2.081246991396783415e+03
9.135072486819037749e+02
3.892144559017409051e+02
5.481791580184102486e+02
1.008371716249028964e+03
1.088998959614403930e+03
1.398173799628516463e+03
2.103923621719001858e+03
2.876137911930325117e+03
3.146644062272696829e+03
2.441412719250758073e+03
1.856459656021311957e+03
1.571820874809146062e+03
9.814903333316309499e+02
1.248422143509832495e+03
6.544767659251036775e+02
-2.042873671058813727e+02
-8.079111920946131704e+02
-8.914904092338433657e+02
-9.990059934350006188e+02
-6.733569781763123956e+02
-3.116187323591031486e+02
-1.717765252944512042e+02
1.612788441710774237e+02
8.276185269533149267e+02
1.379215727142757714e+03
2.307070177987110128e+03
2.521164571053984673e+03
2.262446131099588911e+03
2.634028911655163483e+03
2.433974822618629787e+03
1.815333047238599647e+03
1.378005678892299329e+03
1.040066547118905874e+03
4.796115908546854030e+02
-1.894559457268477445e+02
-2.467239844599811477e+03
-6.052656820776448512e+03
-8.146686112368977774e+03
-8.432243187295529424e+03
-7.064243879807209851e+03
-1.020591756217473744e+03
1.056706911433713458e+03
9.645016515838927944e+02
1.922831580210294760e+03
1.761755136631325513e+03
2.172547179167645481e+03
2.603197292320134693e+03
2.139596040003388680e+03
2.445679337363611921e+03
2.510671546686154215e+03
2.170722125758275070e+03
1.959633270002225345e+03
1.569092919702371773e+03
1.297198229145763435e+03
1.594268347736857095e+03
1.904476090438415667e+03
1.524746977061490270e+03
9.350303048535813559e+02
6.904532400784191850e+02
9.282397618535803758e+02
9.734663003606827942e+02
1.126050397687699842e+03
1.587127000222254992e+03
1.418665656115748561e+03
1.495729135723053560e+03
2.497373804442996516e+03
2.552484186243696058e+03
2.852265317288139613e+03
2.544822384794489608e+03
2.400097799081379890e+03
2.443148767520811816e+03
2.294061820155729947e+03
1.610907264054547795e+03
8.868438608976596242e+02
3.088735134883305022e+02
-4.181321156630870632e+02
-4.961941731539093325e+02
-8.515696233222851674e+01
2.802028061706961637e+01
-7.663310268688013593e+01
-2.820197362039173186e+02
2.010078220500270447e+02
1.068439575768407167e+03
1.626243410548743213e+03
1.819501772497676484e+03
1.635227821405828081e+03
1.762562223616072743e+03
1.781612926025818524e+03
1.942477927460214232e+03
1.850118642944064959e+03
1.468558604360786376e+03
3.408729039357775719e+02
-3.264995910254422597e+03
-1.412043999507741091e+03
-1.272060605169875060e+02
2.386565262331867814e+02
6.959373381883831655e+01
-7.374657072283010848e+02
-8.863910161618599659e+02
-4.430504618247498456e+02
1.755441506640828209e+02
5.842986401505124832e+02
1.013263990934756436e+02
-1.144126321509375259e+02
4.141358261973269919e+02
-7.158244408979736590e+02
-4.653049039292094676e+03
-2.902496097304571322e+03
-4.026400710741898479e+02
-1.289272560409888001e+03
-5.833336426793206556e+03
-4.019848800439421211e+03
-6.077231352302680989e+02
4.741148148941736054e+02
-2.746297738462407324e+03
-3.039990961463638087e+03
-1.947092702485967266e+03
-2.684655554005363228e+03
-1.342612847423968560e+03
-2.902041621780444984e+03
-5.158708812378321227e+02
-1.996002592655139097e+03
4.654433469274209045e+01
-7.621460274313282071e+02
1.089841963366890013e+03
-2.944934367972814471e+02
1.846930266468553327e+03
-1.940868089767236597e+03
-2.624909777348230364e+03
-7.427056406506702046e+01
2.442072461313388430e+03
2.785167775755812272e+03
1.996982478007570535e+03
-1.651559113767187682e+03
-8.865544893942840190e+02
-3.355910843520166964e+03
-1.687641272434410666e+03
-1.256959812496559380e+03
-3.249903881479516713e+03
-1.527326367538151544e+03
-3.329187707490598768e+03
-2.554539525868020519e+03
-1.768413206880621146e+03
4.992277344690097038e+02
-1.071696311095729243e+03
1.891778361023373918e+03
3.130657403704848548e+03
3.561928229017217291e+03
3.967540847888856661e+03
4.133386256568200224e+03
3.195367556373797925e+03
2.517457785421549033e+03
2.227621227993253342e+03
1.531827889097083016e+03
1.027007919775190430e+03
5.700968538711288147e+02
8.080643940143298778e+02
8.868962978582140977e+02
5.044142265016363922e+02
8.757789497809639556e+01
3.392304697445493389e+02
4.265219595083431727e+02
9.685726042559515463e+02
1.193368362163872007e+03
1.256879760210644463e+03
2.390107278892670365e+03
3.150133132220727475e+03
2.686059759055786344e+03
2.314843260130813178e+03
1.207153139878976162e+03
4.786765984304103085e+02
