-2.163662870547425428e+03
-1.645635764455827712e+03
-8.218514445469576231e+02
-6.143608305016982740e+02
2.067723474780407003e+02
1.134631275878289898e+03
1.566303598271563487e+03
1.739713321579476087e+03
1.659846928977688094e+03
1.820714268720056452e+03
2.042292268772648413e+03
1.605542762660472363e+03
7.493576255968640680e+02
-1.396262338143937711e+02
-4.251684018203253572e+02
-8.122769237779475588e+02
-8.567653291064747236e+02
-1.146452332034866913e+03
-1.261634685673902368e+03
-1.246206211703141207e+03
-1.381526741076075496e+03
-8.232609776006211177e+02
-7.528695582897334759e+01
9.382815416973942320e+02
1.661480107688160842e+03
2.553247713005048354e+03
3.153620567670493529e+03
3.445672580084849415e+03
3.682228911310509829e+03
4.065469049556442314e+03
3.758356806629018593e+03
2.641693244504054292e+03
1.795691464100504163e+03
1.347929457610035797e+03
6.254987214520779162e+02
-2.125292204450301483e+02
-7.830457313036340565e+02
-1.302312251879984615e+03
-1.260142748176836449e+03
-8.844352191869783155e+02
-6.313812492030956491e+02
-4.520835140611821998e+02
2.455667882601306644e+02
9.275337887188082959e+02
1.456925932349962977e+03
2.376763592093418993e+03
2.819090415525830849e+03
3.028806237754658923e+03
2.863080670844286942e+03
2.612008816144961202e+03
2.520476475243612640e+03
2.174477418093934830e+03
1.763982483017854975e+03
8.739693771321625491e+02
-4.566967295746431788e+00
-3.236318591309117210e+02
-1.136287447723694413e+03
-1.536502116812855320e+03
-1.599291612975143835e+03
-1.263674467986271793e+03
-9.606280272479335736e+02
-4.801915046701591905e+02
2.516800464523812479e+02
7.850591501867141915e+02
8.769534886072520976e+02
1.304241728798741065e+02
-1.866511776016800923e+03
-2.490841140953468312e+03
-2.818491799823425026e+03
-3.138454383926347873e+03
-3.148734922088815892e+03
-3.420338812305670672e+03
-3.785260703317079333e+03
-4.204541349642249770e+03
-3.482200373105244125e+03
-8.602368953878481079e+02
-6.776207375450658219e+02
-1.040457797059533277e+03
-1.232529410977844009e+03
-1.051909963957935815e+03
-6.516626076681991435e+02
-4.957427204625744253e+02
3.128305497378210589e+02
1.315130639773793064e+03
2.052245989736625688e+03
7.711864574903569292e+02
-1.680027620439085240e+03
-2.187347312144988791e+03
-2.098754681895140493e+03
-1.505247147682203604e+03
1.166169301137652610e+03
2.153581866270968476e+03
1.979948082316522914e+03
1.141246127378279652e+03
2.514427333288898581e+02
-6.374974301855238537e+02
-1.268569198393204715e+03
-1.621738886992635798e+03
-1.904036195103350565e+03
-1.295428502185330899e+03
-5.558676242886158434e+02
-3.941310997964730944e+01
5.849807715223735158e+02
1.246425496414648023e+03
2.030918559561150005e+03
2.603549074374440806e+03
3.323356830054854527e+03
3.683330328338912295e+03
3.502487411463175704e+03
3.001871899252899311e+03
2.206506207323195213e+03
1.283382288765085832e+03
1.095446283270999629e+03
6.337429609427429114e+02
-5.657099183433115286e+02
-1.061997810561589858e+03
-1.450067254140435125e+03
-1.450918261532629231e+03
-1.827592324435698629e+03
-2.210106828767929528e+03
-2.132431599202437610e+03
-1.679528734676589920e+03
-9.553964061374072116e+02
-3.270044591503742595e+02
4.777092520469793158e+02
8.948239727434084898e+02
1.602322857846133957e+03
1.925267846421104878e+03
1.767701099582394818e+03
1.594558474091588323e+03
1.181798823324725390e+03
8.394372620098439484e+02
5.476355402037912654e+02
6.945879171420624232e+01
-2.361716574111119371e+02
-6.562537602962402161e+02
-1.278699251216254424e+03
-1.658512851610088546e+03
-1.898564787949803076e+03
-1.687804564904116660e+03
-1.666353564119806606e+03
-1.693258345277543640e+03
-1.311562410608504706e+03
-1.604250837083477848e+02
4.411640282229347463e+02
1.237273003526842331e+03
2.154965683211021314e+03
2.330265906028571862e+03
2.494208218858620967e+03
2.569762957488164830e+03
2.238816404989930561e+03
2.231468043880115601e+03
1.583903673766870497e+03
9.049746861665698816e+02
1.785848530283353455e+02
-4.792614292521657831e+02
-1.092660950025955572e+03
-1.799625810220597486e+03
-2.246150377393540111e+03
-2.548252196117663061e+03
-1.949977256441598456e+03
-1.503329305273553473e+03
-1.013267801830086228e+03
-3.287610345324781065e+02
3.712189752815273209e+02
1.049701260864763526e+03
1.682684404762057056e+03
1.877189306007287769e+03
1.415281726485756508e+03
1.621926507317697542e+03
1.728156081336997659e+03
1.265923542992239163e+03
9.621722606753859282e+02
9.519083248661695507e+02
1.660771595015421269e+02
-5.833841790617034349e+02
-1.401518511752725999e+03
-1.883327685298038659e+03
-2.392795334921778249e+03
-2.567956261694029763e+03
-1.704872478223750477e+03
-1.240511308834900547e+03
-4.048052185728478776e+02
1.115638172986404619e+01
8.783608381614899372e+02
1.282933206506229453e+03
1.669888588356547643e+03
2.077223882247745223e+03
2.134920741892766728e+03
2.410005648186785038e+03
1.996454199744187918e+03
1.457246736959448981e+03
7.573459761086473918e+02
2.087651820026253802e+02
-4.514880011162751998e+02
-1.037509351523061241e+03
-1.821424091567263758e+03
-2.596232744376462506e+03
-2.673918897806410314e+03
-2.158521248650326470e+03
-1.822045631847847744e+03
-1.926521158473763535e+03
-1.409993860877915040e+03
-6.663755269606216416e+02
-5.586213157034064807e+02
9.330195953361176464e+01
1.048537571746227513e+03
1.934973611643170216e+03
2.213553616707080892e+03
1.968040254043489313e+03
1.915923483936145431e+03
1.653093368819460693e+03
1.400351775489270494e+03
7.836921883980858183e+02
9.010271658279156881e+00
-8.626544153027036828e+02
-1.468964247703726187e+03
-2.133455161929664882e+03
-2.506019355328455731e+03
-2.629711903454724052e+03
-2.356684503260570182e+03
-1.627786658151871507e+03
-9.207193388089875725e+02
-4.334608267361235221e+02
2.206034819085047332e+02
1.146636899052098670e+03
1.646706040347290582e+03
2.039567847653079752e+03
2.419403655174070991e+03
2.596162638931792117e+03
2.209934163513005842e+03
2.085650463239844157e+03
1.628459336168702748e+03
1.000231596436954419e+03
4.557113349830025868e+02
-3.618847489414364418e+02
-9.944913151243561060e+02
-1.683419705938309562e+03
-2.234520879183943180e+03
-2.312853523383421361e+03
-2.027525139940890540e+03
-1.522346260846675932e+03
-8.374341373149381980e+02
-4.208399522892738105e+02
6.677147614369398809e+01
8.041609667903913987e+02
1.697348025244909877e+03
2.327364005173005808e+03
2.676176249720264423e+03
2.404775744674576345e+03
2.264079561135982203e+03
1.796364130190789183e+03
1.476589295056781111e+03
1.178632118016539380e+03
6.654012233923795065e+02
-1.291352644831102339e+02
-9.469661709754736876e+02
-1.224126215347809648e+03
-1.526626899142731190e+03
-2.061505081270781830e+03
-1.921705539750554863e+03
-1.300270422252354138e+03
-3.042290334510103662e+02
4.734399534799060234e+02
1.129795833567159207e+03
1.890890023623263914e+03
2.674718269481972129e+03
3.251292453077682239e+03
2.407648224840487728e+03
-8.182679171275520247e+00
3.488091160242350384e+02
-7.553814973489267004e+02
1.142306126685879661e+02
4.065998602299398499e+02
-2.706269355961886504e+03
-2.589401020534482541e+03
-3.948836183167754371e+03
-2.250560010507391780e+03
-1.689613250390715621e+03
-1.620029578745815797e+03
-1.419821880916917962e+03
-1.159957431262036152e+03
-8.944567638138599932e+02
-2.627485652367302649e+01
-1.270330694774035010e+03
-3.066184689666034728e+02
1.011830983697706415e+03
-1.119897656416600057e+03
3.843117176851562817e+02
4.644362383863696664e+02
-1.765540760096889130e+02
-4.386262906018361036e+02
9.602290210271933120e+02
-9.000065654689230996e+02
-3.243647342092640429e+02
1.280927664794813552e+02
-4.986545211245217502e+02
-1.012604084623786889e+03
-1.002716507055210968e+03
-1.601045795853368190e+03
-1.260607561156636166e+03
-1.112368577532666450e+03
-7.403200910169476856e+02
-1.838407453442438964e+03
-9.416188774287576280e+02
1.325100690814197606e+03
1.908812936359306150e+03
2.630495851840074920e+03
3.016199070194729757e+03
3.094917487945340326e+03
2.832696569902966075e+03
2.415591467855407245e+03
1.666515025080126179e+03
1.263501554285141992e+03
1.014519296031723684e+03
7.254072491059390870e+01
-5.605089976406627557e+02
-9.556048610872894642e+02
-1.229770119864875142e+03
-1.383029913018163143e+03
-1.508373006023206699e+03
-1.054758185226508658e+03
-6.740991237724286975e+02
-4.042272209436702042e+02
3.187916014209515083e+02
1.063913025726146316e+03
1.738293885559988667e+03
2.339962040541098304e+03
2.583645465876644721e+03
2.467478687957164311e+03
2.149909559290097150e+03
2.054573796212077468e+03
1.621970772436216293e+03
-4.146066299498544367e+02
-1.434989850061873767e+03
-4.892004230687639392e+02
-4.992702121869572807e+02
-8.312081526688516533e+02
-1.400008596740470466e+03
-1.849721431655236074e+03
-1.641369068885353954e+03
-1.240928621099536258e+03
-8.301127744771565631e+02
-2.187869245254339319e+02
5.346078444726040289e+02
1.179402749638527666e+03
1.930590218814682885e+03
2.872861368745665004e+03
3.327185359838717432e+03
3.443496048790477289e+03
3.062134602756061668e+03
2.507051497092461432e+03
1.800143054713691527e+03
1.390378180717691521e+03
6.707268751787453311e+02
-4.438712950262366803e+02
-6.194850353597255435e+02
-1.107169009964803763e+03
-1.737908319040973765e+03
-1.890730956679943347e+03
-2.003625614696880803e+03
-1.474623822383815423e+03
-9.877084400832300162e+02
-5.489177710490343998e+02
1.078242418714366835e+02
9.955997477074110975e+02
1.656406908221865706e+03
2.232320725974214383e+03
2.763382121117987936e+03
2.805496171473493177e+03
2.678713282517434891e+03
2.159091093026358067e+03
2.005532984186634621e+03
1.663036392519161836e+03
9.435366328388075772e+02
2.520286764970594220e+02
-4.984732698692944837e+02
-9.410162517027318927e+02
-1.365660949275750454e+03
-1.705434246851182024e+03
-1.614341157637334845e+03
-1.174402369722334015e+03
-1.042602938697616082e+03
-4.479554198520352202e+02
5.385979358230431444e+02
3.461088794232017563e+02
-9.034011578508918774e+02
-2.780898334551300195e+03
-3.273371507654378547e+03
-2.730840166193628193e+03
-2.916313918206711151e+03
-3.525836569853483525e+03
-3.493386444622945419e+03
-3.764940588872657827e+03
-4.275548727083207268e+03
-4.924270396591814460e+03
-5.417128736993520761e+03
-4.973109532107526320e+03
-1.888197554172507125e+03
-1.391499256190033748e+03
-1.501189420836095678e+03
-1.301072985483723187e+03
-8.000277510790118640e+02
-1.291430986565223975e+02
4.656087768846104495e+02
1.259232037259162780e+03
2.577720740194055793e+02
1.482491773198015608e+02
2.568639945997525956e+03
3.192039885185800813e+03
3.138415246973793273e+03
3.329782908392698573e+03
3.052159164800202234e+03
2.050509718674728902e+03
1.454836955158850969e+03
1.042095909073199437e+03
3.102836697591219490e+02
-2.267120650995490792e+02
-8.108190651475568984e+02
-1.103080921569624707e+03
-1.353501292127222769e+03
-1.107113534785754155e+03
-7.669079881376425192e+02
-4.383959894289819914e+01
1.057120045243320419e+03
1.648052826878536052e+03
2.474931300636633750e+03
2.922773093334098121e+03
3.050665749007478553e+03
3.181576448549622910e+03
3.054507679876772272e+03
2.680483894913986660e+03
2.065512396207644997e+03
1.569608058413806475e+03
1.035729589161791409e+03
5.638743403447135734e+02
-1.749664281025787034e+02
-6.828801209062016824e+02
-8.078638568994463185e+02
-1.490985729999218620e+03
-1.760197738788130209e+03
-1.340563661323041060e+03
-1.056996646138158439e+03
-5.585039199925068942e+02
5.792008696611836882e+01
9.873805462513989823e+02
1.481884814860884944e+03
2.002510547994796070e+03
2.142255240301949016e+03
2.494169737021155015e+03
2.817273697370782884e+03
2.556565097865970074e+03
2.184010988582905156e+03
1.551590784872050790e+03
7.133277645365407125e+02
3.371336050118885055e+02
2.697889706153864253e+01
-6.900906752120288274e+02
-1.394029494106236370e+03
-1.615849819886623436e+03
-1.315525625405175106e+03
-1.197019012358236751e+03
-1.179463467355852345e+03
-8.819313176121551123e+02
-8.464088341590987739e+02
-3.200796405213444359e+03
-1.480027913359944478e+03
-2.971039743332029275e+02
2.219998692558402524e+02
1.408320967027302913e+03
3.269097826056793110e+02
-4.092393184788723488e+02
1.532854863389750562e+03
-4.118012670173854985e+02
4.298034506230696934e+02
1.766102424273079237e+02
-2.947394217132671656e+03
-4.223240036840012181e+03
-2.992981031552933018e+03
-1.645634611988177312e+03
-1.497168597104765468e+03
-1.547607014372424601e+03
-1.155970276028723674e+03
-8.612141427379888228e+02
-3.963421915270433828e+02
-1.506338865410314838e+03
-8.491769220626434844e+02
-5.707632653880556290e+02
6.088964384843980326e+01
1.798813248749551121e+03
-1.869575692277889232e+02
4.915561211880995529e+02
2.230358289308491749e+03
4.454260540262870904e+02
3.717207021256633652e+02
-1.247684204197481819e+02
-1.831105470043577498e+03
-7.152759574517623378e+02
-1.040344199210954002e+03
-3.136311811624585971e+03
-2.437144377981843263e+03
-1.362891492668171850e+03
-7.465597289343858165e+02
-1.931770732634392402e+02
2.222944209986391968e+02
3.419089455369434063e+02
-1.103304611950950630e+03
9.226639866075174723e+02
2.530851974709306432e+03
3.141280797517494193e+03
3.061924615566230841e+03
2.598765744651252589e+03
2.103814717329955329e+03
1.599109709167785240e+03
1.131636858186951258e+03
5.693259960248904008e+02
1.231516567514191252e+02
-2.099234580212063292e+02
-6.939670070008926359e+02
-1.395027235494434763e+03
-1.671097686962313446e+03
-1.590215334936155386e+03
-1.305387352683312429e+03
-6.796139487614977952e+02
-1.768969017448265504e+02
2.217860515209672485e+02
5.368228770337620972e+02
1.354076468038621442e+03
1.951763268386600885e+03
2.359528925852072462e+03
2.598213934567339493e+03
2.669222659412217126e+03
2.261457923985785783e+03
1.724091239412769710e+03
1.240539182088147300e+03
4.739044091014193327e+02
-2.125218888882295403e+02
-7.799702282872578962e+02
-1.486559559615442140e+03
-1.967356207254674928e+03
-1.742159015704193735e+03
-1.479071361310931934e+03
-1.466128353127487344e+03
-1.118279398231107280e+03
-2.291980863856626911e+02
4.807399662010004704e+02
1.112593311287322877e+03
1.827317591909954444e+03
2.436140559376634883e+03
2.968837538254460924e+03
3.013488556351759144e+03
2.659996689303493895e+03
2.269622093145665076e+03
1.671046481289071380e+03
1.367403103427762517e+03
8.076759628669738049e+02
-6.621768337062756871e+01
-8.223554431815907719e+02
-1.136756621413662288e+03
-1.217448886290544579e+03
-1.459318294933843163e+03
-1.530540937915596942e+03
-1.015247625641866762e+03
-6.753203668899967624e+02
1.223040660812867841e+01
5.214548248929469310e+02
9.964000849318059636e+02
2.078096135754571606e+03
2.576566810805732075e+03
2.921863605712625031e+03
3.129954771990063819e+03
3.256805985380392030e+03
2.761479008011665428e+03
2.489930724056706367e+03
2.055119120946652856e+03
1.524034609067430665e+03
8.876313546531324619e+02
1.729112867376940699e+02
-6.321747521130910172e+02
-1.125663139136598147e+03
-1.635478095070156542e+03
-2.826698700596420167e+03
-2.211349962278890416e+03
-7.434262358209427930e+02
-3.247907599030776964e+03
-4.777715454105426033e+03
-3.668227331817740833e+02
1.333805253026183891e+03
-1.176830245871921306e+03
-2.529726593183644127e+03
-2.498749898749923886e+03
-2.707850143307283815e+03
-3.064174296074253107e+03
-3.358554099338718970e+03
-3.896148169698043603e+03
-4.480977495633610488e+03
-5.127005466052788506e+03
-5.730335666067218881e+03
-4.729001156565146630e+03
-3.384966268450597909e+03
-6.394247929116140767e+03
-4.803869860624477042e+03
-2.156826284264126116e+03
-3.731258541499900048e+02
1.312222043834119347e+02
-1.390712433036299899e+03
7.731292029930477838e+02
2.575806210236899460e+03
3.181359329663994231e+03
3.652825713060155977e+03
4.082198313943690664e+03
3.828538830866934404e+03
3.654855726150058672e+03
3.069087134290903123e+03
2.546258196530623081e+03
1.825390407393573014e+03
1.359430367665141375e+03
7.053583449418739519e+02
1.171349041637918873e+02
-8.132207436659108453e+02
-1.122718836579522304e+03
-8.823732478170093145e+02
-1.043204243496644949e+03
-6.481900159012662925e+02
1.056796559695978175e+02
4.144834612998317880e+02
1.212292191625351734e+03
2.078172214451637956e+03
2.417156388509953558e+03
2.910201349408428086e+03
3.087385413229237201e+03
2.861740217033438967e+03
2.765269195479049358e+03
2.536969314708937873e+03
1.960811430725065065e+03
1.401812507812847571e+03
7.819413364752917914e+02
1.642674920768617426e+02
-6.173015806768923994e+02
-1.265754543463845039e+03
-1.502120999837723957e+03
-1.538444606375751164e+03
-1.303611592752659362e+03
-8.254633740153595909e+02
-2.889504044840361274e+01
7.319931168453665578e+02
1.306150391057050001e+03
1.547814506215768233e+03
2.008021391602981112e+03
2.627457719738712512e+03
2.903240500857625648e+03
2.527676121159226113e+03
2.286738421908910368e+03
2.071408114380381903e+03
2.025611349013793870e+03
9.731212958868853775e+02
-1.826723359180255557e+03
-2.941052483319746443e+03
-2.151046261074658105e+03
-2.054776491149435060e+03
-2.225213097442994240e+03
-2.373349961460801296e+03
-1.990226131232637499e+03
-1.728624995898783027e+03
-1.443606405988356528e+03
-5.233815072972128064e+02
-8.280839961620804957e+01
4.592135652768776026e+02
1.269651884020980788e+03
1.678585679194133036e+03
1.947052116033391258e+03
1.768034277004550859e+03
1.556527317533100359e+03
7.075499489631213237e+02
6.520639186668436196e+02
1.140674072989305330e+02
-2.624866173029026868e+02
-1.055590160952218639e+03
-1.813333563091993256e+03
-2.052718446565344038e+03
-2.399732960200382877e+03
-2.519392198173033194e+03
-2.435700152506313316e+03
-2.220715496293691558e+03
-1.439402082909994988e+03
-9.216878521297164752e+02
5.472987996397138843e+00
4.930841551147670430e+02
9.841793195471292393e+02
1.474810897732014610e+03
1.647972190078855874e+03
1.611647691468465837e+03
1.677846065167181905e+03
1.731563772068510616e+03
1.541769006930473779e+03
8.564246147773227449e+02
3.135462532149026060e+02
-7.039510914959146248e+02
-1.178089857829638049e+03
-1.908832168373137392e+03
-2.751219160948077388e+03
-2.749288278128775801e+03
-2.465070105463758409e+03
-1.885578041193828312e+03
-1.577804925114559182e+03
-9.097297971743782909e+02
1.356372982375738445e+02
1.068274245617499673e+03
1.617279581653039031e+03
1.526697954352586748e+03
1.468542928900545576e+03
7.038269953813496613e+02
-3.648663706419281993e+01
-4.664401104091458592e+02
-8.940224948326647336e+02
-9.272767649701015671e+02
-2.052172342348493714e+02
6.230530827703765908e+02
3.995406228097214694e+02
-4.437898522499494902e+02
-1.226136921831381642e+03
-1.391261185276350943e+03
-1.325940500252490210e+03
-1.170229121689594649e+03
-9.894595706742368293e+02
-3.544953990378989488e+02
5.926115625576925368e+02
1.287956928274993288e+03
1.505728279184602798e+03
1.928550420039615801e+03
2.360713025771429329e+03
2.217979484320107531e+03
2.037422504117833569e+03
1.830263420091795069e+03
1.433236748993126412e+03
8.371709384033244987e+02
4.441666611650851451e+02
-8.474148679605050916e+01
-5.567821478938536757e+02
-8.318436815414950161e+02
-1.277107656509815797e+03
-1.574188241943629919e+03
-1.759386065582588571e+03
-1.352598163578657704e+03
-8.247739992221952434e+02
-1.749857629806102182e+02
8.075481692524080017e+02
1.692087078035132208e+03
2.395344165456087012e+03
2.994478076059168416e+03
2.978596223275195825e+03
2.821544768293576453e+03
2.172404905196714481e+03
2.049084278732322218e+03
1.365517366353672060e+03
8.899317678755223824e+02
6.843080687920742093e+02
-5.774784428933929803e+01
-6.130546572176521067e+02
-1.296855709971169517e+03
-1.679066076494091703e+03
-1.535576212798052893e+03
-1.608450138735301380e+03
-1.444568028373799734e+03
-1.123232405897354965e+03
-3.004365696799604848e+02
3.688894060902006800e+02
6.678258077449645498e+02
7.603893281961866251e+02
1.255598785085425561e+03
2.247484746295107470e+03
2.492026170926787017e+03
2.154198451051332995e+03
1.998004804128068827e+03
1.582406910676706048e+03
1.117415503749881509e+03
7.300281516146908416e+02
-1.488184176467724456e+02
-9.801702957147301731e+02
-1.733028017989675618e+03
-2.711459637467503853e+03
-5.285378498842614135e+03
-5.157802095134530646e+03
-4.081788286730404252e+03
-1.190352945080281415e+03
-3.274499407540963603e+02
-1.945069445128633788e+03
-2.312199430254736399e+03
-8.447918276550607288e+02
1.863208304412044072e+03
4.888029628086261482e+02
-5.969479096468576245e+02
1.975949895553784245e+03
2.264464046956763013e+03
1.175601369573143302e+03
-9.935929666609071091e+02
1.578403507430290631e+02
-2.234182998432088880e+03
-3.253707735692242295e+03
-2.970719645860263427e+03
-1.760231115079115625e+03
-1.535259313642350662e+03
-1.657801026008732151e+03
-3.280863885487469815e+03
-1.616414426373740071e+03
-5.714610044931207540e+02
-1.730928473667759135e+03
-1.950760018073739957e+03
1.752039663780195497e+03
7.295434082548860033e+02
1.462802447066544346e+03
2.851792304407911161e+03
2.797533352786073010e+03
2.771066340034833956e+03
2.450381906825436999e+03
2.098437351997894893e+03
1.655200444869353987e+03
8.636466512641909503e+02
6.477732062289386761e+01
-6.474067350681125390e+02
-1.304868947644050877e+03
-1.584676604351725246e+03
-1.489805441625789172e+03
-1.304255710751688412e+03
-9.530525997940382013e+02
-2.510999870842502162e+02
4.646084067416692847e+02
1.020136605386224801e+03
1.736517167493038869e+03
2.211815568869015351e+03
2.395032372375992509e+03
2.598217626192329135e+03
2.325396718928861901e+03
2.049548841119851659e+03
1.732676710016459083e+03
8.658028905489533145e+02
8.579174747533115806e+02
3.670105879419945154e+02
-3.918318782785297003e+02
-1.178779405910106107e+03
-1.832888671780495315e+03
-1.852902579242891761e+03
-1.929864028482804542e+03
-1.877046684413024877e+03
-1.661200904204904873e+03
-1.876240588274204811e+03
-2.465271026629253811e+03
-1.849124074419041108e+03
-1.023603695141495109e+03
1.535539171692056925e+03
2.058023195866430797e+03
1.979715980659732395e+03
2.363454832389726107e+03
2.011506135192479633e+03
1.328985440652003035e+03
1.041734487939068231e+03
7.296662744304231865e+02
2.571508894293487515e+02
-2.871970657080673277e+02
-9.074985058650527208e+02
-1.508699638640029434e+03
-1.759565257233500915e+03
-1.676051911017934344e+03
-1.471540131760864597e+03
-1.110066042028547145e+03
-6.175453841504918273e+02
-6.397756319602736852e+01
8.926434702444367986e+02
1.390405564871446359e+03
1.876308766353399051e+03
2.294411356995728966e+03
2.699743732248976357e+03
2.749316481499039128e+03
2.407098282452891908e+03
2.054069240286267359e+03
1.850227397619537669e+03
1.374617322555431429e+03
8.121741409089140689e+02
1.118130497536076717e+02
-6.874145640633677203e+02
-1.686561559294059180e+03
-1.919698164301910310e+03
-1.871789313316087828e+03
-1.255873396559329422e+03
-7.349758604356429714e+02
-5.910288789952518300e+02
2.560020980616770316e+02
1.034114896911862161e+03
1.729353832922986157e+03
2.126744060235784673e+03
2.218285157302409061e+03
2.315009592286411134e+03
1.800909663041099520e+03
2.462006719824891206e+03
2.280237643444822879e+03
1.784614130720326557e+03
1.179127674203503148e+03
2.607450782514120533e+02
-6.756000494187204595e+02
-1.175962563368098472e+03
-1.658362796144139111e+03
-2.712830311671241816e+03
-3.813380472864353123e+03
-2.688023760752709677e+03
-1.462737784971407791e+03
-4.009533412360062812e+03
-6.148395417217502654e+03
-4.962280140670745823e+03
-4.293134283563805184e+03
-3.837992128906312246e+03
-3.390948975682103537e+03
-2.708800587052603987e+03
6.405215762388102121e+02
2.342154230449456918e+03
2.175928824226670258e+03
1.263657406344535275e+03
8.023683484623578579e+02
2.990648570575975214e+02
-5.993143698404398947e+02
-7.708235354553208936e+02
-1.126438628917766891e+03
-1.555187921936899102e+03
-1.734167988434388917e+03
-1.288341056310028534e+03
-9.977010963434452151e+02
-1.042914058985200114e+02
4.919263143084427270e+02
1.169992916742279931e+03
1.982951244645264296e+03
2.737812821291457112e+03
3.162645284185416585e+03
3.454378230236743548e+03
3.342052317726460842e+03
3.288637394303824749e+03
2.466149741980892486e+03
1.578574602587546451e+03
1.206869646538149027e+03
1.215020984532043030e+03
8.360244640570367665e+02
-4.520275613531804737e+01
-9.146462943151464060e+02
-1.280373165244256597e+03
-1.053380513711825643e+03
-1.010714958938114705e+03
-8.213430153659738835e+02
-2.192774502469886784e+02
4.565233047463768230e+02
9.451009862975329270e+02
1.681489329517639817e+03
2.165702013247200739e+03
2.485707795417970829e+03
2.793567712106450927e+03
2.767308231891367996e+03
1.919901669718747144e+03
1.415390314776361492e+03
1.384732999582125558e+03
1.218940168083677463e+03
8.700039824602035878e+02
6.708630553091788897e+02
3.648878762654909025e+01
-3.971297127082345924e+02
-8.909725413137114174e+02
-1.267092225190169984e+03
-1.920541558777523733e+03
-1.882286731498249083e+03
-1.296298657419803249e+03
-6.714818596512109252e+02
-5.883732147291462766e+00
8.075635111786505149e+02
1.372913814813696945e+03
1.816493301687998382e+03
1.738103855832742283e+03
2.028657417799932546e+03
1.691144051447453649e+03
1.396496092629875875e+03
5.887614337836578216e+02
-2.850994487143402239e+03
-3.875806494153786844e+03
-4.867717716431110603e+03
-2.194736252918163700e+03
-3.633885617380297845e+03
-3.827113293686185443e+03
-3.657489396038924497e+03
-4.459040844641005606e+03
-2.439721761638788394e+03
-1.915501505728749407e+03
-1.235351454754783617e+03
-6.162719505337876171e+02
2.988294654358955427e+02
1.164977405539626034e+03
5.921487582917173143e+01
-8.004325567202373577e+02
3.320544376502825799e+02
1.400681441710522904e+03
-5.745531641210357066e+02
-7.126301559541797133e+02
-3.378585780051065285e+03
-6.284021607757736092e+02
-3.205144699795142060e+03
-2.875797773269860954e+03
-1.796345626981115629e+03
-7.138360021911505555e+02
-7.042887355467300949e+02
-9.887260613516797321e+02
-2.549164544569938244e+03
-4.645721162721940232e+02
-4.189541661045748810e+01
1.069155569331936562e+02
1.122917069273932839e+03
-4.518256501321427550e+02
-1.183079350971615753e+02
2.344557167366263911e+03
3.069723700003126851e+03
1.404159440635134843e+03
2.829912488919152111e+03
1.013004010037083390e+03
1.864130564406575559e+02
8.841108424855087833e+02
7.440897003425940284e+02
4.852708751350986063e+02
-9.734274200135877209e+01
-5.567443027754191007e+02
-8.249918404713073414e+02
-6.061108089236826117e+02
-5.100034211479237456e+02
-2.016494235069865795e+02
5.779011803228031567e+02
1.269651726345135103e+03
1.636659768446626458e+03
2.240970809123651179e+03
2.572629668109175327e+03
2.965626152577322500e+03
3.112006703107500471e+03
2.805774051428959410e+03
2.197938081774231250e+03
1.769471937320095776e+03
8.013994339759437935e+02
9.036789261568112579e+02
8.343554949896802100e+02
-7.477880994865388686e+01
-7.347027673915549713e+02
-9.574696081152355873e+02
-1.189806404998519156e+03
-1.444460706596064483e+03
-1.254788334886730127e+03
-8.459978120127298098e+02
-6.271732067223464355e+02
4.049904356080079992e+02
1.106520126471389631e+03
1.376107150640663576e+03
1.740880127964504254e+03
2.500723906149225968e+03
2.942985515977034993e+03
3.020556432149568991e+03
2.546714716688928547e+03
1.851333418591364307e+03
1.147291386847805597e+03
7.174567891880901698e+02
1.568448582215658575e+02
-6.745156946701144989e+02
-1.080486724667209501e+03
-1.788213842563868184e+03
-1.659791319912382960e+03
-1.281292685959813525e+03
-1.522648772618590783e+03
-1.076064931258747947e+03
-2.832722155933471981e+02
4.387320229633434110e+02
1.109938845088410289e+03
1.870256794942152965e+03
2.481619000839789351e+03
2.871047905346387324e+03
2.992504456506577299e+03
2.432990775232526175e+03
1.747537539955882039e+03
1.477071261466307078e+03
1.454572629786935522e+03
8.380376857063099578e+02
2.114095293691899542e+02
-6.703784816732353420e+02
-1.442350351989831097e+03
-1.655509590958994295e+03
-2.096917690972220498e+03
-2.012622362258279054e+03
-1.679604334296219349e+03
-1.262897967655315597e+03
-7.784776386760391915e+02
9.870041385709188830e+01
1.171599605910971604e+03
1.787284597487768906e+03
2.169784297080868782e+03
2.513087334443525378e+03
2.831213877882707493e+03
2.792078515599026559e+03
2.840719544007169588e+03
2.265138532235924686e+03
1.847334937387525997e+03
2.412435060731158671e+02
-2.114215725269702943e+03
-2.097019635218253370e+03
-7.272140876225817010e+02
-2.805801644927242705e+03
-6.496737802041961913e+03
-7.600017990440673202e+03
-6.612690881687512956e+03
-2.044815135026241933e+03
-4.005579077893198701e+02
-7.187733979389591923e+02
-3.859379905815623715e+03
-4.363400596385363315e+03
-3.539785387809741678e+03
-2.976492707567550042e+03
-2.849539280887878249e+03
-2.535936499705962888e+03
-2.800697109053365693e+03
-3.123816364866197546e+03
-3.132281552991044464e+03
-8.531311247770364616e+02
2.206133728836184673e+02
2.919201924725164190e+02
-3.216150366654494164e+00
-2.048318443143599552e+02
-5.069619354774691828e+02
-7.825940730807662931e+02
-6.607355800777717150e+02
-5.283621218904050920e+02
-1.285144013371462961e+02
7.138912329141016926e+02
1.534861083826610411e+03
2.254441454941943903e+03
2.525708563106352358e+03
2.764679739980955219e+03
3.151332899467267907e+03
3.274694089255552171e+03
2.863780920846266781e+03
2.702622491584764248e+03
2.451252104984359903e+03
1.735662542955534491e+03
1.028798875547880243e+03
3.216297865122866710e+02
-6.029032834419992923e+02
-1.193760036258333457e+03
-1.118906533392367919e+03
-1.286389148194508607e+03
-1.289224110996817672e+03
-7.843790590336282094e+02
-2.888006812942389274e+02
3.705899070583092794e+02
1.031801156012741103e+03
2.043926280975378177e+03
2.340931631772365563e+03
2.609903952717600532e+03
2.891865504876967407e+03
3.239867774419229136e+03
3.037922474154944211e+03
2.443943864908806518e+03
1.891924335754984668e+03
1.422926531025641680e+03
8.991711028035900881e+02
1.586923663854656468e+02
-6.346382270554992147e+02
-1.380862575916091146e+03
-1.697659360983995157e+03
-1.646966548818479168e+03
-1.482024505473279532e+03
-1.635793894954123289e+03
-3.210992337280829815e+03
-2.010777363238067210e+03
-6.743001152596372094e+02
5.980766247415027692e+02
1.238691217912269167e+03
1.582733713352524546e+03
1.937204156460758895e+03
2.279031870016322955e+03
1.946235582757756674e+03
1.506853612787059319e+03
1.390841360573703923e+03
1.068202086519204613e+03
2.609401295448309952e+02
-4.629489439152463888e+02
-9.495277140477403464e+02
-1.620767417254142401e+03
-2.129736065143167252e+03
-2.181420241535332025e+03
-2.055791013983957782e+03
-1.758849505464619369e+03
-1.203573571580159069e+03
-6.779010589212740570e+02
3.619396120961804542e+01
6.457701773379558290e+02
1.107838368318899484e+03
1.386494867684179781e+03
1.662776470894462591e+03
1.699667249607298572e+03
1.972136018794449456e+03
1.421177839047554698e+03
1.196813046571445739e+03
7.900823146195735944e+02
2.568986231289331954e+02
-3.917687972559053833e+02
