-4.353008941639884597e+02
5.630032617649216036e+02
8.508375748185696352e+01
-5.881846596175903414e+02
-1.987603393016262885e+02
-2.035872816181067151e+02
-5.547350136190398189e+02
-3.271874886366700821e+02
-1.849204301578526781e+02
-7.900669889420139214e+01
3.025226339884508775e+02
-3.206258561131317686e-01
-6.775671526364866395e+02
-3.262244817302591855e+02
2.857232090386408458e+02
6.362485816554677740e+02
3.323856716943209335e+02
3.180648979179515550e+02
9.432671688823591012e+02
6.599649450520520304e+02
-3.868324901855579583e+02
-1.260193969011946820e+03
-7.310854526889562521e+02
-8.045015827832809236e+02
-9.374871770034108067e+02
-9.300747471449191153e+02
-6.032606239638023453e+02
-4.360798307604331967e+02
-2.495587174353218529e+02
-2.556457050318857114e+02
-4.444690500979366732e+01
-9.309779897357152834e+01
-2.435310901143734554e+02
-3.896275988332566840e+02
-2.332688377613752380e+02
1.554992454693023092e+02
5.660406925156808029e+02
1.335096210622745730e+03
1.018250547601164044e+03
-4.025487123801985945e+02
-1.046194566953101230e+03
-1.134489324124008590e+03
-6.594947842142601075e+02
-7.431903774073192608e+02
-2.303476328837038636e+03
-2.251205023424900901e+03
5.627751352316743123e+02
7.199969574448934964e+02
9.503309688555079049e+01
3.499271018645774234e+02
6.654847598245611380e+02
6.883803927761252908e+02
6.184277200418259781e+02
5.338494590030359177e+02
5.447287843507286880e+02
8.757064345139518480e+01
5.540107353987231420e+01
7.746159475306253626e+02
9.471611117881923292e+02
2.495216665428282568e+02
2.867820338339992077e+02
5.627834364939766374e+02
4.875971518823566271e+02
7.791078533118427458e+02
1.271629371165962084e+03
1.407254615285239197e+03
1.713772160610119954e+03
2.272244267095071791e+03
1.986318392554231650e+03
9.134005418890627652e+02
1.023719774083026323e+03
2.112066623264649024e+03
2.926393484906634058e+03
2.895162574224324999e+03
2.317514966985374031e+03
2.410876134012833063e+03
2.419772785338954691e+03
2.459336045752794234e+03
2.340264433896805258e+03
2.468962892132859452e+03
2.449887253396991127e+03
1.817403639080259836e+03
1.598307321851699044e+03
1.624726413263131462e+03
1.617707723027303473e+03
2.051242569217313303e+03
2.870349003425364572e+03
3.017004991876855001e+03
2.836503750916871468e+03
2.633651810676853074e+03
2.842291278733598119e+03
2.677316388112520599e+03
2.781356751137191623e+03
3.081482701741276287e+03
2.960069904265173136e+03
2.343386505107553603e+03
6.021501911164243666e+02
1.368586844982714410e+03
1.462538225495686220e+03
-3.710758165378791546e+03
-7.018196549082233105e+03
-6.706679234508268564e+03
-6.700301524637117836e+03
-6.452162836546020117e+03
-6.242203605931493257e+03
-6.486436403279258229e+03
-6.015819691146534751e+03
-5.488313656182166596e+03
-4.748863733247693744e+03
-5.559346991154141506e+03
-5.758130937026332504e+03
-5.789267238581141100e+03
-5.041742777405588640e+03
-2.607345323923939759e+03
2.152834173904083855e+03
3.062979616736074149e+03
1.742439195445807400e+03
-6.359712266928744384e+02
-4.455208661144695725e+03
-5.790309268860497468e+03
-6.122293589066723143e+03
-6.281139537054061293e+03
-6.568761138365723127e+03
-6.505194347628436844e+03
-6.500417318918876845e+03
-6.131460049656108822e+03
-3.934353926720925301e+03
2.013882753975040259e+03
2.773204117687150756e+03
-3.753388830515643235e+02
3.484065265016669741e+02
1.176582718342547196e+03
2.997257262902572165e+03
2.802462478683457448e+03
3.423229294127792855e+03
3.314658456185900832e+03
2.872803373555721919e+03
2.445614289180938158e+03
2.203178748406060549e+03
2.123462820839217329e+03
1.723420778286291352e+03
1.662071760959476251e+03
1.422554451867199987e+03
1.332055698693261093e+03
1.704593786407817106e+03
1.853211756662008611e+03
2.049817273659878538e+03
2.311384105931570957e+03
2.209058360297609852e+03
2.216994621552558783e+03
2.607350749516126143e+03
2.800058544271955725e+03
2.497022585060775782e+03
2.403481100995950328e+03
2.441746598393250224e+03
1.773034212308155702e+03
1.379304704056342189e+03
1.345398829915295664e+03
1.153200824720299579e+03
7.036575262695506581e+02
1.297023826838916989e+02
1.843671042846732178e+02
5.659580503223597816e+02
8.161400198070999750e+02
1.046319389127796285e+03
7.383226453579356985e+02
1.469099401222226220e+02
5.109529872820676815e+02
8.785067812411070918e+02
7.204401662460081752e+02
3.493360118978910123e+02
-7.650114417781452403e+02
-9.469587963660901551e+02
-2.403357503384243046e+02
-4.546090831522405438e+02
2.237459826380107586e+02
5.299130238894745162e+02
9.840827770203515001e+02
1.206541852608489535e+03
1.036605479760762137e+03
-1.055035708903914866e+02
-9.027415187464498558e+02
-1.140820732423648906e+03
-1.502000363678130270e+03
-1.681701798662729288e+03
-1.238240684306168760e+03
-2.987968703914723960e+02
6.860377038422780061e+02
9.104760730508652387e+02
1.062421987460483706e+03
1.389042804558606349e+03
1.280913989178200609e+03
1.094697597688256110e+03
7.906308108754433306e+02
6.762629002860585388e+02
6.824552616029600358e+02
6.920054934788778382e+02
4.969600272674360326e+02
3.516787076290754612e+02
-1.937687678329982788e+01
-4.133492318660013325e+02
-7.134394614681274334e+02
-6.811773284691918207e+02
-8.617193039454052723e+02
-8.774777326510732109e+02
-6.553965399733450568e+02
-4.103113069730615621e+02
-2.343300734650769641e+02
6.451908040392684285e-01
2.537180534879544211e+02
9.889564246688013327e+01
5.967121194873576542e+02
1.415678984896685961e+03
1.510109113778300753e+03
1.306947280262485265e+03
1.257729707185972529e+03
7.314907148122151739e+02
3.998573679213974970e+02
4.978280058192171964e+02
6.164010477986447540e+02
3.511395555252349823e+02
-2.010066706213153509e+01
-1.593376530928053114e+02
1.516189438963399709e+02
-1.617385108556418913e+02
-1.599571996621347580e+03
-3.740930071533453884e+03
-7.482689388990475891e+03
-7.925327271464168916e+03
-2.773292453561383354e+03
-2.525233947879695279e+03
-4.355841015547423645e+00
1.996478608047993703e+03
2.171951087671838195e+03
1.803750381429162189e+03
4.711005860914506229e+02
1.367880208372376671e+02
1.044792844748851394e+03
9.790461102560591371e+02
1.076207944099312044e+03
1.207564001507626472e+03
1.747225530838579971e+03
1.812156504986250638e+03
1.446984506241232793e+03
1.375728885705901348e+03
1.364355077866606734e+03
1.360280888512976617e+03
1.640623667639730456e+03
1.658045072727712977e+03
1.851969702295935576e+03
2.258512674440031333e+03
2.339493204730929392e+03
2.535502599838612241e+03
2.711509166394025669e+03
3.075792325331026859e+03
2.798280318402866214e+03
2.588905027028813493e+03
2.559682042919017476e+03
2.328664312093114859e+03
1.804987592742618972e+03
1.512689710840384350e+03
1.649570218626555288e+03
1.765300285827741845e+03
2.254625567083888200e+03
2.298317696847095704e+03
1.724293427743528582e+03
2.015708084409443700e+03
2.386748378169178068e+03
2.147174653581845178e+03
1.796556751294463993e+03
2.120407260701582800e+03
2.362469170275476245e+03
2.718269744113576962e+03
2.674156829051124078e+03
2.544757623803725437e+03
2.207628285573566245e+03
2.080249305059863218e+03
1.532573707429829255e+03
1.782875481395837824e+03
2.179259180921690131e+03
2.295165577675062650e+03
2.254084744036039865e+03
1.959705475305554955e+03
1.224385280857818771e+03
9.540102788647631087e+02
1.242490099188774821e+03
5.546196817773587782e+02
-2.315503691228050684e+03
-5.068605586497280456e+03
-6.315743610550220183e+03
-5.816092495570241226e+03
-5.927290382541881627e+03
-8.722854032799004926e+02
2.007048172791940260e+03
-2.627395606901990988e+01
-3.454314080961316904e+03
-5.861556566498321445e+03
-5.579152391288734179e+03
-5.576803116408978894e+03
-5.501827480070634920e+03
-5.282829693656891322e+03
-5.188674521434259987e+03
7.519783021709136506e+01
1.931934277106306126e+03
1.727620140744746777e+03
-1.752219858771186125e+02
-6.262550486947752688e+03
-7.706681557864844763e+03
-7.362615581768353877e+03
-6.524615312929007814e+03
-3.069623954473487629e+03
-4.962694541081263196e+03
-6.954415641324025273e+03
-2.933723209888732981e+03
-2.422386983103890088e+03
-4.033007156536405660e+02
8.370363019326586027e+02
-3.408195143817974326e+02
-3.611151711799370332e+03
-7.293250214425929698e+03
-7.751427801165994424e+03
-6.953037157728413149e+03
-5.891743402037626765e+03
-6.170905818423707387e+03
-6.966969591655922159e+03
-7.110615596682195246e+03
-3.360995586337754958e+03
3.963055853805088304e+02
2.962196861186765773e+02
-1.608300334925766037e+03
-2.397477707167769495e+03
5.423774820246813988e+02
1.405493649032046278e+03
1.603539054081222957e+03
-2.344995862728663269e+03
-2.860097285991896570e+03
1.425140189972932149e+03
1.344592037936867882e+03
4.045019441143824679e+02
-2.877398774760300739e+02
-1.077840924378883756e+03
-2.166420602718100326e+03
-2.731153433610665616e+03
-4.111261254660734267e+03
-1.985599402882047798e+03
-1.738367087081705677e+03
-3.351415849935775896e+03
-7.187562030849168877e+03
-3.106142736815731496e+03
2.655004272288791981e+03
7.019066855651540209e+02
2.196061796288382993e+03
-4.775184755339200819e+02
-1.109453488141108437e+03
-3.756979804657152272e+03
-4.393451355576645255e+03
-3.778343877923384753e+03
-1.328737108681756808e+03
-2.967465543100253171e+02
-6.856744763268488896e+02
-8.652067039852259711e+01
8.276707763900817554e+02
1.876761442376441437e+03
2.886515926670842873e+03
3.808264308233769043e+03
4.992164049271342265e+03
5.076640351243889199e+03
4.031572862396948494e+03
2.155680157242794394e+03
2.190526755351577776e+03
-2.082446025598191568e+02
-1.305542483793266229e+03
2.067266998926405449e+03
3.263076399575072173e+03
4.770098471131592305e+03
5.804834503849210705e+03
6.095299932947013986e+03
6.571300899376656162e+03
7.673854915762326527e+03
8.503741811485640937e+03
9.963798221311582893e+03
1.098177923091100638e+04
1.077695422184863673e+04
9.843753879777677867e+03
8.642363311887844247e+03
7.455058564498147462e+03
6.691383961535083472e+03
5.867749478489457942e+03
5.190798264364543684e+03
5.375230492443648473e+03
5.965645187015738884e+03
7.387600609587014333e+03
8.604768716532802500e+03
9.314931932782472359e+03
1.035003219978289053e+04
1.023789020508593239e+04
8.971406150514423643e+03
7.461610299573622797e+03
6.543306439316890646e+03
6.875234548308756530e+03
7.546183718336058519e+03
8.062972284134876645e+03
7.102438019929105394e+03
4.953520179836697025e+03
3.339010297306773737e+03
2.093037696643177242e+03
1.640711441337301494e+03
5.386218773893342586e+02
-1.724804863365886831e+03
-2.879749124834286249e+03
-2.182328859552176709e+03
5.022920319231953385e+02
3.465208235667339977e+03
4.779288294100581879e+03
4.687847587356653094e+03
2.879624020015952738e+03
-1.666214232585318769e+03
-8.813769327857726239e+03
-1.486242655521587221e+04
-1.294008931091839622e+04
-4.447597082323308314e+03
2.695090743815587757e+03
6.208339732306131737e+03
8.322731522904399753e+03
1.061702887984516383e+04
1.232117136252731689e+04
9.004201170725867996e+03
1.232198358692161264e+03
-1.885987997963396992e+03
-7.969616258085872687e+03
-1.508203835440796865e+04
-2.090023848092765184e+04
-2.400412833835228594e+04
-2.162676926729821935e+04
-1.798635090505188782e+04
-1.219595498383898666e+04
-4.733721677690093202e+03
3.691963080570696093e+03
9.694978331155307387e+03
1.548770092054518682e+04
1.680824250724522790e+04
1.181133248767489931e+04
2.213780787213494023e+03
-4.968349814395741305e+03
-1.069702535804775289e+04
-1.926332620286120800e+04
-2.892556376483757413e+04
-3.318703923352174024e+04
-2.869283208604871470e+04
-1.927888824385279804e+04
-1.501512562407224686e+04
-1.191424645656186840e+04
-1.106328816509295757e+04
-8.858495070237839172e+03
-2.669034899605850910e+02
3.256643515384250804e+03
-8.945862524028629196e+03
-2.799037711270665386e+04
-3.102759878167632633e+04
-2.170330800941385678e+04
-1.514546608138813099e+04
-5.347579666840011669e+03
1.044949139233431924e+04
2.911886974192302296e+04
4.180575384710067738e+04
4.536929197833377111e+04
3.626246803812754661e+04
1.951417265096721530e+04
5.313431202352328000e+03
-8.690676661676250660e+03
-2.745412904498445641e+04
-4.324558950197893137e+04
-4.770792274253183132e+04
-4.314208542317590764e+04
-3.663409853062810726e+04
-2.804290673616344066e+04
-2.262121932070301773e+04
-1.668985858631994415e+04
-8.330490665048730079e+03
4.868193444150147116e+03
1.484113129670843409e+04
1.165436651139045352e+04
8.922146914748285781e+03
9.729605698988492804e+03
5.010982321412588135e+03
9.401215581999518690e+03
2.230820732899019640e+04
3.531002793698794994e+04
4.218421591125032865e+04
4.618258707160988706e+04
4.859182955347145617e+04
4.288609160502947634e+04
3.224446618744271109e+04
2.161601793652553170e+04
2.248279297115515146e+04
1.860339119072076210e+04
4.019205053155376390e+03
-1.135059057451866283e+04
-1.609507881086066118e+04
-1.205521973220354812e+04
-6.530632552844166639e+03
1.176968136396208138e+03
3.638546123774980515e+03
-4.609441943036988960e+03
-1.979803748258881024e+04
-3.260906721426442164e+04
-4.662934724676459882e+04
-5.338865272659707261e+04
-5.293978125079837628e+04
-5.134253994257305021e+04
-3.052475908017903566e+04
9.489735128513892050e+03
4.703017145351212093e+04
5.482867902999310172e+04
3.758436368221375596e+04
1.643044882175391467e+04
4.563276943591491545e+03
2.726216514337196259e+03
1.043843614903703565e+04
1.999028322386114269e+03
-1.130377830131622250e+04
-1.480410158041978866e+04
-1.684489064614621748e+04
-1.617596776969915300e+04
-4.661125295943986202e+03
1.843779955250565763e+04
2.799297080906496922e+04
2.262752798044980227e+04
8.720637278900712772e+03
-4.922599601233005160e+03
1.636985498756361494e+03
1.922052302132752811e+04
3.349316734022917080e+04
3.559302108638201025e+04
2.752423754734320028e+04
2.004589853865937766e+04
1.601207228664881768e+04
1.763887841486937032e+04
1.496040930559081062e+04
1.940819343850473160e+03
-2.583720753061875257e+03
4.420849820315973375e+03
9.662557897579392375e+03
1.755854642559677086e+04
1.615901165794254666e+04
-2.242945215344901044e+03
-1.499029845966631547e+04
-1.215708488334422509e+04
-8.453222116203980477e+03
-1.758116494479430912e+04
-2.992475754175045586e+04
-3.470458925065251242e+04
-3.630346031069119636e+04
-2.671534949689086716e+04
-1.069253290009906232e+04
4.855038155011204253e+03
1.434720291665395052e+04
1.074519882251219678e+04
-1.178452771099103558e+02
-9.877361287983305374e+03
-1.063114332707361064e+04
-6.379077988940218347e+03
-7.830370686445717183e+02
4.793323992764772470e+02
3.156886076683044280e+02
9.389933145714001512e+03
2.055402026158132139e+04
1.818662502828547440e+04
4.306091861760945903e+03
-1.402256151596825839e+04
-2.045672394730133237e+04
-1.473559494081939010e+04
-2.678322495811300996e+03
5.571231650612525300e+03
1.087320284362145867e+04
1.157871623531289697e+04
6.782766700129400306e+03
8.912070578057571765e+03
1.479550646056961159e+04
1.591089281509633656e+04
9.700183515747883575e+03
-1.097257991561550079e+04
-2.816555016542239173e+04
-3.018417489670426221e+04
-1.946549929355029599e+04
-7.871319894931642921e+03
1.544950541345945794e+03
7.073156220720372403e+03
2.181188235184863061e+03
-1.057293187815569399e+04
-6.487934497877788090e+03
1.234006603702119173e+04
1.979833571123151705e+04
2.647592918505979833e+04
2.219968343253730200e+04
6.962731504696755110e+03
-9.365087448883001343e+03
-2.618797841925100511e+04
-4.395304512046658783e+04
-5.625645974367369490e+04
-5.729426703743075632e+04
-3.357676991099004226e+04
-1.494975041933661032e+03
1.324611068067938868e+04
1.175758693600773404e+04
-2.726297948459006875e+03
-6.552912122593541426e+03
-5.050791118077574538e+03
-3.936287736025858521e+03
1.262840517197307008e+03
7.163346265322737054e+03
8.970319830754324357e+03
-2.488463887964969217e+03
-1.765921745236645074e+04
-2.052424881373649623e+04
-1.405757905690260304e+04
-5.002190677600672643e+03
6.642709602387362793e+03
1.989195911993728078e+04
2.053228948018825758e+04
1.254468731310696785e+04
5.799457784879220526e+03
2.427141744281544561e+03
1.260747876150088996e+04
2.301591453381006068e+04
1.760241978438155274e+04
8.982608483303250978e+03
4.163631467315247392e+03
4.995344896209181570e+03
3.205278054987849828e+03
3.661467671997046182e+03
1.060284778988995822e+04
8.796355313628113436e+03
6.195950089704229867e+03
4.965541429856231844e+03
1.709015936620101911e+03
-2.723696543454539096e+03
-1.030568780936402254e+04
-1.383197705154384494e+04
-7.618583379758733827e+03
-4.018478589252043548e+03
1.876337953654049670e+03
8.883545876060357216e+01
-4.697008586717318394e+03
1.173756512152998312e+03
8.237122815657210595e+03
1.181898774794968449e+04
1.340128530676128503e+04
1.233592892952057991e+04
9.771867373181976291e+03
7.983127816285918925e+03
5.648681816887541572e+03
3.817550833499464261e+03
4.001840995981516244e+03
4.243590857468825561e+03
3.062768398887234071e+03
1.134270704431885179e+03
-8.829540289296792253e+02
-3.491897125692087684e+03
-5.094450430787840560e+03
-7.547500302386690237e+03
-6.655052150954398712e+03
-1.178092662335550131e+03
3.017334541897349482e+03
2.489298488115086911e+03
1.172935226193525978e+03
5.022094324917917447e+02
-6.500968958324232005e+01
2.264087544083068224e+03
6.088468776213171623e+03
3.861188262899745041e+03
-6.046308343782217207e+02
-1.847794807716249579e+03
-2.838992577898437958e+03
-6.794915924371033725e+03
-7.738517118167548688e+03
-4.349241474950204065e+03
3.007176225753457402e+03
4.856514076313888836e+03
2.865097481580090516e+03
1.831478693126390667e+01
-2.350916796288890509e+03
-3.339542761636264004e+03
-1.778110078238560391e+03
-1.114240797898703704e+03
-1.302122781135507694e+03
-3.825349652583913667e+03
-6.119655215425937968e+03
-5.036973770380099268e+03
-3.210478971269302747e+03
-1.809589312018117425e+03
1.225796800340869197e+02
1.540059654015098204e+03
-2.302579733878561910e+03
-7.756988962758699927e+03
-7.657007701057492341e+03
-5.037526557213763226e+03
-4.496251854330626884e+03
-4.913678889584254648e+03
-2.893312655144140081e+03
1.369906482059168411e+03
5.767921192658066502e+03
7.526057711405054761e+03
6.214565650135450596e+03
3.339173599256309444e+03
6.212115919092905187e+02
-1.664846798517733532e+03
7.328718853406843436e+01
1.981668887812733601e+03
8.504316564031028065e+02
-1.532599749949632951e+03
-2.522029573347719634e+03
-4.588504002012343335e+03
-7.179747870218992830e+03
-6.601910460687832710e+03
-2.847009292751920839e+03
1.702890058910710650e+03
-4.241353315742086920e+02
-1.625479238192020603e+03
-2.185875473928296742e+03
-9.899031251057804184e+02
1.825592523600751747e+03
4.220218383518333212e+03
4.068042608989638666e+03
3.770939149868318964e+03
3.768073060027693828e+03
1.937650154018631383e+03
2.632416367573204298e+03
4.065516537830233119e+03
4.255264573461412510e+03
2.527949406348872799e+03
-2.876875681353872665e+02
-1.528000168272859128e+03
-2.989903173324923046e+03
-2.252592759804793786e+03
1.341567358856766987e+03
3.476998466272421865e+03
3.974719962331098486e+03
4.474715662999065898e+03
3.443998895471096603e+03
5.642948016976076815e+02
-3.324924922055620755e+03
-5.152433661242476774e+03
9.579527374310997629e+02
2.571131886292963372e+03
-5.666708632215372745e+02
1.099642979851048040e+03
2.117148678797936554e+03
7.337252748758891130e+02
-1.965048348215137594e+03
-6.078119587931527349e+03
-6.397148957071235600e+03
-3.676651460833820238e+03
-3.286369147673115663e+02
5.212393986324710795e+02
-1.102708813108175718e+03
-1.008146677041242583e+03
7.248230718656795943e+02
-3.821412255865436691e+02
2.060174487061645323e+03
2.130653852737461875e+03
1.668101207984313760e+03
1.162606471873582223e+03
1.313542139566467313e+03
1.358598875486242832e+03
1.612235785236259517e+03
1.670274814498564183e+03
1.813947127159636239e+03
1.876187151976944506e+03
1.112489033545661869e+03
-8.793513691672005734e+02
-3.153305103815180701e+03
-4.190698930172209657e+03
-2.602898703359335286e+03
-1.724683443767841027e+02
1.829789844145360121e+03
5.865071146614581266e+03
6.529939816446373698e+03
4.987913114264264550e+03
4.234019787551115769e+03
4.230976027507882463e+03
3.710768755478837647e+03
3.048149948633135409e+03
2.881877526238771679e+03
3.034080432348320755e+03
2.933654560755106104e+03
2.909824385311099832e+03
2.772093196793780862e+03
2.715383086882223779e+03
2.544713257630262433e+03
2.285895292435975989e+03
2.383818365101422842e+03
2.204605161629739086e+03
1.977140543238180271e+03
1.423005877641326606e+03
1.255532011573161753e+03
1.586723046707219964e+03
2.064172693512174646e+03
2.568895850237859577e+03
3.073861244824761343e+03
2.580806286456693215e+03
1.804432061907834623e+03
1.481314470371266452e+03
1.677405392385727509e+03
1.845535466830297082e+03
1.434592052898714428e+03
1.354598761662135757e+03
1.300038988271592871e+03
1.327555952428284627e+03
1.639940667635599539e+03
4.941962480932931499e+02
-7.304338781088697488e+02
-4.730319562450672493e+03
-6.288181560594322946e+03
-6.517734999011503533e+03
-6.394459954838263002e+03
-5.934254175949600722e+03
-5.635696603131312258e+03
-5.414233877418986594e+03
-5.635986433371812382e+03
-6.386719471824123502e+03
-6.451348020513557458e+03
-5.921658079385285419e+03
-5.777027633350748147e+03
-5.760472826494760739e+03
-5.461893877283285292e+03
-2.803624112196314400e+03
-4.804322806006121027e+03
-6.612947049415574838e+03
-6.426149019444374062e+03
-6.011777145920032126e+03
-5.699674183306097802e+03
-5.818549351552177541e+03
-5.933957027941516571e+03
-5.170262534746286292e+03
-5.019884297573695221e+03
-5.635553647205536436e+03
-5.243628451870582467e+03
-4.997698576669085014e+03
-4.850634576164588907e+03
-2.739420658376282063e+03
5.998951471215565334e+02
-2.043978273820611776e+03
-5.401156427837840056e+03
-5.235491328198866540e+03
-4.971156609415894309e+03
3.326694346857589721e+02
1.828771030331916108e+03
-2.153193488280575366e+03
1.243408035005874353e+03
5.484760033071913767e+02
2.160835194912961924e+03
3.639606875532557297e+03
3.940270596130197646e+03
3.930211898947173268e+03
3.493830526243256827e+03
2.806994331798876374e+03
3.356914793582135644e+03
3.941434438985314500e+03
4.016308599161319307e+03
3.979414208712921209e+03
3.746882651450614958e+03
3.184843251326372410e+03
2.736688287766241501e+03
2.518978582687365360e+03
2.522714730207169396e+03
2.383481105184247099e+03
2.386035357200457838e+03
2.538941727145837376e+03
2.687432984581338133e+03
2.534053251914680459e+03
2.513985827495397643e+03
2.769537742825139958e+03
2.747618291573942770e+03
2.408603598404032709e+03
-9.118581913010510220e+01
-1.867890082672930021e+03
1.901246633216700957e+03
1.987973814550410907e+03
-1.520699189624566088e+03
3.193577862974398727e+02
2.127918370335242798e+03
1.926257150447697995e+03
1.947715533473567575e+03
2.005186838569401061e+03
1.765508519810964799e+03
1.292895861449624590e+03
1.523755914497758340e+03
1.738302997461476934e+03
1.730131616657772383e+03
1.627660070019229579e+03
1.653869313223933887e+03
1.459958336396002323e+03
1.705195898560170917e+03
2.344889103868473740e+03
2.302793763356662566e+03
2.305204137669830743e+03
2.304322997960455723e+03
2.089868910863269775e+03
2.228872996407142182e+03
1.900654629371892497e+03
1.793763737859922458e+03
1.516703183810777091e+03
1.189628211771913129e+03
1.128771172876214450e+03
7.930861625484716342e+02
7.577448912843246944e+02
1.178674297451258553e+03
1.073943622369560444e+03
1.146549298601299142e+03
1.262339453324980695e+03
1.384286506892971829e+03
1.480475068860372858e+03
1.462028717201001427e+03
1.615973843208961398e+03
1.665329290531825336e+03
1.566025108015428032e+03
1.382141093167870395e+03
1.298423307055642454e+03
1.152406525124097925e+03
9.350125410663345065e+02
7.395742470899072032e+02
6.342023367593330931e+02
5.278311994116706956e+02
2.523771346052786839e+02
4.325609984799904169e+02
2.020117148274850649e+01
-3.602769297282929983e+02
-5.066234890115249527e+02
-4.640309669347308272e+02
-8.505666054663487330e+02
-1.580939479451576517e+03
-7.373500658884144059e+02
-1.549189058774742080e+03
-5.329857166084567325e+03
-8.351051526928235035e+03
-7.707498241203906218e+03
-7.661090494289645903e+03
-7.333877757119216767e+03
-6.708036326685866698e+03
-7.573696129653894786e+03
-8.199755066145657111e+03
-8.196286349301995870e+03
-7.775134177443348563e+03
-6.998088929651931721e+03
-6.998510933135417872e+03
-7.173541838432657642e+03
-6.925196955185563638e+03
-2.417553212959294342e+03
8.193873231458375130e+02
-1.315965678054297996e+03
-2.642383476949102260e+03
-1.584235083910062485e+03
-3.467281789811835324e+02
4.821992105805611573e+02
9.966237892228316468e+02
2.480362033583892298e+03
3.054103794458212633e+03
3.037751741490307722e+03
2.604486206849845985e+03
2.130537297940683402e+03
1.762066256527719361e+03
1.300094661202376983e+03
1.101618183123012159e+03
1.385368225027847302e+03
1.667320955347694280e+03
1.386678482159013811e+03
9.725836708759252360e+02
1.532011151077949989e+03
1.559064433235641673e+03
1.496824328556825549e+03
1.494067266268099274e+03
1.021543938429609852e+03
8.521663235965552303e+02
1.037387950732876106e+03
1.152199550232705178e+03
1.089622604872463626e+03
8.434597561747152668e+02
1.026593272337735243e+03
1.165029102082912914e+03
1.131919880153373015e+03
1.460284714573448809e+03
7.021575011459480038e+02
2.557260908516640825e+02
1.008356442850149932e+02
-4.157750602903928439e+01
-2.743938227607974767e+01
3.934875303328818177e+02
6.724043383911732690e+02
1.003200624382969522e+03
1.024931543587316128e+03
7.715271152493588716e+02
7.857459819696915702e+02
8.656388611171106504e+02
1.308208512855989056e+03
1.598482015522866050e+03
1.600674916916615075e+03
1.546286274261470680e+03
3.894945772598691747e+02
-8.787518111911543883e+02
-2.228977585668057770e+02
-3.965284854554161029e+02
-1.232703772797336569e+03
-2.530956131316740539e+03
-1.547005507184374892e+03
-3.196052127534447891e+02
-1.538521345486526116e+03
-1.467609614003792785e+03
-4.091682309392074330e+02
2.515695528944131354e+02
6.235694037526393458e+02
1.100094847396030247e+02
-3.599083569261342177e+02
6.977246668721725200e+02
1.534756977468363175e+03
1.247473228189583551e+03
6.765992662449722275e+02
2.773125260059749735e+02
-3.263262122003382046e+02
-8.442950272362600117e+02
-5.565978030678214736e+02
-4.322058098609243757e+02
-8.331392013008035065e+02
-1.598384801689433289e+03
-1.584852209274906500e+03
-1.735489913881336008e+02
5.586117004405296029e+02
8.388164180630809597e+02
4.771181284834597136e+02
5.042209501691157669e+01
4.945548008246018981e+02
9.854494233822762226e+02
4.901021190338193492e+02
-7.936853184174926810e+02
-8.886984590887200284e+02
2.922712738095318628e+02
6.041995836740388768e+02
4.000355261948056409e+02
2.058197718912759626e+02
3.305805277231208379e+02
3.542869624045676460e+02
5.918969954122992476e+02
1.394498474632172531e+02
-5.490612759049524811e+02
-1.209642346586694885e+03
-1.058298914913249973e+03
-7.960067281045581922e+02
-3.667750403436717761e+02
-9.763070497358549460e+01
3.944517675821781495e+02
6.474619892896613464e+02
4.144057260136314085e+02
3.623479843142538357e+02
1.147195891308641194e+03
1.029929923640090237e+03
5.115463601893467382e-01
-4.831070630659924632e+02
-8.138661519305775300e+02
-8.527586578058293298e+02
-7.883159769660689165e+01
-8.714230080858267513e+01
1.042916674400708104e+02
-2.235427313643145339e+02
-5.346752717892270539e+02
-9.814292148792540615e+01
1.490289433429863095e+02
-1.012018139968158437e+02
-2.987282548358805343e+02
-1.878586985765439522e+03
-3.204564232850222197e+03
-4.056606706108008211e+02
8.782761193289579182e+01
1.676062560509562900e+02
3.310462550101202623e+02
1.043056712385055818e+02
9.201140774472179373e+02
1.326609254448311958e+03
1.437317750667091786e+03
1.717404099341875735e+03
1.686162539230528182e+03
1.609288256670918599e+03
1.709529813076057508e+03
1.435167550840833428e+03
1.118705688999597896e+03
3.551888619373438587e+02
-4.011080550225148613e+02
-6.312305379200106472e+02
-2.031494982629970423e+02
-3.008576536200867224e+01
-4.830771646815089753e+02
7.856268010677512166e+02
1.479829989521391553e+03
1.599997430373018005e+03
1.708780804299831289e+03
1.705519196022616825e+03
1.729901242537687267e+03
1.743035582066204370e+03
2.273544988884735631e+03
3.042116175923090395e+03
2.924459007931903216e+03
2.585273867231207532e+03
2.264670420303218179e+03
2.097235920176548461e+03
1.838751418784927409e+03
1.965370072909788178e+03
2.153339533150146963e+03
1.846107288699644641e+03
1.034927358987818252e+03
6.414238160930624417e+02
9.338721315069149114e+02
1.320349302061154958e+03
1.464856668811631835e+03
1.639346297078560610e+03
1.479823086202205559e+03
1.639129313040476745e+03
1.741150226175004036e+03
1.996844691367043197e+03
2.264209975987046619e+03
1.799246519110690542e+03
1.622947954310007390e+03
6.593351622321040395e+02
-6.535061734876842365e+02
-2.896609466870976121e+03
-7.009041260777585194e+03
-7.713779157468404264e+03
-7.284813442257183851e+03
-7.068192184522142270e+03
-7.410795454944885932e+03
-6.736557725087065592e+03
-1.784554989576321077e+03
1.603237313401396932e+03
1.563763474649940463e+03
1.727334816862508660e+03
1.954820094922079079e+03
-2.351376944831651599e+03
-5.531026034402596451e+03
-5.963614265165289908e+03
-6.598559231845365503e+03
-6.186894895120251931e+03
-6.568439991800652933e+03
-6.391182179385279596e+03
-2.685995819546847997e+03
2.195233175951564590e+03
2.234441764961548870e+03
-6.835959618102739341e+02
-4.953978472965308356e+03
-5.905669914450935721e+03
-6.410630205710051086e+03
-7.092890187583136139e+03
-6.445416231305422116e+03
-6.370151172853025855e+03
-6.701051980171733703e+03
-5.712056879076748373e+03
-2.694151036589871637e+03
1.401659401609034830e+03
-7.825644085599113851e+02
-3.109753442897260356e+03
-1.048961529238915773e+02
4.698820182577762949e+01
3.709285896757635328e+02
2.913959818690401789e+03
2.780097650833760781e+03
3.086392546944166497e+03
2.873871224651864850e+03
2.627548108625000623e+03
2.482466168758382537e+03
2.415678289199540359e+03
2.359220746401410452e+03
2.070117152022005939e+03
2.515360299945480165e+03
3.133996537104016170e+03
3.211104685871068341e+03
3.196738412313057324e+03
3.187938905710263498e+03
3.475767472350283242e+03
3.652247619829469841e+03
3.128483972246397116e+03
2.869501728279298277e+03
3.354316851435286935e+03
3.838938606119037559e+03
3.553419491505585938e+03
3.039819370764524592e+03
2.705112727551451371e+03
2.181405026999664187e+03
1.944750512347009590e+03
1.995148009551171754e+03
1.392519266244153641e+03
1.131865130913202847e+03
9.483316090240950871e+02
6.891561056383395680e+02
9.935069366191689824e+02
1.255738310362299899e+03
1.504899610110583581e+03
1.990715401303800718e+03
1.964322363659996654e+03
7.226582507372203281e+02
5.196366303892986025e+02
1.370493169552431709e+03
7.723179724771338215e+02
-5.289787487948370881e+02
