5.405859440242135861e+03
5.444548734954440988e+03
4.813741531322503761e+03
3.189364194891327315e+03
2.066355446282545472e+03
6.627401063640955954e+02
-7.493081239602145160e+02
-6.787633903828658504e+02
6.022086603494800556e+02
1.014535840267708409e+03
5.052877967806493302e+02
5.775145029665789025e+02
1.946278884379418287e+03
3.616488215781230792e+03
5.442082499956622087e+03
5.533135276062744197e+03
3.763813834631357622e+03
3.097044465980858604e+03
2.489736640065289976e+03
1.582965892291186947e+03
4.982003208168202235e+01
-8.846922115633494741e+02
8.364386290823333638e+02
2.502116716262071350e+03
2.174440854711587235e+03
1.801509110134094499e+03
1.111313770608424875e+03
5.029322536838445217e+02
7.293479258807246879e+02
-1.236310379408027700e+02
-1.276045153448111478e+03
-1.660852500590396630e+03
-1.284117577210396348e+03
-9.988931300761021248e+02
-1.453984609834559024e+03
-1.570206187095828682e+03
-4.424230957604859782e+02
1.256461646139379809e+03
2.564306000542037964e+03
3.085254817500082027e+03
1.657281617539778154e+03
9.301549391982667885e+02
1.471127664273997198e+03
1.607308673304501326e+03
7.772695087799726252e+02
1.109137143604206130e+02
9.972354033156229889e+02
1.936371531459614971e+03
2.571318277457297427e+03
1.850113791679674023e+03
-8.892242998897428379e+02
-3.678725318189739482e+03
-5.200406377580454318e+03
-4.185130868406547052e+03
-2.532856030242691759e+03
-1.813673760002189965e+03
-1.052648824926599900e+03
-1.201754297855336745e+03
-1.794894192850887748e+03
-1.366970300307248408e+03
-6.420200846357984119e+02
1.010969011267522887e+03
2.649125632976122233e+03
3.592396523449831875e+03
2.386719897342426520e+03
1.572134174107154195e+03
1.057555019262158339e+03
-3.010288903563026963e+01
-7.117614194484629024e+02
-8.024058905564488668e+02
-1.399110217861940100e+03
-2.348912655467574496e+03
-2.536772564688432794e+03
-1.841669785452007773e+03
-1.811595304926436938e+03
-2.752482573843108639e+03
-1.713366982230546682e+03
-1.462278716362725959e+02
1.679249869820832828e+02
-8.199339048554969622e+02
-1.577863528431872282e+03
-6.167237811247089212e+02
-1.452405124122958341e+03
-2.552987611467295665e+03
-8.164903014847346867e+02
3.231184332405407531e+02
9.638029451109433694e+02
2.532519941692556586e+03
3.543285301026606703e+03
3.406015429397115440e+03
1.858480816889785274e+03
7.975881793192909299e+02
7.973262754563717181e+02
6.706038670346467825e+02
1.124099834367064688e+02
-4.781927070457697369e+02
-2.040641250045222819e+02
1.532771801412203331e+03
1.737291207490554143e+03
2.066457508942290588e+03
2.947156499435912792e+03
2.564452714447818835e+03
1.868250909608786742e+03
1.763626856776864770e+03
1.574627538610205022e+02
-2.198440138848946390e+03
-4.645020336322041658e+03
-6.431364522064185621e+03
-5.875357789036198483e+03
-2.622779590253884635e+03
-8.029663117476511616e+02
-1.315385736428193468e+03
-1.403499851619550782e+03
-1.711152212167559355e+03
-2.364614319677004460e+03
-2.081618530653230664e+03
-1.450393151357311581e+03
-9.890684680702402147e+02
-1.154960503300399068e+03
6.762084356801700551e+02
3.362518802977316227e+03
3.307761113717866920e+03
1.805310777100181895e+03
1.307092547462293624e+03
1.235902417818887216e+03
-6.521401048823894371e+02
-9.214739292694434880e+02
-7.299804714490464903e+02
-8.429204123540764613e+02
6.407810202350142390e+02
2.642255533533698326e+03
3.667302107577978404e+03
3.556811636405051559e+03
2.672615100850096951e+03
2.436936982688079297e+03
3.263839365064573030e+03
4.111164464562738431e+03
3.773948831782776324e+03
3.735190936838738708e+03
4.551551226499659606e+03
5.505318756896832383e+03
5.782868826846434786e+03
6.227675908715717924e+03
5.796238852524364120e+03
4.307850062944827187e+03
2.456972826624965819e+03
1.689322093076476222e+03
9.557729953452133032e+02
1.289296487798808130e+03
1.559561082747064120e+03
9.906567579735624349e+02
1.354515359567408495e+03
2.141088657549349591e+03
2.167402397307524097e+03
2.310423352731182149e+03
3.685051337966370738e+03
4.195148796527889317e+03
2.978654545338543358e+03
2.777633600259473496e+03
2.835193185530024493e+03
1.557877050190324475e+01
-2.708057402488842399e+03
-5.340911379501486408e+03
-5.400306772172660203e+03
-4.888303549059681245e+03
-2.480801119568309787e+03
3.200063368905176048e+03
2.803987402441146060e+03
-3.419035489293144565e+03
-7.170672230350714017e+03
-7.383640757738421598e+03
-6.429952336985198599e+03
-5.639569396797169247e+03
-6.564650242105385587e+03
-6.529500616426429588e+03
-7.595077074860816538e+03
-7.246132498683572521e+03
-7.133354698244074825e+03
-5.726819866679414190e+03
-3.374634510896233223e+03
-3.302745403817461010e+03
-2.765150662579001164e+03
-2.809836224151262286e+03
-3.759813788018522246e+03
-4.563140684910204982e+03
-5.382900827161375673e+03
-6.022933579649998137e+03
-6.721228095627408948e+03
-6.423719663078909434e+03
-5.787383110690681860e+03
-6.212279764001274089e+03
-6.651287418218155835e+03
-5.276289671287240708e+03
-3.413112735811451444e+02
-4.833211336457840162e+02
1.483751676291463355e+03
3.831922913639125454e+03
4.505198442430108116e+03
4.503624059823478092e+03
4.728349530873135336e+03
4.026506338165801935e+03
3.690099078912028745e+03
4.777146151592430215e+03
5.022657339368494831e+03
5.023606044454370021e+03
4.117011317660939312e+03
3.381101613360933243e+03
2.073864102160185212e+03
7.193266235203465158e+02
-5.953439883202670444e+02
-1.365162809187451330e+03
-7.141489783938144456e+02
-5.024945714073297154e+01
-9.638570366910873588e+01
1.747451784993830415e+03
2.994219945659139739e+03
2.506949748595894562e+03
2.501964888625516778e+03
2.839318691170763941e+03
3.200708123772522868e+03
3.479140467872565750e+03
3.598813888024884363e+03
3.713823008706328892e+03
3.887224778737451743e+03
4.212992471505598587e+03
3.895194694582603915e+03
3.309970420708939400e+03
2.790834390423869081e+03
2.077849983082986910e+03
1.785852197671092426e+03
1.213825942604818010e+03
5.828686585523238364e+02
7.870552211837676850e+02
4.534061996232686624e+02
1.630326023399774442e+02
-7.409204343724791215e+02
-1.436064548136392034e+02
8.578174196779518752e+02
-5.855299477072863965e+02
-1.467468500507717636e+03
-1.187840398297546244e+03
-6.121314962170556555e+02
-2.711174997475438886e+02
-8.384370626088083327e+02
-9.960380145343900722e+02
-5.330796093283703385e+02
-3.656589637525859189e+02
1.240530287474879003e+02
1.359512285935143836e+03
1.523645590702681829e+03
7.153161721048154504e+02
1.498035417469004358e+02
1.574381240116903200e+02
-2.927867959127298718e+02
-5.687725810282651082e+02
-5.404915362244905737e+02
-1.057022265845745551e+03
-9.473464095860782663e+02
2.458203789078126533e+01
1.428504083194391114e+02
-9.724575205717154631e+02
-1.850302630272666192e+03
-4.275802789310118328e+02
1.852723370222464155e+03
2.656418632740689645e+03
2.032319282912205153e+03
1.342572001625415169e+03
9.761984100330706724e+02
1.063086970148491901e+03
6.021042309986088412e+02
8.921064168332235056e+01
2.503449791223911518e+02
1.077557694843740592e+03
1.088976027364842139e+03
3.325653480283235126e+02
6.543134582267210817e+02
8.493049610282077992e+02
5.026882531544343351e+02
1.261413004313571719e+03
1.061115508491038554e+03
7.166612920642791096e+02
6.502225052228743607e+02
3.398340760437253607e+02
5.525111689416197578e+02
1.445246272759309477e+03
1.857890729397868881e+03
1.686461921510626553e+03
1.247066518760671443e+03
3.637393781398131978e+02
-2.118563483793789146e+03
-5.568982688121571300e+03
-8.328591437140721609e+03
-8.347436871083549704e+03
-7.277638709561216274e+03
-7.806361606688852589e+03
-7.784570237823016214e+03
-8.016155328404182910e+03
-7.947950137720548810e+03
-3.342002603393845220e+03
7.896070353568580913e+02
2.528581392975803794e+02
-1.277092790485983414e+03
-1.801358241900197527e+03
-1.401237379805296314e+03
-8.158862440973684897e+02
2.166671545382843078e+02
8.105280976789488250e+02
6.708816505709858120e+02
1.598483221887582033e+02
5.623102791384574175e+02
1.688157304904752209e+03
1.623110631513857015e+03
6.607987950878225547e+02
-1.787914668007327350e+02
-1.042500301446203110e+02
8.317305078816464174e+02
1.178162025226341939e+03
8.433220844092187463e+02
1.920791913634952152e+03
2.689084934681346112e+03
2.950144601883972882e+03
2.991987900029202137e+03
3.005392762293327905e+03
2.707378345961818468e+03
2.336675778024075044e+03
2.193776509978359627e+03
2.126250778442750743e+03
1.680791494571326211e+03
8.780576828185344311e+02
4.704008848992777416e+02
4.630365623578066447e+02
5.936351565204430472e+02
6.835254617630929488e+02
1.252670713819537013e+03
1.646241538316778588e+03
1.994268566261373053e+03
1.378111207634801303e+03
9.665455132346971823e+02
1.688676698669388770e+03
2.374124583729326787e+03
2.368640064249741044e+03
3.159544087485462114e+03
3.126587376908454189e+03
2.461556878368879552e+03
3.435891032624529544e+03
5.022531502980488767e+03
4.891618928261979818e+03
3.812578193124684276e+03
2.719108053137792467e+03
1.858870059240923183e+03
2.198201957341236266e+03
2.190773624545498933e+03
2.335228713717551727e+03
2.447860620821544217e+03
2.668811450166211216e+03
2.795269309844683903e+03
1.958232257900944660e+03
1.732621995369955130e+03
1.275138366412893447e+03
1.732823392637523284e+03
2.490017437138669720e+03
2.976177472728902103e+03
4.027367317738182919e+03
4.054627747775624812e+03
3.510958659850739878e+03
1.239251529476504857e+03
-1.515598609597414907e+03
-5.464580357625182842e+03
-6.458619129583383256e+03
-6.717595877385070708e+03
-5.821438007364556142e+03
-9.351735860416901005e+02
1.696924805317188202e+03
-2.047636099603442062e+03
-5.849062018151235861e+03
-5.083775656879206508e+03
-4.916268338532301641e+03
-4.594332101157041507e+03
-4.139599217381411108e+03
-3.469851750980841189e+03
-3.081492841421966205e+03
-2.563863034982347472e+03
1.253712902922316808e+01
1.884987121951511654e+03
-1.701209944132438750e+03
-3.389670017622499927e+03
-4.167721783034916371e+03
-4.683128159589427014e+03
-5.572382502474411922e+03
-5.220081957593173684e+03
-4.684412052208911518e+03
-4.984074038642068444e+03
-4.908655167404438544e+03
-5.313351828973972260e+03
-5.260066860632041426e+03
-4.878707280734056440e+03
-4.144322884392924607e+03
2.968909822148308990e+02
6.992553800752041298e+02
-3.802803941761947954e+03
-2.572594629022185927e+03
3.033166985139454482e+03
5.369305919192309375e+03
6.426614130297676638e+03
6.150328027406054389e+03
5.263325146889704229e+03
4.867602123942029721e+03
4.529863281258872121e+03
4.152052717463127919e+03
3.966290222622075817e+03
3.162289287294478072e+03
2.642888549947152569e+03
3.036526921363486963e+03
3.413260057643544769e+03
3.414638057759130788e+03
3.128257099766694409e+03
2.783786527160970763e+03
2.524714280288339069e+03
2.589343488619155323e+03
2.464166974752041369e+03
2.416789276538661852e+03
2.560121644049712359e+03
2.424334602301791165e+03
2.172731109834927338e+03
1.665635951432706406e+03
1.240012797372238538e+03
1.050199869101268177e+03
7.215724999691089181e+01
-1.600582745100623754e+02
-1.021242593498944075e+03
-2.739577185047504827e+03
-4.178345284875990728e+03
-3.917544529170133501e+03
-2.664117844291373331e+03
-1.191191183611724909e+03
-9.465314773708348639e+02
-1.213685354167557080e+03
-1.389601942537076638e+03
-1.134296044619936538e+03
-1.081220874178967051e+03
-5.941215686797379476e+02
-3.705196912227088433e+02
7.149366869399651137e+01
2.828893429256774539e+01
-5.842972300043386440e+02
-1.414061775664689321e+03
-1.662735741988469954e+03
-1.389264092044815015e+03
-1.499730810359049428e+03
-1.781941024816089111e+03
-2.322249901323443282e+03
-2.746107027003256917e+03
-2.694018076042869779e+03
-2.474360744269727547e+03
-2.810010936418323126e+03
-3.490860305221276121e+03
-3.293790563206285697e+03
-2.506806494420109175e+03
-1.463487811757218196e+03
-1.538753413144637761e+03
-1.873755386101851627e+03
-2.218604767218331745e+03
-1.328708732089364730e+03
-6.674702593801396233e+02
-7.219576940666642031e+02
-8.266553437985327264e+02
-1.472388650378739385e+03
-2.586802481600140254e+03
-2.593049139351101530e+03
-2.710273600113968769e+03
-3.086626564850820614e+03
-3.382727896197035534e+03
-3.266967539835347452e+03
-2.613730887133098349e+03
-1.143797906535222182e+03
-7.384985698773341483e+02
-9.687617676713246055e+02
-1.002866467664200741e+03
-8.772309687933337727e+02
-7.586231216756763160e+02
-1.881250214279095417e+03
-4.668884315057753156e+03
-8.624867502654513373e+03
-9.503710218805241311e+03
-9.203463134329547756e+03
-9.237484196781160790e+03
-9.116931178966455263e+03
-8.555551069667599222e+03
-8.461001980712815566e+03
-8.934048863187601455e+03
-8.807449347019739434e+03
-7.606972354803508097e+03
-7.581711832047610187e+03
-7.910625702247757545e+03
-7.670268050874078654e+03
-6.116570545397281421e+03
-2.302286937116069566e+03
-2.213628311066934657e+03
-4.936330612184689016e+03
-4.905281220241837218e+03
-4.423461071770216222e+03
-3.869010440555306104e+03
-3.795057890679479442e+03
-2.702490575551947586e+03
2.559576158052421761e+03
5.024522660670696496e+03
4.991160738964620577e+03
2.399590186151781836e+03
3.694707242269354992e+03
4.755360057643841174e+03
5.162478939878066740e+03
5.580755349914251383e+03
5.553748321175213277e+03
5.130080385652683617e+03
5.037959902576888453e+03
5.198637051056404744e+03
5.034215651801754575e+03
5.461820227531247838e+03
6.798825648922506844e+03
8.286221986100377762e+03
8.936762590531396199e+03
8.668308147307538093e+03
9.803909517680955105e+03
1.060651888716834947e+04
1.070794406935868574e+04
1.069775192010566207e+04
1.103860413167737897e+04
1.142345070234577724e+04
1.110847009951468499e+04
1.033822568349036192e+04
9.894854835135676694e+03
9.205034052679049637e+03
9.196435068352489907e+03
1.053095936226044614e+04
1.211869575867880121e+04
1.229141999555374241e+04
1.129516667092894750e+04
1.077082113720356574e+04
1.077273797936651863e+04
1.081771638696378795e+04
1.102752986591319495e+04
1.038666553206523349e+04
8.863764225615226678e+03
8.212728786721037977e+03
8.954578977004863191e+03
1.059523264952846330e+04
1.111855536627556830e+04
1.032419207130397808e+04
9.388707366360333253e+03
8.481960334270392195e+03
6.441692011584556894e+03
4.789094874916023400e+03
4.090025099314163072e+03
3.732485246452358297e+03
3.518188856376046715e+03
3.980477148098496855e+03
4.424218979523323469e+03
6.630401610223003445e+03
8.359900578908995158e+03
8.588421036496669331e+03
7.500799703468339430e+03
6.135787831341504898e+03
4.911234893997656400e+03
3.778901928631778446e+03
3.782575072794528751e+03
3.468136587708112529e+03
4.913437477214097271e+03
4.459161981203231335e+03
-1.716763011833994369e+03
-9.108325371453833213e+03
-1.309338438577570560e+04
-1.384963883780679680e+04
-1.299293752241578659e+04
-6.707555335926220323e+03
-2.702819693695185833e+03
-3.602995323816671771e+03
-5.430709071591855718e+03
-9.506851944069883757e+03
-1.742675767949311921e+04
-2.683677951680917249e+04
-2.873809746769324556e+04
-2.328867050110073978e+04
-2.148958881088412818e+04
-2.385888098219575113e+04
-1.728746401239245461e+04
-2.188220434608388587e+03
-7.137190753850733927e+03
-1.845144842492009411e+04
-1.415086465962080183e+04
-6.131356373022219486e+03
-6.248959927583227000e+03
-6.396361281357098960e+03
-2.150388488774908183e+03
8.189293782890430293e+02
-5.790454055441892706e+03
-2.139346522842168633e+04
-3.061910697528885066e+04
-3.399821688730626920e+04
-4.186272711596018053e+04
-5.516638017266067618e+04
-6.429591416164745897e+04
-6.224031245986853173e+04
-5.839051853626728553e+04
-6.346520523261341441e+04
-5.924710168470036297e+04
-4.249107678343169391e+04
-3.008696598569547496e+04
-1.875154371251273915e+04
6.141464251616554066e+03
1.522422409622367741e+04
2.539892880423976294e+03
3.065434726889645390e+03
1.970404489298607950e+04
2.727903940498379961e+04
1.757267396562512658e+04
5.991217384562581174e+03
-2.631129451825608612e+03
6.546803122422839806e+03
1.888127576604793285e+04
6.046383801479674730e+03
5.129374837043573280e+03
2.054671966097285622e+04
4.377805495879910450e+04
5.966873661926955538e+04
5.054525696863771736e+04
2.704636705803278892e+04
1.283224684563998562e+04
8.858754852823025431e+03
1.284329257363764782e+03
1.484017954679011200e+04
3.006432253866225074e+04
2.883882301467471189e+04
2.314765695122907709e+04
2.101724576930803960e+04
2.138565948005799146e+04
2.359951918073321212e+04
2.174397263035402648e+04
1.499714309548529855e+04
2.627225314900102967e+04
3.210883346396722482e+04
3.017671293133833024e+04
3.321661876467022375e+04
3.452278679067605117e+04
2.613675462533560130e+04
2.200178809118539721e+04
2.126279018395823732e+04
1.628111419807503444e+04
1.447306463610223000e+04
1.916302697115196133e+04
2.222688521679420955e+04
1.107022905034980613e+04
-2.448844681835959364e+03
-5.684796535914314518e+03
1.571037985061793506e+03
-5.261092358663699997e+02
-1.246203580614076054e+04
-1.991218435424262498e+04
-2.819129826064333611e+04
-2.904294332372917415e+04
-1.895255344808309019e+04
1.102445369238248350e+04
3.351310133104665874e+04
3.213264620225800536e+04
2.383636865124446558e+04
1.200144855816737254e+04
-2.387918150506322490e+03
-1.289761163408943503e+04
-1.571240283896733490e+04
-1.299716724530518877e+04
-1.114585323776548830e+04
-4.504360893868488347e+03
-2.694471150490861874e+03
-6.808989362713248738e+03
-1.059667516883438839e+04
-1.374530627372524941e+04
-1.325975366187502004e+04
-3.108931930553711027e+03
7.595196457486242252e+03
9.983823583307041190e+03
5.828149458011657771e+03
-3.023751189469758629e+03
-1.015275664835699354e+04
-1.529675471574772564e+04
-2.134669711744294909e+04
-1.438042061738988923e+04
1.042110873789174184e+04
2.120592215977640080e+04
1.523614508327559997e+04
4.014859431017125189e+03
-1.040201992107956175e+04
-1.871955749186541652e+04
-2.673878595275930275e+04
-3.123463783580946620e+04
-2.623502499086775424e+04
-2.171887231245447038e+04
-1.067713428915067016e+04
4.057201362347553186e+03
1.332914297981066557e+04
6.946744259470256111e+03
2.041930925884556700e+03
-9.132294771601569664e+03
-6.916960593193052773e+03
-1.601172163724715801e+03
2.929986717860965200e+03
5.487484277107990238e+03
-2.797616740733888037e+03
-1.577240216647698071e+04
-3.172795704949309948e+04
-4.466738909795388463e+04
-3.861386262084441114e+04
-1.764447401432742117e+04
-6.104258643444012705e+03
-2.044526752007189498e+04
-2.736762396846869160e+04
-1.688447283848996813e+04
-1.910940475171533080e+03
-1.719953548711925350e+03
-4.784629496500845562e+03
-2.550143074773824537e+03
-6.953821343285764669e+03
-1.592971824029440904e+04
-2.168288463897410838e+04
-2.814945437584191677e+04
-3.215256052080976951e+04
-2.425529306247561180e+04
-1.680884939304824729e+04
-1.082432701176501541e+04
4.453139546334979059e+03
1.796643124488653120e+04
2.777137170886064268e+04
2.941572084321783404e+04
2.715121636652603411e+04
2.549074393434098238e+04
1.935910695533257967e+04
5.232083194815577372e+03
-9.553595172345638275e+03
-1.682807402708749942e+04
-7.660355456899264937e+03
1.369277892142896962e+04
1.934235631166846724e+04
1.182004369276056241e+04
1.194655372881180483e+04
1.103074644362234903e+04
-6.876230695211586408e+02
-1.013777488664314660e+04
-1.703881598370894426e+04
-7.154875761542996770e+03
1.041071531682297791e+04
1.774173641819103068e+04
3.131507449042643930e+04
4.341462094643663295e+04
4.457029445258657506e+04
3.736228383165572450e+04
2.827330799117695278e+04
2.300859267473374712e+04
1.991620350525174945e+04
1.736983783642896378e+04
1.467616430378247060e+04
1.242100944803162020e+04
1.336917013622691411e+04
1.590948613081496478e+04
1.378267849396692145e+04
9.865528670187031821e+03
7.721676929437664512e+03
6.217173335679643060e+03
5.395726732182888554e+03
5.571143778270045914e+03
4.254198326141031430e+03
-7.033807924233898348e+02
-1.047081532999869160e+04
-1.648023283369736964e+04
-1.645973277145753309e+04
-1.267038962610800081e+04
-4.327350414760777312e+03
5.041262298401511543e+02
-2.102265910602776330e+03
-4.262725469693299601e+03
-7.033290191743559262e+03
-8.160017798561871132e+03
-7.236143854812195968e+03
-5.247803185973991276e+03
-5.132056320558851439e+03
-7.197970321063426127e+03
-7.345733929035936853e+03
-6.466384336376299871e+02
6.123313942490422960e+03
4.990153199157348354e+03
1.350750281653355614e+03
-3.480046000366657609e+03
-7.745477405002793603e+03
-9.114797425217753698e+03
-9.382138678624280146e+03
-6.743428944579890413e+03
-1.744620421082243638e+03
-1.008831742625871698e+03
1.508271079912809114e+02
2.396375141941516176e+03
2.160749091147758008e+03
-3.811416225734672594e+02
-2.388261827833813186e+03
-1.782774274307395899e+03
3.751559866731128068e+02
2.120394477527411254e+03
3.749116556772639228e+02
-5.286203863151158657e+03
-8.877885134503201698e+03
-1.292513542525184130e+04
-1.414092239583935225e+04
-1.440026096392086220e+04
-1.218317445791464343e+04
-1.042281382921826844e+04
-9.215231304876364447e+03
-6.154544676023895590e+03
-4.621804237038646534e+03
-3.432176070021385840e+03
-2.972636861079263326e+03
-1.388159251755591185e+03
-3.637453313905702430e+02
1.699642649552527701e+03
2.702021014665040184e+03
2.080503373249873221e+03
9.120620535752279920e+02
2.369918753242702536e+01
-3.056682391974507482e+03
-7.812844398117578748e+03
-1.361421097182383346e+04
-1.795839667552110768e+04
-1.708154008096154939e+04
-1.150391504309618904e+04
-7.812677469053834102e+03
-7.743558944485431311e+03
-9.052505246359118246e+03
-4.637200906058736109e+03
2.895506120435122739e+03
8.095065609755682090e+03
1.007003932682938466e+04
9.927669432025377318e+03
1.039943480204894877e+04
9.980836091657653014e+03
9.063128063289435886e+03
8.454654648365927642e+03
8.549662679097094951e+03
7.977271750940718448e+03
6.054973523139594363e+03
5.018594791098697897e+03
4.138204390981755751e+03
2.228511879359641625e+03
3.332115944596618647e+03
6.265950360873166574e+03
7.297513234905710306e+03
6.719871337206357566e+03
6.984019061630256147e+03
5.916053065818852701e+03
4.568703560977827692e+03
3.060547490311710135e+03
2.158170823091375041e+03
1.997373142414791346e+03
1.834107779265182899e+03
1.304647532570468456e+03
1.339875536584320571e+03
1.659448019492941739e+03
1.117700225474181707e+03
1.745834658439200666e+02
8.542244494491183104e+02
2.635508845080461924e+03
4.722125895819394827e+03
6.813007283819975783e+03
6.156879323583689256e+03
5.024103242138554378e+03
3.807546472374566292e+03
3.271661297692131939e+03
2.833788914830024623e+03
2.874418964793082523e+03
2.482798872818510972e+03
2.148551776095423520e+03
3.761217001372444884e+02
-2.990430012109492964e+03
-4.929560198194445547e+03
-4.290592053900160863e+03
-3.377491806910778450e+03
-1.163757391347809744e+03
-3.183278765890078375e+03
-6.395465964346432884e+03
-3.744937304228365065e+02
6.840637213208108278e+02
-2.745074418634247309e+02
1.992119470401694116e+03
6.717223812927381914e+02
-6.214404366111641593e+02
-6.406772688147665349e+02
-3.423017453055591432e+03
-1.643542142909293716e+03
-7.773104209181767601e+02
-2.043957831742951385e+03
-4.178049995045374999e+03
-3.298985782601491223e+02
-2.044153570569863632e+03
-4.119953068386008454e+03
-5.995503033337576198e+03
-3.817665202150579262e+03
-8.975190395931261946e+02
-3.087272062960349103e+03
-3.248083985137757281e+03
-2.455351332445224671e+03
-4.501410724286266145e+02
-2.921834558244203436e+03
-1.742250212425988138e+03
-1.972153160423528561e+03
2.544918077366767648e+03
4.873841800337427799e+02
2.782465929022831006e+03
1.379806355879614102e+03
-1.900643055651270743e+03
3.590169808548102992e+02
-2.307898473741542603e+03
-3.255741992911386660e+03
-8.336307140287441086e+01
-2.127582484407684547e+02
-5.778990173194732733e+02
4.320140760882021027e+02
1.416678372139101157e+03
2.583595641741879717e+03
3.240338413685351043e+03
3.937888350871692637e+03
4.217791108036941296e+03
3.864563047780463876e+03
2.543241085778035085e+03
1.322378969664077886e+03
-5.387933906305913467e+01
-6.631437854346123686e+02
-2.832881990756535515e+02
4.360823813609723629e+02
4.757494070155884174e+02
-6.991907963206134582e+02
-9.110509942782637154e+02
-2.104512549633426204e+02
5.309137294310069421e+01
3.264349530915644664e+02
9.344068075321074502e+02
1.360357747457046116e+03
2.092478136780327077e+03
3.175933838534539063e+03
3.215105080591258229e+03
2.906667359035418031e+03
2.832858964795130760e+03
2.634336549475706306e+03
2.268420193085752544e+03
1.531443539928399332e+03
5.070314068303774491e+01
-1.453913417049118380e+03
-2.470182879437672000e+03
-2.729403065950546534e+03
-3.100244814724276694e+03
-2.817166589725114591e+03
-1.693156559581989086e+03
-7.202528501000612096e+02
4.345416706217964133e+02
1.223929656596974382e+03
7.639113973662310855e+02
6.199318323655079865e+01
-7.025920495265081112e-01
1.232517776053604848e+03
2.208375120230431094e+03
2.788629455134318050e+03
3.015719347252661464e+03
2.529656455849518352e+03
1.932065522934671890e+03
1.267440173597670082e+03
4.595995054885548825e+02
-4.151335741326943918e+01
-5.063434724182570221e+02
-8.492094169985348344e+02
2.691558100119771666e+02
1.320461798404455976e+03
1.755843985196733456e+03
8.147019111759349244e+02
6.425145567083465039e+02
8.647118207226416189e+02
1.077174351485636862e+03
6.879837715619778464e+02
1.348988691788349286e+02
-2.591593146631302602e+02
-1.714414552625601402e+02
-1.839723497141766586e+02
3.122960349420990269e+02
1.128054769901936425e+03
1.751186488319310229e+03
2.361240625344338696e+03
2.972517229931948350e+03
2.633936348176819592e+03
1.596819833917798633e+03
-9.951094602099983604e+02
-3.971640754177843519e+03
-6.931050115516571168e+03
-7.521492349269206898e+03
-7.677367352151630257e+03
-7.369770120014452914e+03
-7.282638122270458553e+03
-6.894603728258380215e+03
-7.113675439996635760e+03
-7.320943115624655547e+03
-6.877333967876693350e+03
-6.176863049582577332e+03
-6.758843454698536334e+03
-6.585219770945256641e+03
-6.434510261994218126e+03
-5.530323670030521498e+03
-2.127666245874929245e+03
-5.123842589378738921e+03
-7.006281549187085147e+03
-7.087787264389481606e+03
-7.147509414778796781e+03
-6.224595372301047064e+03
-6.612048686443768929e+03
-6.739768995803146936e+03
-7.686611922515634433e+03
-7.278782974419261336e+03
-2.462457620910965943e+03
1.162770914254722584e+03
6.621739713028031247e+02
-1.025151429076192144e+01
1.650562692834047084e+03
3.592564909803780210e+03
4.774651602700850162e+03
4.941026535724539826e+03
3.889055115240156738e+03
2.531243852971967499e+03
1.977482378874526830e+03
2.802470006053026736e+03
3.641871652060346605e+03
3.911194376560054025e+03
3.285613230722909520e+03
2.320750631201378837e+03
1.996824073076298191e+03
1.800118498429952524e+03
1.838537402204777891e+03
1.786828900783546487e+03
2.085890228654088787e+03
3.257873627208556172e+03
4.297065634264507935e+03
3.305429693791187674e+03
2.935448536124150905e+03
3.911989559150322748e+03
5.134553018484188215e+03
5.666507626799896570e+03
5.049188048961149434e+03
3.773664336150991858e+03
2.346775290895758644e+03
1.585564944222639951e+03
1.159806757282992066e+03
4.392803010446658618e+02
-3.746684897161514982e+02
7.594177905258436567e+01
1.080019992481873714e+03
1.081773574323258117e+03
1.295489053880703295e+03
8.313200848360305599e+02
3.441597117329008597e+02
-9.296669790170528636e-01
-1.028924522861177365e+03
-1.861794330086462423e+03
-1.679142840923515678e+03
-1.075534575378632780e+03
-9.397087466962063900e+02
-5.085864902931905362e+02
1.007726303235645219e+03
1.506626425254824881e+03
1.946383003376477745e+03
2.032098277709756985e+03
1.903915778273368005e+03
2.041695558163657552e+03
2.885239021247932669e+03
3.169564725617080057e+03
2.019639826886016635e+03
4.926899308538096989e+02
-1.434313956439439607e+03
-2.513298959551212192e+03
-3.238094460893391442e+03
-4.661676057396579381e+03
-5.911050918336312861e+03
-6.259998115942365985e+03
-6.034242221242927371e+03
-3.737436228428143295e+03
-8.115856032110169735e+02
1.753935354026562209e+03
4.464705373674858492e+03
4.268814508938588006e+03
3.441544305275445822e+03
1.462933592291797368e+03
-8.025963153102405840e+02
-1.075245272714630346e+03
1.411105274979742887e+02
4.976747057918120731e+02
-2.573097230332182335e+02
-7.690195006114829823e+01
3.250217886734882313e+02
5.037850325146324622e+02
-6.774369667447163579e+01
-1.412880490926815582e+03
-3.430593858135327537e+03
-4.466744161455154426e+03
-3.515252691321845759e+03
-1.280029762459128733e+03
1.405933045388468372e+03
2.897343096865228290e+03
2.106000662412398469e+03
6.390125578282543302e+02
7.614959705694310514e+02
2.341412976344412527e+03
2.976867191934586572e+03
1.417953724119711069e+03
2.647052099430287626e+02
2.349400010190865657e+02
9.459485125071928735e+01
1.977534139771281048e+02
8.063788963117465300e+02
6.642016014539369451e+01
-9.641316745221736255e+02
-1.058273487774429668e+03
-8.610753970206590111e+02
-1.028669887062216958e+03
-7.880684551817086003e+02
-1.160408250087447186e+03
-3.249779113593569036e+03
-3.613979256063589673e+03
-1.266043991536592785e+03
5.595551565190800858e+01
-3.400564279310847837e+02
-7.301040119133820099e+02
1.105799867044885332e+03
2.085628606942425904e+03
3.682802278481463532e+02
-2.163134258135461096e+03
-2.335465376797532372e+03
-2.888837117187832973e+03
-4.922431312618883567e+03
-4.717380416203548521e+03
-3.180925384238160404e+03
-1.296752519143333757e+03
1.552313114524140929e+03
3.958476326239805530e+03
3.677925975681609998e+03
2.056734913305162081e+03
1.152594736786428030e+03
-1.112719189784872924e+02
3.741161777569697620e+02
1.616638936491197683e+03
2.822428820293812805e+03
4.240098879117716024e+03
5.074712457461296253e+03
3.913367591898333558e+03
2.713026603513382270e+03
9.222163602311646855e+02
1.216289155380336979e+03
2.682230659783957890e+03
3.564983363688036661e+03
4.404165826114271113e+03
3.791704341161629600e+03
2.239839825131009093e+03
1.885482825373080914e+03
1.605563125837624966e+03
2.117841681467790295e+03
3.406590666410664198e+03
4.434512791894584552e+03
4.927652868587188095e+03
5.225592043871049100e+03
5.795812569910012826e+03
5.126933419480246812e+03
3.994143624411463406e+03
2.477573304531327267e+03
1.171715303445738300e+03
8.758806744036072587e+02
1.442987586202187231e+03
1.102654542754111844e+03
-2.289846196414329427e+02
-3.908707308814677504e+02
-4.881405327082899817e+02
-9.898550193943634667e+02
-6.170314689882603716e+02
-7.356528602073065315e+01
5.375445586762020866e+02
4.141758632387642365e+02
4.362737135575929983e+02
6.349034855494754765e+02
-1.270836060887949088e+03
-5.148873577338959876e+03
-9.110211582842877760e+03
-8.627878459482077233e+03
-7.259044134404060969e+03
-5.856730073512144372e+03
-4.602836732357553046e+03
-4.698409714240196990e+03
-5.226522151900317112e+03
-2.581067795909708025e+02
3.695801057605629467e+03
2.630230397876535449e+02
-3.453379325145827352e+03
-4.782397907825888979e+03
-4.416017521817092529e+03
-4.063115317455150489e+03
