2.252814887610098594e+04
2.472415158937400338e+04
2.638657322429433043e+04
2.600695768545914689e+04
2.645176509149450430e+04
2.348729939926827137e+04
2.029806400363367720e+04
1.969778288524377786e+04
1.787928990689481725e+04
1.901804888112242406e+04
2.260336887626695898e+04
2.154271875380002166e+04
1.959652960123374942e+04
1.981244259386826525e+04
1.984000602582039573e+04
1.687631657699407151e+04
1.464655516101635658e+04
1.616251496602990119e+04
1.991491671255630354e+04
2.350217810140669826e+04
2.676049891100981768e+04
2.822571554172625474e+04
2.865020747736706471e+04
2.758781100280677128e+04
2.406880626222389037e+04
1.938361696113765720e+04
1.227133500339111015e+04
9.740523099160927814e+03
1.171579517144811325e+04
1.192459051050474409e+04
6.923304819579800096e+03
6.331926048787991022e+02
-8.624120062984783317e+02
2.946878831464482573e+03
7.784465617252332777e+03
1.042437620724384578e+04
1.034664932876147759e+04
8.993976010221031174e+03
7.161145026465806950e+03
5.726929407219981840e+03
5.667617293689087091e+03
6.890770297011809816e+03
8.266913389888868551e+03
5.759207922956149559e+03
2.673248339119318643e+03
2.962678741863288451e+03
8.220464442717817519e+02
-8.318303323010493841e+03
-1.716706193768013327e+04
-2.625857253156663137e+04
-2.861415151576631251e+04
-2.218720742014862481e+04
-1.548517487030266420e+04
-1.079134619065717561e+04
-7.087019727783103917e+03
-5.986435196674156941e+03
-4.565056038884747068e+03
-5.139244522289750421e+03
-2.336136535857528997e+03
3.845087339887920280e+03
8.559164748732147928e+03
1.434704522063125114e+04
1.696965503003622143e+04
1.105173904569454862e+04
2.310168501838787506e+03
-6.353222450129872414e+03
-1.259056238625560218e+04
-1.101581210477559034e+04
-5.979091539842434941e+03
2.985494795287741454e+03
1.048088542543747826e+04
1.225730751243406667e+04
1.262189393568205924e+04
1.164874780591835406e+04
8.976077087793088140e+03
5.942092935583942563e+03
5.000174887629274053e+03
7.787236447553178778e+02
-3.810945901856095588e+03
-1.674586091085076760e+03
2.108962780166414177e+03
5.277164662577432864e+03
4.781158422154941036e+03
-1.210413920094297140e+02
-9.676071716833666869e+03
-1.406651743239326606e+04
-1.287799482583206918e+04
-1.150899510485430801e+04
-7.834077741270425577e+03
-1.090170292193959540e+04
-1.036337991023176437e+04
-6.021555731928466230e+03
-3.485659404557427479e+03
-4.578129613504407644e+03
-7.127365926830761055e+03
-1.052375153814172154e+04
-1.769755783168086782e+04
-2.270811738077877089e+04
-3.370875234272505622e+04
-5.504274283386171737e+04
-7.712934731954130984e+04
-9.175378918143882765e+04
-1.023312838465166569e+05
-1.109723455495917442e+05
-1.140392989844502881e+05
-1.099302708583187778e+05
-1.067373901210586919e+05
-1.082619129212840053e+05
-1.115683869289883733e+05
-1.152521655550391297e+05
-1.194893676163813943e+05
-1.199651607252732356e+05
-1.139427364289322722e+05
-1.002893125234492036e+05
-8.684807736416827538e+04
-7.771222859839978628e+04
-7.141488370231956651e+04
-6.328317194546328392e+04
-5.476523071838880423e+04
-4.473126297539343068e+04
-2.935342559248600082e+04
-6.243848803604586465e+03
1.552509036071939227e+04
3.097294829582362581e+04
4.603232167543201649e+04
6.066397497608754202e+04
6.942576119486337120e+04
7.504542488783432054e+04
7.635366429333561973e+04
7.443806798085404444e+04
7.043532322579502943e+04
6.454921186451413814e+04
5.687951497795184696e+04
4.976657243163012754e+04
4.808984291644944460e+04
4.748394469393579493e+04
5.056560357702457259e+04
5.304973044782903162e+04
6.231166932355621975e+04
7.479048740836103389e+04
7.742756011429934006e+04
8.106596983120757795e+04
7.960403748430963606e+04
7.549887228946086543e+04
7.275540131134413241e+04
6.868106623253929138e+04
6.260601363938798022e+04
5.746957795911734866e+04
5.623798253358523652e+04
5.817554031074688828e+04
6.228450752806996024e+04
6.565618696192635980e+04
6.945085037347296020e+04
7.027072518404986477e+04
6.984700698159093736e+04
6.928780562407022808e+04
6.898823155118014256e+04
6.812236880308207765e+04
6.809735833282794920e+04
6.715339284902501095e+04
6.216353907864724897e+04
5.813772267441074655e+04
5.484167921358803869e+04
4.980241538948901143e+04
4.403181809138485551e+04
3.931782416742481291e+04
3.509036390683981153e+04
3.038920013227908203e+04
2.650598448918927534e+04
2.298938896351445146e+04
1.993704958645274746e+04
1.711566878635318062e+04
1.448302207584695134e+04
1.133186945019372979e+04
6.020971400699280821e+03
1.382955853015867888e+03
-2.741491913414961346e+03
-5.954720075527500740e+03
-9.133074087499027883e+03
-1.154983577599421915e+04
-1.336043675532869020e+04
-1.602242096017390395e+04
-1.990921762687370210e+04
-2.259932399423704192e+04
-2.516139029854687396e+04
-2.861323304779194950e+04
-3.231057355572980305e+04
-3.451093331567612040e+04
-3.510793228077648382e+04
-3.537334780531294382e+04
-3.685575864525052748e+04
-3.695371991485232866e+04
-3.614278512627408782e+04
-3.556470110261863010e+04
-3.502508102167593461e+04
-3.490242968343925168e+04
-3.454922317868034588e+04
-3.407353812296166143e+04
-3.446593258280080772e+04
-3.473594918241433334e+04
-3.292022405338926910e+04
-3.251840074777530754e+04
-3.403823149045313039e+04
-3.496544817891590355e+04
-3.684261115813799552e+04
-3.902445459228235268e+04
-4.002990003390700440e+04
-4.155687155544260168e+04
-4.423109854731369705e+04
-4.540984233239183231e+04
-4.363472425238171127e+04
-4.403500810665118479e+04
-4.342670483235282882e+04
-4.308640292324432812e+04
-4.217740026785009832e+04
-3.997059788289458811e+04
-3.851498983651457092e+04
-3.593028869992092950e+04
-3.367999631352681172e+04
-3.367448036683602550e+04
-3.365650758228594350e+04
-3.289987260789106222e+04
-3.241686298434370838e+04
-3.157598674725613091e+04
-3.159793681297322837e+04
-3.140608032319294944e+04
-3.003526123752111016e+04
-2.906776954690423372e+04
-2.972009180579283202e+04
-2.906022170059386190e+04
-2.659821048984968002e+04
-2.311831036676621079e+04
-1.971483333080772354e+04
-1.694420460959826232e+04
-1.314583639684847549e+04
-9.543172019569730764e+03
-7.072158159769629492e+03
-4.467949596049453248e+03
-1.001258490672852020e+02
3.306992427558906911e+03
8.042694712782120405e+03
1.129770549794172985e+04
1.299513902155334472e+04
1.549059149555294971e+04
1.598566500014306985e+04
1.530104538056137062e+04
1.786607996641072168e+04
2.028889869615743737e+04
2.052940890294149722e+04
2.028561028654144320e+04
2.058556772940250448e+04
2.206933349150425056e+04
2.376085431758836421e+04
2.539117985737220079e+04
2.629745786802731163e+04
2.752190679587559134e+04
2.851062184972738396e+04
3.012900140959157943e+04
3.153103356975779388e+04
3.228790488141941023e+04
3.276103598990645696e+04
3.095269395285100109e+04
2.760047059682038162e+04
2.436465112271009639e+04
2.269431061617539672e+04
1.988985912445681606e+04
1.701742470959871935e+04
1.344914334364238312e+04
1.031373577784648478e+04
8.752695901682503973e+03
8.920162918283787803e+03
1.024550730828345695e+04
1.108958751279318312e+04
1.386897172797970779e+04
1.591781659339041107e+04
1.467743795244777175e+04
1.228431885266017889e+04
1.515799010728892608e+04
1.931811855947775257e+04
1.741722131132056165e+04
1.372789201837298970e+04
1.112685735539322195e+04
8.928766128318611663e+03
7.572475398937001046e+03
4.764209628224029075e+03
3.138960235408087101e+03
1.867253110960622507e+03
1.851493831650091408e+02
-2.010603026505330490e+03
-4.535812300258048708e+03
-5.824390114388559596e+03
-6.142947257763167727e+03
-2.478086926744959726e+02
1.612737515235018009e+03
-4.140581028200820583e+03
-1.641246449040875405e+03
3.038234006193398727e+03
4.702407468742881065e+03
7.649758206437524677e+03
7.095747806370465696e+03
5.922160230448250331e+03
6.048556133624239919e+03
6.336069852129109677e+03
4.977177057989846617e+03
1.990884804700546511e+03
-6.681801844465092017e+02
-3.178410009709453789e+03
-5.301762817402192013e+03
-6.265510511875975681e+03
-5.904565394660765378e+03
-5.169583964407367603e+03
-3.446223567769129204e+03
-2.701965654069922948e+03
-2.734544283647891007e+03
-1.785490558410648873e+03
-1.068815681293055604e+03
-1.172632154555451962e+03
1.939873406849395110e+01
1.935426914972673103e+03
2.754822210876497593e+03
3.655500491948669151e+03
3.986032379684946136e+03
3.005731680785418575e+03
2.091729748025606568e+03
5.146090303405197801e+02
-1.584948777323285640e+03
-2.914395535366158583e+03
-2.698772545710758550e+03
-3.059734428645889238e+03
-4.444144620974310783e+03
-5.408587712984573955e+03
-5.383682011877358491e+03
-4.827232703798545117e+03
-3.760273416880473633e+03
-2.005469797434406246e+03
-4.175799829126465852e+02
1.878672586147215782e+02
8.955988915095775837e+02
2.743550747715112266e+03
2.913947746325491607e+03
2.712959598700952029e+03
2.723869718656134410e+03
1.695299415358875422e+03
1.449602012479150801e+02
-2.282515665128775709e+03
-3.533059674745142274e+03
-4.055498856483261989e+03
-4.837263567214224167e+03
-4.944589649192799698e+03
-4.645493759871060320e+03
-4.524291645528109257e+03
-4.451170297160194423e+03
-3.222247999734139285e+03
-1.824287754481473485e+03
-1.120493837898969105e+03
-1.242573177649297349e+03
-1.423737581420121842e+03
-7.417660688297011120e+02
6.538254150357132630e+02
1.130664306262322270e+03
3.004093057811514313e+02
1.743490240550362103e+02
1.365544862758335967e+03
2.396502370847381371e+03
1.583146120585601693e+03
-9.548573509144110858e+02
-3.865929373073248826e+03
-5.343390916035848932e+03
-5.438962366631548321e+03
-5.392581388786569732e+03
-5.632460073687793738e+03
-5.890376479118204770e+03
-5.692651552115065897e+03
-5.065553025310856356e+03
-3.789727246959241711e+03
-2.322761337082551563e+03
-5.843319402526096837e+02
2.482515926941744510e+03
4.347435038495117624e+03
3.773719450479105035e+03
1.891207780712138856e+03
2.923194912349932224e+02
-7.375603624546810124e+02
-2.119572163854678820e+03
-3.603018911526713509e+03
-5.261925841327893977e+03
-6.431264332042534988e+03
-5.970049326491458487e+03
-3.454325688628995067e+03
-3.311062800965554743e+03
-5.388470787756600657e+03
-8.140145477287765061e+03
-1.076729746808372511e+04
-1.179633133099101360e+04
-4.928316986255212214e+03
-7.420237800803533901e+02
-5.143090333405149977e+03
-6.983051785944266157e+03
-4.004268801850781529e+03
1.741396730937204211e+03
3.392845382566302760e+03
4.346011660160998872e+03
3.959116065913129205e+03
3.319400691944349546e+03
1.819584300601393124e+03
7.411458696540239544e+01
-1.475030814247502803e+03
-3.072215810413799773e+03
-4.245710146192063803e+03
-5.139732479695140682e+03
-5.012114135349047501e+03
-5.086767037231446920e+03
-5.376708849574463784e+03
-4.981946527631110257e+03
-3.548415228525620023e+03
-1.206169670800426502e+03
9.699676398256250422e+02
1.891443342607705517e+03
1.264265178765036808e+03
9.204440521394501502e+02
5.652629386474760622e+02
4.482146022574340094e+01
3.311057077294215105e+02
1.681261641658171584e+03
2.487449416475714315e+03
1.834638722333375426e+03
-4.692189660137149758e+02
-2.795156683431899637e+03
-4.262031619413802218e+03
-4.773637376018016766e+03
-4.341821435543602092e+03
-4.047264193027951023e+03
-4.149848954939538999e+03
-4.142467933350114436e+03
-3.782021365496469116e+03
-2.814290174251740609e+03
-2.621205623388837921e+03
-2.975781247083713879e+03
-2.073902572250511184e+03
7.366838990145307662e+02
4.153989485048709867e+03
5.601063375588811141e+03
5.868165628761737935e+03
6.283430407654102964e+03
5.608708364175263341e+03
3.656819864169222910e+03
1.857720367445867851e+03
9.205951931912068176e+02
9.243724231397532094e+02
2.140140793279525440e+02
-6.635144841081491052e+01
2.243577358898786827e+02
8.852959586386998581e+02
7.886279975674357274e+02
1.781475075853962608e+03
2.603927462823568931e+03
3.278933925901906150e+03
4.166356422058203862e+03
4.682436976990969015e+03
4.538306734311171567e+03
5.933976682854297906e+03
8.586638782143469143e+03
9.329401033920179543e+03
7.440231621903352789e+03
2.659165898285800267e+03
-8.497226457933219308e+02
-7.713456693518074871e+02
-3.537879994054214421e+03
-2.994230164949930440e+03
-3.514522295705373381e+03
-6.383642780885586035e+03
-1.735554189042115922e+03
-2.642615442602806297e+02
5.613836188933122457e+02
2.024256016119152719e+03
3.092284315997066187e+03
4.329686527517036666e+03
5.497662692350370889e+03
7.787250662253736664e+03
1.101637453655271565e+04
1.071102394697765158e+04
1.025329897913094828e+04
8.635236604111052657e+03
4.920859755340830816e+03
3.853174290890283373e+03
4.956302822192391432e+03
2.127077043980646522e+03
1.738323374854271833e+03
1.520150423870537395e+02
-6.368948532302132435e+02
-1.261449125638593159e+03
-1.903777643838344147e+03
-2.031877181544255109e+03
-1.044542047142777847e+03
-2.911595198333417102e+03
-1.764074017101568643e+03
2.075105542036400948e+03
3.011867487481017179e+03
3.541290338035574678e+03
3.671475000066308439e+03
1.659360591229276451e+03
3.555151876383962190e+03
1.060039351566381129e+03
1.959796451485045282e+03
2.046427751283942371e+03
1.178155783604593353e+03
-9.085307813186999226e+01
-1.650591003047945378e+03
-2.925086650633128102e+03
-3.548221318580671323e+03
-3.792858057553792605e+03
-3.917858246495516596e+03
-3.770117465196864032e+03
-2.294449508516128390e+03
-1.507766998288810555e+03
-1.276898313838512877e+03
-7.187050178277581836e+02
8.418659146048919411e+02
3.003088270033848403e+03
4.300334778063987869e+03
4.745002999048341735e+03
4.638091567781610138e+03
4.486821320497221677e+03
4.397415555921637861e+03
4.312068625863541456e+03
4.156864868016417859e+03
2.171767996567827140e+03
-1.382158854195256481e+03
-3.662986589054400156e+03
-4.799628138083388876e+03
-6.540821371796730091e+03
-7.705414731084572850e+03
-8.262379573648078804e+03
-7.739606764656859013e+03
-5.936973650996291326e+03
-4.352264148969655253e+03
-2.898277495225306211e+03
-1.420593606924521055e+03
-1.618293826270902684e+02
1.892143363262836601e+03
4.031400283480062171e+03
4.126222932964120446e+03
2.631711475583597803e+03
1.942861598665029078e+03
1.216801522999317285e+03
-2.102956954945271377e+02
-1.939339548345469439e+03
-3.577359394530889858e+03
-4.767297679791545306e+03
-6.160418583527613009e+03
-6.486202010193858769e+03
-7.806323962132953966e+03
-9.715396912814090683e+03
-1.010538740781619708e+04
-9.050751804316416383e+03
-7.424560992111470114e+03
-5.371397378894044778e+03
-2.784043749609500992e+03
-6.634623746538851492e+02
-4.776223431574210281e+02
-1.468323252439556427e+03
-2.033335627186750799e+03
-2.693513177813930724e+03
-2.597734094275666394e+03
-1.241028632215670996e+03
-1.179331742855099719e+03
-1.772698858078625562e+03
-2.367194322091128470e+03
-2.598889118041639449e+03
-2.891569119678828429e+03
-2.983056665966837954e+03
-3.318261270019165295e+03
-4.254066793251691706e+03
-4.411367991684719527e+03
-3.307254766905126417e+03
-2.315707828624397280e+03
-1.137595044219328429e+03
3.021820858102230432e+02
1.515781463625232391e+03
3.134376382724004543e+03
5.210070313667327355e+03
6.306039445836349842e+03
6.010427593751232052e+03
4.304184250544539282e+03
6.560859951139129862e+02
-4.562843456026585955e+03
-7.840482111768038521e+03
-9.749738980445323250e+03
-1.117664199802425173e+04
-1.202314844799218736e+04
-1.278623872707339797e+04
-1.175002575965478900e+04
-1.037448722073019235e+04
-9.110379758788578329e+03
-7.135682190942332454e+03
-3.896504400859487305e+03
-1.661863549071197667e+03
-4.407780661585660482e+02
1.328862878246274022e+03
7.534152353022864190e+03
1.325699050687855015e+04
1.304647043064504942e+04
1.053656733740687923e+04
7.709201254672390860e+03
8.865412299420038835e+03
1.246110894956145785e+04
1.204719377072640054e+04
1.020368266122349996e+04
8.025569455274052416e+03
6.760565705082595741e+03
6.933517827476413004e+03
6.568430709276126436e+03
5.579393306648373255e+03
5.014333853623942559e+03
4.872141558656728193e+03
5.482740095079743696e+03
6.240199500578723928e+03
7.232617338448343617e+03
9.094877119434606357e+03
1.039277357648328689e+04
1.200419721087033940e+04
1.269115453693926065e+04
1.225971180703036589e+04
1.160083506765566381e+04
1.026134537759508567e+04
9.564022395381354727e+03
9.068713796017993445e+03
7.271325022509498922e+03
5.029740361141239191e+03
3.497860789079198184e+03
2.424516476857999805e+03
1.396590346860574527e+03
5.769917308886347200e+02
-1.154020321270643166e+02
-5.708547895478574219e+02
-9.465037539057948379e+02
-3.112920399814698271e+02
1.020813635168420774e+03
2.366711871020141189e+03
3.320284520996312040e+03
2.935427404789330012e+03
2.270058980337698358e+03
2.001013158937478011e+03
1.990112388781918980e+03
1.407116595135088573e+03
6.696542635355617676e+02
-1.401347241283333915e+03
-4.483919313609116216e+03
-7.347171459273874461e+03
-9.209222600986116959e+03
-9.437339404282007308e+03
-8.627067378662266492e+03
-7.306362141182883533e+03
-5.234680819822910053e+03
-3.435272252596791986e+03
-2.406468187130725710e+03
-4.382045881258955887e+03
-5.477990047411015439e+03
-4.405089331927986677e+03
-1.555543439416163210e+03
-9.894334112055154264e+02
-3.354823712555419206e+03
-1.590772449556774745e+03
2.557276227976687366e+01
-4.399528807775736254e+02
-1.739584220821930103e+03
-2.858506822363535321e+03
-3.732004163042333857e+03
-4.918237242548224458e+03
-6.008371034444447105e+03
-7.033556025287113698e+03
-8.203979780265581212e+03
-8.281864720707615561e+03
-7.404356415040840147e+03
-6.547412257347598825e+03
-5.743024846629541571e+03
-4.038305365422911564e+03
-3.129336406185487249e+03
-2.868203763233121208e+03
-1.546019155108389441e+03
2.311048098675996414e+02
1.292126409901600255e+03
7.749979957911223210e+02
-1.379184895361507415e+03
-3.283504704656628292e+03
-3.959136479934248655e+03
-4.740223897030850821e+03
-5.515901195960001132e+03
-6.272249399648489089e+03
-7.153411282676188421e+03
-7.657503610717298216e+03
-6.781549191611485185e+03
-5.379581349633767786e+03
-4.484534753701827867e+03
-4.077412543284271123e+03
-2.994347281484763243e+03
-1.821544450599001038e+03
-9.901558699836222104e+02
1.243971864396679166e+03
4.038948845097237154e+03
5.594631182455118505e+03
5.695101002348783368e+03
4.722481686409868416e+03
3.821676467495674387e+03
2.213630552269974032e+03
-3.479687290041053416e+01
-1.896649200401995358e+03
-3.789083947521799928e+03
-5.178239747507043830e+03
-5.053711931676917629e+03
-3.674519391927838114e+03
-2.366905945327372592e+03
-2.211977032161014449e+03
-2.246598932440761018e+03
-8.336431157930793461e+02
-2.621310336197716993e+02
1.419055724536427476e+02
1.194443507361805132e+03
2.427393792805789417e+03
3.693970550703848858e+03
4.168503455357979874e+03
3.220998724260213748e+03
3.756695212772340710e+03
4.672552663157019197e+03
4.331830256658159669e+03
2.558405533685141563e+03
1.098993039803837519e+03
-8.009112186520428622e+01
-4.125998353411230255e+02
3.437730115508693984e+02
6.811425279342860222e+02
-3.092530221888563915e+02
-1.359648106399676408e+03
-5.008220759023403730e+02
1.403337645423381900e+03
1.897572317572596376e+03
2.265071995064448402e+03
2.617948281585840505e+03
3.158360658120276184e+03
5.061392479827763964e+03
6.785168471383600263e+03
8.298881597395286008e+03
8.564125108453636130e+03
8.152509001771983094e+03
8.529936320530510784e+03
8.484670675841907723e+03
7.157499705723927946e+03
4.791567889956301769e+03
1.696048274546444418e+03
-7.004058996669645012e+02
-1.360736877663316591e+03
-8.115900345136852820e+02
5.173142014775842057e+01
1.604365185809512468e+03
3.042395923007746660e+03
4.074174103358398952e+03
4.745490157090658613e+03
5.442637381007624754e+03
6.399425381888871925e+03
6.917181317919948924e+03
6.815914853383796071e+03
6.389755138586991961e+03
6.225577848270706454e+03
5.220315497452206728e+03
3.542304107912949348e+03
2.210739352449189028e+03
1.265425859582488556e+03
-7.972234754718941474e+01
-1.356688391114711976e+03
-1.999440667949661020e+03
-2.259004522180600816e+03
-1.716318545592735745e+03
-1.272345159175897152e+03
-1.973002192662780317e+03
-3.614295877888810082e+03
-4.765166669932359582e+03
-3.208641682296004092e+03
-2.085656679033087585e+03
-1.265114607298856754e+03
2.620372776220056608e+02
1.468655359898305960e+03
1.915768028228818594e+03
1.225454115306580434e+03
1.208878269436185974e+03
-1.426274524982489424e+02
-2.707060732698582342e+03
-1.283669343216188963e+03
7.984637217348689546e+02
-1.651723625227885577e+03
-7.053034441018771759e+03
-8.106460970366662877e+03
-5.720144569136774408e+03
-8.285173474361821718e+03
-1.033668412431684010e+04
-9.041816750083020452e+03
-7.687541754019674954e+03
-6.304001919914663631e+03
-4.532286608700919714e+03
-1.902282787718602549e+03
-3.787096189266490001e+02
8.114084007168037260e+02
2.006130735557954495e+03
2.105484693270293974e+03
9.743639385530448180e+02
-4.283113528214669259e+02
1.843637726891605553e+02
3.558378536020967204e+03
1.748629133526484338e+03
-2.293662894731253800e+03
-5.108513702318129617e+03
-4.911082963741486310e+03
-5.208670462765966477e+03
-4.764384826477690694e+03
-3.606078873219636989e+03
-1.823687176417541423e+03
-3.823275926478900146e+02
8.511374138681901513e+02
1.810912511252158083e+03
3.289902726024292406e+03
5.009951856900783241e+03
5.206074048325284821e+03
6.002051349864390431e+03
6.405994652224088895e+03
5.359032735341669650e+03
3.250012481622207815e+03
1.717748008473389518e+03
3.742105291622042387e+02
6.229350620774773262e+01
2.159389934328181084e+02
7.201492681061068879e+00
-1.024870544226178936e+03
-1.844663797039474730e+03
-2.854354711709366711e+03
-3.386827132106506724e+03
-3.214120009609709996e+03
-2.995398438587050805e+03
-2.304786840486330220e+03
-7.943067045082721052e+02
1.357194562334417242e+03
3.069931424823992984e+03
2.960992615375826063e+03
1.887269187344087413e+03
2.937999301174152151e+02
-8.212864692331913830e+02
-2.158936534681281046e+03
-2.996337367389757219e+03
-3.350334475055189614e+03
-4.614978368600389331e+03
-5.941709695024882421e+03
-5.156547897652484608e+03
-3.742628515074074585e+03
-2.009415834503734686e+03
-1.761911370753640085e+03
-2.226879436128970610e+03
-1.005310617219240839e+03
6.488165990816492013e+02
4.381959889544726252e+02
9.992353541094146863e+01
3.323528709722359054e+02
3.317776899959637262e+02
8.025570682679107222e+02
1.140005246360306955e+03
1.131484828588365872e+03
1.768471601590088085e+03
3.094890277994906228e+03
2.752761886628464708e+03
1.338978790629202649e+03
-1.676517233880915683e+02
-8.980848224349192606e+02
-2.206539523482295863e+03
-3.621104526563847230e+03
-4.559217495947371390e+03
-4.583865884421336887e+03
-3.747867864741934227e+03
-2.674048275357200509e+03
-1.531628377380367056e+03
-3.555706129533600119e+02
3.882903332200994555e+02
1.108371528189360333e+03
1.622077810011462589e+03
2.034043429800556851e+03
2.129245278700941526e+03
1.670485666182482646e+03
8.711948098644020320e+02
-3.855789069328376968e+02
-1.345934228734436601e+03
-2.834847225764099676e+03
-3.790975389662416092e+03
-4.039349226859821101e+03
-3.653209512946874838e+03
-3.047370483096789940e+03
-3.158651079348001531e+03
-3.290534174609234924e+03
-3.036140656667661460e+03
-2.550775636986570589e+03
-1.507741209202574737e+03
-5.141131145505445375e+02
1.016796944925541084e+03
1.915669940890609951e+03
2.676502362921208260e+03
4.003523839894616231e+03
5.193653750020030202e+03
5.492947864268828198e+03
4.728108703807109123e+03
2.777533003658249072e+03
-7.267457565531083574e+00
-4.105554543662688957e+03
-5.366290662936589797e+03
-5.627786721004179526e+03
-5.746909397877896481e+03
-5.464319062046073668e+03
-2.141020640952357098e+03
-2.668796984320919364e+03
-4.629222630797781676e+03
-2.405981386382517030e+03
-1.874668800591085073e+03
-7.858929768443298371e+02
4.061624000761467528e+02
2.372672014474409025e+03
4.536315684466152561e+03
6.455438140246253170e+03
7.624826936733243201e+03
8.484838716358161037e+03
8.530721013896773002e+03
8.016923515904375563e+03
6.601171621927490378e+03
5.291773671198121519e+03
4.195265450633928594e+03
2.951181230347012388e+03
1.462180363579606592e+03
9.044613211586497528e+02
2.212673238501016897e+02
-5.084580469967830822e+02
-1.217957687670596442e+03
-2.197909371670048131e+03
-2.744267123620378243e+03
-2.207148400045904964e+03
-1.029189449733705032e+03
-5.056256318519439219e+02
5.559991286746296737e+02
1.280021505013830847e+03
1.308804099715355051e+03
1.247351728477612596e+03
1.439103379709996716e+03
1.576839858452492081e+03
2.938587098572065770e+02
-1.978896068357086961e+03
-3.870001570934962729e+03
-5.050970067988073424e+03
-5.529106182769582119e+03
-6.103575225914429211e+03
-6.589896977110353873e+03
-6.871711436402836625e+03
-7.284389310376315734e+03
-6.600445565026977420e+03
-4.758571137895133688e+03
-3.842631576692410363e+03
-2.400557249205163316e+03
-2.704852128492080965e+02
9.499229931933643911e+02
2.553110267861816283e+03
3.716690594580406923e+03
3.838630727861298965e+03
2.138624117649824257e+03
-1.405200093579672057e+03
5.403618455414035679e+02
1.968915837710336291e+03
1.529336178316392989e+03
-6.656725856636464869e+02
-1.695149518662312403e+03
-9.141395227690655929e+02
-7.373959278042921142e+02
-2.037469336580808886e+03
-2.519236542966265006e+03
-2.865194511324871655e+03
-2.349273066474262578e+03
-5.581803660800270563e+02
-3.051500931459421736e+03
-3.146118747770496611e+03
-8.455775405069100543e+02
1.714704408057656565e+03
6.131299542417824341e+03
5.858261309017898384e+03
6.366712906004284378e+03
4.190831750117977208e+03
2.483767260283726500e+03
8.370253912029083949e+02
2.532442870359855078e+03
4.024838380228231927e+02
6.048946086590038931e+02
1.961389100492408716e+03
8.314495711935658164e+02
3.178735188251602722e+03
3.325903396927802078e+03
4.639069954324304490e+03
4.985956258575613901e+03
3.116857803402302125e+03
4.928545790846570526e+03
2.850131091634079894e+03
3.453703601226323372e+03
4.210619241917769614e+03
6.527024250258408756e+03
6.088489544558604393e+03
6.775569552998013933e+03
9.186158552449036506e+03
6.853369977178664158e+03
5.264952396449869411e+03
4.201307501856891577e+03
8.660894841388260375e+02
1.585219423420433941e+03
3.173686400848019957e+02
2.769628047509410408e+03
1.684098875972031010e+03
1.055500366719862541e+03
1.117652846428611383e+03
1.293370741096865402e+02
1.914516331286080231e+03
4.668453294520188138e+03
4.536939521395631346e+03
1.944966139855563370e+03
2.166669200137342159e+03
4.683450953661802487e+03
5.016588168414140455e+03
4.002109948443946905e+03
2.555163960486356700e+03
1.016951774620840524e+03
-9.273234885176615094e+00
-1.297299628121108071e+03
-3.304074168765655486e+03
-4.591434623348135574e+03
-5.254039114905671340e+03
-4.329537531318412221e+03
-4.326600272341562231e+03
-4.399144712779280781e+03
-3.922891199648700876e+03
-2.857445617189414861e+03
-3.770579977231493103e+03
-4.744940256627326562e+03
-5.120996886193007413e+03
-5.730256992705829362e+03
-4.332410858695138813e+03
-1.902671915825845645e+03
-1.544514053735297011e+03
-3.333096489719402598e+03
-6.223938986056925387e+03
-6.473582802355536842e+03
-5.246367189093762136e+03
-3.676301097166545787e+03
-2.405883093865980300e+03
-2.168731766975456139e+03
-3.158581394203409218e+03
-3.534195835776473814e+03
-4.398935081694981818e+03
-5.794683276997175199e+03
-7.641386486560968478e+03
-7.610526881667145972e+03
-6.985573517504064512e+03
-5.161056679707129661e+03
-3.084877458532711898e+03
-2.308461975098821313e+03
-2.375650254685027448e+03
-3.245820763151466508e+03
-4.607587562115344554e+03
-6.380797534744734548e+03
-6.224774907784198149e+03
-6.826315305693844493e+03
-7.950854090650092985e+03
-1.146589397136534535e+04
-1.599012238598658041e+04
-1.809119851840527190e+04
-1.799846826482319375e+04
-1.891995290982906590e+04
-1.945241180612121752e+04
-1.808253142771394778e+04
-1.692115420012670802e+04
-1.747316847247073019e+04
-1.664839180055341421e+04
-1.657432237626139613e+04
-1.556160300362473026e+04
-1.261174712511281905e+04
-1.063746490922042904e+04
-9.931505398014413004e+03
-8.990650761948934814e+03
-8.571635996174274624e+03
-8.637410172030855392e+03
-8.215744769854622064e+03
-5.631362195662390150e+03
-5.805088733305051392e+03
-7.892733932373672360e+03
-7.822217266912286505e+03
-7.109734886540778461e+03
-8.014286770470332158e+03
-9.709756198739501997e+03
-1.076816382126827557e+04
-1.019634955479875316e+04
-7.443319200000551973e+03
-4.158087306332181470e+03
-4.219511963893939537e+03
-6.560646729259833592e+03
-6.439466656041618080e+03
-4.372034006340166343e+03
-4.065419397547695098e+03
-7.228524890353618275e+02
3.076480075025556744e+03
3.956411862427796223e+03
5.889766656165608765e+03
6.962175920599015626e+03
3.034395152858277470e+03
3.040756059991551865e+02
-4.009878923369841530e+00
-8.852560660805361294e+02
-6.601683894579542766e+02
1.334737913414462810e+03
6.470389111120657617e+03
1.222152781226067236e+04
2.082576661896086080e+04
2.121572885964120360e+04
1.571685484905192425e+04
1.719174095178414427e+04
2.171296065063399874e+04
2.416986401589366506e+04
2.634474707351059624e+04
2.775913737247746030e+04
2.785858628092195067e+04
2.758052882382631651e+04
2.257126750479640395e+04
1.441918477656903815e+04
1.184957706760845758e+04
8.904794139207080661e+03
7.353138078575645523e+03
7.623722499458446691e+03
5.246687535728123294e+03
1.578499986260244441e+03
-9.805126484193448277e+02
5.803248041866673645e+01
5.048412666601892852e+03
1.944086702597971089e+04
2.094162980721527128e+04
1.938004391207699155e+04
2.272635824785093064e+04
2.491382555331242474e+04
2.413378632886083506e+04
2.265858642874693760e+04
2.487033601732582247e+04
2.596419364545737335e+04
2.270139664032330984e+04
2.000112664903650148e+04
1.811352398699707192e+04
2.211576968342819600e+04
2.559904514888548147e+04
2.558065150992047711e+04
2.033382973910138026e+04
1.102974659811515630e+04
6.321707075551077651e+03
8.436054484322179633e+03
1.011629284284574896e+04
1.464879575669088263e+04
1.733466813663587891e+04
2.003620523908125688e+04
1.596184698849543202e+04
1.334999917712449314e+04
1.566607703750338806e+04
1.407458355267873412e+04
1.297625506514451990e+04
7.079556727693469838e+03
1.103065465658804669e+03
-1.486907802441359081e+03
-5.893508278480708213e+03
-1.013461776361137527e+04
-1.423212063951747223e+04
-1.559592118914574166e+04
-1.009673416901158271e+04
4.399901643911598512e+03
1.747533481649234818e+04
1.776921046196427778e+04
1.725533642432107808e+04
2.124932400143150880e+04
2.034180700537837401e+04
2.250863121816266721e+04
2.820472075304290411e+04
2.689904814757134227e+04
1.992651336313065258e+04
1.463805363491685421e+04
1.491853122064030867e+04
2.224596440848171551e+04
2.747247142017207807e+04
2.335810332443250809e+04
2.157687729982821838e+04
1.836590058243029489e+04
1.175818479861907872e+04
7.140818099858164715e+03
9.710744797855537627e+02
-7.623654622285107507e+03
-1.274107457108607196e+04
-8.764171154508769177e+03
1.238496988100779163e+03
2.074254233721048422e+03
-6.629474365849971036e+03
-1.690216145391576356e+04
-2.416913485893990583e+04
