1.775592924336790929e+03
1.569076040814916951e+03
2.251772791376482473e+03
2.356772565893150841e+03
1.894109912394823141e+03
2.227813177522823480e+03
2.611829468595892649e+03
2.544161534367788590e+03
2.823884265690743632e+03
2.415043501167127033e+03
2.637643951401302274e+03
2.569657151205318769e+03
2.592141621077073523e+03
2.810051401933381385e+03
3.030222335620245758e+03
3.317652427179076312e+03
2.678377138290564289e+03
2.100788230076801483e+03
1.635929894664969197e+03
1.302853576428867427e+03
1.049674761104132585e+03
4.456313925251835713e+02
4.285900597972014339e+02
9.223395352777481548e+02
1.065862860600722342e+03
9.012367716926222556e+02
7.664866965925424438e+02
4.264908752675453343e+02
6.092477171333550814e+02
1.609987894255541960e+03
1.929528669023590055e+03
2.074339629401965794e+03
2.102746032181082228e+03
2.120864301151690597e+03
2.351563251441094963e+03
2.099414668678130511e+03
1.693998165940443869e+03
1.399411357117912758e+03
9.003096338388567119e+02
1.636738639211418729e+02
-5.215334502586676990e+02
-8.039852918123420977e+01
4.580767793677085251e+02
6.868695844708836376e+02
5.041967160998956388e+02
6.477794263817690990e+02
1.403756639682164632e+03
1.330729194947927226e+03
1.421508638915554229e+03
1.528028584706229594e+03
1.856229918722681987e+03
2.525115228454576481e+03
2.683602688646919432e+03
2.376695174139500068e+03
2.404396181606269693e+03
2.401663364059239939e+03
2.031425598967254018e+03
1.152624145837524338e+03
3.852508186702391413e+02
-1.467053934191733049e+02
-2.923424881284835237e+02
-1.816694261759739675e+02
1.402917508189214004e+02
2.515172373370537855e+02
4.499697655338388245e+02
2.136807605241904184e+02
5.647047276322581411e+00
4.137617454231685201e+02
7.530138547877845667e+02
1.165415959296339679e+03
1.768026735244971405e+03
1.801784116800236461e+03
1.981615407550614691e+03
1.803587333524294536e+03
1.552731494392055311e+03
1.372056262170288619e+03
9.255623419106627807e+02
2.741959415714699730e+02
1.318466085527312259e+02
4.054802399536307007e+02
-1.389018517430217514e+02
-1.602297768261154488e+03
-5.076731293680183626e+03
-1.005915101239371324e+04
-1.084958706876528777e+04
-1.013701833554813311e+04
-9.948459911218680645e+03
-9.704944068525332113e+03
-8.355391319708758601e+03
-8.096745855946907795e+03
-8.070047819301352320e+03
-7.679305846724788353e+03
-7.548359494630240079e+03
-8.044906431591245564e+03
-7.865463145341928794e+03
-7.865945081878623569e+03
-5.835372314524238391e+03
-3.196942289216527797e+02
1.915145209428406133e+03
2.897148791769322088e+03
3.094323005218475373e+03
2.637605331710541122e+03
2.198958960693248173e+03
2.147436686433181421e+03
2.820079356536394698e+03
2.914931025310793757e+03
2.548068108653344552e+03
2.541498371167914229e+03
3.067263635085835176e+03
3.137418264556179565e+03
2.970942246432366574e+03
2.828859303216296212e+03
2.974179682761775894e+03
2.648958698638882652e+03
2.278342670504312991e+03
2.056374329021777612e+03
2.136079307232418614e+03
1.333451636433725525e+03
3.005033892573449634e+02
-2.867112164854507910e+02
-8.052824795844214805e+02
-5.672157800246390025e+02
1.258425070189505668e+01
1.871956105698369015e+02
1.847284886463295948e+02
7.522432788100375092e+02
1.115677688342591409e+03
7.330626669286093602e+02
8.925229623056045511e+02
1.642140897209309969e+03
2.259904117653239609e+03
2.680825411760476982e+03
2.746009955877383618e+03
2.270588616927979729e+03
1.833589578800573690e+03
1.849969351389045642e+03
1.728784239365862504e+03
1.483088141787863378e+03
8.479145353417652586e+02
4.832790801734336696e+02
8.926270279995887336e+01
-6.591328852266769900e+02
-1.138924014971936458e+03
-1.754226915852755610e+03
-1.097063935391011000e+03
-4.680386788853471671e+02
-3.770072077404364563e+00
3.801637066133692855e+01
1.525997572546553442e+02
2.047097790726538449e+02
4.339391657711412336e+02
6.316599147919968118e+02
7.665573277965411307e+02
1.116691567066158086e+03
1.863116193126978487e+03
1.387871001216958348e+03
7.710629230151523927e+01
-5.222786031181113486e+01
-8.051054251866697768e+02
-9.035449037821351794e+02
-5.835725362199692654e+02
-8.592882492129444927e+02
-1.396642390393041069e+03
-1.878525947339198410e+03
-1.706865366554591219e+03
-8.416791847226185155e+02
-4.018722451074357878e+02
-3.584040573935319003e+02
2.886809277122545154e+02
7.344048955013906834e+02
8.328572636487397176e+02
5.869991865787408187e+02
7.188302469190927013e+02
5.793910382149998668e+02
5.357332176077756003e+02
3.758344010672752233e+02
1.768218370098547965e+01
7.740926610022196996e+01
-4.356303897104958764e+02
-6.885942187179180110e+02
-9.099103927142954262e+02
-8.917219251863796217e+02
-1.281001301285443333e+03
-1.398679425766887334e+03
-1.244904824939960008e+03
-7.836277039947165122e+02
-5.408007549349531473e+02
-3.893554553291000957e+02
-2.432729552302701563e+02
-3.925300874840627898e+02
-9.912739864302626813e+01
4.308047557911104946e+02
4.422902920184486675e+02
2.624001043235492148e+02
3.271137377424971078e+02
1.053420127578326202e+02
4.883081080978042721e+00
1.787974095070444491e+02
-2.276266577189565510e+02
-7.293366732405595485e+02
-9.365769328932634608e+02
-9.185423904163965290e+02
-1.018339939764191286e+03
-1.307345855761878738e+03
-7.276878289319753321e+02
-1.022459532696733220e+02
8.783957207509143927e+01
5.641520122824143613e+01
2.492877381994593691e+02
6.454526567600892122e+02
6.708996824033109760e+02
7.033131829978098040e+02
8.835052134577026663e+02
1.119963922203049833e+03
1.616077554064642072e+03
2.394550385462092436e+03
2.581204459688076440e+03
1.781171620528807125e+03
1.141640273985876547e+03
8.331032018881886358e+01
4.236852791731881211e+02
3.752822478980345409e+02
1.938346931486474602e+02
5.403813537504548776e+02
7.120765024263496343e+02
2.382292011908400013e+02
8.565368914868378170e+02
1.853090175056471480e+03
2.036517059738211628e+03
1.838080595027726304e+03
1.990370020140616361e+03
2.299688604369931909e+03
2.829049980588100880e+03
3.359519298084120237e+03
3.319208437070883065e+03
3.393716846282902225e+03
3.226530479369729164e+03
2.941250857945356984e+03
2.329535110966657612e+03
1.727626535253875090e+03
1.539437568675100010e+03
1.447906058369394941e+03
1.414622034964442946e+03
1.059583765069118726e+03
1.047847965627862322e+03
1.539825799596144861e+03
1.818993412859839736e+03
1.947783021308444404e+03
2.054699257667589336e+03
2.663885683033500300e+03
3.185172169819372812e+03
3.396364594808911079e+03
3.155903442787501717e+03
3.269810605516806845e+03
3.526547572536481766e+03
3.972352075201622029e+03
3.745867031379983473e+03
3.150124871054439154e+03
2.291580174337103927e+03
1.723660819609206328e+03
9.930473845099669461e+02
7.569317636333732935e+02
9.704565068717297436e+02
1.058765362676090717e+03
9.727296499109742172e+02
1.672340405669844131e+03
2.518847392425727321e+03
2.786158836070479538e+03
2.920245325574474009e+03
2.618947761472735692e+03
9.896281503112385280e+01
-3.714572333376510869e+03
-8.508165592340741568e+03
-8.736310306042412776e+03
-8.007775890955984323e+03
-7.770998733907224960e+03
-7.904582163545231197e+03
-8.637696660229243207e+03
-9.536172496376026174e+03
-9.597612559067974871e+03
-9.956971502298769337e+03
-9.869362752727847692e+03
-8.696937255330152766e+03
-8.038705130394174375e+03
-7.423393832521550394e+03
-4.168811164251553237e+03
-1.760647857949760009e+03
-6.660832022733854501e+03
-7.632362153755966574e+03
-7.167221206490727127e+03
-7.106125150089478666e+03
-7.294450555694855211e+03
-6.911575755589423352e+03
-6.538172492152704763e+03
-7.037827705318019980e+03
-6.940333455920423148e+03
-6.491558637833967623e+03
-6.622397748997704184e+03
-7.098909781880109222e+03
-6.867086847372998818e+03
-3.196820372973969370e+03
-1.937818560919405627e+03
-5.263258522628813807e+03
6.959418024858745184e+02
2.302979800247057938e+03
2.959776456595408035e+03
3.314692262827585637e+03
4.077848092813099811e+03
4.230273003285157756e+03
3.790116622379389355e+03
3.747567708693107761e+03
4.215023789813362782e+03
4.420751685954137429e+03
4.182890358685186584e+03
4.329017993761675825e+03
4.686815503428894772e+03
4.730533110347955699e+03
4.120479472453142989e+03
3.330952500550184141e+03
2.859885848241849089e+03
2.035543552659440365e+03
1.582036032344184605e+03
1.544395413729019992e+03
1.144939225374849684e+03
1.351544041244957043e+03
1.280769579893574928e+03
1.280638715959846195e+03
1.711350345977007919e+03
1.693231989240322264e+03
1.437474627679158402e+03
1.261114708395994057e+03
1.938242644632809970e+03
2.921987069570977383e+03
3.304313596656286791e+03
3.337302049565747893e+03
3.208948316219718890e+03
2.805341739182090805e+03
2.444566178621543258e+03
1.840621464447269545e+03
1.531757763213332964e+03
7.632044530944061762e+02
1.046433598801650220e+02
-4.878833620999700997e+02
-9.310125173834810539e+02
-7.826784191972981262e+02
-3.480592779942239900e+01
4.268391726493397300e+02
1.662951655277442740e+02
1.057053704099878814e+03
1.823225810183826525e+03
1.742051838478056652e+03
2.062557720530373899e+03
2.073722866390024592e+03
2.020005127682550210e+03
2.355002637099734329e+03
2.444302066634073526e+03
2.659075713412309597e+03
2.213954280551197826e+03
1.461755271810479144e+03
7.945757723219563786e+02
2.842960112380454802e+02
-3.640921942071022954e+01
-6.462376459388394778e+01
1.435211876347078999e+02
4.448551263264452018e+02
9.784692332017658600e+02
1.234624945956165902e+03
1.633237080743693014e+03
1.687960276947206694e+03
1.463667984507759911e+03
1.865346777184822713e+03
2.288871612553599334e+03
2.662184014147248945e+03
2.768210266880486415e+03
2.499921805775310077e+03
2.531314474327939934e+03
2.307237886387516937e+03
1.758570667891540552e+03
1.483154318463450636e+03
1.170855833896817330e+03
1.293540244485565381e+03
1.440060691822976423e+03
1.116182786081630638e+03
1.126845382213710309e+03
1.342006935672069631e+03
1.881571677163110508e+03
2.598353265663742150e+03
2.955143995334805822e+03
2.864823478376405092e+03
3.044418536271260109e+03
3.340883871298508438e+03
3.222034053738509101e+03
3.415631460062602400e+03
3.626613826192873603e+03
3.562895654685868521e+03
3.200404391725260211e+03
3.073905117604746465e+03
2.946199469029424108e+03
1.747268100042285823e+03
-2.346069471148197408e+03
-8.676912340172500990e+03
-1.191442568776187363e+04
-1.163382137387891635e+04
-1.104929974343030335e+04
-1.033999276636549257e+04
-5.888047217667882251e+03
-2.629486848170651683e+03
1.898613137258720144e+03
2.240205164858137778e+03
1.951113596099003189e+03
1.939126934028871801e+03
1.413096024639336747e+03
2.382976565053661943e+03
3.138756427234995044e+03
3.639269176696208433e+03
4.412407854368473636e+03
4.340094404054847473e+03
2.836141290856801334e+03
1.601434441746497214e+03
3.938999334998988502e+02
-3.695180174856976123e+02
-1.252913587664427268e+03
-1.794420409377807800e+03
-1.581059659122084895e+03
-1.378915016790023174e+03
-1.562110772536876993e+03
-1.611646410494184011e+03
-1.986507573920566983e+03
-2.429745722845238106e+03
-2.431476729604541106e+03
-2.826664297750002788e+03
-4.286296549201273592e+03
-6.186387698491358606e+03
-6.435987997537121373e+03
-1.156162495850341202e+03
4.044103709060963865e+03
4.397759096702498937e+03
2.919805312335541657e+03
8.222514223119990220e+02
-8.728799397727470932e+02
-2.943581681956838565e+03
-4.366870708938366079e+03
-5.745808800252396395e+03
-6.570313391470381248e+03
-6.774324762918375200e+03
-6.733827743859726070e+03
-6.529776067717257320e+03
-7.121138208225553171e+03
-7.707882039145584713e+03
-7.874872385972955271e+03
-7.419999492109995117e+03
-7.484234178930252710e+03
-9.714519266919998699e+03
-1.141182264087047952e+04
-8.974054302592916429e+03
-3.770070455703465086e+03
-1.979500947515450449e+01
3.453817420367126488e+03
7.238903836859969488e+03
7.059606865461219968e+03
6.185003193166108758e+03
8.061095312638265568e+03
9.027975235951769719e+03
8.663715010362240719e+03
6.760469353888980550e+03
5.930366354840108215e+03
5.037503934877875508e+03
1.710621723157697716e+02
-7.713816859225717963e+03
-1.028801982104686977e+04
-7.318390165869664997e+03
-6.521840095555692642e+03
-7.388231980533214482e+03
-5.581423033541199402e+03
8.017706151194023505e+02
5.988532767212555882e+03
5.027116123890739800e+03
5.962440222375138546e+03
8.684708521089496571e+03
8.260089106426623403e+03
6.740644543032746697e+03
5.697512348027874395e+03
7.069296791680494607e+02
3.926997776554931988e+03
-1.317184088226194717e+03
-2.512371591892823744e+03
-3.277377520924981582e+03
-7.283064686835455177e+03
-5.038290756076339676e+03
-8.542882262939921930e+03
-1.952688127531947885e+03
1.205471379041882301e+03
5.765722723640373260e+03
6.382227615902077105e+02
-3.024840135554208700e+03
-2.166293193072584927e+03
1.511998594227590729e+03
-3.501864956437620549e+03
-5.001749897790093200e+03
-8.325548948676689179e+03
-8.017074237939098566e+03
-8.325200286070990842e+03
-6.008862162801753584e+03
1.229083407284247869e+03
7.775749684093292672e+03
8.570280719524433152e+03
1.343478871607203473e+04
8.579374057770362924e+03
1.322094495020466525e+02
-4.673538642929263005e+03
-3.332803013487141470e+03
-4.151508963263571786e+03
-5.393579962299787439e+03
-3.555892936635441856e+03
2.752671949123642207e+03
3.783300050633211868e+03
-9.996105794605586681e+00
-2.752115288550000969e+03
-3.312002825099849815e+03
-1.788690130005685887e+03
-2.265115830669879870e+03
-2.718189954989037687e+03
-5.979604891519655894e+02
1.300602478437913760e+03
2.793576878054171175e+03
2.208025032576347257e+03
-3.118122003191669592e+03
-8.377685387352426915e+03
-8.286413057528481659e+03
-2.314725517431910248e+03
8.255151748942058475e+03
1.506312755718552398e+04
1.455821168540955296e+04
1.085740669566643192e+04
7.421770915160199365e+03
8.756299038855040635e+03
1.114384939184959512e+04
1.155452705067509305e+04
8.735214017333959418e+03
4.072784086241089881e+03
8.241882982577443499e+02
-9.465566603617729697e+02
1.441368502497726695e+03
4.003287840426000912e+03
6.186958820726445083e+03
8.113239054915228735e+03
1.375200143309190753e+04
1.473320829537877398e+04
8.739785104706397760e+03
4.332632679730088057e+03
3.489633845954942444e+03
3.845757230276390146e+03
4.503875912382271054e+03
5.469790716516603425e+03
5.807458351728516391e+03
5.297824103942211877e+03
4.648052822745186859e+03
6.282388692403218556e+03
4.775377086924997457e+03
3.462640670249737468e+03
2.390461256337845498e+03
-1.444716457390019968e+03
-2.546464928876165231e+03
-3.377978389229443565e+03
-5.008528283677718719e+03
-6.918187584545084974e+03
-8.723019481443689074e+03
-6.397160448412761070e+03
-9.667701457833352379e+02
6.223973411894071432e+03
7.166039228177001860e+03
2.156233543550340073e+03
-1.999577943312256821e+03
-3.919554777052168902e+03
-3.128765601923748818e+03
-4.160294768514070711e+03
-3.141293839424019552e+03
-1.368883775236456813e+03
-3.902213924253528035e+02
4.298540431510936287e+03
8.131328364593266997e+03
5.495888576444755927e+03
1.462106559591794394e+03
-1.614145630809165368e+03
-2.460030994571833162e+03
-1.631613085091375524e+03
-1.479965922842322925e+03
-1.104211386644025879e+03
3.434748085451162751e+02
4.109008918956267848e+02
4.200447680765939253e+02
2.886782973852960410e+01
5.823108620505378212e+02
8.552715939418043263e+02
-8.093717925305587642e+02
-2.942712478402183933e+03
-5.887848875130171109e+03
-1.096585960397658346e+04
-1.568585031509787950e+04
-1.734385142210383856e+04
-1.877695494825306014e+04
-1.833632709197326767e+04
-1.556008844514936027e+04
-1.176739963393280959e+04
-1.395640091851901161e+04
-1.541767280223226408e+04
-1.451546748353121984e+04
-1.212086953413577976e+04
-9.292914688773294984e+03
-1.071860614528023871e+04
-1.305907962344097905e+04
-9.688337691955019181e+03
-3.293321895275823408e+03
-6.520791251637809864e+02
-1.235784547714597466e+02
2.544138574407390934e+03
5.359059743449404777e+03
5.958191183603764330e+03
5.826509504649603514e+03
4.067990792636160222e+03
5.785900879049602281e+02
-9.246916238683431857e+02
1.603133756049367548e+03
4.470096540449411805e+03
4.265182567351915168e+03
3.700510620402616951e+03
3.488183500424751855e+03
2.540233838492997620e+03
1.902689517361501203e+03
1.732522417444148005e+03
1.432812247535439838e+03
1.956697784695408700e+03
2.253190899660961350e+03
2.376272668313321446e+03
2.686058438300929993e+03
3.345690545358253985e+03
3.598267953178963580e+03
3.350849663007916661e+03
2.101469150387340505e+03
1.293262264055477544e+03
5.992666450405256455e+02
7.256254881119543825e+02
8.293873844043716872e+02
-1.604917554763867429e+02
-1.401987128974064490e+03
-1.051947050914394367e+03
-2.828610156985658719e+01
4.101432177779407198e+02
-1.195156032492196516e+02
5.980218285984265236e+01
8.021879888657610991e+02
2.098809843341368833e+03
2.467825499087672142e+03
1.863292588364676249e+03
2.205346845901663073e+03
2.098215798208687829e+03
2.161233375249700657e+03
3.255737407362511476e+03
3.682667985978060642e+03
3.201721851760491063e+03
2.134940482598084600e+03
5.686013866458347366e+02
-1.726797020141130190e+01
1.745945755328405937e+02
1.543361574402786346e+03
2.474902634352743462e+03
2.619258323366343575e+03
2.924501808070334846e+03
2.961848204020803223e+03
3.220254679356074121e+03
3.823778491216448401e+03
3.725555409127680832e+03
4.575608536993445341e+03
4.888072682602062741e+03
4.341173954622807287e+03
3.466048902626530889e+03
2.706782935109582013e+03
2.266408122564456789e+03
1.844045605025932900e+03
1.793774507222791499e+03
1.142615492678063902e+03
2.186530756515633414e+02
-1.540434254282404254e+02
7.256678563149542072e+01
-6.444246400593846147e+01
-8.629459097736578315e+02
-1.075943848340676595e+03
-5.623884749160414458e+02
1.978640621708921685e+02
5.379827579249313203e+02
7.859598565172827875e+02
8.613104797601828295e+02
5.679325155805936447e+02
2.892987885959104801e+02
3.456076881746223535e+02
1.938728619544672824e+02
2.281028434562372809e+02
1.573845478043854484e+02
-6.643393436413274458e+02
-1.003010644416785226e+03
-1.031658046830444391e+03
-1.309316397018299995e+03
-1.909017993982771713e+03
-2.352801180875466343e+03
-2.797637852597400979e+03
-2.708549950878437357e+03
-2.102604729076471813e+03
-1.571857976651246190e+03
-1.408298552485140362e+03
-1.716740927713876317e+03
-1.615189462614864397e+03
-1.280065650867639761e+03
-1.248691409535623279e+03
-1.649075140909797028e+03
-1.317351025464176246e+03
-3.836562070999107732e+02
1.782442699482893715e+02
4.262783104317261973e+02
7.251660141683552183e+02
1.229531339354180943e+02
-3.412543407127452042e+02
-5.605007990961105406e+02
-9.189770482111993033e+02
-9.797700690627765425e+02
-8.805288950075741923e+02
-8.539233935163084652e+02
-3.973437616189231676e+02
-1.543186593977054883e+02
6.212448934080923664e+02
1.080383380437179085e+03
1.010746154002346316e+03
1.422795878853001341e+03
2.762392802931592541e+03
2.609754774326181632e+03
2.791550396248174366e+03
3.083626778678238225e+03
2.765458859290826240e+03
1.988050994456831859e+03
1.403329240223886245e+03
1.115598513429310970e+03
5.740470397704090146e+02
4.002182357077383017e+02
1.698282124353853817e+02
-3.428081245578488989e+01
-2.709273328734475399e+02
4.535358004819313749e+01
5.418969417571088343e+02
9.647818466187383137e+02
1.242400320677872514e+03
1.370069868330341023e+03
1.883037285892280124e+03
2.389629744509937609e+03
2.701511841005504266e+03
2.803298052899737741e+03
2.885576049610659538e+03
2.559961929332517229e+03
2.453523938654517679e+03
2.516946250088235956e+03
2.258170685124910506e+03
1.996899371536783292e+03
1.342456926216658530e+03
7.946575389656929929e+02
6.348854613488439327e+02
2.338841818085882380e+02
3.219107119026147075e+02
7.300293493835415575e+02
1.059728480303163678e+03
1.289278808598837713e+03
1.578443337497278662e+03
1.630148388439552718e+03
1.579098690127113514e+03
2.460763027481608788e+03
2.718492580527142763e+03
3.050643894721081324e+03
3.674002158105184662e+03
3.568290256379017137e+03
3.342348815646627827e+03
3.350316025512904616e+03
2.888134549614802381e+03
2.436497497561920682e+03
1.870271025525571531e+03
1.394424434089150736e+03
-1.277988444877365282e+03
-5.544575925884047138e+03
-1.021327491430117516e+04
-1.046148464284339570e+04
-9.830680047962552635e+03
-9.287415335264187888e+03
-8.877641081591144030e+03
-8.656881348285938657e+03
-8.182845168649268999e+03
-7.848404499362673960e+03
-8.372879028293176816e+03
-7.506431625558218002e+03
-7.164990472047517869e+03
-6.581355100932654750e+03
-6.219407230019282906e+03
-4.641586191184745985e+03
-8.381924331712741605e+02
-5.150696843094860924e+03
-7.461193617241940956e+03
-7.988611182472011023e+03
-7.942947365818232356e+03
-7.722597526222631132e+03
-7.675209432183063655e+03
-7.157139757637875846e+03
-6.812387524784430752e+03
-6.491082325932819913e+03
-5.901211258539266055e+03
-6.111741735075397628e+03
-6.112658209878854905e+03
-5.827846044852658451e+03
-5.841822123109295717e+02
1.335371625903052745e+03
-3.171314484957613786e+03
-3.655910460203761886e+03
-2.027348848975220108e+03
4.654471213699782311e+03
6.020925247170485818e+03
6.652866868803716898e+03
6.041368855411449658e+03
5.557540045677855232e+03
5.236496314740139496e+03
5.169339122212393704e+03
5.370843976580950766e+03
4.807771773772402412e+03
5.113974042572795042e+03
5.095932136964630445e+03
5.433265973766999196e+03
5.239091992250631847e+03
5.157410246253971309e+03
5.409153472153967414e+03
5.696554821046034704e+03
5.702562662097210705e+03
5.642137777469882167e+03
5.715353258308168733e+03
6.239987625193567510e+03
5.817150528878660225e+03
5.232406333719207396e+03
4.578985305198193601e+03
3.775993926358274166e+03
3.198424982790886133e+03
2.863266433432541362e+03
2.442630962607147922e+03
2.109541547990661002e+03
1.154001285529436018e+03
7.582173476874968401e+02
9.462976411953144407e+02
1.688377768576113340e+03
2.279519005787531569e+03
2.676866935947546608e+03
2.844651208200689780e+03
3.219899625016484151e+03
3.218784581183212140e+03
2.882715404648483400e+03
3.151288362945934296e+03
3.374391081871048755e+03
3.008027912725868646e+03
2.677168366390369556e+03
7.556404354642793351e+02
-3.677635447624832977e+03
-9.511802566323702877e+02
-2.098337163540548431e+02
-6.166968107229955649e+02
-4.928998137569044502e+02
-6.548037616290531560e+01
-1.045053140443226539e+03
-1.385236168254682298e+03
-7.673188724071140996e+02
-1.159142338200783797e+02
6.851134347994600375e+02
8.088831792498596087e+02
8.422748647315709150e+02
1.089292765882011054e+03
1.208095340007376535e+03
1.281771369650037059e+03
9.355866389913843477e+02
5.387441686821267695e+02
2.315497131684253773e+01
-6.894281397750587530e+02
-1.928103016431441119e+03
-2.547657607979308978e+03
-2.684003060594077851e+03
-2.195080020319824598e+03
-1.616849837141588978e+03
-1.898316712402683379e+03
-2.063469122643594346e+03
-1.480250625214219326e+03
-1.086673901325949373e+03
-2.081693203900259050e+03
-3.123262444085064544e+03
-3.198369098741738071e+03
-3.024015560790697236e+03
-2.555176399780604243e+03
-2.526831943876011337e+03
-2.235884695392654521e+03
-2.189347074507239086e+03
-1.002233065501219698e+03
4.583813656598919124e+02
7.785235937938703046e+02
-5.270777857385175480e+01
-7.703248104636339804e+02
-1.560432688657781455e+03
-1.678145095540561897e+03
-1.666499038252053651e+03
-1.854420057397256642e+03
-2.221980840303823243e+03
-2.087193561942460747e+03
-1.580115148564545734e+03
-1.473712638693047893e+03
-9.789278579532581261e+02
-1.684308633937747857e+01
4.385520437206354813e+02
2.982403032084807819e+02
-1.969195986649419581e+02
-3.242944070532354544e+03
-7.645813620096758314e+03
-1.049149408780937847e+04
-1.027497377014172525e+04
-7.901372549197323679e+03
-1.185767754883373300e+03
-1.326436635841456324e+00
-1.141208899522065963e+02
-4.261468390552994947e+02
1.765892451945505570e+02
6.410403721425226422e+02
6.530716787724700225e+02
1.138698081799581587e+03
1.206892741170046520e+03
1.033526808325372258e+03
9.055836828789166475e+02
1.334086164383445976e+03
1.544010156395777813e+03
1.277408549284713217e+03
1.152143511498158887e+03
1.200121000460916548e+03
1.296280609457220180e+03
1.675631060391826395e+03
1.753156170398499171e+03
1.620734563826183830e+03
1.192275468071684827e+03
1.424746280516901606e+03
1.356138723832623782e+03
7.033966600732536563e+02
-2.325950290743904816e+02
-6.179961210991799589e+02
-2.457660400473724565e+02
-3.389704555644993320e+02
-9.816893130206152591e+02
-4.891239611496236961e+01
1.382307238636083866e+03
1.824947034456606843e+03
2.123975156830540982e+03
2.580309441268579121e+03
2.400887745870008985e+03
2.585704576808621368e+03
2.707656097580069400e+03
2.978690544331675028e+03
3.243783127749789855e+03
3.440923525164715556e+03
3.392070139785149422e+03
3.143123821114510065e+03
2.563989670287078752e+03
2.169586496694463676e+03
1.759878179842546388e+03
1.663815203314789414e+03
2.094391567551832850e+03
1.958541021993771437e+03
2.069228751627845213e+03
2.500453557334381458e+03
2.597198978462101422e+03
2.915363107027994829e+03
3.575879071921282048e+03
3.233753938188303437e+03
2.831976600108106595e+03
3.271478140345445809e+03
4.911300337750103608e+03
5.264407533726771362e+03
4.761838698408298114e+03
3.568516410836513842e+03
2.884341764884638906e+03
2.661246507704722717e+03
2.400269649936185942e+03
2.016313229973495027e+03
2.325367806862314865e+03
2.731318079743620729e+03
2.711149189412193209e+03
2.676926903750880228e+03
2.358517892403114274e+03
1.239396153494216577e+02
-4.130618529341569229e+03
-7.961208451684887223e+03
-7.850896983841669680e+03
-7.841672461929296333e+03
-7.380525958946479477e+03
-6.306502164472600271e+03
-6.277597477308728230e+03
-6.769732761788839525e+03
-6.420974790877221494e+03
-6.566391730746177927e+03
-6.965941565015732522e+03
-6.895605893660925176e+03
-7.063443843079673570e+03
-7.225507079096323650e+03
-2.520795915665066786e+03
-2.139325167931967371e+03
-7.694090482047276964e+03
-8.214059238645522782e+03
-7.538238547174007181e+03
-6.894576711877115486e+03
-6.047098171348769029e+03
-6.036794697521117087e+03
-6.300559981113537106e+03
-6.044340807667969784e+03
-5.736226597740021134e+03
-4.886171009947146558e+03
-5.163153741385808644e+03
-5.553137426079409124e+03
-4.529113481268834221e+03
-1.311357736862558738e+02
-4.971279752733847204e+02
-4.903117855056527333e+03
6.183301382683102787e+01
3.618796908775580050e+03
3.667741020300932632e+03
3.142706526179345929e+03
2.993723069065925301e+03
2.535771319357947959e+03
3.315830458330843612e+03
4.729981502038855979e+03
4.689195919056987805e+03
3.602471495312318893e+03
3.387925154651194589e+03
3.976628718865557403e+03
4.705550446138190637e+03
5.212696757976802473e+03
5.075090167319928696e+03
5.252790174327532441e+03
4.727847038559961220e+03
4.141473956511021242e+03
3.414795527498403771e+03
2.548851811776122304e+03
2.643255990971965730e+03
2.835112743669263637e+03
2.463741647715106865e+03
1.787173017600323419e+03
1.049314569556377364e+03
1.324226485490357391e+03
2.212958907011436168e+03
2.776583226306552660e+03
2.695040869294478398e+03
1.382326081007671746e+03
-1.974557110684978852e+03
2.214339789355703942e+03
3.997980767994269172e+03
4.042169591753914574e+03
3.406802642364123130e+03
3.597364519347474015e+03
3.809540650248035945e+03
3.186636849230906591e+03
2.673577218658127549e+03
2.114432074394903793e+03
1.002103990774605450e+03
2.766078874793057594e+02
1.280063829208148434e+02
1.711952822578027735e+02
2.632123784472262855e+02
7.120643457455802263e+02
1.232759564889841158e+03
1.221874151677152440e+03
1.107689598850804032e+03
1.250899452198714926e+03
1.201662301706746575e+03
1.492924589242273214e+03
2.435538478417784972e+03
2.822134303240336067e+03
3.337232003732803150e+03
3.224815461318496546e+03
2.817828846641310520e+03
2.215317197809243680e+03
1.792230923606001170e+03
1.261536941508235486e+03
1.055245340459604222e+03
6.182682693982544606e+02
3.826452664317964150e+02
2.334516447379586879e+01
-1.456624487403080650e+02
2.366301094996078405e+02
6.913123957700735218e+02
1.512357644077848136e+03
1.915779001496761566e+03
1.629607120736191064e+03
1.686828631462298972e+03
2.231432342963269548e+03
2.538476670941533484e+03
2.236961972151761984e+03
1.978911581989268370e+03
2.065312799576881389e+03
2.492205737750955450e+03
2.654608465460019488e+03
2.111515382913242775e+03
1.522889112629890406e+03
1.017783638785931657e+03
4.531963890268939963e+02
-2.399447888426901159e+02
-5.646924509924912172e+02
-4.650254439338391990e+02
-8.019258444102041494e+02
-3.354375879608092418e+03
-7.231354956344101083e+03
-1.128181274454439881e+04
-1.015272125788495032e+04
-9.068063831855504759e+03
-9.026862225164226402e+03
-8.603065964896704827e+03
-8.576711355364019255e+03
-8.699552709374782353e+03
-9.553339406971077551e+03
-9.120791576896755942e+03
-8.481635290061054548e+03
-8.392403095879744797e+03
-8.560469272554366398e+03
-8.763903453719472964e+03
-5.960528001045542624e+03
-7.503917801876199292e+02
1.083453653213575990e+03
1.691990043665516396e+03
1.463200206768409998e+03
1.520160122281016356e+03
1.857921392976418247e+03
1.820525148500873001e+03
1.545982608011119282e+03
2.226315518517922555e+03
2.641604995601960582e+03
2.765872338533874427e+03
3.485173486655121451e+03
3.627554766052913237e+03
3.278082757447554741e+03
3.091779209391723271e+03
3.536624724597152181e+03
3.224571798633480739e+03
2.468598447752237007e+03
1.699809740391795458e+03
9.741960112609607449e+02
5.147460824843672071e+02
1.764867714946680906e+02
3.254660814453405493e+01
9.398748834487858517e+01
5.047970758994227367e+02
9.360545894405681793e+02
1.098773710305817531e+03
1.295942936629377755e+03
1.530578753471709661e+03
1.541741064630323990e+03
1.337342870703464541e+03
1.566357418868414925e+03
2.047886282549691032e+03
2.027061144400684952e+03
2.339956440194357583e+03
2.281616069814410366e+03
1.461057707701334948e+03
6.413091085796363586e+02
-4.406247102023891671e+02
-9.216829094606811168e+02
-1.103865521943090698e+03
-1.311242557930290559e+03
-1.497778797654183791e+03
-1.502493850987121277e+03
-1.404374182951713465e+03
-8.833682589296062133e+02
-4.474650972844970056e+02
-1.537038299513150150e+02
-7.846278457624292102e+00
3.337820836752102309e+02
5.642772999032501957e+02
5.114862987665095488e+02
7.795321680393728911e+02
9.118253670721142043e+02
5.333025649299432871e+02
3.999226772412522735e+01
2.447633239022516420e+02
2.629783122380894156e+02
-6.963215980535869676e+02
-4.763180335814221849e+02
-5.890467683356666839e+02
-6.994680447699406614e+02
-7.885780583589029220e+02
-8.433152201985376450e+02
-1.105694896758825280e+03
-3.668614797165993924e+00
3.718178276020504995e+02
1.667932268916375165e+02
1.782672505843849819e+02
3.472498616291331928e+02
6.077116755030717741e+02
4.316472416705435649e+02
3.750872099466184295e+02
2.630139666720744458e+02
-5.960805782350049498e+01
6.229811022466476089e+01
