-4.113724401005796238e+01
-1.211465477803723616e+03
-1.140857185913608191e+03
-7.142745079598262237e+02
-2.480662736322190995e+03
-1.782959729131967606e+03
-1.925031132602661273e+03
-2.167819458720142848e+03
-2.450284855173124470e+03
-2.160325637975679911e+03
-2.333867103892271189e+03
-2.413775698040906263e+03
-2.314934835187898898e+03
-2.214194555702993966e+03
-1.925482090458644052e+03
-2.308726290772941866e+03
-4.157758139052056322e+03
-4.935489292864869640e+03
-2.442844525756514940e+03
6.934726535774933609e+01
4.821657463435655586e+02
4.786624337985497846e+02
4.449588230383023415e+02
2.961036298067292023e+02
2.422475138418586198e+02
-2.435637281732888084e+02
-8.102305558787363680e+02
-1.203651402279148670e+03
-1.556678758458920356e+03
-2.069234596518439503e+03
-3.179294041053266483e+03
-3.682471021218273563e+03
-2.448684535391080317e+03
-1.845789833479206209e+03
-2.333819489324460847e+03
-2.778804478310272771e+03
-2.727641488786768605e+03
-1.854315520526320142e+03
-5.454580217495986290e+02
-2.039085735089153104e+02
-3.920129911906984148e+02
4.124680874486138578e+02
1.316961150231589272e+03
1.544234192435181740e+03
1.681443934793559265e+03
2.179782665739951881e+03
2.890966678272311583e+03
3.641324456043122609e+03
4.359655479849961011e+03
4.993419293937367911e+03
4.889246403192388243e+03
5.026372997390297314e+03
6.102933527479630357e+03
6.497986186025505049e+03
5.788743594697088156e+03
5.864990090175338992e+03
5.434095596655293775e+03
4.865986960507019830e+03
4.890736187949922169e+03
4.909321145990359582e+03
5.391809627617695696e+03
5.561169780093455302e+03
5.021467559008865464e+03
4.349675452397579647e+03
3.874751643577572395e+03
4.362742547533363904e+03
6.174731764511540860e+03
6.787772525285793563e+03
7.255867665191100059e+03
7.824073439822038381e+03
8.063427624079080488e+03
7.002880430121411337e+03
6.156446470806131401e+03
5.961258029485407860e+03
5.468268738073978056e+03
5.077473860214062370e+03
4.663959491619096298e+03
4.313763412197347861e+03
4.080879105302003609e+03
4.340268799663272148e+03
3.887900954335482766e+03
2.525730857635274333e+03
1.116702198222890274e+03
-1.485129230910353726e+03
-3.774802780032279315e+03
-6.400369359735813305e+03
-5.705783248925084081e+03
-4.300068347589753103e+03
-3.059250163134172453e+03
-1.642390488694446276e+03
-1.481537932687704597e+03
-1.744596683496387868e+03
-2.288554695842795354e+03
-2.985530262143415257e+03
-3.517533764579043691e+03
-3.623569671443054631e+03
-4.227721924532084813e+03
-4.789026549722168966e+03
-5.443492763673808440e+03
-4.289210826298097345e+03
-5.253272434135938056e+03
-6.631712150615006067e+03
-6.657597762494001472e+03
-6.935970204611166992e+03
-7.485921501318557603e+03
-8.074465903767930286e+03
-6.710640319595241635e+03
-3.302547244042982129e+03
-3.273275430411468733e+03
-5.687852809956514648e+03
-4.226308830807932281e+03
-2.883725357847866690e+03
-2.303166893931797404e+03
-2.606651233216211949e+03
-2.552210765555551916e+03
-2.288926622890204726e+03
-2.040906947538470831e+03
-1.876277079506935252e+03
-2.205073898510094750e+03
-2.267365040977652370e+03
-3.245223141600728468e+03
-3.859724840598930314e+03
-2.423867914369875962e+03
-2.120695704278131871e+03
-1.928374421487343625e+03
-1.570058881673068981e+03
-1.341790170457258228e+03
-1.646597715115377923e+03
-1.650634681777242349e+03
-1.782981076982892091e+03
-1.730803979458452886e+03
-1.244090827689627304e+03
-5.188862766731725742e+02
-1.632541831732138604e+01
6.145409785244111163e+02
9.286859131641582508e+02
5.450239254130539166e+02
5.234357026756840696e+02
3.568612236492895704e+02
2.763009797245342725e+02
1.506013038196752518e+02
-1.122413006716982125e+02
3.307057333222201123e+02
1.692308102819751184e+03
3.101459714195356355e+03
2.783116302312982043e+03
1.610267227164882570e+03
1.746920073552142867e+03
1.819014886605503079e+03
1.823729011403853974e+03
2.043960537099917019e+03
1.966396518752517068e+03
2.366023164961438397e+03
3.396112857761443138e+03
4.516308986845546315e+03
5.927439101818376912e+03
6.818450190056576503e+03
6.140225422364355836e+03
4.602554468333524710e+03
4.350485527340930275e+03
4.684994809261046612e+03
4.051042772174072525e+03
3.133512803539813376e+03
2.637350397321568380e+03
2.060571696916091696e+03
1.367148147495751573e+03
1.227990950978176443e+03
1.947993018903258189e+03
2.212141852295901572e+03
2.186448050590125149e+03
1.548863270967076460e+03
9.753494612658291771e+02
1.171851254354171488e+03
1.046326730160606303e+03
7.057371874022609290e+02
-1.709388968284151247e+02
-8.476744886694301613e+02
-1.166454031275798798e+03
-1.637311552674097129e+03
-1.840256285824064662e+03
-1.802360158902787589e+03
-1.511653261709622711e+03
-1.219110036426374791e+03
-1.284716415059024257e+03
-1.409527664764385008e+03
-2.037649452699172116e+03
-2.178126322706297287e+03
-1.367967459977580120e+03
-9.811914183236880262e+02
-8.868437746714929517e+02
-1.018912316052809842e+03
-8.914690069039172613e+02
-7.644935987463771880e+02
-8.050202267115970471e+02
-5.160032591950367760e+02
-3.254684872308680497e+02
-5.150465393073063325e+01
-1.910503851815517464e+02
-6.600012767636525268e+02
-1.242355568604278460e+03
-1.952163595764030788e+03
-1.324448615015961877e+03
-4.102782816199495528e+02
4.194168616217357339e+02
1.127614685882498179e+03
9.492839520852179476e+02
6.724091155262141228e+02
3.309672611373882773e+02
4.570572567570459910e+02
5.746820106898607037e+02
-5.197719292471040475e+00
2.744023426686889024e+02
1.785329864651355081e+02
-1.037680734184411335e+02
2.444770742996139177e+02
5.751762914841901875e+02
8.574838087054741891e+02
7.654756761490970121e+02
2.930748042646162617e+02
1.193268946024798254e+02
-2.857135759495378124e+02
-8.978074455727042960e+02
-1.159250532279808567e+03
-1.224191511867255485e+03
-6.546089848661001724e+02
-1.429339010473911685e+03
-1.802270665667366075e+03
-1.326503024655010222e+03
-7.310501541498188089e+02
-3.343143539046468504e+02
-3.347917018563654210e+02
-1.236471795793573705e+02
-7.277133138599400581e+02
-1.542831372778209698e+03
-2.218516752965215346e+03
-2.230446298613611816e+03
-1.924511640834538412e+03
-1.594743185130172606e+03
-1.994906296102398983e+03
-2.092176619198283333e+03
-1.361637370442057545e+03
-4.433657429733784738e+01
1.340165013800770453e+02
-5.557015207611221967e+02
-6.084257687820156661e+02
4.749611167849708977e+02
1.536967370824946329e+03
2.164617538380794031e+03
1.660167533728924127e+03
1.416792030723069047e+03
1.212314533916630126e+03
1.365693973234217083e+03
1.967009728017851103e+03
2.226274059097464033e+03
2.373452961754465832e+03
2.076549673202609483e+03
2.132569387588144309e+03
2.143488715700734247e+03
2.245432530226617928e+03
2.360394982704896393e+03
2.919462884572524672e+03
2.709556105645909611e+03
2.329373455158498018e+03
2.036028827830846922e+03
1.647574590237185021e+03
1.661959960999531631e+03
1.738160926031625650e+03
1.362223986509624865e+03
6.781669535010108802e+02
6.629385436920161965e+02
7.275559967947858695e+02
3.039654921679018571e+02
1.102609554453038356e+02
2.205777933573099290e+02
3.848290051839169337e+02
1.348732035078375475e+03
1.728276582024496292e+03
1.361634046284105352e+03
1.418813798423156186e+03
1.221821250665787147e+03
1.589668882536320098e+03
1.320333869929481125e+03
7.878427605945050800e+02
1.842790147968111398e+02
-2.883298128049150364e+02
-9.880523722159250610e+02
-2.687852969350258263e+03
-3.203632181525303167e+03
-2.817414243626169537e+03
-9.243239604356904238e+02
-1.595341557128023851e+03
-1.097396706456455604e+03
-1.129480378267889591e+03
-2.697659056317618251e+03
-9.379905437536682484e+02
-5.655396151498034669e+02
-1.360183639137878799e+03
-1.877887970169900200e+03
3.472335790503968838e+02
1.592016271650294641e+02
-8.319079885584820886e+02
6.099214702527624468e+02
-1.489357864191732460e+03
-1.436749843300700604e+03
-2.390268071804910960e+03
-1.571926704623147316e+03
-2.936636404160316488e+03
-2.238324346047083964e+03
-1.125000401041699433e+03
-5.707285538282596917e+02
-1.353507891792915643e+03
-3.342161990339968725e+03
-3.279658050425196052e+03
-1.549967492663661460e+03
2.979400680090158176e+02
1.039078291260518654e+03
1.977452198347293233e+03
2.416052151136323573e+03
2.105950043567525427e+03
1.877205388505415385e+03
1.811892346813525592e+03
1.445996105484308146e+03
1.117456089855408436e+03
9.111847377481984722e+02
5.202870937220857286e+02
2.148700742512397710e+02
-6.605888747794087124e+01
-5.155066205217591460e+02
-8.993652292072678165e+02
-5.855829029648300548e+02
-6.501541779646689747e+02
-1.046997975472540929e+03
-9.721000094822944675e+02
-2.783855457841601151e+02
3.491603714052074565e+02
7.255657926495626953e+02
1.088826524095543846e+03
1.141078574794458518e+03
6.105180943278237464e+02
7.261346753210822271e+02
7.480007169160153353e+02
1.781509465339395604e+02
-5.480458042398180396e+02
-7.297606419261956034e+02
-9.320515677299107438e+02
-1.462855606726078122e+03
-2.494195859153055153e+03
-2.939935631072873548e+03
-2.373999087264650825e+03
-2.095324823101495895e+03
-2.040696331166058371e+03
-1.095093451015771734e+03
-7.458087768841969591e+02
-8.107543532293074122e+02
-6.471314061981964869e+02
6.716043795005725769e+01
2.432184906086308445e+02
2.533000393446669420e+02
1.166714396370966682e+02
-2.277665246516876962e+01
-4.622507089961491715e+02
-4.938657180645131461e+02
-7.146226777637953091e+02
-1.023315879138469313e+03
-1.518002324157473822e+03
-1.584649039226311970e+03
-1.383068625251697540e+03
-1.292568431388665886e+03
-1.503147227111918482e+03
-1.734721841076670671e+03
-1.252213254085159178e+03
-5.356744921941453867e+02
-4.311229000191990508e+02
-7.514869286292204151e+02
-3.557758448132129843e+02
-1.659189421219787448e+02
-3.769504802962490544e+02
-1.024798042932263115e+03
-1.096410632704649061e+03
-9.649451304682144155e+02
-1.277319267931663035e+03
-1.167518503255296082e+03
1.513763043396481294e+02
1.589393433326712739e+03
1.469605443404750986e+03
1.156004340218516063e+03
6.216015553188227614e+02
1.122398851751766415e+03
1.297347838976294497e+03
9.144568010319209179e+02
9.156782040270671814e+02
9.740157540122089586e+02
5.965358746237957348e+02
2.432830801120872763e+02
-1.348128533302649714e+02
-9.773353391465779794e+01
-3.434953247245247212e+02
-3.261210038333505281e+02
4.863920431613432243e+02
7.610476983916184963e+02
6.574816135005633555e+01
-6.135565102962336823e+02
-6.997652042135052852e+02
-7.667826766759264956e+02
-1.720730058433870909e+03
-1.025637702141775890e+03
-3.935385329231955325e+02
-1.937411562390809195e+03
-3.103271319916530501e+03
1.044815655396182365e+03
1.648785275180420058e+03
1.090579559290961242e+03
6.461138447376548584e+02
1.274113153454054554e+02
-1.442388111762848212e+03
3.398960567009544320e+02
1.224180682018975631e+03
1.048334844592781565e+03
2.603775991338418976e+02
3.843182705083236783e+02
9.561042453031515151e+02
1.330757086909002055e+03
1.399275504217270054e+03
9.735723901309942221e+02
4.525621721983181374e+02
4.321706551536036613e+02
5.254123816414823978e+02
4.063442265268573124e+02
1.509602573749559156e+02
-1.168134699654975890e+02
-6.959534900959522474e+02
-1.074495165795336334e+03
-1.253422440262148484e+03
-9.997739598430838441e+02
-4.565719614680065774e+02
7.814819117797037507e+01
2.343258908630770918e+02
2.883858441701339537e+00
2.147502688081710858e+02
8.558795132626803479e+02
1.689288693499074043e+03
1.850971131769077601e+03
1.643924967687564731e+03
1.271091566620546473e+03
1.362433533902670888e+03
1.400944581023620231e+03
1.499559269648188092e+03
1.324212012367817806e+03
9.957834045911737348e+02
7.452934943414153395e+02
7.397437511136912462e+02
5.610182829912896523e+02
4.101094838598930323e+02
3.930038993872101969e+02
6.446780908740186078e+02
1.539089166392777543e+03
1.782284666873124024e+03
2.185260468882140685e+03
1.859844271321194128e+03
1.915965673945516301e+03
1.696580024933457935e+03
1.312639026523299663e+03
5.232048805566607825e+02
-1.957806783197941911e+02
6.170302010144899896e+01
1.525793913894859202e+02
-2.242385672329014028e+02
-4.346637773093387977e+02
-1.158270178918921260e+02
8.632410909688124434e+01
-5.012238886927736985e+02
-1.638577027340809082e+03
-2.202770635442494495e+03
-1.693884573414563647e+03
-1.585850329438895187e+03
-1.658613030678875703e+03
-1.314234072358613048e+03
2.751284354944697952e+03
4.087935244743262956e+03
3.400653848968884176e+03
2.712432172228658601e+03
2.378169619873782722e+03
1.411938628371229925e+03
7.317122218663349713e+02
-1.087548492094346557e+03
-4.146909438568984115e+03
-1.131364365726963797e+03
-1.574859158535045935e+03
-7.214388959478944798e+02
5.150171074553736617e+02
-2.795527257933278179e+03
-3.465116885823628763e+03
-3.525830516937560333e+03
-3.125651419147855904e+03
-2.995586969062470416e+03
-3.149625896301625744e+03
-3.489772009714785327e+03
-3.608046877079546448e+03
-4.074578032304540557e+03
-4.199353910345553231e+03
-3.582280492164512907e+03
-1.498339359957375791e+03
-2.859644206615403164e+03
-4.775227500560388762e+03
-5.314100479444131452e+03
-5.220173939927974970e+03
-4.517432957638838161e+03
-3.955868361731023469e+03
-3.614464068343895633e+03
-3.291298367584448442e+03
-3.145311765127891704e+03
-3.143503033929875528e+03
-3.064866667119142221e+03
-2.766365994338390919e+03
-2.543000862151947331e+03
-1.120770465188883009e+03
2.479366482285603524e+03
3.254367146901817705e+03
2.492271041015364972e+03
2.313145607032240605e+03
2.690018351802856614e+03
2.315881251576667637e+03
2.144740518255200641e+03
2.103581509443041796e+03
2.392449908560512540e+03
2.228411873379305234e+03
2.310489283179563245e+03
1.900679030868304153e+03
1.969034484861121655e+03
2.037633530027408369e+03
1.683504180314128007e+03
1.073582221083859167e+03
8.968237519326917209e+02
1.196259612515480285e+03
1.262989017952079166e+03
1.340035539545175880e+03
1.411454677795010866e+03
1.187158093898673087e+03
6.441264170497568102e+02
8.504928987577951602e+02
1.513417185976615656e+03
1.227006154631256322e+03
9.962911662385471345e+02
1.160575315810316624e+03
1.398531693881687033e+03
1.899759884646689443e+03
2.317388527568591599e+03
2.575039393282653691e+03
2.859581448099903810e+03
2.660849599880481037e+03
2.526932017617714791e+03
2.102302872137499435e+03
2.358331043077464528e+03
2.463293378891354678e+03
1.985386349466156162e+03
1.858323423341091711e+03
2.006054576923410195e+03
2.183643950204120301e+03
1.991678735381831302e+03
1.871667031054113750e+03
1.520674619656657569e+03
7.588327884678396913e+02
8.940767030654775454e+02
1.061367393658621950e+03
1.086542307090305030e+03
1.095701426748802533e+03
1.978614845961842548e+02
-6.073125395015965466e+01
5.061918866664982488e+02
6.331820992638553207e+02
5.348124787638030284e+02
7.995110465885812800e+02
8.013158307433217260e+02
8.441006756259694157e+02
1.264856662871934532e+03
1.375633132422131212e+03
1.832438207995050334e+03
1.810275200848974691e+03
1.539208140214876721e+03
1.293199170522678742e+03
1.024273795903193559e+03
1.747475983002299245e+03
2.558808210994062392e+03
2.738268778160039346e+03
2.419871236025992403e+03
2.197580586160226630e+03
2.047372475411835467e+03
2.068292976417029877e+03
1.751389428678147397e+03
1.754584873232577593e+03
1.392793911982445024e+03
8.350564502805229949e+02
6.242963279048491643e+01
-3.421235947855588506e+02
1.494288833688227385e+02
-3.918522916776878446e+02
-2.555025361017793784e+03
-5.789033487259875074e+03
-6.216795138281133404e+03
-6.303322062491358338e+03
-6.658685914932236301e+03
-6.504867936789074520e+03
-6.572879163854005128e+03
-6.380656693237984655e+03
-6.043229356416339215e+03
-5.661700150029510041e+03
-2.824031959031783117e+03
7.108436591343377131e+02
9.457775967545030653e+02
1.455777078184461061e+03
-1.397107833925975001e+03
-4.338863594001183628e+03
-4.998479978120455598e+03
-4.883963834307677644e+03
-2.027364303628003881e+03
1.058325716106814298e+03
1.356165766185535176e+03
-7.138292439998317604e+02
-3.963684712862586821e+03
-3.109338397117439854e+03
-7.376522161373875974e+01
6.980163840301173650e+02
1.012978837632428394e+03
9.250790989574786636e+02
8.582966478871079516e+02
1.158682653938951717e+03
1.493230392018670500e+03
1.279878877420137542e+03
8.046054808929065985e+02
1.083465407724739180e+03
1.065474742607634880e+03
1.296597449382712512e+03
1.152867316417410620e+03
6.533230783986552979e+02
7.780058187482475205e+02
9.639153021194380244e+02
1.252951220336448841e+03
1.672144393668174416e+03
1.187529516561090986e+03
8.130225035230058666e+02
6.815454276930147444e+02
6.121886404685091065e+02
4.570016010053626019e+02
4.290489334456917732e+02
2.182156914398495360e+02
4.944898208280541780e+02
5.892815909903767846e+01
-1.494064842093156074e+02
3.344898268476074463e+02
8.176169196064098514e+02
7.880318192561965134e+02
8.667435689571831290e+02
8.437259103339987405e+02
4.619982709383178303e+02
-1.334772836164696912e+02
8.029183963411358604e+01
3.463946644354650743e+02
5.388477016025958619e+02
5.775827856132066245e+02
9.566303708498429614e+02
1.158291145904150881e+03
1.095505911980639212e+03
6.370362080681752559e+02
8.196718291822646734e+02
7.207079869901538132e+02
4.153248178817966050e+02
2.281463020269445678e+02
-2.245517866819265862e+02
-1.131637045556431531e+03
-2.009114707776697514e+03
-2.646991126952827926e+03
-1.909927731897761078e+03
-7.231830437731099437e+02
-1.550734089959417190e+02
-5.505333058219870956e+00
6.975420267503830019e+01
-1.836970503622594109e+01
2.690318338299339871e+02
6.538725552931193761e+02
7.521809050038580153e+02
1.079049971570675552e+03
4.254804882078235551e+02
-1.115312893293141201e+02
-3.720273123732815748e+02
-4.960203983019592897e+02
-4.974719517660721522e+02
-7.632545639317196162e+01
7.749470231704223977e+01
1.729805977572445386e+02
1.930738644258691750e+02
6.387361933070499163e+02
9.019446258863923731e+02
1.066672201894489490e+03
9.109895064863727612e+02
5.109351165667790156e+02
-7.055034387986144395e+01
-4.305061542643580310e+02
-5.719913145987211465e+02
-9.510220873798444927e+02
-1.337506291608038737e+03
-6.644144482129636344e+02
3.512338179862172751e+02
9.844028567816443456e+02
1.118038261743650764e+03
3.681583756851905491e+02
2.668010508374191545e+02
5.149135962212376398e+02
7.547842008351211973e+01
-1.204278741873416436e+02
1.163000620994788079e+02
1.425639261126432871e+02
-4.137433358596173889e+02
-2.116810314381025080e+02
1.627599648443296019e+02
1.435800565968534954e+02
1.488290641511717070e+02
1.574760615130852841e+02
2.855627475385254854e+01
3.100845491396128182e+02
9.312053624982885935e+01
4.036132788283431410e+02
6.304259057383824256e+02
1.065659322416147745e+02
2.700445192828712493e+02
-8.714918969700177342e+01
2.299228074284314687e+02
5.742072081303527966e+02
5.848041384530911273e+02
5.417490510443818721e+02
-2.930009610160010993e+02
-4.205382061116590648e+02
3.814972982077060237e+01
3.020468239090149609e+02
5.811514680834659430e+02
7.620802271137381467e+02
6.170428014572835309e+02
7.830622951541934071e+02
6.010103465192376007e+02
1.237323707608162806e+02
-3.564904966293471489e+02
-3.254925530661248558e+02
-7.381438968457259762e+02
-1.059133505786211572e+03
-8.912128481745381805e+02
-8.964968979689463140e+02
4.087610092436727882e+01
4.201041555755180070e+02
3.306725756048253970e+02
-1.554462992077326930e+02
-9.618681075275405945e+00
3.010344107898906145e+02
1.123395774234640356e+02
1.611732134951107298e+02
1.021861134798077842e+03
1.294417197448504794e+03
7.668987492567176787e+02
4.042546753553750705e+02
8.223688843146170484e+02
1.134229676796255035e+03
1.328999378696025133e+03
1.118442033901747209e+03
8.044792004527124618e+02
7.131810514393232552e+02
6.046033061625164464e+02
9.916660664116189992e+02
8.402975796151581562e+02
1.117513268706551116e+03
1.272354736692799406e+03
8.507472319945029540e+02
1.030588019793095100e+03
1.030875767967896763e+03
9.585787518374552292e+02
1.305548472370615400e+03
1.508695846534539896e+03
1.285258816854612405e+03
1.456052955876652277e+03
1.826938142665442001e+03
1.716911749365821379e+03
1.805028374060017995e+03
1.512216653672882330e+03
9.544655060336779115e+02
3.957311349889923804e+02
3.540152392660817782e+02
4.533379162567202059e+01
-4.992816386462418450e+02
-2.059323647139704860e+02
6.073312018656552027e+02
4.986004380814154047e+02
4.720235098344266476e+02
8.753950664686975358e+01
-1.489896055644761077e+02
-1.759060232679049918e+01
3.107800434003461874e+02
-2.448276895158790296e+02
-2.336330593540053542e+03
-3.889804372671741476e+03
-4.187380047037799159e+03
-3.383039381002476603e+03
-2.675715468220066668e+03
8.746267112218984039e+02
1.376915530114099056e+03
-3.185816145645720098e+03
-5.480495950628435821e+03
-2.380192408118350158e+03
7.139677276140664617e+02
1.460077970644560764e+03
1.436278693484150608e+03
-2.809511291861890641e+03
-4.470260298442822204e+03
-4.271072985685899766e+03
-1.293909613676415802e+03
1.479321787017114730e+03
1.614625500426454437e+03
1.373991478521500085e+03
-2.446548582032776721e+03
-4.363926655790518453e+03
-4.004145414077861460e+03
-3.154144288217441499e+03
-1.232852575208374219e+03
-2.133293002841494854e+03
-3.663467009166304251e+03
-3.650377196515531523e+03
-4.003951566465900214e+03
-2.614081533062304061e+03
1.174169683167067888e+03
1.383736871372966561e+03
-2.618360120315699987e+03
-9.810333168505943604e+02
6.716929526070190377e+02
1.286988385974289258e+03
1.442800578451497813e+03
1.389969825651113524e+03
1.316669245809359609e+03
1.284971892275129449e+03
1.659907070059405896e+03
1.415546324005916858e+03
1.432887172072492376e+03
1.710827386357980458e+03
2.021344065021387451e+03
2.270504612316747171e+03
2.432342024282766943e+03
2.024951908945431342e+03
1.883384074555380948e+03
1.944645659018990955e+03
2.240692466439796135e+03
1.957581324072574489e+03
1.131321573031974822e+03
7.429775222918605095e+02
9.165794871227980138e+02
6.622525384517838347e+02
4.818848281376280624e+02
3.734859162908729786e+02
2.818685747938342701e+01
3.131531696138270604e+02
1.114611948537710987e+03
1.607531146823104791e+03
1.688790629806572042e+03
2.008554231191917324e+03
1.795865234865730372e+03
1.665653338986329800e+03
1.555965209246103086e+03
1.111701163561253679e+03
9.169284503759039353e+02
1.504659964961993865e+03
1.276574488876877922e+03
6.256473559904073909e+02
1.057323605478621573e+02
-7.585511096193785363e+01
6.222875925549608382e+02
9.609083709537250115e+02
5.240810750377630711e+02
-1.210002265710234184e+02
-1.226031588128800252e+02
-3.359372670691358849e+02
-5.908814445304626588e+02
-2.571123883865724338e+02
3.703739049058847854e+02
5.862444027094448984e+02
8.774682579752291076e+02
9.601385654493842594e+02
6.882977824461038381e+02
7.298823088138544790e+02
5.938491591615033940e+02
3.711763172179249750e+02
1.869587414029394381e+02
1.642154250233201083e+02
-1.761610249602557587e+02
-3.491322343612403643e+02
-2.607798595946656519e+02
-8.009286429312739131e+01
8.598719578234275218e+01
8.114254605219254017e+02
4.732065196646095160e+02
-9.762554092536929318e+01
7.399244392425457306e+01
6.040952518958255268e+02
6.286991048618613149e+02
3.217996978114109652e+02
2.733142748387089682e+02
6.902588683110741385e+02
6.246669705908226433e+02
-1.341308099159937406e+01
-7.900351377980276766e+02
-6.071647576952037753e+02
-3.577610534267138860e+02
-7.108918123390621986e+02
-5.376783340314582347e+02
-4.451617388118569920e+02
-4.143613621045879540e+02
-5.731783734311572971e+02
-1.206379498634157244e+03
-1.238920450850639781e+03
-5.630704218981317126e+02
-7.659395558809280828e+02
-2.379387003757093225e+03
-3.621312248139657186e+03
-9.456506749540293413e+02
3.477536929652404751e+02
2.338548056632943144e+02
-3.036312982085235944e+03
-5.734926750636609540e+03
-6.734927719695006090e+03
-7.211207696315489557e+03
-7.305743290400518163e+03
-7.006496016480628896e+03
-6.915558200332551678e+03
-7.315869112460333781e+03
-4.530347448881026139e+03
-9.821171482665387202e+02
-1.802195114431361162e+03
-2.737455533870134786e+03
-1.493916796508528705e+03
-1.535097854936151691e+02
7.598097513586650393e+02
4.890768041614695107e+02
1.712328263002074209e+02
4.132122116162024668e+02
3.950555512154992357e+02
7.288827882759793511e+02
6.107622123323700407e+02
-5.235189248699644082e+01
-6.285384257667186603e+02
-7.017038200779991257e+02
-2.208235380403503711e+02
3.320255027697557466e+02
3.048427555785081040e+02
1.917657234450599901e+02
1.437532793078395912e+02
-1.772174572010507632e+02
1.079155289148498724e+02
5.901884218291934303e+02
8.554684813626515734e+02
1.260765309553629777e+03
1.383108770172988670e+03
7.025129587487294884e+02
7.740152400765798575e+02
1.058551961954326543e+03
1.677063921495186150e+03
1.972478519015012580e+03
1.708759097110643097e+03
1.381954696469230385e+03
1.343152451065044488e+03
6.012354708499623257e+02
-2.918910100790261595e+02
-4.542134736955528069e+02
9.822535103318479059e+02
1.651441736556557771e+03
1.420357277202009527e+03
1.297044873806640226e+03
8.364905163628300215e+02
6.676156704556461818e+02
5.053642512598332246e+02
3.887814383855113078e+02
5.788550054335930781e+02
9.384724796893854091e+02
1.833587950845700561e+03
2.305124875154082929e+03
2.169936424222506048e+03
2.195988514728805512e+03
2.049378561094380075e+03
2.043990802147748127e+03
1.996812456970447101e+03
1.345753634351199707e+03
1.268737065449872716e+03
1.063762104886202451e+03
8.407510756353008219e+02
6.977174520986144444e+02
6.175474833574694458e+02
3.661411170340993522e+02
8.344469315419664781e+02
1.020410619897118295e+03
2.329939348977603004e+03
2.425939190854476692e+03
7.214296427567738874e+02
-3.265433580291744420e+03
-4.970914411840849425e+03
-4.409209978565955680e+03
-3.177333502910212246e+03
1.168752875962357848e+03
3.044946610900040923e+03
5.480794667787577055e+02
-2.866005018342191761e+03
-3.317517510866290650e+03
-1.967361470480125945e+03
2.156385995395344708e+03
3.071582987233738550e+03
3.440108622405823098e+03
1.503908577021213659e+03
-2.819936170652641067e+03
-3.583440539328322302e+03
-3.857785422378750809e+03
-3.524954960243719597e+03
-3.207883096173542526e+03
-3.245618550796512864e+03
-1.030297008507975988e+03
7.449006652060262468e+02
-1.220152166954620498e+03
-3.380475279742623570e+03
-4.156099376775365272e+03
-3.186050123641790833e+03
-2.743243556502523916e+03
-3.017711024020966761e+03
-2.746509907913439747e+03
-1.591856265158801762e+03
-1.017817095604124461e+03
-1.372355389527091120e+03
-1.232556805564762271e+03
-1.223441596571439277e+03
-1.486034843600308022e+03
4.016252053158804074e+02
4.062484930136871299e+03
4.602516838503101098e+03
4.025712247590722200e+03
4.161059315018165762e+03
4.526493929850365930e+03
4.333901369610941401e+03
4.263252326141993763e+03
4.155573187970888284e+03
3.738886016446295798e+03
3.891075568989705971e+03
4.118140244850668751e+03
3.580158533239495227e+03
2.303974318521774876e+03
1.593447596766505512e+03
2.538750491568491270e+03
3.364975963055957436e+03
3.076069583135662015e+03
2.185884096805715672e+03
1.780308429506713765e+03
2.069405520368670750e+03
3.368397321619299873e+03
3.507383126243703373e+03
2.601466044113271437e+03
2.371560219896475701e+03
2.030448898800319512e+03
2.080210044674360233e+03
1.506658187864368983e+03
1.353958269741478716e+03
2.592426978047959892e+03
3.177047868467118860e+03
1.906391969118715451e+03
1.653403516440919020e+03
2.750260599994668155e+03
2.887071174204142153e+03
2.993387483233032071e+03
2.206829759608272525e+03
1.499293773057698445e+03
1.041683054739292402e+03
6.390346736430952888e+02
9.056292956299442665e+01
-2.806010646049099932e+02
-4.070906581670218429e+02
-8.099777301064909807e+02
-1.020518772450914526e+03
-1.142732516171081215e+03
-9.575921232466066613e+02
-9.178080945505569161e+02
-1.311228939728678824e+03
-1.052809066836744250e+03
-5.734358723975741441e+02
-6.104243163870846729e+02
-9.180584778712335492e+02
-1.729073658231601257e+03
-2.053079030231728211e+03
-2.717443835165283872e+03
-1.665133742660502776e+03
-1.348014627368929951e+03
-3.132956065791162473e+03
-3.526885077206247843e+03
-2.836724526150941074e+03
-2.353361869188031051e+03
-1.357767796799793587e+03
-5.027506450720787257e+02
-1.360252117141888448e+03
-1.965252173159281028e+03
-1.790662177115014629e+03
-2.029423957352701564e+03
-1.901444435135888398e+03
-1.348638043530993855e+03
-8.708863701272194930e+02
-1.097055834878096675e+03
-1.357124100525026506e+03
-1.609962258020141917e+03
-1.835452363816916431e+03
-2.418569248434373094e+03
-2.145319552655582356e+03
-3.564575370805890088e+03
-4.595189304682178772e+03
-5.569049713899817107e+03
-7.041027179632347725e+03
-8.014075328673750846e+03
-7.423130486415510859e+03
-8.443072492889319619e+03
-8.042773427780766724e+03
-6.630149563938079154e+03
-6.362056499005927435e+03
-5.279413957749054134e+03
-5.361102693885502049e+03
-4.567997413342522123e+03
-2.670224355161878407e+02
2.125819866331616595e+03
1.420655059667422620e+03
-1.477304247218441787e+03
-5.074935608085472268e+03
-5.044133405384949583e+03
-6.895850149332246474e+03
-7.639994546051873840e+03
-2.347332878092234296e+03
1.557266402197216394e+03
6.568285025162003876e+02
-1.915509190955473287e+03
-2.839618590384704476e+03
2.115785759535282011e+02
2.217203803146429891e+03
2.204374388564655419e+03
3.062194009916393043e+03
4.244780636790496828e+03
4.722254095885351489e+03
5.051734260420626015e+03
5.180340800088747528e+03
6.035179737971666327e+03
6.928329657766254968e+03
7.255907159668423446e+03
7.870007066642781865e+03
7.705742539608614607e+03
7.161219631257302353e+03
6.732492462345625427e+03
6.242614837143332807e+03
5.413587811486878309e+03
5.091639257595604249e+03
5.777881365671182721e+03
6.052354060434532585e+03
6.569104713186604386e+03
7.313282780225758870e+03
7.035969050699192849e+03
6.716200203515139037e+03
6.851031517590300609e+03
7.435621795322153957e+03
7.916039003170499200e+03
8.156363473331944078e+03
9.192676204386019890e+03
1.034101375623835884e+04
1.015244388394900488e+04
8.733059609197165628e+03
6.670911660187757661e+03
5.263012589573829246e+03
6.325352790478649695e+03
7.898068936247253987e+03
6.771161145388160548e+03
3.727628112099112968e+03
1.730602520412595595e+03
3.552008779350703662e+02
-1.555107986881425290e+02
1.239174132843631469e+03
1.965386827738929696e+03
2.768256261764470310e+03
1.777007323291177272e+03
9.266555376560621653e+02
1.000306888843021397e+03
1.387032496643177183e+03
1.947858785882834127e+03
4.767912372146537336e+02
-8.841868477556899961e+02
-1.513849950167423685e+03
-2.677523827697160868e+03
-3.749605351172512201e+03
-3.854889424718361170e+03
-4.767308430676474927e+03
-5.117055077077540773e+03
-5.238120936361367967e+03
-4.538522751863806661e+03
-4.394252994815855345e+03
-5.546220986118839392e+03
-6.232523950426690135e+03
-6.642214887494978939e+03
-6.314264085996717768e+03
-6.454550813734767871e+03
-7.786070228151459560e+03
-8.088998618060330955e+03
-7.636438848624289676e+03
