-3.218805982416997267e+03
-2.885866590021977572e+03
-1.849412059130240550e+03
-1.003587485862283643e+03
2.336305400306308968e+02
1.442205925129407888e+03
2.754123433051291158e+03
3.437343542633345805e+03
3.590884643971840887e+03
4.310628974627888056e+03
4.688635755377073110e+03
4.510732679497376921e+03
3.897664799218131975e+03
3.241685699392658535e+03
2.569847607991324367e+03
1.726147471600537756e+03
2.311306732957746704e+02
-7.884355169304189985e+02
-1.450810058462956704e+03
-2.106814404424582790e+03
-2.135159030760270525e+03
-1.654467479739942064e+03
-9.766376326669312675e+02
-3.364213317078460364e+02
9.326289060940703166e+02
1.795806294211847899e+03
2.571671523655212695e+03
3.569546400580300997e+03
4.367100717346650526e+03
4.891372660872147208e+03
4.996349430985241270e+03
4.512864345940881321e+03
3.802807875452788721e+03
3.159184891128893014e+03
2.168892463366941683e+03
6.338993488537233816e+02
-5.451171958500399342e+02
-1.728193810333636520e+03
-2.310532768854814094e+03
-2.592336369980651853e+03
-2.101511363485668426e+03
-1.354573349495951106e+03
-3.432111587496252127e+02
7.994432816958210424e+02
1.714150963694784423e+03
2.304870617092737575e+03
2.949400750024181434e+03
3.716848724482191756e+03
4.246130414850064881e+03
4.521306193523028014e+03
4.508587232877245697e+03
4.318618494520457716e+03
4.072382885598822213e+03
3.398641433246635188e+03
2.768360859258023993e+03
1.645337119665285627e+03
5.774991607135721097e+02
-4.048830420231583958e+02
-1.491112670905751429e+03
-2.113389298397867606e+03
-2.015766514126856464e+03
-1.968261122174510319e+03
-1.441842318480752283e+03
-5.795554141538391377e+02
1.865761840758090671e+02
9.095520501622186202e+02
1.582404624365216023e+03
2.359170194017068297e+03
2.393859694830390254e+03
2.587549679452617966e+03
2.813217308946559569e+03
2.974820739527080150e+03
1.412398597165626597e+03
-3.060928358030274012e+03
-3.782253304194269276e+03
-4.030591526910111043e+03
-4.819870783559002120e+03
-2.725170891509216290e+03
-3.813467119409346651e+03
-7.009764104176219917e+03
-7.173032036112621427e+03
-6.039222758949938907e+03
-2.300238496093944832e+03
-3.025959080007430202e+03
-3.248233717520789014e+03
-1.309651676406997183e+02
-2.699062902253559514e+03
-2.647400839223097137e+03
-1.772823585096710076e+03
3.879368186895550252e+01
2.410621256901375091e+03
-1.621988613944841120e+02
-1.233508398745410886e+03
6.576931610805424100e+01
-3.855283987766777045e+03
-2.096538403215670769e+03
-5.999939618070420693e+03
-5.819311842801737839e+03
-4.861552902400272615e+03
-7.898562322782197953e+03
-5.807200196060468443e+03
-6.356363846042138903e+03
-4.511812007037477997e+03
-4.516330727091548397e+03
-1.065708430092795425e+03
3.342670088982883385e+02
8.967557613410574504e+02
1.748012685577401726e+03
1.900299809864598274e+03
1.626834918038981414e+03
1.449798631640453095e+03
1.551440762958568712e+03
1.691974354167935644e+03
1.226557512329768088e+03
2.063924264985857917e+02
-8.833524525066876549e+02
-2.192488378259209640e+03
-3.219863175050598784e+03
-4.018320865618401967e+03
-4.906639922663985089e+03
-4.977654827935009962e+03
-4.600156089821605747e+03
-4.065929801518173463e+03
-2.966762327804523920e+03
-1.382390774111514474e+03
-4.695411564860265230e+02
2.189420382261912152e+02
1.324402032888420763e+03
1.977010750134560567e+03
2.153223042124975564e+03
2.192328734771416293e+03
2.063487554690724210e+03
1.789958837592523651e+03
1.164449905277010657e+03
3.010117697228076281e+02
-5.494986794881527885e+02
-1.739873426385384164e+03
-2.763977268339581769e+03
-3.592801055521781109e+03
-4.629160422329733592e+03
-3.965938260577665460e+03
-3.792890756848660658e+03
-3.766153274357033752e+03
-2.946602961196405431e+03
-2.329717048094950769e+03
-1.675738842007604717e+03
-8.372902969082814479e+02
-2.059308957723232858e+00
9.953093538594707752e+02
1.871193857959386378e+03
2.309594175662570251e+03
2.450492028310519800e+03
2.597976018056765497e+03
1.837804747232392629e+03
8.539333101452072015e+02
1.483929073516978292e+02
-8.049203098477318008e+02
-2.038066016997842780e+03
-2.801097528920379773e+03
-3.088038999381744816e+03
-3.322872030747275403e+03
-3.187616884668043895e+03
-2.778209311017270466e+03
-1.872631574575917512e+03
-7.818304224391006301e+02
7.021067205144048273e+01
4.474605708726420517e+02
1.023940312869593299e+03
1.682645536780068142e+03
1.997486014375085915e+03
2.534426011886582273e+03
2.634431163907833707e+03
2.019405662279473972e+03
1.169290351293668436e+03
1.709891050586378469e+02
-2.206957118563887263e+02
-2.828631159691969401e+02
-3.126995843456763851e+02
-4.194316956644210563e+02
-3.672440595697194681e+02
-5.422884369146361223e+02
-1.287265959428382871e+02
8.912262775202906369e+02
1.888422162139612283e+03
2.666745174985416270e+03
3.072003433975007283e+03
3.752021957079609365e+03
4.542620612021310990e+03
5.260623518794181109e+03
5.497822239947626258e+03
5.712009131288119534e+03
5.866917981230412806e+03
5.714334929238403674e+03
5.676007286642310646e+03
4.874660337214018909e+03
2.795987533733443797e+03
-1.040322731238845336e+03
-5.290574323535489384e+03
-4.195109274800746789e+03
-5.414609261708036314e+01
-2.863811936429925026e+03
-9.389075598520058747e+02
-1.455170634522473847e+03
-3.113160652112740081e+03
-7.869828809518401158e+02
5.403949423905035474e+03
7.419158426047616558e+03
8.661478208595361139e+03
9.189585750999789525e+03
9.360252344937374801e+03
9.503186293978433241e+03
9.191042890143789919e+03
8.756547733020202941e+03
8.384417929886678394e+03
7.781305047542784450e+03
6.928872281774972180e+03
5.554767251502888939e+03
4.388613578058556413e+03
3.597038300823706777e+03
3.166750606558956861e+03
2.962366354946273987e+03
2.669604472882570917e+03
2.939151385633561404e+03
3.729753857225782212e+03
4.377135487516716239e+03
4.919023357593016954e+03
5.046112122939413894e+03
5.686168703693068892e+03
6.206000374513518182e+03
6.193348832904732262e+03
6.242956246503556031e+03
6.008530148899943015e+03
5.620883477739924274e+03
5.042783613485992646e+03
4.510939405384258862e+03
3.474125412418525229e+03
2.032069676353416298e+03
1.153464577614784275e+03
2.090554710784018368e+02
-7.193938457989399922e+02
-6.761168769787118435e+02
-9.232496229970089416e+02
-1.440969660603135480e+03
-9.064112197311436603e+02
-3.206684160172493421e+02
-2.593029646642713004e+01
-9.922912654917089981e+01
1.835769548051233357e+01
1.627449316617834256e+02
1.777811255836702742e+01
5.037897837681374824e+01
1.133991571724466070e+02
-9.961743671235709598e+02
-1.786403739957009975e+03
-2.346402044322781421e+03
-3.460234881936311922e+03
-4.754035873078041732e+03
-6.084805538982402140e+03
-6.786577813920433073e+03
-7.789442090755973368e+03
-8.480345082844271019e+03
-8.956361451731887428e+03
-9.058468804058416936e+03
-9.019597525032211706e+03
-8.570574625190432926e+03
-7.983328340509174268e+03
-7.956790118082153640e+03
-8.553785053906252870e+03
-1.202916780443908647e+04
-1.216484070195701133e+04
-1.074469448983729671e+04
-6.982549779098462750e+03
-6.939254037719483676e+03
-9.125579785093015744e+03
-1.423246771222424832e+04
-1.592079758239433249e+04
-1.225135914842328020e+04
-1.561806000812777347e+04
-1.719868524687808167e+04
-1.357909242885602362e+04
-1.614506757504335110e+04
-1.357447131194149551e+04
-1.525201518453705648e+04
-1.277541458093130859e+04
-1.325143133806153492e+04
-1.222275515270664619e+04
-1.059908474553402630e+04
-1.019811077617495539e+04
-1.016549608164511119e+04
-9.342932863152556820e+03
-8.306065195495502849e+03
-6.067621918317649033e+03
-6.552227406213793074e+03
-5.546602566721366202e+03
-4.819455156987322880e+03
-5.354527471940972646e+03
-3.233601722410281127e+03
-6.648415254068836475e+03
-4.822677365459731845e+03
-2.894107180435902592e+03
-2.674337144559688113e+03
-2.161987812907763328e+03
-3.785742657719128601e+03
-3.540274209290638737e+03
-3.701248142423199170e+03
-2.279244244531862932e+03
2.560122581868853104e+03
4.046202323560834429e+03
4.979414468029968702e+03
5.587059915789777733e+03
6.249469797243052199e+03
4.716029826409742782e+03
3.527136153759090575e+03
6.396082762929479031e+03
6.887237181110126585e+03
6.070873213878024217e+03
5.384229787284795748e+03
4.674579769296408813e+03
4.482175781072377504e+03
4.506335112472731453e+03
4.593345351938354725e+03
4.594433817429850933e+03
5.088895973926533770e+03
5.956075488812201911e+03
6.933293863192569916e+03
8.592877444508738336e+03
1.001410679173310746e+04
1.029524772086976191e+04
1.032248808080647723e+04
1.123807210507182390e+04
1.153583467057882626e+04
1.149384904528942570e+04
1.200820270532990435e+04
1.172125354469138620e+04
1.119461252496954876e+04
1.045085165249343117e+04
9.465283786415358918e+03
8.155036916595770890e+03
6.858129115190108678e+03
6.225489428656842392e+03
6.313245964334860219e+03
6.321887242705634890e+03
6.360874570783183117e+03
6.553853228409046096e+03
6.830062046302769886e+03
7.503816931297080373e+03
8.231610116831148844e+03
9.128840041441259018e+03
1.014485388342722763e+04
1.067245657095966089e+04
1.081426118732508257e+04
1.080614220684181601e+04
1.023440046651766170e+04
9.589457252992775466e+03
8.714297010466149004e+03
8.012297099332590733e+03
7.043955780165758370e+03
5.257908633106629168e+03
4.194261794439672485e+03
3.617505368723253923e+03
3.344054980783785595e+03
3.118476519931709390e+03
2.743613459292999778e+03
2.855404483333582448e+03
3.357771684186006951e+03
4.085658823957583991e+03
4.454940729924122934e+03
4.964444817251264794e+03
5.414019102026082692e+03
5.301495039259853911e+03
5.366715733872159944e+03
5.602524338316317881e+03
5.179708250401386977e+03
4.511135933462893263e+03
3.222554204017339543e+03
2.531721894539798541e+03
1.304427465253096443e+03
-1.266793997178718456e+02
-1.442886401651799360e+03
-2.483434583201884834e+03
-3.580618191309148642e+03
-4.525744777617581349e+03
-7.247023108549604331e+03
-1.044766640551288401e+04
-1.196993746758720408e+04
-1.105203775621231034e+04
-9.854199568514526618e+03
-9.026632771853364829e+03
-8.819578704909963562e+03
-8.469289164570074718e+03
-7.941983078841026327e+03
-7.956918497874001332e+03
-7.687384394554723258e+03
-7.498570325322917597e+03
-8.895778971212592296e+03
-1.025026499828278793e+04
-1.169933614162755475e+04
-9.658343893473986100e+03
-5.047517194904786265e+03
-5.821139080363715038e+03
-9.082599330287086559e+03
-1.366407812514018769e+04
-1.473982812420726987e+04
-1.430610800902814117e+04
-9.818177798021497438e+03
-1.076421974318087450e+04
-1.247542163931223331e+04
-1.170699736259196288e+04
-1.110612335099605480e+04
-1.093404405050809146e+04
-6.215928763755362525e+03
-1.730990326767190027e+03
-6.824553907567536726e+02
-7.744421429536699861e+02
-1.404173059094186328e+03
-2.474916513796247727e+03
-3.340893046862466690e+03
-5.007342410581966760e+03
-6.144421342097871275e+03
-7.058327706302686238e+03
-7.276329333024074913e+03
-7.154609523872601130e+03
-7.121270748910317707e+03
-6.309424917979269594e+03
-5.308095755257343626e+03
-4.764361900797890485e+03
-3.992335584069995548e+03
-3.188128022470402357e+03
-2.755809311052661087e+03
-2.233361343614728412e+03
-1.594825243491165793e+03
-1.391300407037281047e+03
-1.112875024685757580e+03
-1.100637479043322401e+03
-1.588674643641428929e+03
-2.212070939124104370e+03
-2.798879613592529040e+03
-3.372146226204820323e+03
-4.100924022103358766e+03
-4.555251346697276858e+03
-4.706164889507625048e+03
-4.578642956190385121e+03
-3.884638299793729402e+03
-3.312111348799207462e+03
-2.579991666090815215e+03
-1.601222319897547777e+03
-4.497229564126770356e+02
5.134785140544870501e+02
1.316526788571363795e+03
1.912331117828933429e+03
2.323429079017911135e+03
2.925257296029337340e+03
3.159363187772085894e+03
2.920755008694310163e+03
2.139120170387342114e+03
1.795247828232434586e+03
5.139043895445273620e+02
-3.374352329262123931e+03
-3.277780161293016135e+03
-2.451091099221868717e+03
-1.961015311816245912e+03
-2.174770987852816688e+03
-1.589553140838617537e+03
-1.221841769577838704e+03
-5.402626542451297382e+02
4.300121080455850802e+02
1.527100212024939083e+03
2.394128558420589343e+03
3.217251884539528419e+03
3.803679493421705047e+03
4.361526096611483808e+03
4.840886151353412970e+03
5.180943593155468079e+03
4.812881399894920833e+03
4.245810637894084721e+03
3.648793092541863189e+03
2.327951720812040094e+03
1.538413162998201415e+03
2.812434102801229301e+02
-4.934477701599320199e+02
-7.985655484583663792e+02
-4.840459065491679098e+02
-5.797376477661001672e+02
-3.944298299163723982e+02
5.279610945355991589e+02
1.626601657957029829e+03
2.743693234910811952e+03
3.061355486034922706e+03
4.006711761899928661e+03
4.771869628718442982e+03
5.103905119147983896e+03
5.895909449392249371e+03
6.240984748843209672e+03
5.869250698687886143e+03
5.178711424490287754e+03
4.206434833949538188e+03
3.068472620235592331e+03
2.223772510335731567e+03
1.268412155214282166e+03
7.204214746032741914e+02
5.897494740701655473e+02
1.784178267300677305e+02
7.105026812483480398e+02
1.658044447651719565e+03
3.181120921064972208e+03
4.083795556800840131e+03
5.228103974225606180e+03
5.729022947967350774e+03
6.551574481000318883e+03
7.584853649281889375e+03
8.040835678289903626e+03
8.475440477148718855e+03
7.183654341241010115e+03
7.050451240517359111e+03
6.600819048067591211e+03
5.738613661752137887e+03
5.322789918324519931e+03
4.116225341216897505e+03
2.703851837577575679e+03
1.700466458881695189e+03
1.658186700764939133e+03
1.135812358000989661e+03
1.040309447680283029e+03
1.900565949593274581e+03
3.030607109697634314e+03
3.646671218008778851e+03
3.996395762225452017e+03
4.915586587310436698e+03
5.831910475293793752e+03
7.044508130483563946e+03
7.295457878686111144e+03
7.052922601677760213e+03
7.014525337703324112e+03
6.171709987997026474e+03
5.992875677797726894e+03
5.214762740428822326e+03
4.327756925995287929e+03
2.912218615914142447e+03
1.715587208823436868e+03
9.050420932800575429e+02
1.581234366641255065e+02
-4.209691010972099434e+01
6.710342514389738255e+01
3.215861086827022177e+02
7.353825348280050775e+02
1.130427016586662376e+03
2.451559466738111496e+03
3.139626141078205364e+03
4.125426583968615887e+03
5.027053930863631649e+03
5.604264070736132453e+03
5.987908462774697000e+03
5.270976446705478338e+03
4.437113050469842165e+03
3.373699258505510443e+03
1.898218204183314583e+03
1.023479235616193023e+03
6.355116394734512824e+02
-2.798237511821840258e+02
-1.356409224795951786e+03
-2.461413631387978967e+03
-2.783844886537756338e+03
-2.706899962968798718e+03
-2.747906272441178771e+03
-1.842640123659497249e+03
-1.332082434551360393e+03
-1.360209854285292295e+03
-7.630053711960865712e+02
1.637449879582597134e+02
6.260649815398081728e+02
1.687571280612081637e+03
1.987432989063364175e+03
1.552817041603167354e+03
1.201746119014976102e+03
-6.377500330218785507e+01
-8.277435162222253666e+02
-1.353145591584835756e+03
-2.853910308031946897e+03
-4.509944141404373113e+03
-5.605239492071074892e+03
-6.031749494590408176e+03
-6.496369796566618788e+03
-6.641044059775918868e+03
-6.598657047029580099e+03
-7.473922465323146753e+03
-1.078859471603263592e+04
-1.048960076297388878e+04
-8.803728948865802522e+03
-8.080744591321706139e+03
-5.638514933414605366e+03
-7.570796043530844145e+03
-7.882397713024271980e+03
-9.346108075188418297e+03
-8.831666861369660182e+03
-8.553848774353915360e+03
-7.661446032422580174e+03
-1.131928871606369648e+04
-1.031821206827616152e+04
-1.446399721020176185e+04
-1.842037365010706708e+04
-1.891209729106178202e+04
-1.512790951340534411e+04
-1.740359168921495075e+04
-1.421783704063286132e+04
-1.151136663507884077e+04
-1.036986177212161601e+04
-1.234698558905441132e+04
-8.723441242246024558e+03
-8.289878792826757490e+03
-8.310884624869751860e+03
-4.225186700175799160e+03
-6.669496393485204862e+03
-6.863502555344281973e+03
-6.057864940618685978e+03
-5.395211677650247111e+03
-8.137322939853004755e+03
-6.282914383735283991e+03
-4.520717608515366919e+03
-4.761436881755393188e+03
-5.119782450103106385e+03
-4.534464683386592696e+03
-3.465199045814437795e+03
-2.505748694496378903e+03
-1.703749417652687043e+03
-4.018382026661486748e+02
1.209343407582672626e+03
2.696134722645727379e+03
4.031840402248064493e+03
4.934770056189036950e+03
6.380288053280739405e+03
7.438680617246392103e+03
8.300268431862203215e+03
9.103263929444299720e+03
9.027000044805648940e+03
8.581744284443451761e+03
8.172708667131264519e+03
7.665185927827863452e+03
6.952424902547432794e+03
6.117545428243016431e+03
5.476819842728874391e+03
5.161518581833415737e+03
5.207037716404298408e+03
5.131537353885957600e+03
5.561217079744064904e+03
6.134313171227663588e+03
6.749052511949393192e+03
7.617622866187451109e+03
8.305186289016424780e+03
8.574947380040382996e+03
9.332016698401761460e+03
9.618500931921131269e+03
1.009756481523460570e+04
9.574332370290168910e+03
9.508032702609465559e+03
9.490619382826207584e+03
9.005688373120416145e+03
7.472424917094831471e+03
6.568767709273671244e+03
5.609912526264058215e+03
4.635082741930176780e+03
3.366196843759688818e+03
3.011156786007592018e+03
3.377785748223492647e+03
3.784225252415744762e+03
4.780528178866044072e+03
5.780679454381307551e+03
6.643656474819340474e+03
7.233138122933176419e+03
7.780217581481238994e+03
9.206621363368580205e+03
1.004826073713742699e+04
1.026596092682048766e+04
1.044564886876731180e+04
9.790155225691947635e+03
9.605397719957441950e+03
9.308202163844332972e+03
8.089362131782808319e+03
6.543610218824856020e+03
5.143736623261546811e+03
3.284492132445858715e+03
2.739586373266936334e+03
2.881803798266926151e+03
2.773877544808725816e+03
2.870594438002967763e+03
2.933738303603760414e+03
3.650099839593561228e+03
4.643456288108245644e+03
5.074511686670499330e+03
5.774024677614880602e+03
6.537688853864474368e+03
7.011270771292492100e+03
6.898454290078927443e+03
6.651918385090591983e+03
5.772342529465337066e+03
4.828413124630670609e+03
4.100797935944206074e+03
2.918118170415576515e+03
1.617005670690526813e+03
1.470599950068681778e+02
-1.047139248227279040e+03
-1.672944146772405929e+03
-2.075746120648716897e+03
-2.502937619239894047e+03
-4.219881309658970167e+03
-5.221914839301342909e+03
-9.227395101172183786e+03
-7.488655689172054736e+03
-9.280582937570619606e+02
-2.193976305668697933e+03
-7.921769748972747038e+03
-8.262779177689031712e+03
-7.547316554585102494e+03
-7.226835471733779741e+03
-7.884588334110796495e+03
-8.832716879312054516e+03
-1.005591531588472935e+04
-1.101063554908688457e+04
-1.255428988951786050e+04
-1.353437538495989975e+04
-1.257691104111729146e+04
-8.129398053486943354e+03
-7.397345551574595447e+03
-6.990136573612683605e+03
-6.569132946005357553e+03
-6.298643975125522957e+03
-5.127988879029193413e+03
-3.978436443567406059e+03
-3.513309364585075855e+03
-2.699916966146007326e+03
-1.860563917518447170e+03
-1.235507182376488799e+03
-1.314036670257808510e+03
-1.284470176057109256e+03
-1.102051686730479105e+03
-1.935100363438210707e+03
-2.598870360179073941e+03
-3.122646558417596680e+03
-4.605750389879657632e+03
-6.021548627924981702e+03
-6.873269355227342203e+03
-7.758174572025307498e+03
-8.088528653541573476e+03
-7.707582259591768889e+03
-6.938556335034246331e+03
-5.976567205646066213e+03
-4.841791365461478563e+03
-3.968393128262096525e+03
-2.881479861864552731e+03
-1.977274458840000534e+03
-9.878896209951558376e+02
-3.683659079088513408e+02
1.531798279363399899e+02
4.816315598519630043e+02
3.558905814924162883e+02
2.928601722814430559e+02
-3.775559971253049412e+02
-1.317487129673456593e+03
-2.446045139523266243e+03
-3.374316787554190341e+03
-4.687396853365148672e+03
-5.256378000180914569e+03
-5.143374233745766105e+03
-4.872375390492874430e+03
-4.658370233401759833e+03
-3.898282551193444306e+03
-2.811110064725224220e+03
-1.383821070603811904e+03
-2.503388043651637815e+02
6.283705254576201469e+02
1.408512549272827528e+03
2.495051451992351303e+03
2.979206838493982104e+03
3.209986976361689813e+03
2.755445699507689369e+03
2.256712952832780957e+03
4.191128910803455199e+01
2.041131694069413527e+02
-7.857008287408707474e+02
-9.902822438568579173e+02
-2.144484796296555942e+03
-2.706358591580687062e+03
-2.410821803281579378e+03
-2.591710786129712233e+03
-2.154864551124476748e+03
-1.437129715982367998e+03
-4.982757773812107871e+02
6.568821426118280442e+02
1.829633820858025274e+03
2.479236500024768702e+03
3.408886919499698706e+03
4.340857867031218120e+03
4.919281299236139603e+03
4.807372495251921464e+03
4.965322852615162446e+03
4.723392005908052852e+03
4.238776725597897894e+03
3.625690346314966519e+03
2.694300377614339595e+03
1.059746680831227650e+03
-1.928142337289702937e+02
-6.641968778185829478e+02
-8.481879083884481361e+02
-6.905284814184104789e+02
-5.431008731514940564e+02
2.054049423486163732e+02
1.284201957360581446e+03
2.421543775016937616e+03
3.148659719174042948e+03
3.960767560558865625e+03
4.452263815839313793e+03
5.488379535378539003e+03
6.252359949310457523e+03
6.314475658593890330e+03
6.297898830936734157e+03
5.684818951583425587e+03
4.930451772460879511e+03
4.232999576697349767e+03
3.499696254429515193e+03
2.286698517912396255e+03
1.269162017711521912e+03
7.422519541458771073e+02
3.290429501585996377e+02
1.377713176593753417e+02
4.236885298118287437e+02
1.220905439337181861e+03
2.414622238075340192e+03
2.941042002087559013e+03
3.498286620782448153e+03
4.616578327348733183e+03
5.699140386176483844e+03
6.203190796757477983e+03
6.508921424363643382e+03
6.365404742841094958e+03
6.222764929225388187e+03
6.115207314765701085e+03
5.381837922554175748e+03
4.271753845601973808e+03
3.152013650818804763e+03
1.944738978280559422e+03
3.549764671971973939e+02
-5.942635423554501131e+02
-6.360673875142499583e+02
-7.626117786579741278e+02
-7.671436954092987435e+02
-2.175735790768966353e+02
4.958271620098946073e+02
1.357232565750812228e+03
1.999915971395398401e+03
2.532942107799229234e+03
3.444498205089488692e+03
4.058685860517912715e+03
4.279228431866752544e+03
4.189910991825105157e+03
3.803382890540878634e+03
2.908894096371138858e+03
2.139504598502372119e+03
1.216854062366530798e+03
1.709923789834911929e+02
-1.285760496943125418e+03
-2.390024546634018407e+03
-3.368320124976848092e+03
-3.689863666078678307e+03
-3.714164652041037698e+03
-4.022212818787932520e+03
-3.781548214925628145e+03
-2.511126954058907813e+03
-1.558518406996895237e+03
-1.028402264109674434e+03
-2.800193908332487922e+02
6.461710357979752644e+02
1.465209039243744201e+03
1.650877608442445080e+03
1.878425438941065295e+03
1.830405169466287362e+03
1.586611767288310148e+03
7.583619257939449199e+02
-4.661046231262505302e+01
-8.685178129524172164e+02
-2.509526099167464054e+03
-4.018749130865822735e+03
-4.818272482947188109e+03
-4.953264049277451704e+03
-5.142915946810233436e+03
-5.078281275390237170e+03
-4.511404664194712495e+03
-3.446352804197356363e+03
-2.478235348020565652e+03
-1.607093427277322235e+03
-9.779952479332415578e+02
-8.499806950654907212e+01
5.528566625854674612e+02
4.935243949700603139e+02
1.070882087320317396e+03
1.589858528614434590e+03
4.893820344560145941e+02
-2.825634206488407017e+03
-7.801251039162049892e+03
-1.030556956707202698e+04
-1.146377444094734165e+04
-1.224191794888554068e+04
-1.262610944090056728e+04
-1.294845215190769341e+04
-1.282705255027883504e+04
-1.227802323354307373e+04
-1.127642791836369179e+04
-1.000712711807497180e+04
-8.674197255885954291e+03
-8.220690557657173485e+03
-7.703690926422088523e+03
-5.533118545308783723e+03
-4.500229470557754325e+02
3.180537455120625964e+03
4.219542046025861055e+03
5.330873420187488136e+02
-4.577948199898496568e+03
-5.077572163950684626e+03
-5.441819689280116108e+03
-1.925667541087533436e+03
-5.496223232583087338e+03
-9.005564715626895122e+03
-9.589724689823915469e+03
-9.898775465430258919e+03
-1.018472894418865690e+04
-8.337582932522782357e+03
-2.257291032096475192e+03
-1.618458794655448116e+02
1.599718560947225342e+03
2.269477731358525034e+03
3.162507210240425138e+03
3.806840051394441616e+03
4.344608059954842247e+03
5.049767976124578126e+03
5.431335868206649138e+03
5.338485346235193902e+03
5.384233298563201060e+03
4.721623219066476850e+03
3.770767954114143777e+03
3.153607227237784628e+03
1.552117216395608466e+03
3.393180450743556094e+02
-4.777684468214668527e+02
-1.075021095864290373e+03
-9.754675149250903132e+02
-8.700766875759005643e+02
-5.137263819249054677e+02
-1.443772313665299407e+02
1.016078968660485884e+03
1.712707398099807961e+03
2.168636797768039742e+03
2.608994869155418655e+03
3.215892419469375909e+03
3.646431189967996488e+03
3.763654644657726294e+03
3.835703399687035926e+03
3.505710844739724962e+03
2.880776704842329309e+03
2.211937019049013088e+03
1.279218626468292086e+03
1.876767335484433374e+02
-6.607086377143350546e+02
-1.213771539229608379e+03
-1.664530355369417293e+03
-1.725335864296576801e+03
-1.709069224230117015e+03
-1.317360107560230063e+03
-8.951119927754791661e+02
-3.827827598883329756e+02
4.437854379570446213e+02
7.036250647173853849e+02
1.545871192021287925e+03
2.329652704860865470e+03
2.666082838470837487e+03
2.961313685014645671e+03
2.586425785529262612e+03
-5.454098985180329464e+02
1.501337442697518327e+03
2.034115379575001725e+03
1.049521651910115224e+03
-5.146112582520920142e+01
-1.191838979920430120e+03
-2.116596927291457177e+03
-2.820728539944353997e+03
-2.842225941292882453e+03
-2.659067923196192623e+03
-2.172177212839611911e+03
-1.412482422200796918e+03
-4.639928139876215596e+02
6.033522196731128133e+02
1.483722151821515581e+03
2.207117397004864870e+03
2.934562023728628901e+03
3.390141262150444618e+03
4.029851377247093296e+03
4.389666540170287590e+03
3.932630287907466027e+03
3.179788001816320502e+03
2.179116507215795082e+03
1.358544366836905965e+03
3.199859330757178100e+02
-8.696563558089196704e+02
-1.924466567239194546e+03
-2.230503237611668283e+03
-2.394832600293537325e+03
-2.066531632246843401e+03
-1.922677072502915280e+03
-1.580272136250513540e+03
-5.453642373197475308e+02
4.239692210232573188e+02
1.134651531816913803e+03
1.693622690380452468e+03
2.495855436464689319e+03
3.046257230932632410e+03
3.283777325300510256e+03
3.362311082294513653e+03
2.673792545692649128e+03
2.224156840674207160e+03
1.558326284683876565e+03
4.661106976726753146e+02
-8.956893266203549047e+02
-1.824246462537698562e+03
-2.467639226476079330e+03
-2.927011465329123894e+03
-2.909594543135760432e+03
-2.714573277252792650e+03
-2.517023616508744453e+03
-2.135993079963022865e+03
-1.980573727446804014e+03
-2.891812902355738046e+01
7.998926868709027076e+02
1.722715361568058142e+03
2.307513658692638273e+03
2.758188091266920765e+03
2.928728463579774143e+03
2.110838347423487448e+03
2.274575545981062987e+03
3.138670144903096570e+03
2.727012237619341704e+03
1.893453643965789070e+03
6.688138918601239311e+02
-1.048059827456063886e+03
-2.617344676400621665e+03
-3.528196405749798942e+03
-3.963781329219681083e+03
-3.864209849052574100e+03
-3.305575865669714858e+03
-2.346912932040352189e+03
-1.046313008494756104e+03
2.391354042430958486e+02
1.252410017074757434e+03
1.977531395147361536e+03
2.724412429413865993e+03
3.357025515047206682e+03
4.348303476969633266e+03
4.806210727761448652e+03
4.787716224422129926e+03
4.227857405759635185e+03
3.244522989817806774e+03
2.156613485728312753e+03
1.398078991806806471e+03
1.838273899675578491e+02
-5.491537352039151756e+02
-1.084970020616011197e+03
-1.177672407247665433e+03
-1.392257543652372306e+03
-1.860722138561724478e+03
-1.242033456803567333e+03
-6.810975699447247962e+02
-1.329206741774555951e+02
5.085168223618885008e+02
1.056313347211820428e+03
1.820553985406282663e+03
2.130292600020577083e+03
2.015576053340768794e+03
1.993460827041987159e+03
2.054018077598648688e+03
2.000310591909865025e+03
1.439372891744453227e+03
2.772194411610838642e+02
-6.890762809442063599e+02
-1.433484505016419462e+03
-2.561969551993584901e+03
-3.008491690234545331e+03
-3.399995386244891961e+03
-3.613378077944114466e+03
-3.635526928889562441e+03
-3.517396168917242903e+03
-2.368881810057342591e+03
-1.448767606603805689e+03
-9.309602507817963897e+02
-2.682609698564435234e+02
3.694904713845804167e+02
3.754034602251401225e+02
4.106552198093212951e+02
3.203713800105127234e+02
3.737154614123338661e+02
4.884166294266572095e+01
-1.298118539385028043e+03
-6.723008936631795223e+03
-6.184812843028562384e+03
-6.470381126997674073e+03
-4.553590766171923860e+03
-7.672367611066656536e+03
-7.488579549100720214e+03
-8.880068436265892160e+03
-8.841658064179800931e+03
-8.152088019975826683e+03
-4.044071733743890945e+03
-3.259527250519820882e+03
-4.770634118748196670e+03
-2.941125227661784265e+03
-6.763671062905448707e+03
-2.434222799440186009e+03
-3.001567946299436699e+03
5.684951548233557332e+02
9.310982771063680730e+02
7.004314458961746368e+02
-3.934010850333825147e+02
-4.158262463153369026e+03
-2.469055211104865975e+03
-3.227607833033960560e+03
-4.849797283080612942e+03
-8.682542408139768668e+03
-7.043785439682726974e+03
-8.861373896189790685e+03
-6.462111945451060819e+03
-7.085850486997201187e+03
-5.148438734558438227e+03
-4.816750536098212251e+03
-3.931578395760040166e+03
-3.182781893007767849e+03
-3.706196648663645647e+03
-6.556937171784384191e+02
3.149260190148276592e+02
7.537539329015744443e+02
8.968981613544184484e+02
8.125458290716535430e+02
7.617880167127467530e+02
3.486363421531819426e+02
-9.979146018046849349e+02
-1.988780220082463757e+03
-2.478909182747739578e+03
-3.070324798619388275e+03
-3.303988590858417865e+03
-3.118813209353977072e+03
-2.671747903246061469e+03
-1.611709847902084675e+03
-6.146343968917068423e+02
6.474023950532870231e+02
1.505428067286766236e+03
2.433505432176531485e+03
3.268999975590505073e+03
3.796076188361277218e+03
4.668926914319985372e+03
5.612741637375078426e+03
5.536359055569275370e+03
5.542693377853048332e+03
5.558637850373676883e+03
5.322148669444053667e+03
4.576173416079281196e+03
3.314561173579817478e+03
1.558179466437519068e+03
1.746937041396216955e+03
2.281778705161393646e+03
2.481596778565962268e+03
2.450944198713799778e+03
3.000006571730934411e+03
3.947658743616502761e+03
4.852522866357679050e+03
5.564571541978279129e+03
6.825139088612393607e+03
7.410387633821776035e+03
8.066821509337975840e+03
8.404843702614238282e+03
8.787755660133565470e+03
8.739115399904827427e+03
8.547288149679474373e+03
8.115152389104250688e+03
7.453373225919212018e+03
6.738883236691979619e+03
5.916355296306944183e+03
5.324449320224760413e+03
4.611216035680046843e+03
4.256674406554735469e+03
4.287651206572269984e+03
4.538907728174744079e+03
4.973199764066893295e+03
6.015473415330617172e+03
6.670479162413646918e+03
7.045014017675291143e+03
8.262861818199371555e+03
8.727846149020897428e+03
9.097728928422251556e+03
9.602341307384253014e+03
9.869495758138291421e+03
9.919944289281684178e+03
9.289515786130095876e+03
8.273961649997294444e+03
7.938989223620755183e+03
7.135364619909415524e+03
6.255781029682049848e+03
