2.892866102728215765e+02
-5.102828214549798531e+02
-4.765536060109648133e+02
2.065717281041525553e+02
1.575228272430059405e+03
2.225341778875336331e+03
2.122855832409158666e+03
2.382819365998450849e+03
1.339367243445842632e+03
5.552618588424958546e+01
-5.077727164547025751e+01
1.335474487323894891e+03
2.429166380146572919e+03
2.817310702541468800e+03
2.360112720411667397e+03
1.613633948237983304e+03
1.021872237929978382e+03
2.598008409750769943e+02
-4.075834636081397093e+02
-1.704237316903969258e+03
-2.814163083102532710e+03
-2.844370453118206569e+03
-2.936985180124185717e+03
-1.842947977379999429e+03
-2.588304065423673137e+02
-7.523792535808390767e+02
-3.011452317076049439e+03
-3.447057742048791624e+03
-8.262443585440818197e+02
2.168654288324113168e+03
3.187849486275361869e+03
3.663466407267006616e+03
5.314439197516560853e+03
5.790878246928607041e+03
4.989696187630907843e+03
5.102729580950902346e+03
4.731126060752568264e+03
3.127054839496761815e+03
1.519434834984988584e+03
4.742053111379942152e+02
-1.821772742810257341e+03
-1.693578999506906939e+03
3.367649108149341828e+02
6.534065757219094621e+02
6.654266772195003341e+02
2.036842627938947544e+03
4.434645379575705192e+03
5.512802149653458400e+03
5.670474145727971518e+03
3.920717160116821560e+03
2.318540580827589565e+03
2.081853691442543095e+03
2.468563532235535604e+03
1.021690780784436242e+03
-3.669876408781663457e+01
-1.399596558617524579e+03
-2.957953027483280039e+03
-2.378717457936228584e+03
-2.341939899510953182e+03
-2.587566154108471437e+03
-2.005655294404171627e+03
-2.366227328519431921e+03
-4.008299162226857788e+03
-2.839878939914866351e+03
9.591159216731174411e+02
3.007801729876829995e+03
4.604167133295155509e+03
5.198165344355548768e+03
3.338834825243843170e+03
1.325128972155990368e+03
1.907608565199475947e+01
-3.792618279266484933e+02
-7.238896718170716440e+02
1.151704243944049182e+02
-1.093085933168256133e+03
-2.806722646639342202e+03
-2.927754644058027225e+03
-5.834136623644019892e+03
-1.031385460530359524e+04
-9.961956797587627079e+03
-5.934493592968394296e+03
-3.083511791850455666e+03
-3.796014753757416656e+03
-4.823961073855354698e+03
-4.681347527610073485e+03
-2.162153338000643544e+03
-1.626353904609787605e+03
-1.703926545620868865e+03
-1.305879028372669381e+03
-3.188231683493900618e+03
-1.643986189675510332e+03
3.548332520426183692e+02
3.622146532143477998e+03
4.633005683787517228e+03
2.972401785334111537e+03
9.452700284749302000e+02
7.496099536404392438e+02
1.652482101061207459e+03
9.048449025679170745e+02
3.627117360070582208e+02
-2.438790070168849411e+02
1.139644970840804206e+02
-5.748368267754588032e+02
-2.260224245344948031e+03
-2.138278137307702309e+03
-1.279041204894105022e+03
2.175654206117604019e+02
1.844540589436397340e+03
3.380887542280722300e+03
4.393720247082041169e+03
4.276040239168840344e+03
3.769668726042732033e+03
4.511460015337591358e+03
4.244491776635147289e+03
2.716658323091863167e+03
6.789165800601740557e+02
-1.536635003035625687e+03
-3.458056936846056487e+03
-3.153385909663003531e+03
-2.304681195915297394e+03
-3.290031713260460037e+03
-3.082342213721684402e+03
-4.955686854156734285e+02
4.842766123516975085e+02
1.934220637946192028e+03
2.138238617445912041e+03
1.015243924241722311e+03
1.072290974710517958e+03
-6.336081284469701131e+02
-4.300433296118181715e+03
-6.203163332122318934e+03
-6.300838571612048327e+03
-4.688617283794155810e+03
-4.461541410932707549e+03
-2.789566447994551709e+03
8.863107216048568944e+02
4.509128226314966014e+03
5.258963548229827211e+03
3.040838212351435686e+03
3.019603087895688532e+03
5.325192400541955067e+03
4.175520529605547381e+03
1.948728234482947528e+03
9.898958764213629138e+02
1.938083519246303467e+03
3.529206167170587833e+03
3.799099044449973917e+03
4.110757894471866166e+03
4.300231756201602366e+03
3.327502874136534047e+03
3.217554601049420398e+03
4.452487625239062254e+03
4.181268467629319275e+03
1.466945053501023040e+03
-2.268436782364694864e+03
-3.271814494849117636e+03
-2.017170111638876278e+03
-2.321578715579811615e+03
-3.533302518043566124e+03
-3.006391287539544010e+03
-4.187513873119433470e+02
-6.383807709398747647e+02
9.564257136703770357e+01
2.199336078575543524e+03
1.102738931528140711e+03
5.949674759830483026e+02
2.470834338290415815e+02
1.614097471203277564e+03
2.849703554778158150e+02
4.687062788752871825e+02
-1.634681445704689395e+03
-3.919183519678849734e+03
-3.472799200774078145e+03
-4.955539963513003386e+03
-4.035516194978025851e+03
-1.466687738285602563e+03
3.060881395623197818e+02
-1.581701748462994601e+02
6.241203515761922205e+01
-1.511283839866098788e+03
-1.333243245381687530e+03
-2.619375018176339381e+03
-3.084633869464077179e+03
-1.880055983024005855e+03
-2.110594069214956562e+03
-1.148276325250723403e+03
-2.512036101460526879e+03
3.801193699891043138e+02
3.330569723034763001e+02
6.028281972533114867e+02
-8.435790187532323898e+02
-1.415116737689203774e+03
-2.969771899662967371e+03
-1.123541202434720617e+03
2.105974470945747328e+02
-3.796259796903591905e+03
-5.292134045547733876e+03
-4.447100959680852611e+03
-1.781379518115273299e+02
2.158817607873777888e+03
1.349698987443692204e+03
4.123776260206207098e+02
-1.253307752865086513e+03
-3.065286659826495452e+03
-3.223420875166789301e+03
-5.726854582712019237e+02
4.329386079069054176e+02
1.762463075416069387e+03
5.255995079799590712e+03
6.402694019992007270e+03
4.100604887860385134e+03
2.142235489431260248e+03
1.636643998665341087e+03
1.306278454307944457e+03
1.528260154194762208e+03
2.109298028306257038e+03
3.782470822587331440e+03
3.868835138361423560e+03
1.974274093728209664e+03
6.297534938194320375e+02
-6.687628938843530477e+02
-2.081393276073237303e+03
-2.873046001793200958e+03
-1.938560536388670243e+03
-3.597910647212319873e+03
-5.081662767056591292e+02
2.592448596568147423e+03
2.600087436374601566e+03
2.075193692741555878e+03
1.488562863515969411e+03
1.494886618825727510e+03
1.923133398827566907e+03
2.317225249461624571e+03
1.680987733384699823e+03
2.293425060306260093e+03
2.509119041685923094e+03
1.577070938497997531e+03
9.250954465137235729e+02
3.420865483428018479e+02
6.260087218405325302e+02
6.648738986757400653e+02
-3.424476247665778033e+02
-1.058948725240356907e+03
-1.636564210156514605e+02
1.003686697344181198e+03
1.910827106936756536e+03
2.502770897947915273e+03
2.664433524554377982e+03
1.926782987965603070e+03
1.265893662316301288e+03
1.382766392756662754e+03
1.801322445825834620e+03
1.363448270187825983e+03
1.323130201301676152e+03
1.339337906474008832e+03
3.181057173457338081e+02
-1.242432385566759422e+03
-2.727229772149752080e+03
-3.675366187366395479e+03
-3.260871658399110402e+03
-1.269845194824915779e+03
-8.063822771198537112e+02
-1.108417355857314305e+03
-1.043875729070328816e+03
1.991649809802885898e+02
1.872837650262376201e+03
2.834207689854933051e+03
3.896210866327998701e+03
2.776697162556275998e+03
1.076663460085975430e+03
1.056158046167740395e+03
1.703221190849010100e+03
1.983873319302120535e+03
2.206102521061310654e+03
1.944914986813556197e+03
1.659337528319216517e+03
1.756433819400615675e+03
3.362103841702453337e+02
-3.679409059431048263e+03
-7.059488532511521043e+03
-6.993125491581565257e+03
-7.936298642758193637e+03
-7.678905933003138671e+03
-5.333789500418892203e+03
-2.664049217439564472e+03
-4.679881085448120757e+03
-4.359348464742587566e+03
-2.809370779611602302e+03
-2.679887454901188448e+03
-1.687019023866243288e+03
-1.588653061248018957e+03
-4.319696954993866711e+03
-5.539245358525842676e+03
-3.388201800832933714e+03
-1.314127976778518132e+02
1.940054116427060080e+03
2.537151018007289167e+03
1.607051373741822999e+03
3.862285628204615762e+01
-2.272836633501417793e+02
8.849788364829277043e+01
3.109573983793614502e+02
3.096850702249202314e+01
-9.305363696175340920e+02
-3.247639901437104015e+01
1.474183318829700056e+03
3.183689095229440227e+03
4.100060670409911836e+03
3.598246313685760470e+03
2.787240405566406025e+03
2.057208818639929177e+03
1.558173276647032935e+03
1.451156271303920903e+03
1.613149559832221712e+03
1.298011550614568250e+03
1.344766416678478663e+03
8.545242995898505569e+02
3.342508728569717391e+02
-6.026202605695854864e+00
-8.911315058540590144e+02
-1.322267201678479069e+03
-9.016957078916351520e+02
-4.693381864252886544e+02
-3.051553124005786231e+02
-3.902258026124630419e+01
6.028919471685136244e+01
3.688386395041367791e+02
1.027664254375669543e+03
1.450719396156633820e+03
1.940078978690424492e+03
2.573652048908854340e+03
2.436608273175253544e+03
1.744015683593634094e+03
9.817670224937705825e+02
7.581168906425010618e+02
6.942467377347998081e+02
5.958562920388353632e+02
3.376007560264228005e+02
-1.905573823855929447e+02
-7.993918667019439681e+02
-1.508787525161690610e+03
-1.309619318384747430e+03
-9.940481175828622327e+02
-8.160114179415467106e+02
-4.683887160907837028e+02
-1.171512385504956484e+02
1.018924430914686639e+02
3.385485738390345887e+02
-2.060736480911736521e+02
-1.232205766989344511e+02
4.510373702919685002e+01
-7.292507864766160708e+01
-3.512840049966152378e+02
-5.501101271133039745e+02
-6.454765901581772596e+02
-4.782567723916088198e+02
2.225472356702375123e+02
2.179239269544484614e+02
-3.791459154056607304e+02
-7.065954652467793267e+02
-7.703076040136764959e+02
-1.232393103990013060e+03
-1.639895769940542095e+03
-1.752882954188962913e+03
-1.365397952438401035e+03
-5.764397067081821433e+02
3.680162097200899893e+02
6.000752245590120992e+02
1.277914243929661779e+02
4.640549745787920415e+02
6.589423600143115891e+02
9.135715112768202744e+02
7.229976963417472007e+02
5.062433306721422355e+02
1.083319469576144911e+03
1.362070956714112754e+03
8.274057141466163330e+02
1.914717888691261578e+02
-2.618197288278449832e+02
-1.523688677888469101e+03
-2.086009792015823678e+03
-1.919908937008017574e+03
-2.073298981526022999e+03
-1.888111444049873853e+03
-1.332405558114791347e+03
-3.870222725399547130e+02
2.562790458156517275e+02
1.076392828497873779e+03
1.231179831724337191e+03
1.063505454592477008e+03
8.914116855961266310e+02
9.197159404983472086e+02
7.862005750555315444e+02
5.567660871730652161e+02
6.136215422465584197e+02
2.189440332325417273e+02
-9.340757121977050303e+01
-6.026366772023238809e+02
-1.054547203780231712e+03
-8.690319208242567584e+02
-4.041834990055897379e+02
-5.021633210749013188e+02
-8.120893840453364874e+02
-7.398952875630294557e+02
-1.009576626602532656e+03
-1.560108545948795609e+03
-1.588416304582602379e+03
-1.208589137373175163e+03
-1.008761625540221871e+03
-8.038117707550514979e+02
-5.045254768588882825e+02
1.089196276512604072e+03
2.745069602648175078e+03
3.760753383840929473e+03
3.733656376078174162e+03
3.164786232883162938e+03
2.525022251674837207e+03
1.706079534854752637e+03
6.470632240483485020e+02
-3.822263616440699820e+02
-7.439007268834936895e+02
-7.765421388536502718e+02
-8.855092091197915352e+02
-6.366913138254541309e+02
-8.013061596771493669e+02
-5.409299432936809353e+02
2.192651414938796961e+02
6.833718452674349919e+02
1.574572992946153818e+03
2.323408215387993096e+03
1.539242590695541139e+03
1.417653470746488665e+03
1.309620789407162647e+03
1.484070227742081670e+03
1.890301241428567437e+03
1.354078548980585765e+03
8.334698642620605824e+02
5.713333058383856269e+02
-1.823541250555211093e+02
-8.445032158925885142e+02
-1.291193085172332303e+03
-8.814427256741681731e+02
-5.003922309194822446e+02
-3.449312595190755815e+02
-1.314466434557345735e+02
1.298417720352126935e+03
2.337437576181542227e+03
2.470981247463750151e+03
2.085740394735686550e+03
2.128060613473340709e+03
2.109475647251611917e+03
2.291206020658260968e+03
2.122575296610634723e+03
1.454353711502800934e+03
1.257311033510799689e+03
2.067106058826590470e+03
2.234804012362765206e+03
1.841641062712531038e+03
9.956539659126508468e+02
5.108808516085199471e+02
1.913658383840909778e+02
-2.579844822791227443e+02
-4.744239527929703968e+02
-4.388743125119321462e+02
-5.553795719944608891e+02
-1.621350714059172446e+02
7.200230767160364849e+02
1.870395971467584559e+03
1.425026391147241839e+03
-4.081558305411720653e+02
-1.803189449334542360e+03
-2.945102467998063275e+03
-2.993917958764759987e+03
-3.037763452798801609e+03
-3.056485533015991678e+03
-3.218973558253196188e+03
-3.161266142795259839e+03
-3.480259800193539832e+03
-5.178905053821616093e+03
-5.653191013983612720e+03
-5.199227761618759359e+03
-5.524797832392203418e+03
-5.470305706350953187e+03
-5.131821856791033497e+03
-2.275113368835145138e+03
1.562937009887449221e+03
1.924362709595593515e+03
3.821576389413808101e+02
-2.429674361775639227e+03
-3.406102991624091374e+03
-3.371031346083030257e+03
-3.352499677945696021e+03
-3.424503334119140163e+03
-3.074003716769693710e+03
-3.115934038915010660e+03
-3.420243081353715752e+03
-3.544964303230722635e+03
-3.894023906244365207e+03
-4.121291405529354051e+03
-3.508808829664456880e+03
-3.666968141607122220e+02
3.050486452650877141e+02
6.794468030916657426e+02
5.345202643727265013e+02
1.018328095052680055e+03
1.291030148916959888e+03
2.024691347099080758e+03
2.422285687685079210e+03
2.981789481210529175e+03
3.304308164860873603e+03
2.856880558179419040e+03
2.828519668498189731e+03
3.080344601168196732e+03
2.844439603052686380e+03
2.519787505444325689e+03
2.629431495180378079e+03
2.293276460198606856e+03
1.660212921816244489e+03
1.385385008787174229e+03
1.437883337769731270e+03
8.786947548149300928e+02
5.697348289798775340e+02
5.769582195151180031e+02
8.564295442086189496e+02
9.871413792736753976e+02
1.214319251958949280e+03
1.689055265597968400e+03
1.964290848801088941e+03
2.151974255292462658e+03
2.238110674828069023e+03
2.082685112878187738e+03
2.210832450456675815e+03
2.340745433411663726e+03
2.503373257875172840e+03
2.706871804223667823e+03
1.980534549342550463e+03
1.143414012716834350e+03
1.353266509534842271e+03
9.071952173094625778e+02
1.992285404302728296e+02
-5.246431767409560507e+02
-5.397626650814265759e+02
-2.580830016863807828e+02
-4.366575256570604893e+02
-2.653710222420192508e+02
-2.590984115191849924e+02
2.582022408068077652e+02
6.466555817667662041e+02
5.591970615053094207e+02
1.129871696621517913e+03
2.280539356997826417e+03
2.150024943076299223e+03
1.380386926862256814e+03
8.626735353772616008e+02
5.581662701650145664e+02
3.308066654887734899e+02
7.173895642711180471e+02
5.998031921760461955e+02
1.690320723498414566e+02
1.601101439305489578e+02
1.280762581346412503e+02
-5.151903371158365417e+02
-4.018298799518011037e+02
-5.549332022042146946e+02
-4.753918950813671813e+02
3.790346930231395817e+01
6.419895846323457818e+02
1.577909233335098861e+03
2.184609445600770414e+03
1.967097798647824220e+03
1.687324965139716141e+03
9.303145457500728526e+02
9.899975929170459494e+02
1.333385569972428584e+03
9.044749859833199253e+02
9.272507688751484238e+02
8.967332560042048044e+02
5.129065877145424110e+02
-2.203366999216939632e+02
-8.630207499426282993e+02
-1.001142658245599478e+03
-1.135782443131962054e+03
-1.532954406286502490e+03
-1.480674843484199073e+03
-1.616961558987784883e+03
-1.029861041427842792e+03
-4.604223300847597784e+02
9.733236943388064333e+01
5.355135273154517108e+02
8.201326594615247814e+02
1.053159664691924945e+03
8.945292464501287668e+02
9.952354611316559385e+02
7.421971276603251226e+02
-6.545870523841373370e+02
-3.136120957909321078e+03
-5.541403500913436801e+03
-5.863441689742346171e+03
-5.776327542843006995e+03
-6.819097355672903177e+03
-7.299768091124732564e+03
-7.170372882027584637e+03
-7.276946778165490286e+03
-6.632528772075540473e+03
-3.343188389100946551e+03
-6.588633638516547535e+02
6.205026183392601524e+02
1.510862355665075256e+03
1.849137808979483680e+03
1.874366878717221198e+03
2.051535779890799859e+03
2.140627762765260286e+03
2.137560026714495052e+03
1.597237340353484342e+03
1.573678477655680126e+03
1.176955070475009052e+03
7.970457742029705059e+02
4.328994126260554935e+02
2.445181760770669541e+02
3.186770558981660173e+01
-3.270771884548652224e+02
-4.743609648150415978e+02
-5.960658202641249090e+02
-4.342727208199565325e+02
-2.892271961195802987e+01
2.970940738973455950e+02
7.266813756346592754e+02
1.285840708239384639e+03
1.707539496351130083e+03
1.771827037181331434e+03
1.793708081941294722e+03
1.933115262646402925e+03
1.657082972862886663e+03
1.467612029476577163e+03
1.283663842141329269e+03
1.084249473369999350e+03
1.498478265831113276e+03
1.212333363142309281e+03
1.072742737906422690e+03
3.686861828418740288e+02
-8.682652706329903936e+01
-4.528460089297664695e+02
-2.654544594910444744e+02
-1.866376593170182900e+02
-1.283563568805959392e+02
4.124587378607386654e+02
6.888369330356548517e+02
5.687943362997694976e+02
5.762962622057600584e+02
4.083963028277045737e+02
8.701066720930053862e+02
6.824056252884585092e+02
7.833325889226524623e+02
1.184891765089476621e+03
1.062076020413816877e+03
9.998953201670085491e+02
8.063009422855501498e+02
6.553308089107587193e+02
1.330741621205191336e+02
-5.164966974018694827e+02
-8.794358618170344926e+02
-7.666995385234465630e+02
-6.832003042401356652e+02
-7.699997005331940727e+02
-8.550944918427289849e+02
-4.473901085635553727e+02
2.971183066317919952e+02
9.164024147460826271e+02
3.163644700683391875e+02
-2.502005359517964280e+03
-1.408685369479546353e+03
-7.724755657630457790e+02
5.576846446776871744e+02
1.316792629509058315e+03
1.380833632014078830e+03
6.786500819986206068e+01
-9.171360492960518513e+02
8.078548117643201749e+02
-1.462199669559811127e+03
-2.378273031660930428e+03
-4.328337502664840031e+03
-3.369357301442342305e+03
-2.771383930498718655e+03
-3.208459031847852202e+03
-1.596531613205122994e+03
-3.080605447645139520e+03
-1.620679634990747445e+03
-2.922618083161218237e+03
-2.126408454389520557e+03
-2.104044929018140010e+03
3.125106256459447991e+02
1.066264846070789190e+03
1.118269721417989786e+03
1.230532982691256848e+03
-4.849407779223335524e+02
-3.961006734826029856e+02
9.050688899818021582e+02
1.130598810809803581e+03
1.141420720401914878e+03
3.424576512691415360e+02
-1.017245014426680882e+03
-2.196779209695395139e+02
-1.871930695898322028e+03
-5.100180417273215880e+02
-2.386896610347255773e+03
-9.644439415964527598e+02
-1.849608825180497433e+03
3.435862586531789589e+02
1.620146797567734893e+03
2.138144519392129041e+03
2.208636850522197619e+03
2.156569934924747031e+03
1.980918634592574335e+03
1.970669621847069038e+03
2.186845415298609169e+03
1.891443355352925209e+03
1.551434308949907745e+03
1.414876611479102849e+03
1.160803503207216181e+03
6.871982900824482385e+02
1.520501883785820780e+02
-2.406831460728923560e+02
-3.921006437353408955e+02
-3.742771719580778722e+02
-6.821093317975326897e+01
4.942568164832295565e+02
6.272731902023941757e+02
8.937652245585525179e+02
1.309617583997392330e+03
1.419982889307686719e+03
2.109956908685405779e+03
1.912508989926253889e+03
1.039650546159887199e+03
8.942503080715906663e+02
6.983049716081621909e+02
7.859598513028523712e+02
1.075133005025579223e+03
1.359733019189055540e+03
1.203816120479218625e+03
6.563763241894006342e+02
9.382783720145472017e+00
-1.054102578788861990e+02
-3.260138506832808503e+02
-4.433359555422498488e+02
-3.324798937762344622e+02
-1.054418150173006374e+01
2.545253762983055879e+02
1.067918743384962681e+03
1.488635511510376318e+03
7.915847647021070088e+02
5.607015221399714164e+02
5.129962735812730443e+02
5.074380257631504492e+02
9.530328107939081974e+02
1.705794214411290795e+03
1.733617941994171588e+03
1.462469780150422366e+03
1.379096140161448375e+03
1.140792750601840225e+03
5.844349753243959640e+02
-1.062111873058959191e+02
-2.302496329542606475e+02
-2.169881034143143950e+01
2.153009232842914287e+02
1.397382639160769315e+02
1.485699627528993858e+02
6.579002672475070312e+02
1.118889766336426192e+03
1.685505131426524258e+03
2.220649063362792731e+03
1.867324777186959409e+03
1.887574154131248633e+03
1.596264727043739640e+03
1.378328935413047702e+03
1.435734886108300771e+03
1.587486682500524466e+03
1.574517414141051859e+03
1.464822578140051064e+03
1.186409320787799061e+03
9.482913305512278157e+02
5.324666212671085077e+02
3.879187571863417361e+02
5.560930718716561216e+01
3.346979061677553346e+01
-2.824004291080175904e+02
-1.281873096604973625e+03
-3.184972453473043061e+03
-4.623838508775716946e+03
-4.145553611506535162e+03
-4.238131148648301860e+03
-4.360619235173371635e+03
-4.326037779569686791e+03
-4.189231531350210389e+03
-4.407245694913447551e+03
-4.690174824580472887e+03
-3.568884981302937376e+03
3.687142340712451301e+02
1.403597164724679715e+03
-2.006265253844016797e+03
-4.967954541775060534e+03
-5.586610789595736605e+03
-6.085946525097411723e+03
-5.105020537995632367e+03
-2.978987219402255050e+03
-4.931908967181799198e+03
-5.756590331057643198e+03
-4.948035283626957607e+03
-4.448256927204109161e+03
-3.544173329702213778e+03
-2.997786286685990035e+03
3.986413545047568618e+01
2.025820484805600699e+03
2.845084825811940846e+03
3.007538558956749057e+03
3.051195844664223387e+03
3.123231200747150979e+03
2.934633672601186845e+03
3.165426496617991234e+03
2.596700101857179106e+03
1.368410355523611315e+03
9.855856949272058500e+02
6.641991211203622925e+02
3.712513651345529979e+02
6.367501920162501392e+02
4.506368834693039958e+02
8.689417267591659311e+02
1.206756319309239643e+03
1.643111881651430849e+03
1.801145457665134472e+03
1.737809215094372576e+03
1.675112172640086783e+03
1.720214443493754061e+03
1.553188456658034283e+03
1.724977569324860951e+03
1.651587578538326170e+03
1.663160360799508226e+03
1.829757570293774506e+03
1.376379691044066476e+03
7.700184433775773414e+02
3.745991456947547817e+02
4.801678187697498288e+02
1.567967794636890915e+02
-4.436469853409559505e+02
-8.901382172886729904e+02
-3.215454625576044805e+02
1.581548821006078072e+02
3.820214469440850280e+02
5.330852967248914638e+02
1.145423713348442107e+03
1.045980511704345417e+03
1.030819669020540459e+03
8.982202767979705413e+02
8.543869184148139766e+02
7.602529196892492109e+02
6.295605166970073014e+02
5.185498106854329308e+02
4.194372464194569261e+02
4.501967237440098302e+02
4.518065848209687374e+02
1.743879599337713273e+02
-7.730458024571487385e+02
-1.690933825705110849e+03
-1.064973178648056091e+03
-4.757990481759821932e+02
-8.536913377636246878e+02
-7.036871015248375443e+02
-3.698889232362451480e+02
2.137043703222304600e+02
3.812532927813816741e+02
2.477811918519650192e+02
-5.580780955440728519e+01
1.243707267284676590e+02
4.983636394803714325e+02
7.542140635978547607e+02
8.579382024195012946e+02
6.856417386617168859e+02
6.114039702719531988e+02
7.281990949538035238e+02
5.453426095787276608e+02
-2.281144972311016659e+02
-8.075154149133868486e+02
-6.029808865318709650e+02
-6.814873706970997773e+02
-6.861074725393679046e+02
-8.950087015813084008e+02
-8.122065769575319791e+02
-6.085800398915323512e+02
-2.639676632160775966e+02
5.777209026013225639e+02
7.986755010610783074e+02
2.989928967766954884e+02
-7.643605016153371423e+01
-8.086046942887081457e+01
2.456689111260658649e+02
4.323363274954975282e+02
4.809880559635767128e+01
1.109771512841436163e+02
-7.155791992569367821e+00
-7.103386617211642715e+02
-1.556559556710871902e+03
-1.709818951380424778e+03
-1.578100119344478571e+03
-1.435468706673945462e+03
-1.166763508734570905e+03
-1.229049383802067723e+03
-8.367068000037679667e+02
-4.346770132615359898e+02
-5.983963645896254491e+01
3.038167522030838086e+02
6.851994044431943394e+02
5.783099809680098815e+02
3.532899661661530217e+02
-1.299572995688793924e+02
4.851876394660008174e+01
8.278838000573250611e+02
9.408556840798389658e+02
4.981755127126144771e+02
-5.704392896521664369e+01
-1.458210090902267666e+02
-8.773387249896576350e+02
-1.487285154705556579e+03
-1.239347363531499241e+03
-1.022018384494759857e+03
-1.224573865945048965e+03
-1.419133611073715656e+03
-1.530769795396097606e+03
-1.981947115036337664e+03
-9.678058013274735458e+02
2.307025032064334766e+02
1.192526670797632050e+03
1.513620250510148935e+03
1.941720293493137206e+03
1.609936295276922237e+03
1.833213255129594700e+03
1.632373966760046414e+03
1.394755616237724780e+03
1.671095467462657325e+03
1.841606738832006386e+03
1.549987997573376333e+03
1.026094027722493820e+03
6.791562730394008440e+02
5.994796583588786234e+02
3.199206084234289165e+02
-7.879269595492246481e+01
-6.452423429317205716e+01
-2.478619637992252933e+02
1.502299319049020880e+02
8.664443739546863981e+02
1.217997019429650209e+03
1.413279263111692217e+03
1.692103414679596881e+03
1.878227681850173212e+03
2.045434115092680941e+03
2.619546211970749027e+03
3.170793375800932608e+03
2.680554034602194406e+03
2.381774636313338760e+03
2.104355562463588740e+03
1.919167459056684038e+03
1.235143316726322610e+03
-3.591640077989889335e+01
-6.727145525577550416e+02
-4.556331548508308629e+02
-7.127590547179734131e+02
-8.431974925756579751e+02
-4.750417913467327367e+02
4.562022340222284811e+01
2.499895140345260245e+02
1.326060816070043984e+03
1.883727331799964304e+03
2.221023019623569326e+03
1.884153838156164056e+03
1.214239728379762028e+03
1.272377547494329292e+03
1.588156899688604199e+03
1.951486463771174613e+03
2.577472484491102023e+03
2.644198792051875898e+03
1.971794372783961080e+03
8.221940749095169849e+02
4.216496358286342172e+01
-2.824395033670375597e+02
-3.883307769356869699e+02
-1.489306575680098831e+03
-4.611473469617263618e+03
-5.225288145239912410e+03
-4.486682504096268531e+03
-3.811537247930782087e+03
-2.788511869565907546e+03
-2.975451709824938462e+03
-3.544630688889386875e+03
-3.821073679029197592e+03
-4.086686751479981922e+03
-4.477435517751991028e+03
-4.781297025684824803e+03
-4.607388874562190722e+03
-4.175857512633606348e+03
-3.583673921280646027e+03
-5.449379730180008892e+02
1.699667395844547173e+03
1.022402463447441164e+03
-3.137714866019513920e+03
-5.916703334447287489e+03
-5.400762676824624577e+03
-4.431065983333104668e+03
-4.298420781802449710e+03
-4.222590499493917378e+03
-4.031546757806479945e+03
-4.248254160968231190e+03
-3.944856343946823472e+03
-3.314336897998460245e+03
-3.610488685674262342e+03
-3.098287142008243791e+03
-2.322742569387955882e+03
1.178162601464246791e+03
4.103564651391382540e+03
4.294529754660425169e+03
4.188123463125244598e+03
4.049352578461852318e+03
2.864498956218792046e+03
1.309638246025834860e+03
-6.763710425060870648e+02
-1.533697182162560694e+03
-8.641845732149810146e+02
2.412109862395009827e+02
9.163138717057610165e+02
1.602191536066373601e+03
3.249071444075115778e+03
4.226945040610898104e+03
4.277955561185860461e+03
3.701202089608054848e+03
3.594753888619041390e+03
3.108509527644356695e+03
1.912528629489300556e+03
8.859430903495343728e+02
3.237028228778966650e+02
1.588510635674991818e+02
-1.824801472628095951e+02
-8.212456338758051970e+02
-2.086432718038230178e+03
-2.212178987819371741e+03
-3.513535188458006928e+02
1.795981504776526208e+03
2.389943302823926388e+03
2.416681580000305985e+03
2.430356344055303907e+03
1.937403674890112825e+03
1.201682330670901820e+03
1.471225501615554094e+03
8.559123855929652791e+02
-1.823461705015400867e+02
-3.092727651503526545e+02
4.091320018214177026e+02
7.463742130147313674e+02
1.471763020883197896e+03
1.595467333573492624e+03
-8.497250388377910895e+02
5.811909285846875264e+02
1.362490783704225805e+03
6.997887874582994527e+02
-1.186931454342739698e+03
-1.370072220594576265e+03
-9.707686495466587075e+02
1.357030329741373009e+02
1.308290277549859638e+03
1.767308393119629272e+03
1.689886436663316090e+03
2.152575737280847989e+03
2.598572167397832800e+03
1.946753259901136971e+03
5.371173505849047842e+02
5.887655858207297115e+02
6.486780925595711551e+02
7.616063331117272810e+02
1.154365288841432175e+03
1.510181934130590207e+03
1.780150576931318255e+03
1.676329140451660578e+03
1.815757487412374530e+03
2.046353329454428149e+03
1.736118226749089672e+03
1.256956321184088210e+03
6.996742434908953783e+02
-1.267385188385981394e+02
-3.093972150503868193e+02
-8.572753277443644038e+02
-1.498230848722730570e+03
-1.326153418330734212e+03
-3.512981105083509448e+01
2.828239149621081197e+02
-1.542180452110847568e+02
3.337054923442955783e+02
1.310441333725706272e+03
2.593942997083039700e+03
3.655157112940343723e+03
3.100055668314619652e+03
3.070693972064470472e+03
3.418084167800662271e+03
2.343111645383518407e+03
9.977662616407213818e+02
8.599512731476642102e+02
5.455214626458312068e+02
4.325372023116169657e+02
2.559530627040957995e+02
2.197438604305012859e+02
-8.821868782747592377e+02
-2.320706421541123746e+03
-2.151767053847752322e+03
-1.245469054043743654e+03
-2.185050568921346439e+03
-5.708528977169270547e+03
-6.782860336790901783e+03
-6.896039770032295564e+03
-7.473108042429920715e+03
-8.345160378611051783e+03
-8.397269646354960059e+03
-7.749490608804720068e+03
-1.018978456712704428e+04
-9.116073850840934028e+03
-3.766571363360075793e+03
-1.461418321103109065e+03
1.674246165209018216e+02
1.068741729756055889e+02
-9.603464614834236102e+01
1.622623212315982528e+03
3.807862340775186112e+03
4.254612180707088555e+03
3.372786436864827010e+03
2.169424408939082241e+03
8.935264931666905568e+02
-8.659796078910759434e+02
-1.710961608966544873e+03
-1.950420033220703544e+03
-3.109613671308077755e+03
3.043778609613996977e+01
4.723656291598186726e+03
5.996007963475972247e+03
6.165523161573322795e+03
6.704125737164389648e+03
6.529767782965733204e+03
4.092460804746104259e+03
6.391819850278498052e+02
-2.458051933776085207e+03
-4.198295428200280185e+03
-5.022770948663098352e+03
-3.823465520085577737e+03
-8.033078163523755393e+02
1.504724786107931777e+03
8.198206322634769094e+02
4.098016646628976467e+00
9.853877767189039787e+02
1.860582139387229972e+03
2.687713474294514981e+03
2.175731963788931807e+03
1.115647886206478688e+03
7.354004305992407353e+02
3.770043513186554947e+02
3.985077072381530456e+02
3.608840723043554135e+02
2.798062511684533092e+03
4.892036645861551733e+03
2.450858329355730348e+03
2.474528507182443775e+02
2.648158564949885658e+02
9.799220691225754365e+01
-8.140889538492624524e+02
-1.187444495329550136e+03
2.409946628142867553e+02
1.117322173270826625e+03
1.763605252222921536e+03
5.508813781766202737e+03
6.169958675594109081e+03
3.376111946127406554e+03
2.083284097399463462e+03
1.139507456075287791e+03
-2.305307957467892265e+03
-1.881204081574709107e+03
3.794896344366918129e+03
5.062020494551687989e+03
3.762216418342381530e+03
9.135276627422626916e+02
-4.740026713018024566e+03
-6.750400598393041946e+03
-6.694560680759040224e+03
-5.652627931254825853e+03
-3.427607979780885671e+03
-1.015440933693194893e+03
-1.890992958657849158e+03
-2.637195961432603326e+03
-3.844041297712717551e+03
-4.256545706888980931e+03
-3.937603586807576448e+03
-5.783178491910201046e+03
-6.099280227459549678e+03
-7.211912368297221292e+03
-1.044206469471920900e+04
-1.186664079530379058e+04
-6.141646791924110403e+03
-3.797065445980437744e+03
-7.988175608341482530e+02
