-1.414985007755428569e+03
-1.307411219641358457e+03
-1.689467131267125751e+03
-1.177147916463391539e+03
-3.503586571029570109e+02
-5.430558514546894457e+02
-1.169348811811686801e+03
-2.628344618904096478e+03
-2.104238068577523336e+03
2.809923149398081250e+02
2.321448650145034662e+03
4.585084139816054631e+03
5.303725692859211449e+03
5.694411175971096782e+03
5.273441895658786052e+03
3.619316152615805549e+03
2.796117769828892051e+03
2.742703906466545050e+03
1.716216282325576231e+03
-7.593397149469703322e+01
-1.085862163268059476e+03
-2.069109434482047618e+02
6.654760249568986410e+02
1.299986779021631719e+03
1.399755578324049111e+03
2.151591485888163334e+03
1.807719584715683823e+03
-9.500539305335664153e+01
-1.334979452513055094e+03
-1.592804043852559971e+03
-7.298568229485891834e+02
2.700124499283552382e+02
1.715138470199996846e+03
4.022330572346092595e+03
4.544942022209864263e+03
3.212203739041085555e+03
2.347253636090841155e+03
1.944158730357159584e+03
1.298890115042092475e+03
-2.007282324697573586e+02
-6.955615578284775893e+02
-1.737828458909306661e+01
1.506621151570661823e+02
3.663817807480167517e+02
3.210890668974969344e+02
-1.484418802398796288e+03
-3.755276215301409593e+03
-5.465484053352992305e+03
-5.957031166084635515e+03
-6.000033011295015058e+03
-5.915504783817395946e+03
-4.065393031182179584e+03
-8.737674138824478405e+02
6.032634485245738460e+02
1.737767992132173049e+03
3.885842730668764489e+03
7.215480319729487746e+03
9.259752442074561259e+03
1.001772667611146790e+04
9.823339834636552041e+03
8.755589142683245882e+03
8.299566356073892166e+03
8.395303071786855071e+03
6.684799339458460963e+03
2.807042439741277576e+03
-2.439947023913076464e+03
-5.566121935805666908e+03
-6.660394334231369612e+03
-6.504781844356362853e+03
-7.217259210506627824e+03
-7.955809995682129738e+03
-9.682416296169236375e+03
-1.103205967084965778e+04
-9.427803578458790071e+03
-2.531584851499564593e+03
-8.554083091129609784e+02
-4.251242557896895960e+03
-6.152947653260896914e+03
-6.982456606615068267e+03
-8.049776502073855227e+03
-8.990846994701929361e+03
-5.129610608755234352e+03
-5.216021154435817152e+03
-8.836078674158621652e+03
-8.250702430662144252e+03
-6.770807384530407035e+03
-6.718410804771090625e+03
-8.185476640948126260e+03
-9.287901005174719103e+03
-8.862657169924636037e+03
-7.459745222826694771e+03
-3.148116461996271482e+03
-1.597903937995724277e+02
8.032551421954080979e+02
3.673077480368103807e+03
5.099731784744464676e+03
4.529327598442495400e+03
3.488898524543611984e+03
3.450468156713154258e+03
4.661081056928518592e+03
5.480832747147918781e+03
5.603781589080846061e+03
6.795976965359324822e+03
8.528432660161879539e+03
8.169235372889758764e+03
7.229487995271271757e+03
7.496234300787028587e+03
8.320543267293058307e+03
7.041426599213610643e+03
5.001890837841580833e+03
4.348991661790667422e+03
3.576757080743082952e+03
3.450209527370023352e+03
3.069387915316090130e+03
2.174395349128137696e+03
1.854337121925860174e+03
2.507220457758962766e+03
2.470062528338337870e+03
1.862927116660959427e+03
9.408688676247493277e+02
1.749032187733198214e+02
4.361094534947513921e+02
1.549532107217003841e+03
3.088255072121160083e+03
3.380329869765336753e+03
2.957815394086138895e+03
2.146786221224622750e+03
1.208244655905178206e+03
-4.237763629992720098e+02
-1.977245978882124746e+03
-2.170160908115624807e+03
-1.425511768262910664e+03
-1.638345951212606224e+03
-8.926026289758286794e+02
-9.817293394397250950e+01
2.980204812015217044e+02
1.197137529163313047e+03
7.441015549556121869e+02
-3.489130416668348857e+02
-4.658028694113110078e+02
-6.425146650465931089e+02
-2.082087993049712622e+03
-9.525079973453530968e+00
1.335321033296044789e+03
1.459453398284296782e+03
7.796815276126435492e+02
1.187784308725394794e+03
1.213209422780737214e+03
5.897876749968894501e+02
-3.696357847157257766e+02
-2.121136683520413953e+03
-3.349740987383476750e+03
-4.448518142328791328e+03
-4.845459941614989475e+03
-3.489497202035624468e+03
-2.022575174927141916e+03
-1.207760271990684942e+03
-8.830565789866287787e+02
-1.238459429929708222e+03
-6.949544073619487108e+02
4.634604727679378584e+02
1.457763839628091489e+02
-5.439942696737739425e+02
-8.158923523471939916e+02
-6.439397436430707558e+02
-5.111494269284385155e+02
4.834605987242623542e+02
2.119829067655134168e+03
2.281949690316225315e+03
2.290829001315930327e+03
2.131444438813226952e+03
1.382753774817881549e+03
1.377797026479996418e+02
-5.015669639408147304e+02
-1.376428112199778298e+03
-2.175857225463753366e+03
-3.087807987439631688e+03
-3.259318844928774524e+03
-2.476486070823684713e+03
-8.562475995118505807e+02
-5.636223279524181180e+02
-3.506453781623584973e+02
-5.740070809876673508e+01
2.941424827471446406e+02
3.770057932607152225e+02
1.221297408419466848e+02
8.239142246043297746e+01
2.572089538404229714e+01
-3.995015563722999730e+01
-6.526779488454924376e+02
-1.067530159238888928e+03
-1.861545280355492650e+03
-2.825760879745604143e+03
-2.626231119322792438e+03
-1.954986170461006850e+03
-1.883089272680135991e+03
-2.804620959461800339e+03
-7.665972365476749246e+02
-5.407600822123929873e+01
3.178999056785339690e+02
5.772855012043671650e+02
2.840168470123098245e+02
-1.495241722332207601e+01
2.563503712753344530e+02
2.058885609280063136e+02
-3.293542112885837128e+02
-2.135047394374263376e+02
5.204768394780567178e+02
2.495742163948975474e+02
-8.033392634969486323e+01
-3.133484278526966449e+01
-2.134286097488726455e+02
-7.945600749650266152e+02
-1.134908798089200673e+03
-1.318598465181481288e+03
-1.429645180374324809e+03
-8.881734053358296705e+02
-3.381874445113884349e+02
-6.869126140204502917e+01
-3.308492729945770634e+02
2.552794527359395431e+02
1.417758618261364973e+03
1.855478490903142756e+03
1.850374117450302720e+03
1.842452342724766140e+03
2.018666898981507984e+03
2.293001546706570934e+03
2.658468620005878620e+03
2.595037792184516093e+03
2.036641761953818104e+03
1.550195936828183221e+03
1.460770113166349120e+03
1.239270968502639107e+03
1.561563936587641592e+03
1.335562225667551502e+03
1.118371571758913433e+03
8.780351874343272129e+02
3.804822997722914124e+02
2.905746131503347556e+02
3.333089565094596196e+01
2.347511619277387922e+02
1.549682817999735107e+03
2.191117201679044229e+03
3.010114951269023550e+03
3.671660517605404038e+03
3.678817514769503305e+03
3.504660724593360555e+03
3.318148322277948864e+03
2.884164750176317284e+03
2.222671938940196469e+03
1.553634886243289202e+03
1.478930859917482167e+03
9.716022985017348219e+02
8.357578415486055974e+02
6.044524204728101040e+02
3.655842859263504465e+02
-6.286878416260188374e+01
-5.208564857120010174e+02
-1.423176851117857495e+02
-5.331786253647089779e+02
-3.715317591657355933e+02
1.404616079494818450e+03
2.651336458478302575e+03
3.057621959910813075e+03
2.258536323321615782e+03
1.644939667073671444e+03
1.432695721249429880e+03
1.240822733193176873e+03
1.214297252953324687e+03
1.212161705748930217e+03
5.353906661563772786e+02
-1.443866520526908289e+03
-3.982422185908926622e+03
-6.062257605020802657e+03
-6.333445158467782676e+03
-1.952937516807829752e+03
1.276335025767510388e+03
-2.012619320927033641e+03
-7.205733693866917747e+03
-7.858890523389631198e+03
-7.584068587737036069e+03
-7.351195090168604111e+03
-5.773416494601508930e+03
-4.564878840311858767e+03
-4.488248523991322145e+03
-3.376293676131427219e+03
-3.733019043227090606e+03
-3.831576846003466017e+03
-2.091050911465664740e+03
-1.375158416098122132e+02
-3.624093350817530791e+03
-5.900637661459059018e+03
-5.788940883635827049e+03
-5.725988161791746279e+03
-5.666757926264462185e+03
-5.497132966425409904e+03
-5.381943246242615714e+03
-5.146189368947931143e+03
-4.968003486257749501e+03
-4.133267451291972975e+03
4.501759029365181846e+02
2.603447371664797174e+03
3.237760656695555554e+03
3.709204991739896741e+03
4.411741550852822911e+03
4.318274884191409910e+03
4.348734703611338773e+03
4.213121732598107883e+03
3.741398730771695227e+03
2.999503357496680565e+03
1.995528837779520245e+03
1.354406222289407424e+03
1.085022156677101293e+03
1.350342747626932123e+03
1.860406837484822745e+03
1.705345106457990823e+03
1.561350288772609701e+03
1.781497518150469659e+03
1.988791608251304979e+03
2.223251260345617993e+03
2.339121272964061063e+03
2.164577079982340820e+03
1.968674657374353274e+03
1.983309247149111343e+03
2.148636215482899388e+03
2.427792324390624799e+03
2.228008475518605792e+03
2.111559231596475911e+03
2.506081301797750712e+03
2.430210182721575165e+03
1.635908498916359122e+03
1.007222187246781573e+03
5.894472051337151015e+02
4.328693684970386926e+02
1.622983639607213320e+02
4.867632847058077346e+02
9.473317814122146956e+02
1.322064311365390722e+03
1.505606698821699183e+03
1.129343940378686739e+03
1.146576776939183901e+03
1.699648786494088654e+03
1.705549019592766626e+03
1.913489491562150988e+03
2.273624316851727599e+03
2.638115033662827955e+03
2.508127115507094459e+03
2.418438940339037799e+03
2.155367598518561408e+03
1.727892672072979849e+03
1.388458635489142125e+03
7.017079011460920128e+02
5.766115318632579374e+02
5.863597694917468743e+02
8.076476933862045371e+02
7.023549207776911771e+02
6.014197095903984973e+02
8.908680480144267904e+02
1.118744117496546096e+03
1.027089132391444764e+03
1.209788259349456894e+03
1.532866376237535405e+03
1.486364728331162723e+03
1.630119510888031073e+03
1.750146568960072273e+03
1.875809723059113367e+03
1.958278680406239801e+03
1.789390614702489756e+03
1.408950636614853920e+03
6.497700217167558776e+02
1.797978246093520625e+02
1.420166550863926886e+02
4.344150213279046113e+01
-1.629560857652455752e+02
-1.970977075401346781e+02
-1.090216306747162491e+02
-2.469194414279852623e+01
-1.911094868950700842e+01
-6.138320659302603133e+01
1.405674599109349110e+00
6.218649511578427536e+01
1.870634738568905959e+02
5.650376136916802352e+02
7.131276171973531746e+02
8.243226109545075815e+02
1.266689274950630306e+03
1.343280863453633629e+03
1.579989434657642050e+03
1.350637107191105315e+03
1.006229087180321812e+03
2.007258011816143153e+02
-2.212899156890438007e+03
-4.983685619422998570e+03
-8.935687890789342418e+03
-9.602874215771591480e+03
-9.339206791365601021e+03
-8.872762015273641737e+03
-8.408502160510939575e+03
-8.504263913997345298e+03
-8.154355205743263468e+03
-8.034756945098134565e+03
-7.061412283686850969e+03
-5.984248399302219696e+03
-1.229400911891962551e+03
1.199093260496503490e+03
2.331257767994040933e+03
2.443116517961926547e+03
2.291761853719938699e+03
1.806211896242639796e+03
9.404670424252892644e+02
4.724687038043735470e+02
6.589886532891656543e+02
4.379521932662977974e+02
2.354365096454786226e+02
8.056267568719174221e+01
1.353578769514655562e+02
3.056915403674165645e+02
1.545301828359800993e+02
6.069344086270268690e+02
8.668793607894637034e+02
7.573496898224716460e+02
6.993556969833988433e+02
4.499589907341465391e+02
4.231390367964590382e+02
-5.213435788404405713e+01
-6.398833272988143790e+02
-7.701451949166648774e+02
-5.192461194430062932e+01
1.221858110544023475e+03
1.797296637346449643e+03
1.155393102117873468e+03
5.618068953762418261e+01
-3.363199977767548603e+02
-3.300544784012357695e+02
-8.220623496362187552e+02
-6.912894292944451990e+02
-4.547902428556689642e+02
-3.706115714037305224e+02
-7.688230779311238621e+02
-6.053905694078792976e+02
3.857707974607214396e+02
1.641723445986953493e+03
1.687489707940462495e+03
1.705087397367214635e+03
1.644512508245276649e+03
1.844757650569524912e+03
2.056854106911917370e+03
1.574849716931209059e+03
1.233797463706849840e+03
4.428071385500800261e+02
-5.571385128226294228e+02
-1.138151328099068678e+03
-1.011324879758679344e+03
-6.765800037791043451e+02
-4.679586649865287313e+02
-1.651951109682002823e+02
5.008885010597450815e+01
-3.481429833190981071e+02
-4.452003899030553953e+02
-6.340748160635467912e+02
-8.328020775782758847e+02
-7.763090271521716659e+02
-8.784812022909187590e+02
-2.873815269490565356e+02
4.129829135171578969e+02
4.076966266642431833e+02
3.732958625997571556e+00
-1.259209603146236418e+02
9.717959141831735224e+02
1.101970771041025046e+03
7.785797199880598782e+02
5.106441156243222395e+02
-7.838077709456413231e+02
-1.445805461688557443e+03
-9.553942748218274801e+02
-1.211497200128878603e+03
-1.776013947016929706e+03
-1.017048809665203976e+03
-3.516507726104212566e+02
4.702645927017728695e+02
1.012785979271952556e+03
5.589061915166272456e+02
-3.737758011454722862e+01
3.592860640057010357e+01
2.828561230537496840e+02
3.094346719847339386e+02
2.946825691595467447e+02
1.444621198535421172e+03
2.298268486835973363e+03
1.726650744784655899e+03
1.516759976715472078e+02
-6.296662297557137435e+02
-1.813781338495224702e+02
4.585835511183462927e+02
-8.381918046743939499e+01
-1.886298994782934528e+02
-1.597784971671569281e+02
-9.942309111315042855e+02
-1.436040318391963183e+03
-1.316227264507832842e+03
-1.694843347445766994e+03
-1.849868236096294595e+03
-1.085267017575005866e+03
8.194895302628984268e+01
1.142823216891481252e+03
2.197426670090107564e+03
2.979729116079760388e+03
2.372665972554759264e+03
1.675189949946809520e+03
1.394406422936910985e+03
1.104266072959510893e+03
-3.730896022660289191e+01
-9.963265173525579712e+02
-1.501840036007310346e+03
-1.382894639484919026e+03
-8.136293160503471427e+02
-4.800222091853134430e+02
3.102214526575701257e+02
1.192782287928979031e+03
1.464606877506285628e+03
1.328687982886395275e+03
1.050153113367493233e+03
1.058034627746800879e+03
1.381213625266748750e+03
2.097621956481557390e+03
2.031054642762067942e+03
1.024500474178883223e+03
6.214279950958663221e+02
7.578723629783862634e+02
1.404878294820839301e+03
1.534189067453292409e+03
7.090907925168439760e+02
-1.072307498216950307e+03
-3.242905847249858653e+03
-3.390195682809999653e+03
-2.062088332447025550e+03
-5.520626848475939141e+02
1.496059039102488669e+03
2.382203464089295721e+03
-3.357322733584602474e+02
-1.609167238117502620e+03
-8.651698210853841431e+01
2.206937086306788387e+03
3.812288920368770050e+03
4.590285745175745433e+03
4.858851904875622495e+03
4.425005224794459536e+03
3.822838270533452032e+03
3.268507481753785669e+03
2.376927067544957026e+03
1.273701852836021089e+03
5.258818900296535048e+02
1.494295083783759424e+02
-1.013988234094349536e+02
-1.613998026342923822e+03
-2.915170939137018195e+03
-2.800181079006829805e+03
-1.764163943035131069e+03
-1.713977809340064198e+02
1.486526831920584755e+03
2.563525748768141057e+03
3.100426392894264154e+03
2.687245015393618360e+03
1.808989426666139707e+03
1.935660668597462063e+03
2.979268018225841388e+03
3.937792161678244156e+03
3.647254528191207100e+03
2.726623886967342969e+03
2.671857844551721882e+03
1.944850874420354785e+03
1.292549869825341375e+03
1.697081266043624964e+03
1.560452825850747558e+03
1.361592379075467989e+03
1.407476834274285920e+03
2.229156537297839805e+03
2.043559158316743378e+03
-8.062613589114872639e+02
-5.347275581163215065e+03
-7.698575484554979994e+03
-7.860184630753115925e+03
-6.132078801817733620e+03
-4.141834513603640175e+02
-1.454992988690243862e+02
-5.491063287801418483e+03
-9.843794938483992155e+03
-7.739633085675089205e+03
-5.621643462295519384e+03
-5.012909582281984513e+03
-6.364967285714243189e+03
-7.088992590250789362e+03
-7.781130324550135811e+03
-8.110364978607968624e+03
-7.950720898995784410e+03
-6.145177160229215588e+03
-4.068708183014500264e+03
-6.753331648141213918e+03
-9.115078184348898503e+03
-1.051382953863879811e+04
-1.206052750701376499e+04
-1.167219036492139094e+04
-7.033747370637374843e+03
-2.786157978325350541e+03
-3.031458735330353647e+03
-3.962573500713518115e+03
-2.234538606028098400e+02
2.260897747089838504e+03
4.207553272620366442e+03
7.560571141559008538e+03
6.828981924284466004e+03
5.297698201483656703e+03
4.220751051531090525e+03
3.272215040640367079e+03
2.239072326503482145e+03
3.145305010570583818e+03
3.911054632818960272e+03
3.298518198484852746e+03
2.470684399322190529e+03
4.835079013364888283e+02
-8.390481430126629903e+02
5.590286735232505180e+02
3.769802543220271218e+03
7.034359245605895921e+03
8.391799145701150337e+03
8.338118262688152754e+03
7.516412617684751240e+03
5.774659723294017567e+03
4.574844626163647263e+03
4.130039263579781618e+03
4.378369515477565074e+03
3.751902999442665077e+03
3.246533773634098452e+03
2.857254516640604834e+03
2.292138786108880140e+03
1.859268189120870375e+03
1.533669544257061716e+03
1.854341714710245924e+03
1.800317396214771406e+03
1.729674034631975246e+03
1.425458721668242788e+03
1.193710279953489362e+03
1.663438277905080213e+03
2.368723760013247556e+03
2.211597246908006582e+03
1.448121128798046811e+03
1.428283916837960305e+03
1.668156699190556083e+03
1.468922979728785549e+03
1.524595837694806050e+03
9.082837709745716666e+02
1.180570905828191819e+01
-1.037589503332945469e+03
-1.662865555210041066e+03
-1.471012512546824382e+03
-1.355011022275459482e+03
-9.718682424029389040e+02
-5.635211524848569979e+02
2.779731643362693490e+02
8.165868147238489883e+02
8.262359796597975219e+02
5.680028405541097527e+02
1.646739487925564163e+02
-1.176824384550493221e+02
1.309373311240682938e+02
4.565218806513801724e+02
7.931437618017091609e+02
2.058112324523530390e+02
-9.465509091545261526e+02
-1.579914005081411915e+03
-8.982561593391302495e+02
-3.026218805518990393e+02
-3.139831464865434327e+02
2.076057476392763022e+02
2.591496476259729889e+02
-5.933510398525016853e+02
-1.583900700901102937e+03
-2.233500214378157125e+03
-2.193116319972711153e+03
-1.322672790475282454e+03
4.477913628517003417e+02
9.323181087599709826e+02
7.738856160566498374e+02
1.774442404803698992e+02
-3.590882908456547966e+02
-6.818017305892200284e+02
-8.036304371083552951e+02
-1.124478838350456954e+03
-1.566249182779244393e+03
-1.895055121165843957e+03
-2.401002398286750122e+03
-1.255073515087188298e+03
5.636659768538606841e+02
7.951924852631171916e+02
-1.734687646236831142e+02
-1.004370957520341108e+03
-9.285717759796174278e+02
-4.240746118486663931e+02
-1.339883835314119551e+02
4.227170143476380417e+02
7.620556457613951125e+02
7.670262868847121354e+02
1.966410972954145109e+02
-8.115666371660340417e+01
-5.993432819101680025e+02
-4.349255093327826103e+02
4.280613272473507891e+02
2.516605617180531169e+02
-2.276187460251639550e+03
-6.032576885651149496e+03
-8.360597260773107337e+03
-8.984270682485655925e+03
-4.844648591350413881e+03
-4.126911619248426177e+02
-2.334048279551421672e+02
-3.308515868948868501e+02
-6.960509705690757301e+02
-7.881221972467650403e+02
-2.199061160683166918e+02
-7.624389231826388880e+01
5.006383105067343990e+02
1.074623321401386875e+03
9.337116073589421603e+02
6.239088289064661694e+02
5.121774166869207647e+02
7.633778158625686956e+02
5.665605028235299869e+02
4.287766485854375560e+02
4.170193220455891492e+02
5.003026000460553746e+02
-1.634372568083412602e+02
-3.622897605643412930e+02
-1.625626675269128185e+01
-3.413279632330252298e+02
-8.146301511963966959e+02
-1.026243530968814639e+03
-6.802068069706131155e+02
-5.754914516035025827e+02
-4.640564001663460090e+02
-4.358868386171056954e+02
7.099888050091826130e+01
5.415827367796282488e+02
5.968321928038513988e+02
7.637472865003686593e+02
1.491177104245837199e+03
2.527106861636279973e+03
3.077650308598115316e+03
2.961904816589642905e+03
2.674838391298656916e+03
2.814303634930307908e+03
2.010285668930422844e+03
6.948612151561547989e+02
-2.210720849484732469e+02
-3.734919281145160426e+02
1.846764326094065041e+02
1.723771887912457998e+02
-1.294545854821744797e+02
-1.178016435222066747e+02
-1.666330755442198210e+02
-5.479956388235900704e+02
-3.689247541233034440e+02
6.565856272025624776e+02
1.265468269135992387e+03
1.064738459453311862e+03
8.675034714501047119e+02
1.796751108730428768e+03
2.845464460319168211e+03
3.155675697064704764e+03
3.646446463729132574e+03
3.476777230261244767e+03
2.735658233702895814e+03
9.880054275759684970e+02
-1.531215088938987037e+03
4.800534236042578868e+02
8.727262957564668113e+02
7.957977396715569967e+02
2.243106705933460319e+02
2.772915920200466644e+02
1.198789798696877369e+03
1.370843246901370549e+03
9.564342715031168609e+02
-2.051525075535742417e+03
-5.717896222243112788e+03
-4.048527816504742532e+03
-2.843507013172540155e+03
-1.493876238738594566e+03
-3.229713255803198081e+03
9.790728093414038540e+02
-2.154455540003715441e+02
5.083290938238244649e+01
9.120020851283142065e+02
3.889231473120777878e+02
-2.491544751735825230e+03
-2.044447281944184624e+03
-1.958828112146818512e+03
-9.826449455573861087e+02
-5.366565309935613186e+03
-3.005614413143066940e+03
-2.189996081369783496e+03
-7.747696799100142471e+02
-1.903908531434740325e+03
-1.593308542886274836e+03
4.080586542773856422e+02
-1.591744335361197045e+03
-8.386734479537203697e+02
1.840264222206046497e+03
5.155981325914747337e+00
-1.091965638870748307e+03
-2.397089419934385660e+03
1.907627361508158117e+02
-1.584377486549323748e+03
-4.874215657953237724e+02
-1.567352796733517380e+03
6.207018094807549460e+02
-1.998268678840619259e+03
-2.913005473478306726e+02
1.036548821080329844e+03
1.013293764188756086e+03
7.370272415036865823e+02
9.447952863217801678e+02
1.327658239174782693e+03
1.775603354233840946e+03
1.857558840999321319e+03
1.983519307457558398e+03
2.112585558411582952e+03
2.190802520250449561e+03
1.576144139860032510e+03
5.937102267098931634e+02
6.515485983645307897e+02
9.675946016883272023e+02
8.827927033819252074e+02
6.001309953927215020e+02
1.173586876958310313e+03
8.440084357733575189e+02
9.253965750659107243e+02
1.424105747210580603e+03
9.476351505172746101e+02
1.748878028968917704e+02
-3.063027031235540676e+02
-4.260833906775570199e+02
-6.237823474060842273e+02
-8.966367670861733359e+02
-6.744570207899851084e+02
-5.777657612576176689e+02
-1.605734028433630783e+03
-4.278239899426231204e+03
-8.752653488822178360e+02
5.584025578455393770e+02
7.718341187242175465e+02
1.335997671475827701e+03
1.500987097849831798e+03
1.633666544590928424e+03
1.234471122370438025e+03
5.545059703362722985e+02
-3.997796328167476645e+02
-7.814008210371777068e+02
-5.154323263692019736e+02
-5.578798823854147031e+02
1.531056802638968577e+02
7.371767039790236140e+02
5.502256026330132954e+02
7.495867326847894674e+02
9.913194114140137572e+02
8.050253405527562336e+02
6.127720379523331076e+02
1.285749193755176975e+03
2.284555867593267521e+03
2.097293054962793576e+03
1.469998730715736201e+03
1.232649015561897841e+03
6.282754085484916686e+02
-9.420647060645019337e+02
-1.784528147455749604e+03
-1.881859266149777454e+02
1.415000090422641506e+03
1.905049715532757318e+03
1.686094111376917908e+03
1.044101075981128133e+03
6.387790873081827385e+02
7.928831132806370761e+02
1.607351024074478346e+03
1.717286007724879028e+03
2.112763772984439584e+03
1.887892994460587715e+03
1.242726478525989705e+03
8.231558268187725389e+02
1.418110562905020288e+03
2.814555751726725248e+03
2.683530888813037109e+03
1.897057991623404632e+03
1.353095912346701880e+03
1.261674057485611002e+03
1.137809698590515609e+03
4.535475026195572354e+02
-3.742327205043503113e+02
-4.595585893656927396e+02
-5.754011251462324026e+02
-6.657194170353069467e+02
-6.804839818372869331e+02
-3.387201618436083663e+02
3.054991303177793043e+02
1.063279634873562145e+03
1.207782815011144748e+03
1.305977715048741857e+03
1.393799629678664814e+03
1.141830736918484632e+02
-2.691888027375259753e+03
-6.294360821674174986e+03
-6.632284167662275649e+03
-6.516653280217064093e+03
-6.390434209666452261e+03
-6.823660285793952426e+03
-7.222349532925706626e+03
-7.267546417219663454e+03
-7.271194249309836778e+03
-7.494305730919139023e+03
-4.128922472879168708e+03
-3.231262049306672566e+02
3.320890032933165230e+02
1.032821938388722856e+03
1.531154525461330877e+03
1.390115114816999039e+03
1.516715542131243183e+03
1.961893610690701962e+03
2.064700100486695192e+03
2.091144889225647148e+03
2.367252517560474644e+03
2.046957584620756506e+03
2.265229565506290328e+03
1.923186358945417396e+03
1.203808351133982796e+03
1.046136133622019088e+03
7.063086842479797269e+02
-9.858817807521717214e+01
-5.575946265236757426e+02
-2.167592833682520848e+02
-4.009619795703846989e+01
3.332439540203191655e+02
3.402659188742854326e+02
1.860445217086124217e+02
1.668921423676968718e+00
-4.498466925025090291e+02
-4.113725459235923836e+02
-1.709001397114369354e+02
1.006566345325006296e+03
1.681013698379406151e+03
1.651453434827812771e+03
1.494933491657146078e+03
1.265366448451168253e+03
1.086687262435714274e+03
1.402076148450662004e+03
7.336661470018927957e+02
-6.253820522539281512e+01
3.004400360286476257e+02
1.316289199499686902e+02
-5.159400391190200708e+02
-8.513363258409328864e+02
-1.075689007124115733e+03
-5.318879149706725684e+02
-2.437597058736506881e+02
-6.291020878537011640e+00
6.024883839096637530e+02
5.565541013110087079e+02
1.011689210653902023e+03
1.365126292481213113e+03
1.591324869362555773e+03
1.287507269435138596e+03
9.176588463398877593e+02
2.717482126852196416e+02
4.046913403187051586e+02
1.543933987449672429e+02
-4.122314304892784094e+02
-1.186214218951805151e+03
-3.636602072846477768e+03
-3.819463072924455901e+03
-1.511912775032916215e+03
-5.847357038395849713e+02
-3.907830283260850024e+02
-4.450298663512238022e+02
-5.644744855780789976e+02
-6.552446168600347391e+02
-8.983192471961414185e+02
-1.025563840185272284e+03
-6.228945732327129008e+02
1.356358780958599368e+02
2.780469142120481365e+02
3.194185364334676933e+02
7.177748415370911061e+02
7.559563264583820228e+02
8.138641764873597140e+02
9.405768145132095697e+02
3.601737891662172615e+02
-2.413530501813671947e+02
-4.151006849545194086e+02
-8.809819426227713848e+02
-1.317000340921876159e+03
-1.198109156762702696e+03
-8.023098197466681540e+02
-7.306046157559335370e+02
-4.420710662697256907e+02
-5.576363720772051238e+02
-7.531576877180261818e+02
-7.296484019517309889e+02
-5.541500379077334628e+02
-5.772711397232362174e+01
-4.451589850623724942e+01
3.105599238730934530e+02
7.226725311373205614e+02
3.008404865952958289e+02
3.629690346010016810e+02
5.629275995022942425e+02
3.776553209766775581e+02
-1.147856630051108198e+02
-1.017331802943272578e+03
-1.478049135920827894e+03
-1.551926741062581868e+03
-1.364778110331132211e+03
-7.826398257759634589e+02
-6.906489431614530758e+02
-3.828936037174354965e+02
1.467759843951765042e+01
2.409172484114549562e+01
8.507923518983442079e+01
5.048722241586100381e+02
7.235624011396417927e+02
8.618859943432106547e+02
1.151792705953306495e+03
8.952841486671898110e+02
6.204164662031585067e+02
8.923559449289743952e+02
5.997869681562112874e+02
3.869740304521513394e+02
9.303962547425659579e+01
-4.862798911838804088e+02
-8.913107361227026786e+02
-7.300900199448743706e+02
-5.367173073994306378e+02
-1.155401264093535929e+03
-9.045504959754837273e+02
2.231831707237384137e+02
6.932538105760515919e+02
1.070578030053910652e+03
9.250802948179516534e+02
1.401918458023669473e+03
1.686736355527313208e+03
1.859834955060779976e+03
2.237653412540941190e+03
2.476353582454395109e+03
2.405900343072916257e+03
2.092439909058957710e+03
1.992829644471997881e+03
1.372511929867836670e+03
8.211162498720447047e+02
5.572460085240443277e+02
2.281533333417207814e+02
1.518723911722209436e+02
-7.916973404739414910e+00
4.646647685238713166e+02
7.977237453341851960e+02
1.049147594161114512e+03
1.407337766642495808e+03
1.384194817674570004e+03
1.781632098525988795e+03
1.988862475904524445e+03
2.319713373379453060e+03
2.461159702976316566e+03
2.949745672198223929e+03
2.972742289430637356e+03
2.876130978072769267e+03
2.141730148028688291e+03
2.081423523089189985e+03
2.326282559014557137e+03
2.177351687882839087e+03
1.744466380298698141e+03
1.975655453559479383e+03
1.678969789053193836e+03
1.254182924834281721e+03
1.363003580718081366e+03
1.489456022724545164e+03
1.594690795537680742e+03
1.701719723109133156e+03
1.417580737938135599e+03
1.341290945917184899e+03
1.667825629806975485e+03
2.534148115987468373e+03
3.760183860305445705e+03
3.841933241307993740e+03
3.546448725291093069e+03
2.987854037652823536e+03
9.360680170056443785e+02
-2.903918665034586411e+03
-6.323258610105935077e+03
-6.583058880604475235e+03
-6.970169599141638173e+03
-7.855451525342544301e+03
-8.818855473512843673e+03
-9.263598796744721767e+03
-3.980744793820272662e+03
-1.554285500129070670e+03
-6.441344989768176674e+03
-8.211958758958273393e+03
-8.023914053808129211e+03
-8.807960965499469239e+03
-9.017563794891866564e+03
-7.790705341569841039e+03
-6.758288223559671678e+03
-3.646276002080713170e+03
-9.126270450428456797e+02
-3.348291927294061225e+03
-3.903180139781657090e+03
-3.392392670631403234e+03
-3.163897741076298644e+03
-3.221760066478537283e+03
-3.763024883103485081e+03
-4.395634196453490404e+03
-4.454670271486679667e+03
-4.992143345157143813e+03
-5.099955301605232307e+03
-5.123018937240128253e+03
-5.031223777755000810e+03
-4.207520591421613972e+03
-7.087988598411978103e+01
2.018638318386632136e+03
2.140011439862252246e+03
1.806246089495975866e+03
1.364393861025312617e+03
1.323481923047570717e+03
1.960627077583385471e+03
2.934924066658602442e+03
3.501263623804662075e+03
3.494506429849291635e+03
3.569702691950651570e+03
4.113977880958630521e+03
4.893394307400008074e+03
5.034018195527763964e+03
4.663878675231035231e+03
4.565972667084499335e+03
4.701263414427643511e+03
4.782888368176744734e+03
5.687833291257399651e+03
6.414102881378905295e+03
6.156820016709696574e+03
5.624079629193083747e+03
5.401934118568119629e+03
4.844335973937643757e+03
4.616414484891216489e+03
3.907250258072278029e+03
3.261892498438053281e+03
2.860275764460277514e+03
3.184398661628912123e+03
2.743332707778229178e+03
1.528124894524592037e+03
4.777643424229108859e+02
-4.847587078863585361e+02
-1.187482485079695152e+03
-1.533219889668453106e+03
-2.527756849941874407e+03
-3.101013313790120719e+03
-2.238064009798291409e+03
-7.738909500258234857e+02
5.735401561208183239e+02
9.242523563353096279e+02
1.474439839348719715e+03
2.170356085531980170e+03
1.854225437853282756e+03
1.088047737140576146e+03
8.658062945591933612e+02
9.903257701198589302e+02
8.678610744888477484e+02
4.421884013234143822e+02
8.699663208163043464e+02
1.911454190951487590e+03
2.486701953987659635e+03
1.458478882245502291e+03
-2.030725031916936416e+02
-1.257752088324052465e+03
-1.484860060295837684e+03
-8.654633674098549818e+02
1.754814652263245875e+02
5.999630521323099401e+02
6.689641792309251969e+02
-1.524536649150673497e+02
-6.842356001344040806e+02
-9.854111348955796075e+02
-1.913918818263728326e+03
-2.187771623309565712e+03
-2.357929885749905679e+03
-2.661369095924974317e+03
-2.401124861590830278e+03
-1.470174800974072014e+03
-9.434412924453698679e+02
-5.089078277972571982e+02
7.063543682703411832e+02
1.251297871688040686e+03
6.298656084587634041e+02
-4.582677520885544453e+01
-5.217412807046515582e+02
-1.340960992874444628e+03
-6.834313740069281948e+02
1.508896208056126511e+02
