2.720056274497046161e+03
2.424273809588976292e+03
2.674862008779365169e+03
4.011649200239634865e+03
4.670812054025442194e+03
3.822794218970180282e+03
3.050369843452113400e+03
2.687407380185245529e+03
1.863041318592411017e+03
1.695781786039012331e+03
2.131292256831679310e+02
-7.171277779349868524e+02
-8.037933577027253307e+01
2.573073330017128342e+02
-6.084595176198799891e+02
-1.284705765327680865e+03
-2.148161353152331230e+03
-1.774341109777931479e+03
-8.843502202708588129e+02
5.207100246974795255e+02
2.656355810698178175e+03
4.172595678797923938e+03
4.258284714489152975e+03
4.629395774822481144e+03
4.582803914555865049e+03
5.083676039443069385e+03
5.615409692053924118e+03
4.967009064208501513e+03
3.138250002206994850e+03
3.051611259715009510e+02
-1.838543075770484620e+03
-3.397893209416988611e+03
-4.339501034327790876e+03
-3.433362974226486131e+03
-1.940383039534119007e+03
-1.486924054217241292e+03
-1.972253449936205243e+02
1.012537172511056838e+02
2.335929944994071548e+02
1.759536716055140232e+03
2.293246773784983816e+03
1.513004824336169349e+03
9.028083599383671753e+02
8.783218928050222303e+02
1.991701203138112533e+03
2.902116854082091322e+03
1.996543379124466128e+03
-1.118199211022269246e+01
-2.050843024259010292e+02
-5.126551717512714390e+01
3.023027658449861406e+02
1.404826454478680262e+03
1.918366067491461763e+03
8.648317449588406589e+02
1.348441177027342519e+02
6.972790155057003858e+02
-7.755646052821697367e+02
-2.626280478577236408e+03
-2.905943672600738410e+03
-2.475754357414490187e+03
-1.951828520153657564e+03
-2.133249983238735240e+03
-1.083774528322864398e+03
1.149919297225338141e+03
2.607813885969879721e+03
2.716729929212789102e+03
2.261499546968024333e+03
1.653165560903209098e+03
1.906602343780266665e+03
1.854823337401018534e+03
-6.104174642564339592e+01
-2.491094119623500319e+03
-4.329444661270488723e+03
-3.394063779233930291e+03
1.908482547909948579e+01
2.427140470981014914e+03
2.868158323938488593e+03
2.280822537061027560e+03
2.761051902914305174e+03
2.967064228663372887e+03
2.288842503488830971e+03
1.908196534149287345e+03
2.102168359613373923e+03
1.446759806787394609e+03
-1.332894215141904397e+03
-4.730772442956278610e+03
-4.676960431408564546e+03
-4.055567336044769036e+03
-3.769706906031739891e+03
-4.400302904692394804e+03
-4.709002516416891012e+03
-5.184874461453225194e+03
-5.880163490117845868e+03
-6.662197315328143304e+03
-7.586717557417314310e+03
-5.049822901398993054e+03
-3.302579054581510718e+03
-2.430046053609112732e+03
-1.951149970905823238e+03
-1.683962936584883209e+03
-1.211561044259466144e+03
4.700440032533618933e+02
2.243831795283238080e+03
2.815020160699617009e+03
2.432516855905646480e+03
1.998252681583135882e+03
1.676262336000089363e+03
1.197630077427969354e+03
-1.959034219244339283e+02
-2.370318099606523447e+03
-2.396436076395130385e+03
-5.105150184190329696e+02
-6.373007796294559313e+01
-5.960257104181156365e+02
-7.495158035572121662e+02
-4.042579971469563134e+02
-1.421150730919385751e+03
-1.755160966483529592e+03
-7.274490995754250662e+02
1.732903089370199950e+03
3.144970412215421675e+03
3.172932010567657926e+03
1.890690380389123902e+03
-3.595623772148134663e+02
-2.483620319536110799e+01
2.236799814997805697e+03
4.886238954925894177e+03
5.248414685860807367e+03
3.917418373046493343e+03
2.626402061616782248e+03
1.702182432119835767e+03
4.817118265104906527e+02
2.218507610903888860e+02
-2.704980848037040460e+02
-1.594484095446824767e+02
1.378058805062872125e+03
1.861978704039203194e+03
1.036328368294226721e+03
1.215166965504848122e+03
9.275173547822730598e+02
6.203167398775264019e+02
1.591593403290574315e+03
3.136373889617701025e+03
4.398539219351780048e+03
4.733109340601833537e+03
4.479247387605561016e+03
3.606113753370913400e+03
1.690463330790464397e+03
7.282768595012697688e+02
1.269641157443728162e+03
5.464892333375437374e+02
2.477430197426823497e+02
-2.975867171399148106e+02
-1.794470191808211666e+03
-2.124068281973095054e+03
-2.879402365565454147e+03
-3.850522442452037922e+03
-4.702353455639424283e+03
-3.627667600069000400e+03
-1.922340707236089429e+03
-1.777499709166276261e+03
-4.142269258590637037e+03
-3.687622171187790173e+03
-1.748507249812580767e+03
-1.492976014941692483e+03
-7.659324875326420852e+02
-5.233977780982727381e+02
1.808592914808561545e+03
2.900902435528452088e+02
1.403110527219925871e+03
1.672760075452795036e+03
1.986994947984695500e+03
-2.930359319277777104e+03
-4.931311989245322366e+03
-4.862740878297333438e+03
-1.752628184184355860e+03
-2.935076979381026376e+03
-1.762008600081661314e+02
-1.522036894441609775e+03
-1.725480969466008901e+03
8.645127779430575856e+02
2.563918461830779961e+03
4.695816403109036401e+03
4.587333263892147443e+03
1.300408691627451162e+03
2.223949430931265397e+03
2.592093939522868823e+03
3.107992237582680900e+03
1.667719280901914658e+02
-4.766697263837017090e+03
-4.756529917459257376e+03
-2.394665095568190281e+03
1.538898637781234697e+02
-1.299637074337427407e+02
-2.678035950091315954e+03
-3.938304647677441608e+03
-2.519962549224955637e+03
-1.354043159885188516e+03
-4.009597216319873496e+03
-5.244595431906102931e+03
-4.993820867723522497e+03
-2.203195067449758881e+03
1.468300409540836881e+03
2.227652941769790232e+03
6.358745456512565397e+02
1.066984715472732432e+03
4.996944686691117568e+03
6.571872822031739815e+03
4.189984137786817882e+03
2.059085400582748662e+03
2.217162242986279125e+03
4.119292159489610640e+03
4.335620287160408225e+03
2.247187295919337430e+03
2.804349727903125977e+00
6.495241666176992794e+02
-4.573366383874410701e+01
-1.991988672179928471e+03
-2.852187692327203877e+03
-4.288476078568113735e+03
-2.907953187902293394e+03
2.414497459807282098e+02
1.176196500875804304e+03
-2.113636778790305016e+03
-5.682420721018499535e+03
-4.511146545730694015e+03
-3.435620088672111251e+03
-3.317896258614706312e+03
-1.547853891413360316e+03
2.262504188166326458e+03
1.405245540678682573e+03
1.994035635076409790e+03
4.085974447256432995e+03
4.365990610849063160e+03
5.660249832066134559e+02
-1.634737728347159873e+03
-6.793057265860176130e+02
1.302478210213725333e+03
1.923234363824801676e+03
3.394980439671927343e+03
3.229016894662938739e+03
1.145302011910095871e+03
2.668643304051117411e+03
3.877177235299554923e+03
2.727787041344867703e+03
4.400092555684452236e+03
5.687730773682562358e+03
4.561704477597982986e+03
6.749001677942702372e+03
9.218311204233057651e+03
6.603537821894449735e+03
1.742951395985341605e+03
1.281509276890534238e+03
8.141257984354173232e+02
2.697133206285851657e+02
-7.237724570856032642e+02
-2.408293985783860990e+03
-7.483728848767969794e+03
-1.244099619624028310e+04
-7.537128015518355824e+03
1.037060689462303174e+02
2.208477111370880721e+03
1.217295732693442233e+03
-3.320773173828625659e+03
-8.539688849922322333e+03
-8.128401241887737342e+03
-5.400328425809801729e+02
6.053539802704121939e+03
8.549292866345160292e+03
1.001103685392676380e+04
6.219783469431376943e+03
9.806367467104957996e+02
-2.554400676100274723e+03
-7.493347132934920864e+02
-1.534289985176953451e+03
-5.129350989385760840e+03
-4.550559529953739911e+03
-1.992972957450798731e+03
-1.232558050288432923e+03
-1.787210574944580003e+03
-4.642876266599630071e+03
-6.782476222880469322e+03
-4.106034940425892273e+03
6.832928198172409111e+02
5.881595853258674651e+03
8.764072531490990514e+03
4.446945109695794599e+03
-7.078040788665097125e+02
-7.991252567247094021e+02
-1.205058342731963172e+01
2.213159845152006710e+03
-9.167064230130230840e+01
-3.717607803530899218e+03
-3.541760993626250183e+03
-4.171051167509957850e+03
-6.514458624481071638e+03
-8.313111429133630736e+03
-7.012948448789656140e+03
-4.736809362344997680e+03
-3.451685074690589317e+03
-2.396592302855866365e+03
-7.862393425989694151e+01
2.412175071645453500e+03
2.915070819647098688e+03
2.904178104613575670e+03
1.584374602131701067e+03
3.855906684301842802e+02
1.266798124726278729e+03
3.693937771947390047e+03
5.531029855891727493e+03
2.823132077628995376e+03
-2.858781538566502604e+03
-5.444800152457299191e+03
-2.315785438651162167e+03
9.893346643803299685e+02
1.269536455454460565e+03
-5.641714634645198885e+02
-4.038812150378446859e+03
-5.329318511445878357e+03
-2.027814017346388482e+03
1.718525855100462422e+03
4.005636732772373307e+03
4.055645532541909233e+03
4.389643587315899822e+03
3.731697937010212172e+03
3.306764286808052475e+03
4.372864616012375336e+03
3.866176029842750268e+03
2.043779701067502401e+03
4.716666930480849373e+02
-8.873751144245744626e+02
1.813792407879591337e+02
2.647879893855082628e+03
1.677242764589115495e+03
-8.453998180820211701e+02
-8.111310923694545636e+02
-3.379075076898856196e+02
-1.663664681781254103e+03
-2.109382851354379909e+03
-2.317120944331402370e+03
-7.547841348877477685e+02
1.223810296723028614e+03
1.546753465695201385e+03
6.607909056443364761e+02
-2.746922183814578602e+03
-4.434302932819970920e+03
-1.332258473863470044e+03
1.461180873157200949e+03
2.500043598146489785e+03
4.553413939680796716e+02
1.332058086987966817e+03
1.648296933506218238e+03
9.809444941718745667e+02
2.999389892390543650e+02
1.375093015553627765e+03
1.536364510202482734e+03
4.702266094328479085e+00
-1.868914466021748922e+03
-3.206582168675431603e+03
-2.004298183131186079e+03
-1.938953544969822815e+03
-2.555410198912958549e+03
-2.155662391212838884e+03
3.782970159372837315e+02
1.365198057865809176e+02
6.080559122377495669e+02
3.915013503183552075e+03
4.899217826738499753e+03
4.187514332342327180e+03
4.376979968928098060e+03
3.217687770107115284e+03
1.077584397485775526e+03
4.976091656195004589e+02
3.298257316205747429e+02
-7.297912835005836314e+02
-1.976335658934778166e+03
-3.807970670011770835e+03
-4.430649926104524639e+03
-5.929271691311648283e+03
-4.731681781965980008e+03
-3.410741032168160018e+03
-2.452557847430971833e+03
-2.510303173609452642e+03
-3.606113175054902058e+03
-2.719818782670666224e+03
4.937138019795933133e+02
2.291557272400750207e+03
4.170662498826586670e+03
4.327041595958083235e+03
3.756670721899012278e+03
2.501537929850591809e+03
1.975543194391048246e+03
9.235479522750268870e+02
-6.923737543487268340e+02
-1.120096573721580398e+03
-8.107258678563530339e+02
-1.120209198412502701e+03
-9.735319767356278362e+02
-2.348311027934768163e+02
-7.431674296693054202e+02
-1.406507634553991238e+03
-4.967955821839576060e+02
1.021052565198377124e+03
4.461773367574668896e+02
4.816811567899840725e+02
1.799471504491035375e+03
1.955500148045115338e+03
1.273871902280797258e+03
1.565497723185682617e+03
2.388364972331707122e+03
2.070536906474512307e+03
6.169120704437551694e+02
-2.008475638670812714e+03
-4.036592700569065983e+03
-4.076502187034558574e+03
-2.583520473155190302e+03
-1.785578053257563624e+03
-1.173375914724011409e+03
-4.826002692154875717e+02
-6.168063209621022907e+02
-1.113045584811987055e+03
-2.708849496614125130e+01
-1.509440613058024496e+02
-7.658206754677448771e+02
-6.026720860622766622e+02
6.066710866846023009e+02
2.786027826864762119e+03
3.224671157889336428e+03
1.887294679419080921e+03
2.284618455590437804e+02
5.082380433539443487e+01
5.640844472885562482e+02
5.732144099889999325e+02
3.355705057816521730e+02
-1.644578080795912172e+02
-2.624759898576282922e+02
-2.674426717511425409e+02
8.615596332713600702e+01
-3.853624082388714811e+01
6.366358018807055714e+02
9.505955632941446538e+02
-2.413939197747256742e+02
-1.634597869032093058e+03
-1.114051042114536131e+03
1.173297269992533074e+03
1.947850815820930848e+03
8.425957553446739894e+02
1.001352760666361291e+03
1.680016584498034945e+03
3.952884770618439347e+02
7.273105087979664631e+02
2.427413399984312946e+03
2.464583800299510585e+03
1.392455678691048433e+03
1.060723842152288938e+02
-1.877247063664814505e+03
-2.343833721395680186e+03
-1.572536095349785001e+03
-3.806576379287878922e+02
-1.436036796449895192e+01
1.175293294404843323e+02
-4.875995774404670158e+01
-1.123344356839833381e+03
-8.885529427977860450e+02
1.848726723129417906e+03
3.122831821612488056e+03
3.421766129020137214e+03
3.373359675714898003e+03
2.691469992955994257e+03
2.618188043634298992e+03
1.932682289372578680e+03
1.452965088813974262e+03
4.167965409739296092e+02
9.927246037342288787e+01
-2.694719981344467215e+02
-9.544578500335427407e+02
-2.540718602978790841e+03
-5.104483186402205320e+03
-4.354700057221587485e+03
-1.505336705656422509e+03
-2.075094888513687692e+03
-4.186860382297522847e+03
-2.938957648780896761e+03
-1.601380877031254613e+03
-1.359042603784311268e+03
-1.291200864422531538e+02
2.103225498445682206e+03
-3.987109720675751987e+02
-1.835086071437897090e+03
-2.670473979375884142e+02
1.606545710162179830e+03
1.616025954281682516e+03
-9.457125112551490247e+02
4.701082749054180567e+02
-1.573619370195763167e+03
-3.816840495982552511e+03
-2.654623180636630423e+03
-2.040825513262893764e+03
-4.074294043670030078e+03
-2.514270376774368287e+03
-3.881732765484171068e+03
-5.384761696508943487e+02
-5.546957463138109006e+02
-2.993263178532540678e+02
8.980472126282300849e+01
1.554524934193861156e+02
-1.974047375130460296e+02
1.642618089757140069e+03
2.038747223272011070e+03
1.322678174843100351e+03
3.884253411504406586e+02
-4.029927797923118646e+02
-1.019595534810303889e+03
-1.456307348244524519e+03
-7.857509570043603162e+02
2.531522470709831225e+02
6.076187399447048847e+02
1.783241913537506775e+02
-4.993790188207826759e+02
-5.712302688254158056e+02
2.560939170784493513e+02
1.394807329419837515e+03
1.714556539206402249e+03
2.245720067266675869e+03
2.921261216316243917e+03
2.834339305716113358e+03
2.776052265220945173e+03
2.851889806044694978e+03
3.057003783914011819e+03
2.877289896217834212e+03
2.240291301283187750e+03
1.030294476295018285e+03
-1.553217532565731460e+02
-1.124890530254941950e+03
-2.034532878752053193e+03
-3.081170400851967315e+03
-3.255700815400051852e+03
-2.761852997575797417e+03
-1.794571618095188114e+03
-2.648227669078828512e+03
-3.848063003222024690e+03
-4.239236505228441274e+03
-3.338583371094319318e+03
-2.375360052509488924e+03
-2.285867299623224085e+02
2.500093232918425201e+03
4.430753578035709324e+03
5.484450568658287921e+03
5.091275175441270221e+03
4.284576199656457902e+03
3.583151968416466389e+03
2.901051522834174648e+03
2.026426342684190331e+03
9.962587694647780836e+02
4.953207330111527540e+02
-2.456050951925135806e+01
-3.594053261615520682e+02
-6.891078969701004553e+02
-1.718753137287033042e+03
-1.231584649869133955e+03
-6.235370800573492716e+02
1.124170782525866059e+02
4.434168465403677715e+02
7.735210155988600036e+02
1.416578627238219951e+03
2.122454098304197487e+03
2.008169841142336963e+03
1.576045722366171958e+03
1.154378534956985959e+03
1.620244503801050087e+02
-1.016588014052514382e+03
-1.427579807355130924e+03
-1.003751948323989609e+03
-5.489158064069764578e+02
2.680903336677451989e+02
1.047122208497619567e+03
1.313813041905299997e+03
3.440286957894439297e+02
-4.091733410580039276e+02
-8.056432044603640179e+02
-7.353700646109139143e+02
-4.272510930704856378e+02
-8.727452969038557740e+01
4.694253166304325759e+02
1.096991708780209819e+03
1.790543418373344366e+03
2.603087888322436356e+03
3.094603100872351206e+03
2.691878185185534676e+03
1.992768748170678464e+03
1.762482790147932292e+03
1.366147592746108785e+03
1.198576633982608200e+03
7.527297530598601725e+02
5.537341735311118782e+02
-3.949650840487390013e+01
-5.569600597576369410e+02
-1.594773208249361005e+03
-3.340023717028406281e+03
-5.999594732483813459e+03
-6.503352162640479946e+03
-6.279044486107623925e+03
-5.814843244470072932e+03
-5.518152810971622785e+03
-5.098939775575673593e+03
-4.877166350391388733e+03
-5.208319118689955758e+03
-4.580625182042591405e+03
-1.240178985767934364e+03
1.926112295481679894e+03
2.662241735221302406e+03
2.743981453284766758e+03
1.950310465638494406e+03
9.373701310104584081e+02
-1.247699124707698815e+02
-8.911226007309622901e+02
-1.376869274656804237e+03
-1.114906509826953879e+03
-9.481817029862417030e+02
-6.807344329906213716e+02
7.026197360424232841e+01
4.000063917405396978e+02
9.564262058856792237e+02
1.219269397425178113e+03
1.751721709677104172e+03
2.272923543566773787e+03
2.884811334434119544e+03
3.224529475580616236e+03
3.378145587052771589e+03
2.857542797693832199e+03
2.394731689651771831e+03
2.087780841917416637e+03
1.451733336901176017e+03
6.727009041243788943e+02
-2.473783974584611656e+02
-9.054578810136732727e+02
-1.390759658439911391e+03
-9.653113705040769901e+02
-3.451133277937834691e+02
-3.860816887276997704e+02
-1.530591352621189287e+02
-8.174127829098072340e+00
8.744107873821442354e+02
1.371763278277433301e+03
1.536855918211839708e+03
2.299830643065560707e+03
2.767753799905549840e+03
2.574717596543399850e+03
2.205665019838384069e+03
1.947695804747639158e+03
1.936886253845497322e+03
1.454159154043076342e+03
1.081460880683037203e+03
7.338987843634841965e+02
-1.385871523387840512e+02
-1.110089023403974352e+03
-1.773480417964022536e+03
-2.637738719665099779e+03
-3.201001066541667569e+03
-2.749338379233870455e+03
-2.264448821971798679e+03
-2.318257204105568235e+03
-1.396789180732116847e+03
-7.693310331336861907e+01
7.254805254780242194e+02
1.253454646727886484e+03
1.567053972392782498e+03
1.650206688095554455e+03
1.725945721770387991e+03
1.941286098057072422e+03
1.290130828372951100e+03
-1.851615634857182613e+03
-3.651819438865679331e+03
-2.987566836848700405e+03
-5.939034803653080417e+02
-2.607841962312884789e+03
-3.797288259409571310e+03
-3.443150821099703535e+03
-2.312549349525642356e+03
-4.225376317250068496e+03
-3.134485245196912729e+03
-3.418977365660373835e+03
-3.401929860943499989e+03
8.621184283649215629e+00
1.777651159061343833e+02
2.154579234141866436e+03
2.047133881928206847e+03
-1.955909927202410756e+02
6.163979796993945683e+02
2.485117003991034380e+03
8.375335819607392978e+02
1.827003796224459506e+02
1.182719547415947545e+03
-9.744343773025919972e+02
-1.897799019146763385e+03
3.875241422555254758e+02
6.530017647683233406e+01
-5.325008954574384461e+02
-6.356308872956624327e+02
-1.617999737612177114e+03
-1.744832927786164873e+03
-1.822672554909400731e+02
-1.719161985237552926e+03
-1.284369628825111022e+03
9.530805083960644879e+02
5.611824388711531810e+02
-6.300044289153937598e+02
-1.976304774949282148e+02
1.215230687151626171e+03
9.027397008517395989e+02
1.390005037301318680e+03
2.269034875308607752e+03
-2.871359882387534981e+02
3.403815101045819915e+02
2.004362768034393696e+02
-2.600381767195642624e+02
-8.779605791889827060e+02
-1.058390257976785279e+03
-7.853628390620416440e+02
-5.427521714838812841e+02
-3.956901301540145255e+02
1.346349203456637724e+02
5.202684140589099115e+02
8.911875318020474879e+02
1.635408691924211325e+03
2.372114300469784212e+03
2.925396445467109515e+03
3.040271444694364163e+03
2.782717603880263596e+03
2.366784684269930040e+03
2.034387207885058842e+03
2.170542063390714247e+03
8.992297037828925568e+02
-8.595000775665104129e+02
3.703941348532028428e+02
5.377135540793078690e+02
-4.880330401132751206e+01
-4.708612557619773042e+02
-7.002328184993180002e+02
-6.563292111204085586e+02
-2.103898024006225853e+02
-5.509496486941724669e+01
9.524717614475167693e+02
1.680179191110191368e+03
1.905419942940997316e+03
2.115144186717280718e+03
2.693098642655585536e+03
3.085376712397608571e+03
2.922893683187290208e+03
2.844485095317117612e+03
2.742885448750341311e+03
2.200552527838965943e+03
1.713492183008159145e+03
1.404404924149022463e+03
6.273021962754469314e+02
8.461768455007486978e+00
-5.355913984700060837e+02
-1.042792538294482256e+03
-1.400401916900447759e+03
-1.042115999770684766e+03
-9.319835654141242003e+02
-5.969964652724017924e+02
3.799365937047153352e+02
1.298851779243375177e+03
1.963361481952316126e+03
2.450568003424010840e+03
3.039515329944730638e+03
3.735158873249672070e+03
3.508482405600682341e+03
3.039544347766714964e+03
3.007315455682845368e+03
2.700580716220024442e+03
2.033247788435934353e+03
1.377330318382706764e+03
7.478888634291707831e+02
2.618616594016954195e+02
-6.337995582976312789e+02
-1.002080302628025947e+03
-1.028026162289652120e+03
-8.486379578809086297e+02
-2.578812044525161014e+02
-6.257956825878870859e+02
-4.333881428260004895e+02
4.713371700648586966e+02
6.934138367064726935e+02
-5.824687243704205031e+01
-2.021609426441854794e+03
-3.282601395496988971e+03
-3.334170299419537969e+03
-4.082361195999416395e+03
-4.188173560066593382e+03
-4.837620549060322446e+03
-5.768740165216837340e+03
-6.247541322796953864e+03
-6.077089091508785714e+03
-5.790455894411154986e+03
-5.506534652656891012e+03
-5.606284319667446653e+03
-4.874668952473406534e+03
-1.563807833013827576e+03
-4.768309929587713469e+01
-2.616413940801772696e+03
-3.805056488762540084e+03
-2.463547898845139571e+03
-4.656783622646041295e+03
-4.823659624410809556e+03
-4.196151157756121393e+03
-3.651261541121698428e+03
-3.107964175115957914e+03
-2.619234675281738419e+03
-1.797070023972315994e+03
-1.539428162148461297e+03
-2.036273339520681247e+03
-9.626509987865324547e+02
1.214413576536858955e+03
1.443023225768233033e+03
9.310753679943509269e+02
2.025378539454209488e+02
-3.505833348834357821e+02
-3.882328839818300708e+02
-2.583116047171725427e+02
2.541871029255941892e+02
1.282183708184204306e+03
2.051835739168925556e+03
2.837180777120478069e+03
4.176256282008446760e+03
4.291175520897207207e+03
3.987978615792021628e+03
3.734670184877821612e+03
3.655193953421078731e+03
3.391522374278097686e+03
2.866642900408598962e+03
2.516580842021695389e+03
1.807369797273509676e+03
1.087112442706599495e+03
2.368313957878158362e+02
-2.474974103714192495e+02
-4.749096078249340849e+02
-4.193937399466385045e+02
-4.459130443854992336e+02
-1.345247118659513141e+01
5.170140455365393564e+02
1.184532873162091164e+03
1.640116683341203725e+03
1.986856274536044111e+03
2.567896524705431148e+03
2.783317551602631283e+03
2.742108803749430081e+03
2.616244503365126548e+03
2.564724569966192121e+03
2.300629787779266280e+03
1.541934021548792771e+03
8.786221238053499292e+02
6.396743726936795156e+02
1.392002064597926108e+02
-2.675636701763787073e+02
-2.284025152094101827e+02
5.649078795220327720e+01
-8.228851337515478690e+02
-2.143479694765987460e+03
-2.775258567874439905e+03
-4.458344082342394358e+03
-2.751678891774122349e+03
-6.881457730551318264e+02
1.622287872749792825e+02
1.484353029802317451e+03
2.918392850035256288e+03
3.536311993247131340e+03
3.200011555201961073e+03
2.720536135485039722e+03
2.237983936896616342e+03
1.572360290361560146e+03
9.465060543808937155e+02
5.533852076337957442e+02
-5.406039520663441067e+01
-3.078319953725274445e+02
-3.279726324261958439e+02
-3.044949903115739289e+02
-5.523498453248322448e+02
-8.435313135641082454e+02
-5.989861884633539830e+02
-2.337748250603875135e+02
1.340777586332300189e+02
9.235785143108339525e+02
1.200761641577471210e+03
1.100693338984830234e+03
1.374393155850555786e+03
1.416879828471564906e+03
1.429162516350501846e+03
1.848222560696078972e+03
2.396091415786585912e+03
2.375843474192375197e+03
2.025433398406877131e+03
1.575724620187153278e+03
7.836450089533868777e+02
-1.908122877838502518e+02
-6.656473379628093880e+02
-1.105897775358944045e+03
-9.684787085651287271e+02
-8.675147062167842478e+02
-7.250731851379674708e+02
-3.662427105653176227e+02
-7.807868726036539897e+01
3.354492411392411100e+02
3.424288541900548353e+02
7.288903811413571248e+02
1.059808440416252552e+03
1.166109730898441512e+03
1.103864046959941788e+03
1.659115426123977841e+03
1.753872983892424145e+03
1.084059668361591321e+03
4.246144297533037957e+02
-7.214680965798468151e+02
-2.672194378865489853e+03
-5.495650414008810912e+03
-7.303023110406288652e+03
-8.269276342250330345e+03
-8.578407338731070922e+03
-8.802548329468605516e+03
-7.989767448063078518e+03
-6.172089608610367577e+03
-2.389475271315285681e+03
-6.089577914411565729e+01
1.607630962765202639e+03
1.784124620444804123e+03
3.285435345226204618e+02
-1.229002715028091188e+03
4.906511032186584771e+02
7.873560686171878160e+02
2.819023275271094349e+02
-4.970458277231421107e+02
-1.212183413136809577e+03
-1.527519337770640050e+03
-2.022230884874507865e+03
-2.546428969674920609e+03
-1.957724216895802783e+03
-2.069335207286151217e+03
-2.145261412607954753e+03
-1.347684545612539296e+03
-7.949238083853801982e+02
-1.308694521619492889e+03
-1.947232383821051144e+03
-1.817415547845201445e+03
-1.052091571796686594e+03
-4.555485240054600808e+02
-6.058410037715015051e+02
-5.506443673089067943e+02
1.308973852023690370e+03
3.375791186624050169e+03
5.936061193113244371e+03
7.237648236240654114e+03
6.458289200278911267e+03
4.730217857764128894e+03
4.279429380321937970e+03
4.407802466132411610e+03
3.330327375714883601e+03
2.384035669168540153e+03
1.968836785495207323e+03
1.405945426796238962e+03
1.570098795724123875e+03
2.454049352053531493e+03
2.178081497292180302e+03
1.366417002676068705e+03
1.163884873486663992e+03
1.688256907236948791e+03
2.616734799529915563e+03
3.440410768395383457e+03
3.854118811533699045e+03
4.277138690115853024e+03
4.232171041801425417e+03
4.146162020721788394e+03
4.700135789151314384e+03
4.532161989038697357e+03
3.624289867174823939e+03
3.266559894048974456e+03
2.428929493872350577e+03
2.082672585336334578e+03
1.416852837289433637e+03
-4.986897810068450667e+02
-2.953200205727299817e+03
-4.139753816886783170e+03
-3.580360120733600979e+03
-3.261091722601591755e+03
-2.921768901686312802e+03
-2.412080412764506946e+03
-2.171992726726693945e+03
-1.537728614972206287e+03
-1.275239165072484411e+03
-1.313359905888816684e+03
-2.221999060042344354e+03
-2.508269969765965470e+03
-3.486961901213585406e+03
-3.695056024752151643e+03
-2.486710617749459743e+03
-2.947780015202994946e+03
-6.288318459240912489e+03
-6.643421074274725470e+03
-6.701154547397656643e+03
-6.762543934213515968e+03
-6.250528139306898083e+03
-5.402038560123250136e+03
-4.254074940052725651e+03
-1.745693553481659137e+02
2.369504847483527101e+03
2.561736719865115219e+02
-1.668401514168388530e+03
-1.131106369785224160e+03
-8.670278985575835122e+02
-8.250045986383070158e+02
-5.879463331731644757e+02
9.458137463756927446e+02
3.652063632250574301e+02
-2.396373609779774142e+03
-3.766758413260610268e+03
-4.090074104771581005e+03
-4.567353082926295428e+03
-4.506570248029064715e+03
-3.070825584294730561e+03
-8.732737280729134000e+02
-6.737856470890778837e+02
9.275418655189672279e+01
7.234182143365278534e+02
6.942576781201079257e+02
6.303103721425343338e+02
1.713444476961435385e+03
3.059588224512933721e+03
3.263966808530090020e+03
3.159693508908475451e+03
2.945673128836707747e+03
2.932050724823222481e+03
1.816885757492000948e+03
4.893048437768073313e+02
3.623404683168991482e+02
3.988556700935682784e+02
-8.713605919821378620e+01
3.462332445580983062e+02
8.419208689974461777e+02
7.562132206209394099e+02
7.362378836049549591e+02
1.496688296962732238e+03
1.487436457419438057e+03
1.671749887207481379e+03
2.434794076004102862e+03
3.364589010546748796e+03
3.673057936570019592e+03
4.104088539229154776e+03
4.352701194483686777e+03
3.752049210183648029e+03
3.740297748518058143e+03
3.651274859682306669e+03
3.282949037309567757e+03
2.339606274754206424e+03
1.020210317480859317e+03
5.215333506221909374e+02
-3.465353744761352459e+02
-8.999188984243968434e+02
-1.620603705310937130e+03
-2.084825813373814981e+03
-2.112480479093963368e+03
-1.328391365117122177e+03
-5.203835376275154658e+02
4.432978500787641707e+01
4.237386403911552861e+02
9.208379509903926419e+02
1.264477344519098324e+03
1.077938800481535964e+03
1.620201370062662590e+03
2.463208242433336636e+03
2.754236488072786415e+03
2.439256680516579763e+03
2.305212160697861236e+03
2.034851646027553215e+03
1.255898405910833389e+03
4.034108252144870335e+02
-4.925342719328584167e+02
-4.102310037438444397e+02
-2.670959226124647401e+01
-7.697484124848238025e+02
-6.184365699954364572e+02
-6.807980652605214118e+02
-6.968618026424245500e+02
-2.855211567877912557e+02
-6.778344497684614112e+01
5.653945255685300708e+02
1.163147509240716090e+03
1.343591015091245254e+03
1.636427702316842669e+03
2.217527177434725218e+03
2.661889217674707652e+03
2.849541377097418717e+03
3.039664330168238848e+03
2.794186036175954541e+03
2.059927570538486179e+03
1.221857391559748066e+03
4.169578225849617752e+02
-4.258174218954220009e+02
-1.290529857672957633e+03
-1.879356332511741130e+03
-2.528161732805448537e+03
-2.643964801933974741e+03
-2.109809966742498091e+03
-1.169808806774158711e+03
-1.197131689119652975e+02
1.775206828200019231e+02
3.486968109955297450e+02
9.718870194276693155e+02
1.213030286212637293e+03
3.672192721475844337e+02
-1.467639041122357185e+03
-3.434365658778864599e+03
-4.086074903332621943e+03
-3.813875387733553907e+03
-4.621689052733805511e+03
-5.192553909482302515e+03
-5.091561216504158438e+03
-4.802794108969857916e+03
-6.253214866339876608e+03
-7.688409307349643314e+03
-8.739701838720375235e+03
-9.609429893846405321e+03
-8.625463044743741193e+03
-4.341986069353479252e+03
-1.725865012428258296e+03
-6.097345784658701859e+02
2.121891293143282269e+02
2.061810039101470011e+03
4.067171464171023217e+03
4.309200000845148679e+03
4.169827463473708121e+03
3.916137950633394667e+03
3.495320536649765472e+03
2.471309989317506734e+03
1.644189044353008512e+03
9.598285827960952474e+02
5.410970846184874290e+02
5.680506058982937247e+02
1.484924294204707849e+02
-6.072627762239824278e+02
-1.193928899005440826e+03
-1.597798373112120089e+03
-1.251244491314031393e+03
-1.295492178615475268e+03
-1.093257723154231371e+03
-5.454856436534535078e+02
-5.230559760121924455e+02
-2.799482696105319519e+02
8.705772055662029061e+02
1.943907063187183667e+03
1.555195244156274384e+03
1.245106752246256974e+03
1.357581129255889891e+03
1.073770376113893917e+03
7.446475314540509771e+02
1.794124668006597858e+03
2.605139144784757264e+03
2.723719635993690645e+03
1.583946774258659616e+03
4.059537432405916775e+02
-5.382313760254253339e+02
-8.947218692965745959e+02
-8.985911144041746184e+02
-9.338327568195154527e+02
-1.498464626149423566e+03
-1.488366464390018336e+03
-4.815062145209181494e+02
1.251033566549679790e+03
1.967341409281295455e+03
2.011455667793514067e+03
2.521499452685858159e+03
3.069550759911015120e+03
3.098695231461800631e+03
1.987016824333725026e+03
1.716704397064896966e+03
1.310886629397995421e+03
5.361741346777555464e+02
-2.353650969478574666e+02
-1.450765304080659234e+03
-2.145181722752493897e+03
-2.335762261436524568e+03
-2.649351849593189399e+03
-2.348158324124594401e+03
-1.963110288377177994e+03
-4.931105014789375218e+02
8.520127954284789666e+02
1.648893659611834664e+03
2.721681321333192500e+03
2.080594754696893233e+03
1.200646637166205892e+03
8.389660929631263571e+02
-1.522696877398242066e+02
-1.526021255065698597e+03
-7.486552103334607864e+02
7.935466766182684069e+02
1.785715220384116947e+03
1.127977424738939590e+03
3.903365922872569627e+02
8.436924935547327777e+02
7.210928997574230834e+02
5.974503096754121998e+02
