-1.163793894804525507e+03
1.188621037183839007e+03
2.404356602874251166e+03
2.216542553139893698e+03
-2.676757295605033278e+02
-1.250157904643721622e+03
1.082120389509314009e+03
1.595228888607234012e+03
1.106176032822291063e+03
1.349077326619784571e+03
1.304938695756383595e+03
1.414831731102102367e+03
1.709788861103774934e+03
2.145777320430731834e+03
2.343774362969887989e+03
1.716984177005564334e+03
1.937591311238292519e+03
2.573725261191540994e+03
2.699497810639414183e+03
2.571891774598005213e+03
1.978788485417486527e+03
1.664135959603839865e+03
1.545019062323033495e+03
1.576715040222958805e+03
1.465319724588976669e+03
9.047552330584168203e+02
1.019348163676719309e+03
8.366930739521648093e+02
1.244330772853135386e+03
9.173001342160249578e+02
6.658091759998015959e+02
8.880151516767612065e+02
4.898890036347180512e+02
1.141281353021026234e+03
1.002096940680742705e+03
8.208071626937173733e+02
1.590449557175244308e+03
2.145685614002872626e+03
2.321183966685804080e+03
2.364087836749881262e+03
1.904390126913940321e+03
1.292062526700927265e+03
1.136142403459005891e+03
7.132712671265023801e+02
6.041601221244167164e+02
6.017255339204854181e+02
3.640184288655328260e+02
6.161568879503947755e+02
7.250998084498913840e+02
2.277989828599516784e+02
-1.937140990142207784e+02
-3.734798205004856300e+02
3.969462639283869407e+02
9.267829791640633630e+02
7.632140012010644341e+02
1.090634552893932550e+03
1.121106578061595883e+03
1.205901252124898292e+03
1.650177468260847945e+03
1.645825469008674872e+03
1.274815530558307273e+03
6.269805446807561111e+02
6.433315313917487401e+02
9.179987735088459431e+02
8.118188588585801426e+02
6.436204592930515673e+02
8.222985573909477353e+02
8.518801018958109807e+02
8.124064464796509810e+02
2.258440624476782261e+02
9.117004750717936190e+01
5.743667367955365535e+02
6.494830354805250181e+02
6.346711385079695447e+02
8.529049912824192461e+02
1.038104049934556087e+03
9.304056148104851900e+02
1.465848986315746970e+03
2.016279504730665394e+03
1.653685593999853154e+03
1.190908689265974544e+03
7.587431827559742032e+02
8.461407857058859463e+02
8.020953835067141426e+02
4.686461727427581536e+02
5.508273866513965231e+02
-9.703053861044840005e+02
-3.445632633890979832e+03
-6.933253034901966203e+03
-8.954321660613164568e+03
-8.789721049602698258e+03
-8.728347772967224955e+03
-8.136318701832924489e+03
-7.958678542288797871e+03
-8.058568851979590363e+03
-7.061949246993825000e+03
-5.963696551548809111e+03
-6.621988855979328946e+03
-7.024632643690210898e+03
-6.414767578944967681e+03
-6.040956636359012919e+03
-6.839357688356853942e+03
-2.832051021865022904e+03
1.521829712731943573e+03
1.028137614488397730e+03
1.163894213544266904e+03
1.640312674869925559e+03
1.802510646530222402e+03
1.865364212947418082e+03
1.479702238353624580e+03
1.072426645228353664e+03
1.079591883971292873e+03
9.621968046280815088e+02
1.255225983555644234e+03
1.698672099416177161e+03
1.590665518821376281e+03
1.467306904737139803e+03
1.735526670738583334e+03
2.072341269095629286e+03
2.372776800943081071e+03
1.885755134814605071e+03
1.318371368554826631e+03
1.163711680603611740e+03
8.206754261691432930e+02
6.423192872449257038e+02
8.749826467135320627e+02
6.240138312482713445e+02
7.033935842951000268e+02
3.577409325398718352e+02
-2.452190890172778097e+02
-2.554416580727200028e+02
-3.238032863046047396e+02
5.770028812488511250e+01
3.490023092739900221e+02
1.299940753147845385e+02
3.925548202227023467e+02
6.446412022409717792e+02
7.983035346192592669e+02
8.267091003283559303e+02
7.569213057721526638e+02
6.510325563454360918e+02
3.891872866631499619e+02
8.133185536952242956e+01
1.336661213791395220e+01
-3.167980921852084180e+02
-4.751945766806277334e+02
-9.037687341912907186e+02
-1.291263165068092121e+03
-8.867337217011387338e+02
-6.662694520541698466e+02
-1.063817717124946512e+03
-1.072422002839512288e+03
-1.206017090857021003e+03
-1.237675422833639004e+03
-7.329556886830229132e+02
-7.165250939507911880e+02
-1.015829744576632606e+03
-1.515033298477209883e+03
-9.826474537015005808e+02
-1.209807706965475290e+03
-1.141544921383301698e+03
-1.310834007078307422e+03
-1.454688590878466584e+03
-1.663100828283003239e+03
-1.682154483329227105e+03
-2.087761657939341603e+03
-1.925873859591079508e+03
-1.650294728607527077e+03
-1.132762002950351871e+03
-7.716332622042115190e+02
-1.131809636359537990e+03
-1.869479593101467344e+03
-1.894603694964452643e+03
-1.680028584613141220e+03
-1.331782899814378425e+03
-9.166997980056318056e+02
-5.888406613855466958e+02
-4.711080501850659061e+02
4.756799737295479247e+01
2.011181930414967098e+02
-6.470341020771830820e+00
-3.252297697950636461e+02
-8.843480615606463289e+02
-1.271785336543597623e+03
-1.167434421117469583e+03
-1.269263031137105600e+03
-1.043318450794224873e+03
-7.546042180239084018e+02
-8.559013295793863563e+02
-1.009230078077759686e+03
-1.298674594784452438e+03
-1.650240261926108133e+03
-1.649876626241532222e+03
-8.496851137137497290e+02
-6.407427724920474930e+02
-5.510639316261542717e+02
-4.355303308362929897e+02
1.150073723977938442e+02
5.535629008035556353e+02
8.460561334511240830e+02
7.924251280998369111e+02
1.855260127703839999e+02
-2.416634226146656772e+02
-5.901235984123920844e+02
-2.089049249074575130e+02
1.059903338139212536e+02
-2.724106799397694658e+02
3.088774246770526233e+01
6.987082176265415967e+01
-6.785340968335708567e+02
-7.712646592514453232e+02
-7.893930319633591353e+02
-2.518605213227194213e+02
-1.177020009553258859e+02
-1.211182442936608972e+01
6.990909485257391509e+01
3.444281063776088558e+02
6.504069628407540904e+02
1.075946023235745542e+03
1.815328583206931171e+03
1.733249867609496050e+03
1.044423977836380118e+03
9.287207889811830910e+02
8.311550164544804602e+02
3.596909430811632546e+02
-3.360779857732683062e+00
3.446396252986698414e+02
6.248461754719774035e+02
9.004224979104408249e+02
1.084615515137591274e+03
8.207289804358829315e+02
6.346952544270042154e+02
9.840592425930258287e+02
9.760858169757148062e+02
1.306218324032819510e+03
1.610907149138701925e+03
1.747091408117534911e+03
1.619776591321134902e+03
2.537863455379479547e+03
2.904703343019845761e+03
2.840627274093403685e+03
2.404241114222675151e+03
2.165187465334570788e+03
2.139758568504036248e+03
1.908729431978463936e+03
1.953809494190041278e+03
2.057626914588882755e+03
1.690829032102783003e+03
1.549480286430159367e+03
1.415176879670923654e+03
1.524813574050960369e+03
2.020881265413780511e+03
2.183589668714937488e+03
2.135082986610735134e+03
1.955109347366473230e+03
2.042725230713170276e+03
2.077175470959109134e+03
2.483640155553238401e+03
2.895544179726292896e+03
3.315874802387564614e+03
3.383978957846071353e+03
3.928956503484070254e+03
3.395270801074176234e+03
2.873765588605847825e+03
2.502665703069242682e+03
2.153930883621511839e+03
1.560158032149198107e+03
1.605165553028449949e+03
1.441975698953573328e+03
1.038549336922927296e+03
9.892566623331381592e+00
-6.039875996513744667e+02
-7.068927889810942133e+02
-1.498322625605061091e+02
1.670120039694001434e+03
3.072241565130893832e+03
2.176581693483894014e+03
-3.916048660611917143e+01
-3.125230662292853140e+03
-4.732643186180294833e+03
-6.047395217885882630e+03
-8.136359181178268955e+03
-8.959232276242622902e+03
-6.108113445676863194e+03
-1.140708481318863232e+04
-1.370952827987657292e+04
-1.325744913353642551e+04
-1.190179037536971555e+04
-1.010370673004135642e+04
-9.556852674146681238e+03
-1.059699256320201494e+04
-6.594138354846341826e+03
-1.269321644859036041e+03
3.441990483079473506e+02
-1.969725910377246237e+03
-3.657037367843319771e+03
-6.353677209075501196e+03
-7.939600529329030906e+03
-8.244786094295835937e+03
-7.077345681467240865e+03
-7.062891406958287916e+03
-7.787784810100059985e+03
-8.328753283094380095e+03
-7.895908450708239798e+03
-7.197769002839509085e+03
-5.650886718900437700e+03
-3.634375508565939981e+03
4.750637557573112417e+02
2.931466472030190744e+03
3.030678441473810381e+03
2.476078805719244883e+03
2.556000991852227799e+03
8.449089663106798298e+02
4.246554500623781792e+02
2.815436596719255249e+03
4.414934033592337983e+03
5.960003021715115210e+03
5.967930669498077805e+03
6.559577112167547966e+03
9.465124745156819699e+03
1.148580416322530618e+04
1.138718134794389516e+04
9.569286648492112363e+03
7.994795273938664650e+03
6.672472820098339980e+03
5.657833853299184739e+03
4.223471204518688864e+03
2.126341919980532111e+03
5.226330256843285724e+02
1.142832324481979867e+03
1.560683931061629210e+03
1.480590942665938428e+03
2.403555339280368116e+03
3.485867214537020118e+03
5.179932778560470069e+03
7.267282559174713242e+03
8.214092442106024464e+03
8.215582768966400181e+03
7.566931884734152845e+03
5.766024913211070270e+03
4.240430705306646814e+03
2.821992792967298101e+03
1.942880114996528846e+03
2.530718313285034583e+03
2.237662709843857101e+03
5.605987142618353118e+02
1.307308533938462460e+02
1.273970311953966984e+03
1.401370303332432741e+03
1.185657664198805833e+03
1.133972942357564193e+02
-7.361527877370177748e+02
-4.948772618731466082e+02
-3.264920785374986281e+03
-3.475059456805832724e+03
-5.559218468516247412e+03
-2.189218808379892380e+03
-2.064097751471643392e+02
4.380962202501548290e+02
1.402118965813394880e+02
-8.038760288482501437e+02
-2.120648048761376231e+03
-1.094620981565892635e+03
1.709193660509539768e+03
3.135456022136331740e+03
2.935847684762287372e+03
1.720284760471100526e+03
3.757659122790701645e+02
-8.196985381839482443e+02
-2.348034386297909805e+03
-3.786238717996097876e+03
-3.699350043515769357e+03
-3.062218821578724601e+03
-4.021842846359974828e+03
-4.921293842604971360e+03
-5.265570867351273591e+03
-7.330673581893388473e+03
-8.536522700410405378e+03
-9.424988248728552207e+03
-1.215797941177191205e+04
-1.516935344812596304e+04
-1.438699848656866743e+04
-9.123892375083678417e+03
-2.733163868852369433e+03
3.660421527353061038e+02
3.589128314679521736e+02
5.597323263944081191e+02
1.921626165294238490e+03
3.989693349662133187e+03
6.225586574436534647e+03
7.569985645948795536e+03
7.211889188029067554e+03
5.231341415457518451e+03
2.953511017276059647e+03
2.081393671889371035e+03
1.656424460549967989e+03
2.027103748497193010e+03
4.351224097602338588e+03
6.250306761659391668e+03
6.865938271342914049e+03
5.888379899690493403e+03
4.297909541809331131e+03
2.844409211217759548e+03
3.722185549059251571e+03
3.849669576313142443e+03
2.603745879309214160e+03
1.720092759578456935e+03
-3.815911771579374090e+02
-2.268579494268076814e+03
-6.185005116201056808e+03
-5.477713541528092719e+03
1.885726302387320459e+02
7.616558979703357579e+01
-3.039946271676023116e+03
-1.979516235712218872e+02
9.805826541951304307e+02
1.446860341948681935e+03
1.944944822822533069e+03
2.107192430803183470e+03
1.528503355630079795e+03
4.857834916670717007e+02
-5.579376088272736069e+02
-1.848710576876662344e+03
-2.351656626600974960e+03
-1.509459749401712770e+03
9.877334033810758740e+01
1.529555287864046022e+03
1.715534681961498222e+02
-1.846961061846776602e+03
-2.378939440604620813e+03
-2.704450244372214001e+03
-1.617556575659063355e+03
-1.761368155316881484e+03
-8.169228973021345155e+02
9.439852488979944383e+02
2.434267540566921070e+03
4.127787010680108324e+03
5.341530821257040770e+03
4.210564441478870322e+03
2.695086560546894816e+03
2.130225164822211354e+03
1.867710310225216062e+03
5.964903894705065568e+02
-1.147554263340828356e+03
-3.806048020004639625e+02
6.011888933383800122e+02
7.956893807779403005e+02
8.879405184344337840e+02
1.403994949758167650e+03
1.605802034038764077e+03
1.079518982832469192e+03
-3.409001048247945391e+02
-1.171767734557718541e+03
-1.152334209329321197e+02
1.199671293104231609e+03
2.455947657634102598e+03
3.197591387847064652e+03
2.744556257069725234e+03
2.206891514390013072e+03
1.989395081262472786e+03
1.892020551028743967e+03
1.736988713841007893e+03
9.733492337707300521e+02
3.580110351689453978e+02
4.077396411699636047e+01
-9.394836553635046812e+02
-1.230708484507381172e+03
-1.459989265685882629e+03
-6.715157229620983799e+02
4.776515325298116181e+02
-1.403299046422960998e+02
-1.097632763753823610e+03
-1.250476087587009715e+03
-1.463637779224274936e+03
-8.209331996881126088e+02
4.412109909192739678e+02
9.145642496208245120e+02
3.852216547709008978e+02
9.844171644013410116e+01
1.371972616402050562e+02
-1.625706147041738859e+03
-2.515266131708736793e+03
-5.154627775455380288e+03
-6.616111021425478611e+03
-1.223273283477405585e+03
3.581833523241336025e+03
6.289990235597166247e+03
4.604124034790442238e+03
1.577473320685082399e+03
-3.459037225955993335e+02
2.889566978314618609e+03
5.355767634552098571e+03
1.857687869818283389e+03
-1.266425067410599041e+02
-9.861065798103315956e+02
-1.492714801959162514e+03
-6.071448280620849800e+03
-6.019400316452672087e+03
-8.405488924296656478e+03
-8.412633516673480699e+03
-7.496035997771061375e+03
-1.247299094565503168e+02
4.980250249313489803e+03
9.675884744439217684e+03
7.004196697027238770e+03
7.319100705624510738e+03
6.314585087972219299e+03
2.779641251428165106e+03
1.121246550436577081e+03
2.483964166090732988e+02
-1.897855870566417934e+03
-5.760557847651517477e+03
-2.431700913858227977e+03
-1.462028780200394294e+03
-1.612687199411645679e+03
-2.121873367707034504e+03
1.517538387663307731e+03
5.329728945322712207e+03
4.214614460545421025e+03
5.122230219485932139e+03
8.608676970989014080e+03
1.204398407162110561e+04
1.199714545292040930e+04
9.562270393912995132e+03
7.481308610129060980e+03
4.997274577321558354e+03
2.611162388337244465e+03
-1.319576490563347591e+02
-1.387023090286970501e+03
-1.879068828341333528e+03
-2.669128050993329452e+03
2.506675411727102585e+02
4.807315880437440683e+03
5.962123865102788841e+03
4.314319260846719772e+03
2.381090042436735530e+03
2.895208214743490771e+02
-5.393347243315631658e+02
2.405446713448949595e+03
5.645868992756304579e+03
8.456744041409778220e+03
7.322802015732657310e+03
5.037937224464024439e+03
2.961888549392238019e+03
-1.486175467769191073e+03
-2.956380492211902947e+03
-2.166326832842934209e+02
2.252325381628276773e+03
4.805276710235464634e+03
5.377162814232536221e+03
3.718282699407484415e+03
1.917985626132340713e+03
7.854149945289486823e+01
-2.575643926045430362e+03
-6.388081223555190263e+03
-1.299206213269504769e+04
-1.670768084289452963e+04
-1.230683857546978288e+04
-2.899353965715024970e+03
6.983888005527151108e+03
1.238192487297696607e+04
1.077472656835105772e+04
5.832919554920951668e+03
3.310907776864728021e+03
2.299011678166088757e+02
-5.443846623488602745e+03
-7.926594264229162945e+03
-7.633410704494808670e+03
-4.588882703726395675e+02
5.785058489724496212e+03
1.468371314198820755e+03
-9.070300384586127620e+03
-1.136536605542911093e+04
-1.139883558990897291e+04
-1.482372998594780074e+04
-1.678410859277047712e+04
-1.647218062742682741e+04
-8.979815536032145246e+03
2.902819877866594425e+02
7.194321121387266430e+03
1.185540825216343001e+04
9.947619895096519031e+03
-4.691832168676018000e+01
-1.414510791944357698e+04
-1.511377578064267072e+04
-1.049084853196843324e+04
-9.282505160336053450e+03
-2.347677981825640472e+03
5.885728613320170552e+03
4.961685973741829912e+03
9.772273799865935871e+03
8.477488511906240092e+03
7.565268262799764670e+03
8.585752535430927310e+03
1.165513241510141052e+04
1.372048009760300556e+04
9.102981086206176769e+03
-4.482559216335174597e+02
-1.085612252485120189e+04
-1.819755999983654328e+04
-2.820259487721566620e+04
-1.642310264362181624e+04
1.911096677263495621e+03
1.117395610088890498e+04
8.469239813616406536e+03
9.220108224251864613e+02
-1.638668854372276883e+03
-2.206691638112149121e+03
-5.760006833971152673e+02
-8.814824297151259316e+02
-6.378624095145942192e+02
2.185466940263218021e+02
4.510946595987410547e+03
4.167935167127076056e+03
2.589572165008097393e+00
-1.350003785762654161e+03
6.502065498824961196e+02
5.285311978103037291e+03
3.701423555629909060e+03
1.312325594774168621e+03
7.078834394084715314e+03
9.210013652730542162e+03
9.621024509649128959e+03
9.450993176924268482e+03
9.271980979276731887e+03
9.462898961883709489e+03
9.753707059189666325e+03
9.358388686967504327e+03
9.993858333167194360e+03
1.033799626513582552e+04
9.747959465258942146e+03
8.720704048850711843e+03
6.999137452978779947e+03
4.548414958114439287e+03
2.578435519628268594e+03
1.277138862744342077e+03
9.676460381578043553e+02
1.914942776946604226e+03
3.568655085168280493e+03
2.890288196777823032e+03
-1.432697490576645691e+02
-2.215701576231575928e+03
-1.499658352988635897e+03
1.562989616547535661e+03
6.671051133285111973e+03
8.530976384548284841e+03
6.015284626567031410e+03
1.937915446447445220e+03
-2.376860072355120792e+03
-5.668900002191287967e+03
-1.032222510006494122e+04
-1.031492820833077167e+04
-3.236318797910013473e+03
2.699330058162846399e+03
3.019766772612838395e+03
-2.900110843399711484e+03
-6.618247888245557078e+03
-7.807516947308988165e+03
-1.107096467989629309e+04
-1.126662568393962101e+04
-5.262732576854667968e+03
1.792627939704144637e+03
6.204342134117084242e+03
6.899303817371392142e+03
4.309582634895497904e+03
-1.035581335532739558e+03
-5.478132867189820900e+03
-6.338443346987874975e+03
-3.171821558780944088e+03
5.686156684162507418e+02
2.538694949766451373e+03
-1.830677055619864404e+03
-5.081745026559609869e+03
-7.818553388338630612e+03
-6.145236655227255142e+03
-5.179941276417060180e+03
-5.134740371568200317e+03
-4.121573803656058772e+03
-3.701528375013580444e+03
-3.950642243662502551e+03
1.011937313714422203e+03
6.760989945345701926e+03
7.500334379871655983e+03
3.228871753616750993e+03
1.586714879617309180e+03
1.391821848359355727e+03
9.549732103238470700e+02
2.260311417375638428e+02
-1.619161912744501478e+03
-4.042637039753958561e+03
-3.797555316065182524e+03
-3.698112126692565198e+03
-5.373435971477792918e+03
-7.632591102202879483e+03
-9.280670788869832904e+03
-8.354561292765947655e+03
-4.628234889247319188e+03
-2.636797254919437364e+03
-4.033879450738531887e+02
1.799054694441830634e+03
2.827478340865188329e+03
2.228613266606721936e+03
1.437183918932020887e+01
-1.754223312846897443e+03
-2.762211541253998348e+03
-3.788746325323900692e+03
-1.064904331348945789e+03
1.989248479851562251e+03
1.980725013141389354e+03
5.485140762668479510e+02
-4.606061463919842254e+02
-1.023742728344479247e+03
-1.172946826301089231e+03
-1.713223360434490132e+03
-1.726530690743283685e+03
-3.989908625162224780e+03
-6.972444591851201039e+03
-6.076168025754781411e+03
-3.469038773542320087e+03
-1.538092998251113613e+03
-5.083164369272076897e+02
-5.137209559362019036e+02
-4.033704168797110867e+01
5.978028564963793769e+02
-6.053280648330596705e+02
-1.660867150044766049e+03
-3.868829269356570535e+02
-6.063248625605397137e+02
-3.475179168882159502e+03
-3.012494830379412178e+03
1.084708765023354090e+03
9.993612145527041548e+02
-1.359634136722750100e+03
-3.276222315996035832e+03
-2.186360720863089227e+03
-5.409970017426053346e+01
4.134956815648349107e+02
1.115373980381400997e+03
4.459615109123071193e+02
-3.805626940699126408e+03
-2.267756980796397784e+03
-4.560509744050514200e+02
-8.862104917974774025e+02
-2.584083428776221808e+03
-7.956656158644774450e+02
3.490035259439924175e+03
2.863204409710952859e+03
1.171155090776940142e+03
-7.236936452209830577e+02
-2.518803271288556061e+03
-3.102453254775541609e+03
-2.390890744829549021e+03
-1.340073651044336657e+03
-1.536328112909373203e+03
-8.374694545543320601e+02
1.627900621917951185e+03
2.287898183577076452e+03
2.591418230450740339e+03
2.961095110104771265e+03
3.415603590898566381e+03
3.922778825980657530e+03
3.637388079525562716e+03
3.168306598587912049e+03
2.788312125212724368e+03
2.548159264122377408e+03
1.904580394465647487e+03
1.617175010283149504e+03
3.104411101511291804e+02
-1.048785069208204959e+03
8.240985785955778056e+02
1.476410035567276282e+03
-6.167267933894845555e+02
-1.543490572741942970e+03
-6.352979253997415299e+02
-3.063919952558209161e+02
-8.770274569507815841e+02
-5.824561101799152993e+02
-5.397730335928719825e+01
1.143006021768813554e+02
1.161635884271719988e+03
2.055240970806853056e+03
2.780129015541814169e+03
2.858371245707845446e+03
2.625964567028927377e+03
3.019020627811789382e+03
3.018456610399523015e+03
2.855156689592255589e+03
1.974118180934419797e+03
2.230001616001848106e+02
-7.114089685747081830e+02
-1.203878743563906937e+03
-1.534194696022651897e+03
-3.853067148759640190e+02
1.140827480508843109e+03
-7.589316099800686288e+01
-1.263806474533680785e+03
-1.756076481007664825e+03
-2.069780036622666557e+03
-2.470578557958559486e+03
-4.693377982901715768e+03
-4.530180773052778932e+03
-5.970739982302481621e+03
-8.365334923685997637e+03
-1.043730292202665987e+04
-1.098270333393294459e+04
-1.055166978685598588e+04
-9.760123273691480790e+03
-9.186915434776325128e+03
-5.319064780538122250e+03
2.957362715619831761e+03
5.927407725053635659e+03
5.807231568011638046e+03
5.217132008476222836e+03
3.872881911728286013e+03
2.933764397247230136e+03
2.505210972307687371e+03
2.671908084735275679e+03
1.975020158607579106e+03
-4.122955384230614982e+03
-6.036732632398110582e+03
-3.145454753145957056e+03
2.400936165573904418e+03
2.405694432580150078e+03
-5.104118035393158834e+02
1.292394880129800185e+03
1.509423305879596228e+03
1.013509259367091204e+03
-2.373612152937096198e+03
5.436431616089749923e+02
3.507743036327719437e+03
4.428485054493546158e+03
4.421132845038463529e+03
3.410607686285280124e+03
2.633698993615348172e+03
2.703681803175546520e+03
2.481223826361287593e+03
2.408295893859828539e+03
2.193880930258608714e+03
2.693452378167366533e+03
2.891757769327617098e+03
3.386336103199979334e+03
4.127298401076538539e+03
3.887117108780682429e+03
3.548944127677948018e+03
3.059234974259201863e+03
2.348701641863334316e+03
2.169961404375300845e+03
2.096471931391301496e+03
1.203658820637409917e+03
3.435098421389828900e+02
2.048765068385321513e+02
-6.384363745969797037e+02
-1.550404718016497782e+03
-2.145483570577120645e+03
-2.430165528522053592e+03
-2.411288239872253143e+03
-1.848932516090859963e+03
-9.203515968409089965e+02
4.218287532976797252e+02
2.003830323538526045e+03
1.954132834158784590e+03
1.336956069188615857e+03
5.601487651894992723e+02
-4.943683806841004866e+02
-1.481922175892326322e+03
-3.035273423572440379e+02
1.115093604971849118e+03
5.579712392423381289e+02
8.714111355265480086e+01
-1.886868170553297546e+02
-3.510628443761414701e+02
-5.666047095154589215e+02
-1.230378096440114859e+03
-1.751381364998590698e+03
-1.592060895189050143e+03
-1.910081758435731444e+03
-2.369186434646404450e+03
-2.904983650533368291e+03
-2.815233762744786418e+03
-2.084701982089723515e+03
-5.762394536362122608e+02
1.052509045903264564e+02
-9.415879948744148464e+01
-5.923426594006430150e+02
-5.541289697474169316e+02
-1.090493472295621132e+03
-8.733390072907365038e+02
-9.284897140786067666e+02
-1.349785233448017379e+03
-1.332030880846946275e+03
-1.645979126013519590e+03
-2.185445685099342882e+03
-3.010321008171131325e+03
-4.679520432480079762e+03
-7.508988938346032228e+03
-1.158167245569812803e+04
-1.464223765071758862e+04
-1.547933419015396794e+04
-1.370283671130227049e+04
-8.340761888649425600e+03
-1.676125557027127343e+03
1.202966025274758067e+03
-2.841529022539618268e+02
-2.565918539413600683e+03
-2.298988136345268686e+03
-1.006113168370756284e+03
4.988498598656622676e+02
3.400256659383626811e+03
4.141939307533069041e+03
3.227464154875474833e+03
2.234991031905583895e+03
8.430575228898727573e+02
3.401251709796074607e+00
1.701368052840926453e+02
-1.136826313781041620e+02
1.334989451373374791e+01
6.721769470332444598e+02
8.924291141266610339e+02
-8.888876901723307355e+02
-3.315467841239211339e+03
-5.925891624692785626e+03
-4.738724000483530290e+03
-4.162490572223484378e+03
-2.600960895848380915e+03
3.042839537928894970e+03
4.369754069682481713e+03
1.097837552595249235e+03
3.795389991725714481e+03
3.912009222974229942e+03
4.357984967334375142e+03
4.649517362448528729e+03
4.087446588032773889e+03
2.858983013711064814e+03
2.864352220387436319e+03
2.765686121501504658e+03
2.934186130714295814e+03
3.113097706212487992e+03
3.186102555215317807e+03
3.340211363278019235e+03
3.803948469461333843e+03
4.331912067782893246e+03
4.576142344384787066e+03
4.420730594781023683e+03
3.726816184385620545e+03
3.655631998876366197e+03
3.229489420232012435e+03
3.041556309997665721e+03
2.603785369256572721e+03
1.624323748737754840e+03
1.385476269388672790e+03
8.144951512855818692e+02
2.635404236081385534e+02
2.855422793854132806e+02
6.893715538977380675e+02
5.172218094039350262e+02
9.371318601220511937e+02
8.191897440543729090e+02
5.116358862335767412e+02
3.947302254686749734e+02
8.856674098463601013e+02
1.879607962767871868e+03
2.471633496870414092e+03
2.817848926466847388e+03
2.338062962384819457e+03
1.483297769539793535e+03
1.421821576336954195e+03
1.121827217454766242e+03
6.233653724614190423e+02
3.164620482426323065e+02
2.901477961905603138e+02
2.405709844341224368e+02
9.774191304323299079e+00
-6.879841644553010838e+02
-1.330503333249291245e+03
-1.097040929768782462e+03
-1.614708243833925280e+03
-1.587496143976833537e+03
-1.017317632030696473e+03
-1.197077881284027171e+03
-8.417978609411411526e+02
-3.324532363866772471e+02
-1.486682626030557941e+01
4.979771205750220133e+02
3.349071066860528845e+02
4.803844187084878570e+01
3.957854483803784262e+01
-7.174056004400875963e+01
8.075397180787850004e+01
1.152754160618657835e+02
5.660276089065677070e+02
8.350457498068032010e+02
7.920143507391641151e+02
2.877985988103276327e+02
-3.316424710941798367e+03
-9.667782018625060800e+02
1.384773413826756723e+03
-7.649005433878141957e+01
-2.572066973880105252e+03
-4.521032642917437556e+02
3.334550361817688099e+03
3.456993603393912508e+03
1.264843427913607684e+03
1.689762271234052832e+03
-1.771943217952187069e+03
-1.222551262638407223e+02
2.940781759386022713e+03
3.694077239776645001e+03
1.882441763482038596e+03
3.376475712055531631e+02
2.837553664585181650e+03
-1.313806267220596055e+03
-3.982577129940810664e+03
-3.364086920364466096e+03
-2.901337149193658206e+03
9.896533383156520358e+02
5.147103258228944469e+02
-1.593283751058469988e+03
-1.261501495741210874e+03
3.070033778920656573e+02
-2.652840930213471893e+03
9.808648142794071418e+02
3.093943418343029862e+03
4.372961291000648316e+02
2.436761398750275475e+03
-2.316395270408073657e+02
-1.344006006588090941e+03
-9.678610077108288579e+01
2.260908047084720693e+03
2.263171582162480263e+03
1.448784731771690531e+03
-1.805496781352597736e+03
-2.238036849845234713e+02
4.727896231097831787e+02
6.630974546410459425e+02
3.669511497581549975e+02
3.652505777008710766e+02
4.457509261209319789e+02
5.612255537343254446e+02
7.385626965170994254e+02
4.636742961043783566e+02
7.734521179811109732e+02
1.303644158246454253e+03
1.174167638728469456e+03
7.337735773615778498e+02
3.030038287870386782e+01
-6.812409019483023940e+02
-9.447886974097017401e+02
-1.111485429834517163e+03
-1.130235876337986156e+03
-9.582914698767046957e+02
-8.203639570144731579e+02
-5.506997883191194205e+02
-9.199550414647210346e+02
-1.698190749296541526e+03
-1.577546853779125968e+03
-1.443183312555779594e+03
-1.262058849298562109e+03
-5.864810390182835818e+02
-7.564658250171620466e+02
-3.449973923237366762e+02
3.848201994127008447e+02
8.087879866617274729e+02
1.315505572667570277e+03
2.040605891042910798e+03
2.652272884877019351e+03
2.533082194754025750e+03
2.043436510680878882e+03
2.194449360047677601e+03
2.767106690103815708e+03
2.733391849584137162e+03
2.387312145098600013e+03
2.223768793217896018e+03
1.621603654419362101e+03
1.124660886841844103e+03
9.988933133152696655e+02
8.827693813464353525e+02
9.420866297072852831e+02
1.084868978610355043e+03
1.451773613044042577e+03
1.703618764797597123e+03
2.396218591581177861e+03
2.912628105364858584e+03
2.862463443404835289e+03
2.504623585223596365e+03
1.966173635629875889e+03
1.678457800435978470e+03
1.328303145484124343e+03
1.112707861849997471e+03
1.309614160072177810e+03
1.595058555185285741e+03
1.446019298638874261e+03
1.615385883185629837e+03
1.734088874874476460e+03
1.321041024103996506e+03
1.092242487766005297e+03
1.170588768360510130e+03
1.341999689376868673e+03
1.774397344194820789e+03
2.066712208009447750e+03
2.147988911384844414e+03
2.465226270098732130e+03
2.775381365871467096e+03
3.157484375367706889e+03
3.034452507636630799e+03
2.832187678442635388e+03
2.598783205018255558e+03
2.404260051247971205e+03
2.253514638402658875e+03
1.981556568191908809e+03
1.496371684664582062e+03
4.059685478142907868e+02
-2.754660434069444818e+03
-7.349563855379371489e+03
-8.092787901421597780e+03
-7.887396123652065398e+03
-7.231400239845269425e+03
-5.906817551194520092e+03
6.083901120924109591e+02
-7.797215420977855729e+02
-6.409894010287929689e+01
-2.685668266864335237e+03
-4.222366880432383368e+03
-4.810335234971707905e+03
-5.226630466057147714e+03
-5.151110551847054012e+03
-5.453757252793222506e+03
-4.847530190943325579e+03
-4.455448116659614243e+03
-3.512501772878053089e+03
6.793729945594842548e+02
2.513241075493754579e+03
2.035105106455857822e+03
2.512013532718416627e+03
2.797026110718619293e+03
2.421241850470398731e+03
2.422659874931376180e+03
2.542246570435685953e+03
2.562942595788086692e+03
2.521830801709155821e+03
2.902060513824635564e+03
3.462727080653690336e+03
4.055836555407451215e+03
4.308478986974675536e+03
4.302624279740913153e+03
4.045397125663077531e+03
3.455881745118434537e+03
2.919084132624970607e+03
2.837086105839669926e+03
2.600931437065440150e+03
2.383714255253473766e+03
2.356623098443634262e+03
2.177817839499631191e+03
2.138560630898572526e+03
1.755917190834488565e+03
1.177828072988768554e+03
8.891312191737887360e+02
1.219542030431902958e+03
1.279886482489807122e+03
1.163425158897172878e+03
1.709575573396859227e+03
2.169506077529689719e+03
2.377099218648279930e+03
2.278355530261714193e+03
2.131273321759566898e+03
1.607751290192906254e+03
1.192019818223592665e+03
1.078281767651660630e+03
7.066091844859846560e+02
4.111196570610556478e+02
1.108168347265365412e+02
5.757915512457136842e+00
1.670585739426740872e+02
-1.202361932435725294e+02
-6.090777615305808013e+02
-6.804734266162389531e+02
-3.292299728871872730e+02
1.681428152207278615e+01
3.044172766092545945e+00
-1.916362863683090438e+02
-2.679820811357848811e+02
-1.768413412771638491e+02
-1.289735401884144892e+02
-2.972198037658125145e+02
-2.017275848800458604e+01
-1.252865499882936547e+03
-1.194300004246138315e+03
-1.186365529605925985e+03
-1.307088572746181853e+03
-1.433383398660037983e+03
-1.825143004199742109e+03
-1.754365401130490227e+03
-1.776922243878311519e+03
-1.528806562537397213e+03
-1.794952877355130795e+03
-2.053287136451005608e+03
-2.027749312004109470e+03
-2.045346271166403767e+03
-1.894063528355861536e+03
-1.456810507613837444e+03
-1.656506769774688792e+03
