-5.748978160213008778e+03
-1.266248847856239536e+03
-2.541392286939396399e+03
-5.966278939849667040e+03
-2.166837918931143577e+03
3.765963991158062981e+03
5.422089770750019852e+03
6.305603621561535874e+03
6.854549363280533726e+03
6.724955401133021041e+03
6.240833724265417914e+03
6.368178560786362141e+03
6.192950412742123262e+03
5.738032954455929939e+03
4.808414939655660419e+03
3.866162989895151895e+03
3.689260622864151628e+03
3.016816585829097676e+03
2.543895032488135257e+03
2.470435850886919070e+03
2.793487070711698379e+03
3.022095627054770375e+03
3.430266534142400360e+03
3.680094853112845612e+03
3.342589379024343998e+03
3.870749962349427733e+03
4.181718574125657142e+03
4.216521410727901639e+03
4.131058540817884932e+03
4.087262064352798006e+03
3.969243557895305912e+03
3.243009307296400948e+03
2.337465351381912114e+03
2.577490883092595141e+03
2.754717699493251985e+03
2.514011991584901807e+03
3.318273884556074336e+03
2.956362194446847752e+03
2.692147426520563840e+03
2.570021563274833625e+03
2.369546600972133547e+03
2.192455910874287383e+03
2.711783618461028254e+03
3.206884768337812602e+03
3.321354157776272586e+03
3.329220457770158646e+03
3.700227897624191428e+03
3.564030410811273669e+03
2.850025657807849711e+03
2.545803953411228576e+03
2.564370139334940177e+03
2.312078500178231934e+03
2.030795110943776535e+03
2.147765907940367015e+03
2.328868502039188115e+03
2.446872513550230906e+03
2.114320198839534896e+03
1.142838338738400807e+03
7.006656013959907341e+02
8.523139422171942670e+02
9.889590128113833316e+02
1.352599387138229986e+03
1.759187775857383031e+03
1.930708682834913589e+03
1.950191153678659020e+03
2.023728711276722379e+03
1.869383302572753337e+03
2.173185336929919686e+03
2.199161487729209512e+03
2.198274188299440084e+03
1.962590557546874834e+03
1.693136969271176213e+03
1.183842461446776497e+03
7.646999042953613070e+02
2.487205511543867260e+02
-2.461784171501294054e+02
-3.840722067521158465e+02
-9.309347135662285382e+02
-1.972732172811157398e+03
-2.526456933929769093e+03
-2.696219691028501984e+03
-3.678941819988134284e+03
-3.814649972734167932e+03
-2.586294871523475649e+03
-1.474890367535916539e+03
-3.903733889835147579e+02
-9.826622943119417641e+02
-3.219772601997430684e+03
-6.797697676268358919e+03
-7.274448452112717860e+03
-6.956987077067386053e+03
-8.432306934198921226e+03
-9.257430866968323244e+03
-9.341402345709188012e+03
-9.059249458962935023e+03
-8.763018595943569380e+03
-8.294782748928915680e+03
-9.030550246359256562e+03
-9.773204142212116494e+03
-1.033192997771250702e+04
-1.020561714693331851e+04
-6.299191973628701817e+03
-2.789691478213662776e+03
-6.795049178270493030e+03
-7.387290466851271049e+03
-6.733418974435878226e+03
-2.673319985191344585e+02
3.222971266188974823e+03
3.943420617531848620e+03
3.808943518434309681e+03
3.777545980902338215e+03
4.038303142581798511e+03
3.958216770169581650e+03
3.559245816705109974e+03
3.327439094017282514e+03
2.609724744581976211e+03
2.088075234254665247e+03
1.625489616918202955e+03
1.452000503962510493e+03
1.656564430246972051e+03
1.919265793966012552e+03
2.580142870122966997e+03
2.958152427273022568e+03
3.152305258752279315e+03
3.169698756508477800e+03
3.057366990879990226e+03
3.203263949436842267e+03
3.298421952650403455e+03
2.804852581017350076e+03
2.432544370169413924e+03
2.595532935176213414e+03
2.634829240411415867e+03
2.437379860083317908e+03
2.107186925946958127e+03
1.569248975421726072e+03
9.505837641729906409e+02
3.212224247055416981e+02
-1.518742414779462138e+02
-2.917577807283183233e+02
5.960077566731169441e+01
9.724749028213518898e+01
1.701644144992760346e+02
5.383985616561363940e+02
1.186968837363285047e+03
1.360922258117776437e+03
1.099283872917408871e+03
1.183072990548374264e+03
9.633379841924892162e+02
9.590847661416923984e+02
9.062864525042832611e+02
1.108824106118700456e+03
9.507674150925469121e+02
4.144010342896955308e+02
-2.847185369919827167e+02
3.531481491306758613e+01
2.562828704368128001e+02
-1.888173414276751032e+02
-7.590327112029655154e+02
-8.096412264656926254e+02
-9.585906136589183006e+02
-1.087660463092722466e+03
-3.330433219650733463e+02
1.881333692529248935e+02
3.228711960278084803e+02
9.111550561823792123e+02
9.379156369292968520e+02
8.151684622502694992e+02
1.366968563016509279e+03
1.475298375815363215e+03
1.368133589990969540e+03
1.415497566284647064e+03
1.356384871945405621e+03
1.074759630275416157e+03
6.906233183814022141e+02
8.690194419205269014e+02
8.990029287825083770e+01
-4.847716482159980842e+02
-7.640035706662279154e+02
-1.334818186276544111e+03
-1.440277664754842590e+03
-1.329371707660124002e+03
-1.349105670222302933e+03
-1.108507108896533055e+03
-5.715253138297116493e+02
-2.251169089863369095e+02
-3.472820416702537045e+02
-3.170285512764956479e+02
-8.835319765057035113e+01
3.357155695261282062e+02
5.971467280374414486e+02
7.109285232596022297e+02
4.951061522432614197e+02
5.068922662649227107e+01
3.961206842915586179e+01
3.885226817293069246e+01
-9.758576267724444619e+01
-2.536701015012515654e+02
-8.134711157366689349e+02
-1.014024927934662514e+03
-1.127323138174061114e+03
-1.240379714144014088e+03
-5.741565133472248590e+02
-1.137073081055566774e+02
3.869524131800753821e+02
7.148799783375534389e+02
1.038100532188033412e+03
1.546593744198204377e+03
1.184366824390931470e+03
1.090420258658612511e+03
1.448785972197671754e+03
1.095429452921545817e+03
4.663031531883684693e+02
4.694129484243227353e+02
9.671716313003118159e+01
-1.478589182419537735e+02
-2.443453095902005998e+02
-6.156356843839249677e+02
-7.798527972437311746e+02
-1.351087401132713921e+03
-1.693317202127368773e+03
-1.311536067885317379e+03
-8.637112618865827471e+02
-1.090906800449832190e+03
-1.081125620335003532e+03
-1.289383267887285683e+03
-5.625526715820288928e+02
-3.067918403883082945e+01
-8.908032698833598317e+01
-4.713146776383927090e+02
-3.938821919783258068e+02
-6.140656304362662468e+02
-8.908036737718325639e+02
-7.573618638813854886e+02
-8.468782655292463915e+02
-7.110464959440469102e+02
-1.128285339004368097e+03
-1.657354256722901027e+03
-1.290640457515314665e+03
-1.167358030681442415e+03
-2.081674815565370125e+02
-6.404128463198601651e+01
9.456576995893047410e+01
-3.169753003967509244e+02
-6.682845336293693705e+00
3.383983685671450417e+02
4.947242161822899220e+02
9.907768536218560484e+02
1.503590404021957056e+03
1.620772199953727977e+03
1.587840708399242203e+03
1.566240797408739354e+03
1.871251720957400266e+03
1.330935100881042445e+03
1.312033889755006612e+03
9.928499779065825805e+02
4.000877551594903139e+02
1.625695647240661117e+02
-2.535232630105391038e+01
-7.595862611931290758e+02
-8.325871419336771169e+02
-7.206842517334354170e+02
-3.826933607857337734e+02
-1.072431460333111630e+02
1.974545559443284901e+02
4.052595727072180694e+02
5.391739251894731524e+02
9.191586868396570935e+02
1.088205985014240014e+03
1.437281437715142829e+03
1.204421986525282364e+03
1.161631743137063495e+03
1.478950979859979043e+03
1.014403146370501531e+03
7.268960131628706449e+02
1.232452594684626774e+03
9.840980534681384597e+02
3.448368039349215906e+02
3.162600408058721513e+01
-4.385154838566930948e+02
1.714099316860151987e+02
1.664047962191965837e+02
-1.304938370134485695e+02
7.646974077278892992e+02
1.519019830933590583e+03
2.046494093651604999e+03
2.118159720395210115e+03
2.133066213108181728e+03
2.305224867986147274e+03
1.205713096893003240e+03
-3.325463301273570323e+03
-4.135322627251235645e+03
-3.138823446747370326e+03
-1.540969558115951486e+03
-2.413843576386491804e+03
-1.965372360815263391e+03
-2.191555156098899261e+03
-3.483377898602063397e+03
-1.617568347257756045e+02
-2.737700892542609381e+03
-7.930233481247282725e+03
-6.396359478954992483e+03
-5.890612356300152896e+02
-2.924284223544044380e+03
-6.438021400051713499e+03
-4.639137884177232081e+03
1.084770731379909989e+02
-2.251197892350594429e+03
-1.646216472397703455e+03
-5.375562457666578666e+02
1.768851704352011666e+03
-1.444033475973231134e+03
-1.149175579084859919e+03
-4.675276360721823607e+02
-2.050050521833895345e+03
7.683038054291334902e+02
1.142576098251824760e+03
8.527700911726299182e+02
3.628411463704147195e+02
3.277720723093149218e+02
2.525806759618181729e+02
4.032814501743753794e+02
9.708959040863795735e+02
1.266504496949696659e+03
1.475205670811518530e+03
1.994009294012746295e+03
2.031897504316988261e+03
1.886843465037178703e+03
2.242961378188892013e+03
2.316287096692716204e+03
2.448870860142666970e+03
2.459700949851654059e+03
2.147770862157341071e+03
1.967141901424395883e+03
1.789827545010393578e+03
1.391864737987914850e+03
1.362308778796917977e+03
4.961458324244298979e+02
5.223401796964540154e+02
6.980905727477570544e+00
-1.259591890987729528e+02
-4.596107006260741059e+02
-2.090063818120437702e+02
4.347216375005621671e+02
7.047146979273867373e+02
1.065261840043146776e+03
9.568832044699465769e+02
1.122329313895513906e+03
1.484602161392389235e+03
1.875910895273778124e+03
1.952196055406374853e+03
2.021351441045956335e+03
1.904376387263769629e+03
1.355178211907708601e+03
4.508065288015246779e+02
1.273270431019450598e+03
5.365538335496642048e+02
3.417200168676940280e+02
1.529181339583361989e+02
-3.813833688492778151e+02
-2.326309675632124367e+02
-2.029281376429303521e+02
-3.545401575270842898e+01
3.447565570269800332e+02
1.271101526732967159e+03
1.581995180241522121e+03
1.569703134871653674e+03
1.332813743148411959e+03
1.290242334313834135e+03
1.373917347243627773e+03
1.564843131825448836e+03
1.957991258041991159e+03
1.715373860429598835e+03
1.331059724805128326e+03
6.529812885801708262e+02
5.071099748362807418e+02
2.864134189646741220e+02
-1.001478943932705192e+02
-3.125783670683363198e+02
-6.229544262695368388e+02
-9.423051302290587046e+02
-9.046366843414991763e+02
-6.099333897176425126e+02
-4.492273253175926016e+02
6.046047492588412808e+01
4.841767791661494016e+02
6.759544315917109998e+02
1.114789873102969295e+03
9.996433046966155871e+02
7.615018263550848587e+02
1.072363636985164021e+03
7.911848052195399532e+02
9.039505975291718869e+02
1.303678938914757737e+03
1.136323653500605815e+03
7.658852182431090796e+02
4.402992220361132922e+02
3.415090117375105478e+02
-1.347407303477850959e+01
-5.276846710864584793e+02
-8.111660287741407274e+02
-1.134972228134805846e+03
-1.012076713336482612e+03
-7.754279138594757796e+02
-2.071172719429758615e+02
3.418635166450903853e+02
1.895283996179147152e+02
-2.214105844462983896e+03
-6.074092195578422434e+03
-9.513397803325633504e+03
-9.622017245721986910e+03
-9.091990356789907310e+03
-8.943409858623736000e+03
-9.493253595247771955e+03
-9.233471449112468690e+03
-9.309072201989290988e+03
-6.209152466615939375e+03
-5.877113883102691716e+02
-2.328476951146970748e+02
1.215638881156828290e+02
5.065196771489935372e+02
8.639189588407715519e+02
9.767454998077831760e+02
1.193020340105469586e+03
1.410750191449278645e+03
1.670964612155066106e+03
1.813657153340308469e+03
1.993783818366436890e+03
2.067359924794935523e+03
2.217414070620556686e+03
2.298966059143322127e+03
2.671000566468090710e+03
2.699440668609569457e+03
2.175393597946080718e+03
2.018870192412039614e+03
2.371809572003141511e+03
2.039274583539011473e+03
1.586246934574704710e+03
1.119726652593911922e+03
6.037178787509697031e+02
4.301715500294077970e+02
6.050942690076327608e+02
1.075496205671434836e+03
1.622429011712851434e+03
2.139889261249169067e+03
2.408912415367389258e+03
2.430513483265299783e+03
2.760723442814525242e+03
3.141565634756612781e+03
3.387082756625650745e+03
2.958279995513520134e+03
2.572163453722055237e+03
2.633720155328458532e+03
2.953977901183211543e+03
2.630978542421970815e+03
2.064769347093879333e+03
1.527331058687644827e+03
1.205697628494244327e+03
1.341892687790230866e+03
7.278261239385105910e+02
2.025265702423230039e+02
6.600347895779633234e+01
-4.269954586165850685e+01
1.214746482904562441e+02
3.155215077092594242e+02
6.345256213221825874e+02
1.090505441269785706e+03
1.266480390150500853e+03
1.147525543998806825e+03
1.078742374084423318e+03
1.524096968415759648e+03
1.033582732849935610e+03
5.651881868573203747e+02
1.673046151628910138e+03
1.675139276382743446e+03
1.283476201439707438e+03
1.149135363887831318e+03
6.871249064695984998e+02
1.924511258719643365e+02
-7.458339551124180389e+02
-1.344711311711856979e+03
-1.616200133794224485e+03
-1.004320017231550082e+03
-2.890426740651590194e+02
-4.458309285734184414e+03
-6.568083825046473976e+03
-5.568305305701349425e+03
-6.743954622741999628e+03
-3.518989267748033399e+03
-3.079360494376280712e+03
-3.957072718027529390e+03
-4.921126152967931944e+02
-2.317460041584867668e+03
-1.010681359416282703e+02
-3.669356981223087359e+02
-3.644079529206960160e+03
-2.344489955533051670e+03
3.197813452704215820e+02
-3.025197005014749266e+03
-6.239760891384749186e+01
-6.091773327598018113e+03
-5.800378164904478581e+03
-3.271219248277455335e+03
-2.490235784043615240e+03
-2.754120683496387301e+02
-3.020768924517220057e+03
5.147153190899325637e+02
-2.392945228124567166e+03
-1.876713905036428514e+03
-5.495788357670635378e+02
-1.500487754344441782e+03
1.284513498570750698e+03
8.794429159441184538e+02
-1.378671545986773936e+03
2.196142744649878296e+03
-1.501124609124628478e+03
-4.197438619771422964e+03
-7.948182623497679060e+02
1.297448181788464581e+02
-3.879782603953223770e+03
-1.112428409016749583e+03
-1.619666363951669297e+01
1.331908013488992310e+03
1.840890719913309113e+03
1.920726318895541226e+03
2.188408287902519987e+03
2.738961784712247209e+03
3.099456262467264878e+03
3.399863078845193286e+03
3.825118588291445121e+03
3.704244074834011371e+03
3.154244013044854455e+03
2.818043330472602975e+03
2.761650836156566584e+03
2.472950686618330565e+03
2.257817415625289868e+03
2.134322685189537879e+03
1.799712394144761674e+03
1.075039974350547027e+03
7.452188378161488345e+02
6.212203880605125050e+02
3.000515006501184416e+02
1.055563796170798554e+02
3.868379288018961688e+02
5.749299176569112433e+02
8.948706911465905023e+02
6.964985108030783749e+02
1.135076740626050196e+03
2.055509789125913358e+03
2.447725930542355854e+03
2.758818964635939210e+03
2.695409908034977434e+03
2.356302450867378866e+03
1.933771811736372456e+03
2.182835335018784917e+03
2.037095125309722107e+03
2.041996564174919286e+03
1.779760099530886009e+03
1.016856852148056532e+03
3.758098108124119676e+02
-2.398080225299073049e+02
3.810738834070513548e+01
8.760814027604374132e+02
1.605834756935229962e+03
1.733979477798252447e+03
1.528287291008189186e+03
1.808137767692175885e+03
1.644554894458549143e+03
1.729113493662128803e+03
2.149587078515203302e+03
2.369241110008756550e+03
2.081018660574877231e+03
2.357128702222662014e+03
3.074607298869639180e+03
3.043502509498854124e+03
2.754787480457669517e+03
2.475341864007291406e+03
1.806162758953653565e+03
7.652107322403861644e+02
3.313292823576725254e+02
6.055085884960387830e+02
1.323714833885834196e+03
1.397863836148493192e+03
7.469695864305282385e+02
9.640436236747159455e+02
1.351975427028587319e+03
1.909821853137116250e+03
2.143491868965115827e+03
1.827951191673378162e+03
1.936209868165826947e+03
2.346239113097869904e+03
2.621071270840434863e+03
2.770634478908098572e+03
2.881885698644087825e+03
2.646858337636123906e+03
2.376462129075259782e+03
2.268712761977764785e+03
1.782612750875190159e+03
7.341945445299880930e+02
-2.449598258779508797e+03
-6.548853323163392815e+03
-1.013856320313208562e+04
-9.735762478057620683e+03
-1.010745620884288837e+04
-9.804676863895525457e+03
-8.664431721687085883e+03
-7.737730499360491194e+03
-7.434548054307604616e+03
-6.621828939624530904e+03
-6.836562167243017939e+03
-6.057680118129183029e+03
-6.308143772903529680e+03
-7.061035463724479996e+03
-7.028156889096652776e+03
-3.963608035001820099e+03
-2.756408890783510287e+03
-7.017514080147608183e+03
-7.945931140928756577e+03
-8.480704405613560084e+03
-8.130900532631077112e+03
-8.693535761369726970e+03
-5.103631423359986911e+03
1.072872483271213923e+03
2.283067398925913949e+03
2.874022544392627424e+03
3.142708472606714622e+03
3.388176509121806703e+03
3.051520196125953134e+03
3.101799964002813795e+03
3.706145896005521536e+03
3.769570785817477827e+03
3.598085116138888225e+03
3.390658808217654041e+03
3.240307638951427634e+03
3.386124393628075723e+03
3.315134499306694579e+03
2.895377630526421854e+03
2.399930666733859198e+03
2.081890977033411673e+03
1.294306777660319995e+03
5.222022811749159246e+02
4.475879895422455093e+02
3.604428939719177265e+02
4.697709227239496954e+02
8.816067517966971536e+02
1.395065822260638924e+03
2.026217947034095005e+03
2.257097786066144181e+03
2.265810174262167038e+03
2.576353074430200195e+03
2.403740461806309213e+03
2.511107881697631910e+03
2.303578316724257093e+03
2.106171307904053720e+03
2.023957435810369134e+03
1.766042599128780921e+03
1.495513443326257175e+03
1.109382822218562524e+03
8.566358467239583661e+02
1.047236610909778847e+03
5.793065317188694507e+02
-1.916060113757726313e+01
-1.281735673871832830e+02
1.581724421236928606e+02
3.041217877943198573e+02
8.080653993120412224e+02
1.237457666658547851e+03
1.063111302830510340e+03
8.054475078625413289e+02
9.823198456204073636e+02
1.361435993045098030e+03
1.630523757165123243e+03
1.254060473669015664e+03
8.207741618820787153e+02
-1.053796878149846634e+03
-3.754326386962787296e+02
5.224295176127857303e+02
-1.248281389241011041e+01
-2.025356411057134380e+02
-5.932724326582832646e+02
-1.107203599869528489e+03
-4.286598246917068877e+02
7.309541644643363867e+00
-2.783447220435255645e+02
-2.226545557199199266e+02
1.694048883633983849e+02
6.769135001313287603e+02
8.959493259288911986e+02
6.524815842568107200e+02
7.095338092183969820e+02
9.462074007313095763e+02
5.275531506947421576e+02
3.995197164164266042e+02
3.361367367934231538e+02
4.334243641243272691e+02
4.013843105199698584e+02
-1.319788436173336379e+02
-3.866379648034708794e+02
-7.895816777449477968e+02
-1.210915457526740511e+03
-1.821642490120739467e+03
-2.013713250022547982e+03
-1.922120649477777761e+03
-1.645921399095011338e+03
-1.284113332543015076e+03
-8.157065075607440576e+02
-7.396828823571729572e+02
-3.749733974130857064e+02
-3.445546125395784429e+02
-3.435174440623039800e+02
-7.193133155384502686e+01
1.192444174763190290e+02
8.702414607182855377e+01
2.993566438965737007e+02
5.842574226403582998e+02
2.867207336329061036e+02
-7.323249529985685058e+01
-5.567283194701369666e+02
-9.768789348285230290e+02
-9.606911540389129414e+02
-1.054161469402483590e+03
-1.301338815903510067e+03
-1.515292768157193677e+03
-1.356116150289114557e+03
-1.271795869172407947e+03
-5.423585897373209264e+02
1.282273427517126265e+02
6.859153019290888054e+00
-6.785153274939868879e+02
1.010655252533944264e+02
6.253105576675858401e+01
-1.110759237799403536e+02
-1.638203953862038418e+02
-3.918495224718556642e+02
-1.581120271187659796e+02
7.192194426386529358e+02
1.005013429811610649e+03
9.422709555780797928e+02
-1.010137324668222334e+02
-2.790188772399953336e+02
-6.787937057453063971e+01
-2.601567010993807116e+02
-4.379349354089831650e+02
-2.886346302025205546e+02
-2.061573447864673199e+02
1.140611725209357132e+02
5.598346176791452535e+02
7.426921607138220907e+02
1.210301213128593190e+03
1.511030974261521123e+03
1.337539231485860910e+03
1.571971693170237813e+03
1.527542025641638475e+03
1.550795993893475270e+03
1.550465159891776693e+03
1.751980965621057521e+03
1.761711759242848984e+03
1.549329198902689996e+03
1.072411153454996793e+03
9.818664609211026573e+02
1.369844105410554675e+03
1.533487554886291036e+03
1.513122575053189166e+03
1.351484624225842026e+03
1.519036445221927579e+03
2.178468649211105458e+03
2.666697976726728484e+03
3.024828454283127485e+03
3.264517061314817511e+03
3.460909053532114740e+03
3.539131761982162516e+03
3.441714241133612632e+03
3.044214997190198574e+03
2.881509199671902024e+03
3.025136112576038158e+03
3.079304625240734822e+03
2.803041822690032404e+03
2.560078798076434850e+03
2.208164405661868386e+03
1.870105387287799658e+03
1.508928045671160817e+03
8.826694020857709120e+02
8.362015046140109007e+02
1.277429673867841757e+03
1.751349192248457030e+03
2.048954109181379408e+03
2.012216885914366230e+03
2.322159637114672478e+03
2.782812625688973185e+03
2.923186323032954078e+03
1.057236994162392193e+03
-2.749031031983512548e+03
-6.706644861648815095e+03
-6.721621335618626290e+03
-6.317906348681015515e+03
-7.191486199406113883e+03
-7.011401767597260914e+03
-6.294631725496455147e+03
-7.431173337053144678e+03
-7.513033753734041056e+03
-6.848231412834730691e+03
-4.857751529616908556e+03
-5.893551981542304929e+03
-7.761656828032020712e+03
-7.717169817553111898e+03
-6.162102577762842884e+03
-1.179330494022400671e+03
-2.523833556471286556e+03
-5.211596650729139583e+03
-4.869510542383884058e+03
-5.099487928351014489e+03
-5.131581874297651666e+03
-4.716775692157060803e+03
-4.539077618970112781e+03
-4.340432658518850985e+03
-4.493800992251957723e+03
-4.464141251529637884e+03
-4.524414753694616593e+03
-5.141648793814552846e+03
-5.062882052795921481e+03
-3.105111925817237079e+03
-1.492397464872999535e+02
-3.995160420334684659e+03
-6.133920538508866230e+03
-6.305425316033249146e+03
-5.677638566343649472e+03
2.975150342469139559e+02
5.170108296818020790e+03
5.768198009233701669e+03
5.449793999469135088e+03
5.678961698686171076e+03
5.911819882636504190e+03
5.554402251602205979e+03
5.651774068882841675e+03
6.128035024625235565e+03
5.672300221424165102e+03
5.385611899770406126e+03
5.104911522703040646e+03
4.559214533362266593e+03
4.164721461767052460e+03
4.155545533615390923e+03
3.660659514828254032e+03
4.123165575090507446e+03
3.987105020678981873e+03
3.674574997843755227e+03
3.469662197507975179e+03
3.305444567936802741e+03
3.955978676697456649e+03
3.819352332816552916e+03
3.766685446396870248e+03
3.477033386357941254e+03
3.027514762016742679e+03
2.317154171340618632e+03
2.087993434448549124e+03
2.264171669601380927e+03
2.595819793548402686e+03
2.573201230359759847e+03
2.589578647906099832e+03
2.497978026805525133e+03
1.971076693745724924e+03
1.267195487288591494e+03
6.562929470738896498e+02
-6.271193485565361669e+01
-8.809833206594289550e+02
-1.106398980709336684e+03
-1.481460343419589435e+03
-1.616900965841747166e+03
-1.918083738830741822e+03
-1.647936844732140116e+03
-2.586496527136187638e+02
4.228524492743391647e+02
8.157749848762410920e+02
1.325345728622074830e+03
2.423033657161199699e+03
2.884656525707858691e+03
2.461222913259412053e+03
1.739744140904745109e+03
1.019241303574384460e+03
1.173666766859564490e+02
-3.968290960877508269e+02
-7.330593323819014131e+02
-1.848603580888113129e+03
-2.844490321488593963e+03
-3.075741298466867192e+03
-2.669323020187851398e+03
-1.450198417157752829e+03
-4.694049628254419986e+02
-8.485869529066542327e+01
-1.034845418671059605e+02
-6.162479997353029830e+02
-7.941552210151995723e+02
-1.158194099043628739e+03
-1.874356710005271225e+03
-2.431628226805436952e+03
-2.020015491725250968e+03
-1.106504540065868468e+03
-3.350432576901167181e+02
6.283605237548812283e+02
9.036650229678615460e+02
4.198877042828880803e+02
-6.205762800493528886e+01
-3.321913827385542959e+02
-6.215291268965985410e+02
-6.281039200978210602e+02
-5.569060907779778518e+02
-8.689348639128543255e+02
-1.473206228293245431e+03
-1.695648312799044334e+03
-1.309348784566901941e+03
-1.399331308603763773e+03
-1.102563811759080409e+03
-3.361123230021588597e+02
8.150534344097274015e+02
1.847877313818267339e+03
2.043326310575731668e+03
1.463362866340765095e+03
1.904884082281389055e+03
2.109913783893672189e+03
1.612424567230476896e+03
-1.984665987810150227e+03
-6.847401178330793300e+03
-1.084784557614783807e+04
-1.076409018216022014e+04
-1.090214646819156224e+04
-4.778012309062058193e+03
2.225883749585144145e+01
4.545772878334120151e+02
-2.736071006491976277e+03
-7.897118689603589701e+02
1.254621101510205335e+03
7.349101367797849207e+02
-2.443677413252627503e+03
1.245537072015837794e+03
1.590412007693047599e+03
-3.868018138702738270e+03
-5.013798369406812526e+03
3.500376153129748786e+02
1.998426028699212793e+03
3.060252933587513326e+03
3.190414145571677182e+03
2.548867080182518293e+03
1.581491456045181394e+03
1.226204460946496965e+03
1.495927898021829378e+03
1.439646475181649521e+03
1.046347378595135297e+03
1.012966880544263518e+03
1.760446265475912469e+03
2.342779689083095491e+03
2.535906503916536622e+03
2.639800659590232954e+03
2.488416115876169442e+03
2.025711976774961386e+03
2.016641206394457868e+03
2.508077549076207561e+03
1.986991443598035403e+03
1.487298545255610179e+03
1.702991468107353739e+03
1.953994207517367386e+03
1.258249916096355037e+03
8.736464960794578474e+02
4.941849723233835903e+02
3.337635984831403562e+02
4.973183420141260740e+02
1.170774064267458925e+03
1.392150993816328537e+03
1.262362982680336700e+03
1.235385639960661592e+03
1.308239598449139748e+03
8.529360044111724619e+02
9.804251489398923241e+02
1.966633409909024522e+03
3.067578146859379103e+03
3.044239689830458701e+03
2.208578892092267324e+03
1.544544589521915213e+03
1.607076148956454972e+03
1.630167641159605864e+03
1.451806670536899674e+03
7.390194283507166801e+02
4.116748865612344161e+02
-8.931479710806982553e+01
4.281296974355562384e+02
9.269839741573182437e+02
4.381875489638060799e+02
-1.501060943318576335e+02
7.059517656798814187e+02
2.128444488937323968e+03
3.311377466593708959e+03
3.720714658313437667e+03
5.400490907386245453e+03
5.731718609501046558e+03
4.387322747018378323e+03
3.717279835336209999e+03
3.925660834776926549e+03
3.560520449304644444e+03
2.342800854927672390e+03
2.036451661873434205e+03
2.776528392308880484e+03
1.919093080169686800e+03
7.221227598119457980e+02
-9.223976359957113118e+02
-7.521448105221506921e+03
-8.957026906553865047e+03
-9.459089283970455654e+03
-9.603633230838242525e+03
-9.258614875226963704e+03
-8.327979772224154658e+03
-7.061668996873361721e+03
-6.247644792264481111e+03
-6.066852266000019881e+03
-5.556261770397000873e+03
-6.123843864284143820e+03
-6.832537264940078785e+03
-6.678340325662686155e+03
-3.891173172997976053e+03
1.372947257433816503e+03
-1.406934577771854492e+03
-5.098822828711024158e+03
-5.604685757332555113e+03
-5.893442108175006979e+03
-6.438089217453885794e+03
-6.347590868137787766e+03
-6.456914540093828691e+03
-6.316028367096904731e+03
-6.538871978977478648e+03
-6.746422539938390400e+03
-6.347564106914858712e+03
-5.246206370346589210e+03
-4.770272977282086686e+03
-3.128704967447258241e+03
6.055279064349301734e+02
4.125060349856922244e+02
4.489262720833355161e+03
5.431813723042286256e+03
5.115230475919605851e+03
5.025574211690323864e+03
5.636920543347101557e+03
5.364319943277029779e+03
4.578782165969543712e+03
3.886291588040724491e+03
3.368883975369525615e+03
2.944617987041006472e+03
2.502559185590755988e+03
2.109732277952542518e+03
2.165127244084486847e+03
2.123857223258234171e+03
2.055188440629431625e+03
1.782366018419101238e+03
1.408528990789317959e+03
1.553455451942144691e+03
1.449129640496191314e+03
1.087700713214006782e+03
1.155110139041210232e+03
1.012336116710961051e+03
7.805362008322558722e+02
7.266760044417450217e+02
7.656905833596348430e+02
1.563260042819036471e+03
1.532854934130769607e+03
5.577919391071187647e+02
-3.351225850905300945e+02
-3.167894577351004273e+02
-2.747734446938314932e+02
-7.147091359289005368e+02
-4.052862599760748026e+02
6.981149997490477972e+02
1.698115150582876367e+03
2.388430447200860726e+03
2.872686609033736659e+03
3.502408059182727357e+03
3.689183364457534026e+03
3.961565714825415398e+03
4.196190392330809118e+03
4.522881868499096527e+03
4.613112166767072267e+03
4.273360330878197601e+03
4.085789072502750969e+03
4.330246259540409483e+03
3.835184682961544240e+03
3.378844672865704979e+03
2.843702731841918194e+03
2.949854979913171519e+03
3.232757405221621866e+03
3.026381003893339766e+03
2.710993529428707006e+03
3.066620279695368936e+03
3.650551022320845277e+03
3.669553584883668918e+03
3.675609900080496118e+03
3.644676940051627753e+03
3.689744983879701067e+03
3.912836354503839175e+03
3.182938501853747766e+03
2.159040469958439189e+03
2.189150242815275305e+03
1.987234806505302686e+03
1.251238815912426617e+03
1.079186095370424709e+03
7.799752014017411739e+02
5.386448014507735707e+02
-1.828176297979343019e+02
-5.644213534622812176e+02
-8.551787741331828556e+02
-1.048216257558747429e+03
-6.684923010079872938e+02
-4.200334911808707830e+02
1.861551384628063204e+02
1.751444534648147453e+02
-1.310690607930885108e+02
-3.054233331669179918e+01
1.357050971879301926e+02
1.486420487946836602e+02
9.282157913058034637e+02
8.294027855796323365e+02
-8.458454984019389258e+02
-3.250349354222409204e+01
3.324435256730693595e+02
-3.910193964582866499e+01
-3.718113911349964837e+03
-8.084587768977965425e+03
-6.493635693418685150e+03
-2.395268641681757344e+03
-1.983429719290194043e+03
-2.250190499312805969e+03
-6.884638454018142511e+03
-1.178389501865696366e+04
-1.193098996904924752e+04
-1.100190519530238271e+04
-1.034365395297976829e+04
-9.817312772472881989e+03
-9.407852184561435934e+03
-8.311268336028982958e+03
-8.211546419840604358e+03
-8.518720582349975302e+03
-4.222804811089318719e+03
5.291447369972167962e+02
1.687127651469177863e+03
2.111159963043791322e+03
1.997235328862449251e+03
1.288290775172021995e+03
9.672192633095314704e+02
4.069291733643900670e+02
9.542803801870381619e+01
2.366887554225359622e+02
5.867222457533919169e+02
7.505284507889610950e+02
1.304134175462874964e+03
1.758597839802878070e+03
1.981893010922930898e+03
1.866988629060535914e+03
1.959818109482521777e+03
2.133346513330684502e+03
2.050506932270312063e+03
2.060192293647530278e+03
2.387437357637723835e+03
1.893321683220973682e+03
1.526830395252960216e+03
1.251938255386526635e+03
9.116623358584439529e+02
5.009828590236255081e+02
-1.407598647456802243e-01
-2.277392632133116592e+02
2.972703223523287761e+02
3.188696858663845433e+02
-3.099074058243666130e+01
3.157594818287817588e+02
2.870356823100148631e+02
8.798424676159422688e+02
1.193140692319405844e+03
1.376924080310890304e+03
1.643265902570223489e+03
1.521246085606145471e+03
1.490781999276410943e+03
1.333730632776272614e+03
9.901141108686002781e+02
1.030284732615418534e+03
6.957821952458251644e+02
1.026516865685870954e+02
-9.434342236072068033e+01
-2.732208914491084215e+02
-7.425002477231352032e+02
-1.463210539749212330e+03
-1.551073647913314517e+03
-1.321710615788185578e+03
-1.513535258944455791e+03
-1.433598921961003953e+03
-5.735025276790109672e+01
5.692594575264868126e+02
6.283667027555725326e+02
4.735994043278244590e+02
7.552252986221902802e+02
1.177889052599223760e+03
1.390048873044482661e+03
2.274897023399596037e+03
2.679458340326857524e+03
2.674873681719037450e+03
2.154179497900228853e+03
1.609407433527867624e+03
9.075745727993172522e+02
4.306217989722495645e+02
