5.901022954414224131e+01
-8.609293599422233001e+02
-8.693589351486797341e+02
-6.632593263302853757e+02
-6.846880931350839319e+02
-7.406673220354226714e+02
-6.672175550735215666e+02
-1.483217096342156651e+02
2.129742434831228479e+02
1.686218828529177074e+02
-1.113841231557409372e+02
-1.872098570781761509e+03
-3.826585399167379364e+03
-7.259712432230510785e+03
-7.967282959779472549e+03
-7.278643647261222213e+03
-3.218873413422068097e+03
-2.212950243079224947e+03
-3.201849358578866486e+03
-1.805627349195035322e+03
-1.812467480571808949e+02
3.581780861416358448e+02
2.086219246276472745e+02
1.170318149830274734e+02
-7.644541763050353822e+00
1.265335728278502714e+01
2.039637918182812371e+02
6.902660886816371431e+02
6.565367920745991341e+02
5.037335433215948797e+02
2.318520210431586861e+02
2.029611916328416612e+02
2.860378276072346466e+02
4.509979071140028850e+02
1.877296771614796000e+02
1.512472493412200834e+02
3.794916523775809765e+02
2.204655738306695696e+02
2.132556479414796513e+02
6.068491355016481066e+02
4.761781428088625603e+02
1.223051286174310661e+02
3.982523848004153137e+02
3.031243721860440701e+02
1.238696091577111531e+02
3.723861092564908972e+02
1.505752912478805285e+02
-2.968606824395227051e+01
-1.953295037903426987e+02
-4.004253548351299514e+02
-2.959878610563182519e+02
-3.300179490959280315e+02
-1.054633200735517562e+02
-3.853724348261339401e+02
-4.627889473120160915e+02
2.793042993821993036e+02
5.969668304584027965e+02
7.971346060748836635e+02
7.507987157079294320e+02
9.949654854794370067e+02
1.531633478327474450e+03
1.588847482627888212e+03
1.026641456708147189e+03
6.090019726828866169e+02
8.489153155612870023e+02
9.244212554528221517e+02
3.775671034429640827e+02
-4.326664982540582400e+02
4.607297377022139244e+02
6.366304760551257687e+02
5.781461870231852345e+02
8.292752851622261687e+02
6.410239909574786452e+02
5.904429679254999428e+02
7.425543902000365506e+02
7.172943274212668712e+02
4.737085613007669167e+02
4.759165338677595969e+02
2.298059827938620856e+02
-1.381650533431523854e+03
-4.285230896748636042e+03
-2.027895902989634806e+03
-3.248716463841485620e+03
-2.285706187139890517e+03
-9.058774037446664806e+02
-1.922241542981915700e+03
5.311835402647844830e+02
9.494513503007588042e+02
-4.473945149180034946e+02
-1.534315861217828797e+03
3.456803190710056697e+02
-2.081470460193802865e+03
3.612431656081055849e+02
-5.110910000071286277e+02
-8.815028770131507372e+02
1.182097938979896298e+03
1.261743896891865461e+03
8.094353062444431544e+02
8.741834826419010369e+02
1.070947981272428706e+03
1.000793850708638843e+03
-3.625093980274380812e+01
-1.523214749174452436e+03
5.119300684419915228e+02
-1.620812363850862084e+03
-1.514449579969536217e+03
-2.483917076356480266e+03
-3.691705560995713427e+02
-2.574210820826163399e+03
-3.110999317679696105e+03
-2.369510473044536411e+03
-1.928727855136329481e+03
7.683001930963715722e+02
9.865837057524280453e+02
1.182229850222269079e+03
-1.177687300360364134e+03
-1.714173461961266639e+03
1.308511992893603804e+02
9.152742847162528506e+02
-1.854005542015037008e+03
-8.208871351283614786e+02
7.205656812879823292e+02
1.244376057237928990e+03
1.180666862827080195e+03
1.245511589288900041e+03
9.878183200119146932e+02
9.925272394768597906e+02
1.045581696920289687e+03
1.142024913569714272e+03
1.165848720692465349e+03
9.920879658014629285e+02
8.526899511804291478e+02
9.665320163657393095e+02
1.217590337012536338e+03
9.811150228490266727e+02
1.085343102193003688e+03
1.437452635452960521e+03
1.336255746018095579e+03
1.471595171432543339e+03
1.405756272048144638e+03
1.003405192605294360e+03
-1.337419799123678104e+02
-9.172861100153892266e+02
2.778364860426387963e+02
5.875366579921195580e+02
8.799758090243429933e+02
8.030988552307046575e+02
8.748908202473490974e+02
7.064039232037076772e+02
6.495900434065416675e+02
8.719758181011169427e+02
7.568081644829436527e+02
6.644296846213297840e+02
4.996796253190149173e+02
4.170836202803181436e+02
6.936135162852751819e+02
6.726460456400332077e+02
8.592396230331922879e+02
1.039253178432148388e+03
1.254638714280033582e+03
1.138393560516523394e+03
8.762933413999766117e+02
1.187109981810722729e+03
8.819938994509420809e+02
9.110190875315142875e+02
9.625246321790598358e+02
9.975503806597274661e+02
1.060984598363222403e+03
1.015469872428975236e+03
8.117260673077419142e+02
7.208457467129356928e+02
7.747330322474638251e+02
6.914767502404185961e+02
8.811295666660340657e+02
1.069520191509706592e+03
7.435430184609390381e+02
7.730950771991321062e+02
1.275233471057489623e+03
1.315968727666151153e+03
1.145246070932792691e+03
8.939197496193739880e+02
1.060925011512652645e+03
1.115317599975891198e+03
1.061193592703569493e+03
8.675368220003060742e+02
1.038290285947416805e+03
7.674236276353692574e+02
8.889008906124320220e+02
1.217667373670635016e+03
8.157122214357247003e+02
8.420119617725080161e+02
1.028518899831054341e+03
1.020148339009198367e+03
7.468098896209908162e+02
3.634819373427530422e+02
-1.116824450144295270e+03
-3.411086855667379950e+03
-6.220289806762878470e+03
-2.679405809520311323e+03
-2.024105059039147818e+02
-4.719349125902444939e+03
-6.191293661623310072e+03
-6.219333078508218023e+03
-5.821472001302176068e+03
-3.731720782373337443e+03
-4.939031529006343590e+03
-5.987380204495819271e+03
-5.972742485775462228e+03
-5.703317428329556606e+03
-1.853115910340294704e+03
1.428950458931876028e+03
-2.480029117999237769e+03
-5.721080609296453076e+03
-5.472209466539036839e+03
-2.830483548488985889e+03
1.620149823909645420e+03
2.049692785063971769e+03
7.200551116994755603e+02
-2.485721212806120093e+03
-5.044551750054272816e+03
-3.303483491687026344e+03
1.214512821801602058e+03
8.413945599305698124e+02
1.908117802011261119e+03
2.320750004582121164e+03
2.367308833739115016e+03
2.339860110127818189e+03
2.167418487923745943e+03
2.053977666800823954e+03
1.803495870107791688e+03
1.590041042579800887e+03
1.440611583440332879e+03
1.690305386400114230e+03
1.812198347682644226e+03
1.731234590817545268e+03
1.677466152595965696e+03
1.677898607979374219e+03
1.858513318472486390e+03
1.935433587884425378e+03
1.847674359226968136e+03
1.931219326340816224e+03
1.628183591016083938e+03
1.477625342073794627e+03
1.290497052308764751e+03
1.258873194452078678e+03
1.008757622067249486e+03
6.911192964254900062e+02
7.019878100766031821e+02
6.513804887289713861e+02
5.044334498699201390e+02
1.212649685540066145e+02
3.527897675351229054e+02
1.390093068907518273e+03
2.004167511362582218e+03
2.359905711425956270e+03
1.624321066767600996e+03
1.122374056547611644e+03
8.242165493977167898e+02
6.649551570905089193e+02
5.536170276735890639e+02
8.834865095082781750e+01
1.053549307396056065e+02
-3.443837427768410748e+02
-1.920382393940992642e+02
1.535300373942116003e+01
1.100922331446555091e+01
3.096538639068528553e+01
-2.308075420040984227e+02
-1.387237678832794245e+03
-1.872209725988847140e+03
-1.234587189111608581e+02
2.607508339414675902e+02
6.939886858795723867e+01
1.936617709244644630e+02
4.246056323513428197e+02
3.132424035613311730e+02
8.813454002819747757e+02
9.099081949092957302e+02
6.349812092964582462e+02
-2.071596042905131867e+02
-1.627522328384944785e+03
-2.298155681819447636e+03
-2.433141733294463847e+03
-2.346214010491720273e+03
-2.451238691990242842e+03
-2.941296734259084133e+03
-3.175481468134588795e+03
-2.235686173709648301e+03
-1.305812051589404291e+03
-7.159438097377259282e+02
-7.711209750467218100e+02
-1.363309593765682393e+03
-2.725514493992464850e+03
-3.613605661380016045e+03
-3.850490988945278787e+03
-4.021210890819406359e+03
-4.594730163092429393e+03
-4.930938100512511483e+03
-4.567784097434409887e+03
-2.564403710370307635e+03
-3.868305604914110063e+02
1.369940710923965980e+03
2.295904070023321310e+03
2.153079190736962573e+03
1.750482531011618448e+03
2.032061145351284040e+03
2.551798490666694761e+03
2.835690765371639372e+03
3.115793980960111639e+03
2.812114137270019455e+03
2.339818457591691185e+03
1.929094203499049399e+03
1.835783623131620288e+03
1.983737155524393756e+03
1.697975336968673901e+03
1.234570754082576741e+03
1.075346968441231638e+03
6.421350656056762318e+02
5.599357640601726871e+02
5.739109209212692804e+02
4.141125233595270743e+02
3.105778197546925412e+02
3.173870189937467217e+02
-3.354339753104790702e+02
-1.300837974895046614e+02
-5.198102031196673352e+02
-6.084877004044452633e+02
-4.660073807904356613e+02
-3.495389143562953791e+02
-1.372421291488006716e+02
-4.322844520500278520e+01
-4.305416713293294606e+02
-3.268143337271804398e+02
-5.119574743951663436e+02
-1.388377573400405709e+03
-2.325282502288499927e+03
-1.946488858759309096e+03
-1.083788993366650857e+03
2.143791252519704074e+02
1.001298735967251787e+03
1.601066379868095510e+03
1.409765101888630625e+03
1.158427687258461901e+03
1.173423012794413580e+03
1.430732659150874042e+03
2.027096864596634987e+03
2.275503696134133406e+03
1.876922184384288812e+03
1.215677087874163362e+03
1.077314270653454514e+03
7.291671361507486608e+02
1.061122143518212624e+03
1.305815733125529505e+03
1.446325499695178223e+03
2.014642173391767756e+03
2.324753194274459929e+03
2.481594192963958449e+03
2.566134628649605020e+03
2.493391530618609522e+03
2.428388932769238181e+03
1.946703879632700591e+03
1.305572936006843520e+03
9.989176036620369814e+02
9.998050300277135420e+02
7.087621094769638148e+02
5.522009710704437566e+02
4.002113994876723382e+02
1.976630896538913476e+02
-2.627869529417712329e+02
-8.809413834912669472e+02
-1.114802832736488426e+03
-8.215152342798420477e+02
-5.830419170372548479e+02
7.624402949988041200e+02
1.489816296476095886e+03
1.545209716517900006e+03
1.864009258968434551e+03
1.680803210618972571e+03
1.568276861779545925e+03
2.302800868522057954e+03
3.716156722570873171e+03
4.421268893171140917e+03
4.133035598621074314e+03
3.508530586262919314e+03
3.323702629737134885e+03
3.262407744341221587e+03
3.274383203811813473e+03
2.845774873016222045e+03
5.398201058778328161e+02
-3.010589127875087343e+03
-5.084536367542433254e+03
-5.359970821845780847e+03
-6.121913653126114696e+03
-4.869392450494756304e+03
-1.571309287025786261e+03
3.501288126704434944e+03
4.737296809606536954e+03
8.057304529065631868e+02
-2.745373822857371579e+03
-4.692982416410288351e+03
-5.502234748625207430e+03
-5.223938080295602049e+03
-5.297997357211399503e+03
-4.758718974279273425e+03
-2.894164471922957546e+03
-7.748987976811324643e+02
-4.971972619599441714e+03
-6.901656509018277575e+03
-4.021898412350979925e+03
-2.313682884409660801e+03
-3.941977018237360426e+03
-3.473723545481862402e+03
-3.411004735617438655e+03
-4.509783061020349123e+03
-5.355012688382525994e+03
-5.107665639045566422e+03
-4.822829137564554003e+03
-4.309464906742482526e+03
-4.070472705947177019e+03
-4.881840091843555456e+03
-5.142442193474517808e+03
-5.323265033977306302e+03
-3.817313380347307884e+03
-5.966253975388285653e+02
-1.110809739202539532e+02
-3.325729868248597086e+03
-2.760593446230795962e+03
-2.225445331256155896e+03
-9.582333288301706489e+02
1.867965843445983865e+03
2.853040508848085665e+03
2.996430528072206016e+03
2.663063373996405517e+03
2.875885153229996831e+03
3.411915330791033739e+03
3.572170882870446349e+03
2.833720307550175676e+03
1.100624039783764829e+03
-4.371301121988412888e+02
-3.674431527108594651e+02
2.787574030438362911e+02
7.125740339834566157e+02
1.585007770541057425e+03
2.321135056165585866e+03
2.520010764201240363e+03
3.143527957435262579e+03
4.096768695911717259e+03
4.481856759625207815e+03
4.694845751434766498e+03
3.943825046673418910e+03
3.310795478600643037e+03
2.230893254396182783e+03
9.254000973251639834e+02
6.465471277700718247e+02
1.405347255343654297e+03
2.288221604617659523e+03
3.193172713714424845e+03
3.666848147372661060e+03
3.402061031808247662e+03
2.821743499682204856e+03
2.277914707258440103e+03
2.696382592756807298e+03
2.695653113416388805e+03
2.064887344229174687e+03
1.857121011437943025e+03
1.905510611321006706e+02
-5.363976990210263693e+02
1.966855228451496203e+02
7.868480236509174119e+02
1.696888178398935224e+03
1.521975969529026543e+03
1.353109625224628417e+03
1.062912839570220740e+03
9.246689281935656481e+02
8.863936526899585715e+02
1.150432828009059222e+03
1.189044815802237963e+03
1.428816066817814544e+03
1.419248978720847617e+03
7.690153537149689100e+02
2.210104670690765829e+02
-1.488947178776459523e+01
4.392241467465131564e+02
8.875733750340681354e+02
5.031441263132544464e+02
-5.630539892666674859e+02
-1.056003359626253996e+03
-1.753609787048521866e+03
-1.980876569567975366e+03
-1.802875637030845837e+03
-1.995629010820495523e+03
-1.688103372514015746e+03
-2.030234838173656271e+03
-2.799082891151482272e+03
-2.532665398994837233e+03
-2.186867073500480728e+03
-2.452673571102474853e+03
-1.870140402590648364e+03
-1.223275477209208702e+03
-1.772099283596858186e+03
-1.337624312604573561e+03
-4.158129969150921852e+02
4.832039546915855510e+01
-9.641471463804354016e+02
-1.983285515558193993e+03
-1.598105250188678610e+03
4.354310912577360568e+02
1.112301372478232906e+03
2.853414727037371449e+03
4.413682428053172771e+03
4.067064685244975408e+03
3.223607358869068776e+03
1.719419053614910126e+03
1.144987278315011991e+02
-1.498241969504242888e+03
-2.881810698545166815e+03
-2.840241129855602594e+03
-5.855436384843236510e+02
1.426258128743061889e+03
1.096161048696090575e+03
1.231209470634668008e+02
1.472095274236832665e+03
2.754041675591231069e+03
3.108928792491746663e+03
2.061706859262659236e+03
1.065400991501272983e+03
6.331834989003183409e+02
-1.855073587252388961e+03
-4.309325406018948343e+03
-8.176506820521949521e+02
1.443692658348569694e+03
1.763658875537359108e+03
1.134203222501408163e+03
4.382959075063083105e+02
-1.155984463560315362e+03
-3.986231838753014927e+02
-5.624758864785741608e+00
-7.778989975189732604e+02
-3.338525336183250147e+03
-2.991723323923500175e+03
-5.905604049059204499e+02
3.599405144390479450e+02
-3.801935218708915158e+02
-3.850034945289590382e+02
9.053818819258599433e+02
1.091886340720008548e+03
5.194980839513928004e+02
-5.837797549483170769e+02
-2.221920233339660172e+03
-2.433901212166952064e+03
-2.102740388779007844e+03
-2.421411506209492018e+03
-2.077851494383074623e+03
-8.153059853625788946e+02
1.019245912890154727e+03
1.920710137057630845e+03
2.027866380066396687e+03
1.959638268708044961e+03
2.156959401490287746e+03
2.060784346804579855e+03
2.080171949206746831e+03
1.220120463390115447e+03
-2.984496711638889792e+02
-2.033567914578854015e+03
-3.647239980650580947e+03
-5.359514617495458879e+03
-5.717393510860481001e+03
-3.217835715928658828e+03
-1.196869883669417732e+03
-1.018546297689127073e+03
-4.279061735088741329e+02
1.295054059305372448e+03
1.462329636611773594e+03
-1.771445729148888404e+02
-2.572309360872617617e+03
-3.890247143984708146e+03
-4.608922056231561328e+03
-4.030324160958064567e+03
-1.967569640685059085e+03
6.174185384010722828e+02
8.776523576283367447e+02
-1.091878709605244495e+02
1.813473470775323051e+02
2.325121062281175000e+03
3.429113683668837439e+03
2.464262730365214338e+03
1.475155023370384981e+02
-2.805150816985778874e+03
-9.258158545489865219e+02
3.052658011822802109e+03
3.008322069944952545e+03
1.061343502356923096e+02
-2.259890546733512565e+03
-3.878840731397560830e+03
-6.050827594072723514e+03
-7.961793673730007868e+03
-5.964730087925692715e+03
-6.826978935043323418e+02
4.643358033798813267e+03
7.162437089122823636e+03
8.995552462977344476e+03
6.035681347661095970e+03
2.710776908625266515e+03
2.176872947827370353e+03
1.963080774003107081e+03
1.293407864261387203e+03
2.499782164593736979e+03
3.512271818770795107e+03
3.249812071218864276e+03
2.829410891107712814e+03
2.199100860618716069e+03
2.450853585720660249e+03
2.740681514952556881e+03
3.100623776453016944e+03
3.263682448878583273e+03
3.659907846652436092e+03
2.784311948370154369e+03
1.045950814169830437e+03
5.928545790046300681e+02
3.250093763209052895e+02
-2.619612388484652456e+03
-4.690967400381559855e+03
-3.915997837591937696e+03
-2.688689593766308917e+03
-5.703053364894897641e+03
-3.026073531513908165e+03
-1.390712123881733987e+03
-7.629469252996773321e+02
-2.091796305533427130e+03
-4.212249206643742582e+03
-5.191373730449485265e+03
-4.940154752334293335e+03
-2.744516753383777996e+03
-1.347461914785744739e+03
-2.703926529061583096e+03
6.410988695255520042e+02
1.634539685836897888e+03
2.426361580386827882e+03
2.002614877652597443e+03
3.241391781646089385e+03
4.585730214384926512e+03
4.688616100534331963e+03
1.248047758242019427e+03
-9.899349911753589595e+02
-9.724858072868974546e+01
3.821837390438150095e+01
-5.472857861762061020e+02
-8.839017013777321381e+02
-1.055564469723734192e+03
-1.150095784609312432e+03
-1.476005707966348268e+02
8.726882419398427828e+02
5.796603097818787091e+02
4.032314496116362790e+01
-1.119813557879354221e+03
-1.970723031968689384e+03
-2.781347224724229818e+03
-1.783598095736559344e+03
9.694835957291306840e+02
-4.133076365531094893e+02
-3.032277894390654183e+03
-4.023501425728219374e+02
2.255491178230188325e+03
1.938392610996393387e+03
1.778597051444908402e+03
1.622799601499262735e+03
1.590249386221901887e+03
2.238036096577923217e+03
2.071743383832354084e+03
1.846647088885454423e+03
2.211877400255642897e+03
2.845442240158864479e+03
2.153243156479160916e+03
1.095464128688205847e+03
5.921628840816790671e+02
3.799819118764884252e+02
8.149606224981613423e+02
1.487092871257684465e+03
1.871389273685592798e+03
1.323451358589509937e+03
1.938103040140477788e+03
1.365863867757584103e+03
-4.529307844623061214e+02
5.346589657979079391e+01
1.075248785077690627e+03
5.252345950072182177e+02
-2.120848744783743314e+03
3.719568287584916106e+02
1.303692896403012355e+03
1.451401639944798035e+03
1.915054585734024840e+03
1.667613416682519983e+03
1.429097389310121571e+03
1.178589569775829887e+03
4.522284822427444055e+02
1.740167587924024417e+02
4.785228054898625061e+01
4.846641051814833645e+02
7.654491900656706775e+02
1.017121456602066019e+03
1.864682658091405074e+03
9.692284935836851218e+02
-5.703208187232062301e+02
-1.052985874350683844e+03
-1.421723009006697794e+03
-1.529543620162318348e+03
-2.761374824308039479e+03
-3.335253622870834988e+03
-2.210125787186156231e+03
4.430886857525962910e+02
2.041379613420081341e+03
2.325637197604762605e+03
1.764829161904918237e+03
1.590970112271811558e+03
5.490430065572307967e+02
-1.006882562601534914e+03
-2.832813662196873793e+03
-6.371685299994635898e+03
-7.816449458714258981e+03
-8.131209734244753236e+03
-7.581982480937947912e+03
-4.221597304360911039e+03
-4.191898600664853802e+03
1.785975958409893110e+03
1.350900260632300160e+03
-3.043130061598082648e+03
-3.195150952799814149e+03
-7.120609929306225467e+02
-3.648247209906025432e+02
-9.045019202110906065e+01
-2.142964240110299670e+03
-3.012331208017204062e+03
-8.765473282774955806e+02
2.333799305186577442e+02
-1.904563534444097968e+03
-1.223267457686036437e+02
2.058164305297025294e+03
2.209908095013352522e+03
3.868830230336118348e+02
9.110693540281835112e+02
9.024671046883174768e+02
7.931171020498903772e+02
4.531054879305407894e+02
1.153423624112642074e+03
1.839126640456062205e+03
1.971189678491029554e+03
1.574594504018620228e+03
1.188362553420816084e+03
1.525472100536839434e+03
1.042964401204694013e+03
3.059132958032665215e+02
9.102480562578523404e+02
1.680971672642279827e+03
2.048178696504887284e+03
1.941790745232558947e+03
1.637784283277575469e+03
1.013278599688086956e+03
9.692345954328692414e+02
4.925788626247369280e+02
9.543537591135111597e+02
9.837061349544671884e+02
9.406826614687084884e+02
1.470166692238561836e+03
1.675003110681865110e+03
1.498299846309389750e+03
1.306949363214065670e+03
4.719283869287130528e+02
1.593882839698231919e+02
3.054222084300731694e+02
8.431370587144261890e+02
6.535795475295591359e+02
7.067631005085296465e+02
6.316961538437801664e+02
2.402618810207788442e+02
2.371729814668276219e+02
-3.127328702338034461e+01
1.312058532406306277e+01
-2.751736825500443828e+01
-4.974034460755946156e+02
-1.112562964230914758e+03
-2.575846104559276682e+03
-4.918981882343733560e+03
-4.453042361419312329e+03
-2.514331562316734107e+03
-8.994025139293565019e+01
1.774487972186779189e+03
1.260737828352417864e+03
6.179951292514881516e+02
-7.329134844155196333e+02
-1.560850334267923472e+03
-1.486878228164165648e+03
-1.034913396156313183e+03
-8.011717376467505574e+02
3.793511678953363457e+02
1.860801241918576352e+03
1.626351495978515459e+03
1.164776427874632191e+03
5.918681112868949867e+02
3.017122191522516914e+02
9.245467566212070665e+01
-3.696740799958071477e+01
-4.807155998349608126e+02
-8.246599062919275411e+02
-1.328734619738594574e+03
-1.750925273724516501e+03
-2.607187457408472255e+03
-3.231611556390981605e+03
-2.526252672448249996e+03
-9.905159704727017811e+01
-5.810946135262697680e+02
-1.964866863668387396e+02
2.886957447472878471e+02
4.675050940127210879e+02
9.469732975677288778e+02
1.220093775986824994e+03
8.488370324615332265e+02
5.981726582031012640e+02
3.230941714127788487e+02
3.696523185150169866e+00
-1.997030509933803799e+01
1.321432669392538912e+02
9.200970663498227964e+01
-2.743654768633757612e+02
-8.408898906698516384e+01
4.057711487295023289e+01
1.025949455697124790e+02
2.031192611384371389e+02
1.970271128825823439e+02
1.182002853848539559e+02
-3.872742658247069016e+02
-2.822958809124106665e+02
-7.597577275751825709e+02
-4.846749137467845117e+02
5.285255979883993405e+01
-7.002216436726986331e+02
-2.021193940684910331e+02
-1.800630758307477564e+01
-3.393740909325184930e+03
-1.677257475616792362e+03
-1.026683482050764042e+03
-3.219360122926953238e+01
5.032362117501985495e+02
7.257372303121435380e+02
7.194294883021415217e+02
-9.536905014186867220e+02
-4.809507874614219531e+02
6.324380830217548919e+02
5.826518896597192452e+02
4.609872100487536386e+02
4.923552169259804145e+02
-3.222589961667177931e+02
3.232797169058841291e+02
1.031922162983374619e+03
1.037254801803651162e+03
9.848813714906018504e+02
7.307266089324639324e+02
8.139495880731964235e+02
8.415345046467795100e+02
6.267583496532055278e+02
4.807044953640427707e+02
1.063179066097370651e+03
1.356116354749069842e+03
1.033571590949476104e+03
1.179361419896936695e+03
1.055427255216727190e+03
8.518251527023974177e+02
8.475629933799373248e+02
8.506434606670718495e+02
6.909723191777857210e+02
7.605531291773589828e+02
6.293812416797969718e+02
8.094410595563123252e+02
9.887092094518062595e+02
1.265228888241558707e+03
1.492049844973729932e+03
1.598089580277415052e+03
1.407341172700186689e+03
1.187003238260084800e+03
1.606010317948215970e+03
2.082221045463953942e+03
2.195529759500054752e+03
1.939213763815397897e+03
1.581832085002376516e+03
1.517416678775019136e+03
1.536016855346008469e+03
1.496790956928526839e+03
1.702825040125105943e+03
1.539047244846343801e+03
1.520323831269473430e+03
1.550449036261246874e+03
1.700480828651223192e+03
1.798622705676490796e+03
1.616452621049679010e+03
1.697085418762983181e+03
1.762550108196784322e+03
1.835923332721863289e+03
1.671067220149982177e+03
1.337963060335176579e+03
6.906821336477436262e+02
2.185359535090590555e+02
-2.649477702737585005e+01
-1.568628087465483986e+03
-2.507839603234368496e+03
-5.235088817222598664e+03
-6.373364915877130443e+03
-6.187644968288166638e+03
-5.345905311508148770e+03
-4.888302941017280318e+03
-2.858885883375340200e+03
-3.830381987382796979e+03
-4.186808050088299751e+03
-5.208130103393553327e+03
-4.891291392017670660e+03
-2.472303106159683921e+03
1.095642900750318404e+03
2.206444886194495211e+03
-2.125265065831880520e+02
-4.531437167003232389e+02
2.321743057789711884e+02
-4.434605306418191503e+03
-5.377219862912149438e+03
-5.562692284743067830e+03
-2.892068353189359641e+03
-2.027244265935099293e+03
-4.929254584596766108e+03
-5.120087299964403428e+03
-5.038796692561605596e+03
-4.906395469684724958e+03
-5.096776886883115367e+03
-2.554827663647119152e+03
1.967480819035438572e+03
2.365151150449505622e+03
2.181220055131824665e+03
2.341591767321272528e+03
2.762308110978489822e+03
-4.175579006916933054e+02
-4.479979759545084562e+03
-4.710925158052004008e+03
-4.770268442751695147e+03
-4.675854767827268006e+03
-1.547845863835128057e+03
9.387359325333634388e+02
2.587037669509176339e+03
2.587236300898524860e+03
2.409930535257555221e+03
2.227223230506586788e+03
2.180163732856311981e+03
2.037742372072821126e+03
1.806084162300095159e+03
1.604222333704787616e+03
1.869217455567441675e+03
1.993097312389691297e+03
2.294912800099350989e+03
2.438655177001873199e+03
2.525307496461715346e+03
2.085884590195703822e+03
1.634356873943371284e+03
1.984732972514818812e+03
1.868151164557826178e+03
2.017705194301001256e+03
2.387464720127078181e+03
2.567436507469096796e+03
2.660531796456066331e+03
2.130733314334188890e+03
1.438149661621253244e+03
1.068100749656114431e+03
1.350163167317808984e+03
1.334039653436910839e+03
1.194832285444254467e+03
1.483924792455319448e+03
1.267431742234997273e+03
1.134444720842042216e+03
2.960238707580641631e+02
-3.673500605371149419e+01
1.256322939573440863e+03
9.141311292411347722e+02
-6.783706907554397958e+02
3.874948044068641195e+01
1.227202033073728899e+03
1.384222344851873459e+03
1.335581797238256286e+03
1.168606359404380100e+03
9.283281651232136937e+02
8.803100478712910899e+02
1.193361296616835943e+03
1.167933220830182790e+03
7.393499365842626503e+02
6.834906424821126620e+02
9.300725097912179535e+02
8.025801300663979418e+02
5.713147359501820119e+02
6.368671310871433207e+02
8.400222113347845152e+02
8.785100187428811296e+02
7.103799699687978091e+02
8.857166286771233672e+02
1.098381494611929156e+03
8.783609836009075025e+02
7.066878464089310228e+02
6.253973473327598640e+02
7.684064310078575772e+02
8.396238216125500458e+02
9.740579043663874472e+02
8.878151421050574754e+02
8.948993701349883167e+02
6.051883884217272680e+02
5.026892919452156434e+02
2.804580942560752419e+02
5.851692693977393844e+01
3.117600194555657254e+02
3.401163722804998883e+02
1.186466138393981566e+02
5.737171839351127289e+01
3.363200884752225193e+02
2.004968608274740802e+02
1.468944760928497146e+02
2.764003628152591432e+02
6.349861464149228141e+02
7.196868489312779502e+02
6.204686217080831057e+02
7.483243915735248493e+02
7.152882639414550567e+02
4.073538947309367586e+02
8.553158109772379447e+00
-1.151583114544101534e+02
-3.481992132722847089e+01
-3.745203200051345505e+01
-5.360497545712305509e+02
-1.436678742274770457e+03
-3.082355101781928170e+03
-6.777034749916755572e+03
-7.044753288202441581e+03
-7.147439425972524077e+03
-6.555145049614755408e+03
-6.472892560657832291e+03
-6.634674048561852942e+03
-5.663526038515397886e+03
-2.305247386815959089e+03
5.902872812284193742e+02
1.637509936238981254e+02
-4.673871555628203168e+03
-6.542746790413832059e+03
-5.279936731697087453e+03
-1.535278405754286950e+03
-1.163743578176813799e+03
1.338157726741546583e+02
5.523157491285430751e+02
9.116640745017083418e+02
7.398011071504558913e+02
3.197936236937825925e+02
5.225406206178842012e+02
7.899560867258173857e+02
8.451701718109801504e+02
6.672340659195110675e+02
5.841287812100077872e+02
7.648527028107383785e+02
8.593904289436563886e+02
3.437373365725570125e+02
6.189259304882012884e+02
1.096966490698031066e+03
1.164899209381703713e+03
9.956989499083207420e+02
9.364355388936445479e+02
8.401225801359124716e+02
1.008651169601802735e+03
8.928214075241914998e+02
6.738378591126288484e+02
5.696836099243583931e+02
7.323283498884974279e+02
8.398288836362120264e+02
8.791539906785444600e+02
1.022297438144784564e+03
6.483577172950408567e+02
4.063059319137285001e+02
5.861544031540098558e+02
6.879468222006878477e+02
1.081645007486467421e+03
1.115257871047306935e+03
9.438203142820544826e+02
7.293367746253355790e+02
5.397732842767412649e+02
2.152033334524280690e+02
6.366626049605861226e+02
3.011149245056560630e+02
1.135784318027506856e+02
-6.902137672499131682e+00
-6.343105543978178957e+02
-9.956534280003163531e+02
-6.328686238333251595e+02
-8.580328588600835928e+02
5.178753811203920066e+01
4.878927772183358798e+02
3.301681820015956532e+02
3.804576859174736683e+02
2.780293643967190178e+02
3.385833559977505303e+01
4.516295125363876650e+01
1.136692613917070105e+02
1.813623985117897632e+02
3.962758921251572701e+02
-4.845830997956280726e+02
-6.501198844453285801e+02
-2.452792130961902899e+02
-7.412009091187965169e+02
-3.308095152136704087e+02
-8.720740812026778030e+02
-1.102992652033645982e+03
-1.574932647227584823e+02
5.083275789284978146e+02
2.634481239550096348e+02
-5.530788947545224801e+02
-6.322250081431299122e+02
-2.796939113651322728e+01
7.627135290312521647e+02
5.578530176803914173e+02
5.134659573910698782e+02
5.935548234263557106e+02
3.650566640386764448e+02
6.079762897579795435e+02
8.313560883001883894e+02
7.372264902450347108e+02
4.436055862391986011e+02
2.354959352207248742e+02
-6.012041550665969680e+01
-5.522374863687799689e+02
-6.958033233535036288e+02
-4.648964791258088098e+02
-2.444627138873190972e+02
3.395131248743006154e+02
4.849915366091989881e+02
2.999567664578623294e+02
2.644518164767345070e+02
4.964769119876341392e+02
4.440396924301709873e+02
-6.787774408007747695e+01
5.397033508581757815e+02
8.717585609159071964e+02
5.222743648095377011e+02
3.042975994874860248e+02
1.918496173122302935e+02
1.749132693124303444e+02
3.374428877546453691e+02
5.854546441818114317e+02
8.909548618858348163e+02
8.169694521740422033e+02
4.714953234914491986e+02
6.654711622549443746e+02
9.048688583863314534e+02
8.087422192704957524e+02
4.300694399916156385e+02
4.708265286118707991e+02
3.600104424428641323e+02
2.405667105589274399e+02
3.275677690059284259e+02
2.680079305606076332e+02
1.828744524901162265e+02
2.811656940951287424e+02
5.588365397238046626e+02
5.309961388906187949e+02
1.446193228791253205e+02
-1.161515356235013314e+02
-7.942545534635348758e+01
2.806779761547880980e+02
-2.729472959205847360e+02
-1.501301536837134563e+03
-6.214747156695043486e+02
-2.892264898388915526e+02
-4.877099788907126481e+02
-2.003739449214324253e+01
5.174130251295039784e+01
-7.585907610105840604e+02
-9.259626504212053533e+02
-4.312177904080934354e+02
-1.519721738797095441e+02
-1.641959766254646240e+02
-7.128755296141785891e+01
6.030258453926380753e+02
9.742391904428977796e+02
4.534748561464933800e+02
1.132928754349345354e+03
2.086685114635531590e+03
2.340698884243310658e+03
1.428705365709914076e+03
4.266830427126644736e+02
8.204566014498294635e+02
1.125079330847539723e+03
9.066133097385346673e+02
7.084667239738029139e+02
8.672176967936866276e+02
7.713758437956532532e+01
-2.620606554577566385e+02
-1.757244982785967125e+02
-1.158216683543159661e+03
-1.006862976493169867e+03
-7.087544300109063897e+02
-2.206633060746475508e+02
1.165704039711856268e+02
6.704617807203103439e+02
1.449960574731054749e+03
1.814900910693791047e+03
