6.079411892614991302e+03
5.440309900132072471e+03
4.638807003380834431e+03
4.242015483278438296e+03
4.549078615692371386e+03
5.376066365751664307e+03
5.589988509843682550e+03
4.581923692436478632e+03
2.340052367417692039e+03
1.012504529047271603e+03
1.505335331330185227e+03
1.385604886608594484e+02
-1.739734386567341971e+03
-1.155041125043991030e+02
1.873174476119060955e+03
1.973459687393443801e+03
3.705103615528791465e+02
-1.372591270024598771e+03
-3.983920585982410500e+01
2.303659605813586950e+03
3.236827651040992350e+03
3.788708992001877959e+03
2.997825003030792232e+03
8.554578153561038789e+02
1.957932200484146961e+02
8.452085371277551076e+02
1.363553049370465942e+03
5.898126094157928492e+02
-4.870357941234927921e+02
-1.710027555471011965e+03
-3.620888444398654428e+03
-3.658549528206609921e+03
-2.037138424051507627e+03
-2.456684909418551115e+02
6.461945037799155216e+02
4.082545452492042273e+02
2.139522436807876318e+02
1.225201120767460225e+03
1.999326366584843299e+03
1.144143308867837050e+03
1.243513035991860761e+03
1.512365254463319616e+03
1.432944333803583959e+03
1.042338991935782133e+03
2.546183674100610119e+02
-4.491259786959592475e+02
2.509656401982760343e+01
-3.327658082305803191e+02
-2.575719968782335854e+03
-2.849754695818365690e+03
-1.015858725096655576e+03
7.729563225512836198e+02
2.118521684375858058e+03
6.479672430511353696e+02
-4.216686026989990523e+02
-5.754733680780079794e+02
-1.807383959020422935e+03
-2.011339731679124952e+03
-1.164347071492629539e+03
3.625477724947759270e+02
1.271289773624795771e+03
6.638512505706027014e+02
-1.364796957219723936e+03
-2.393684102565072862e+03
-2.583877314002458206e+03
-2.799419749828030945e+03
-2.491167059202247401e+03
-3.500108874376561744e+03
-4.058186610041938366e+03
-3.616387491738892095e+03
-1.958784580459270046e+03
-4.814362887469438306e+02
1.029530242078027641e+03
2.345072018216956621e+03
2.341125792867586824e+03
1.099679225760283998e+03
1.445239699745354187e+02
-8.744384900029396590e+01
-4.881808755232366934e+02
-6.626607487552714701e+02
-4.878160687193238232e+02
-7.295707640695371765e+02
-1.756939840778308962e+03
-2.974059232534760213e+03
-5.929945168964570257e+03
-9.528582426770721213e+03
-8.659993646138773329e+03
-5.765275531084656905e+03
3.075009824948804180e+02
1.566167036625889523e+03
1.720701292289202911e+03
1.000093815824763851e+03
5.723160519518313549e+02
-3.759369838508430917e+01
-1.947856040173002157e+02
-1.038459621528656953e+03
-8.056366576204566172e+02
-1.316422723032076476e+02
1.813754251290991419e+02
4.554995680190315852e+02
6.306563545994513333e+02
7.757115264749139669e+02
7.305585123775385910e+02
2.602932140417425444e+02
-4.305566832882186645e+01
-2.915742917365554945e+02
6.163000498994883003e+01
8.665206005534845417e+02
1.351155404899857331e+03
1.769430076917907854e+03
2.427256443691619552e+03
2.581631238343479708e+03
1.942649502686075948e+03
1.733304035080459016e+03
1.709495325026382943e+03
1.089063687061201790e+03
1.918975280306851801e+02
-4.440402574194862382e+02
-3.119466707691739771e+02
4.711439671846330839e+02
1.138239133429750154e+03
1.437248501853701782e+03
1.734011807035401262e+03
1.411542048417824844e+03
1.042974406908868104e+03
6.543844399591280308e+02
5.436733107196001811e+02
1.454742473562548184e+03
2.402513190352087804e+03
2.979040176956796586e+03
3.146345309582258324e+03
2.822362167423500068e+03
2.514127913400522630e+03
1.815548915379395567e+03
1.103495362999981126e+03
6.688990120082937665e+02
7.317408232695031529e+02
1.050089668248360340e+03
1.256819250543160479e+03
1.747885881733021733e+03
2.117298750785539141e+03
2.301153588643127932e+03
2.235485339402460795e+03
1.668156409449815555e+03
1.809198904133367023e+03
2.362634023225540659e+03
2.567303356377738510e+03
2.633150911748826729e+03
2.188417694651297552e+03
3.062272402310227335e+03
3.530595618750266112e+03
3.313235569809790832e+03
2.696270576809591148e+03
2.132752957202334983e+03
1.384613079720429823e+03
1.230886681822144737e+03
9.225596304402289434e+02
2.036635805889150959e+02
4.292707172765712471e+02
-3.765508842984841067e+02
-2.750789139624074778e+03
-7.076518227256214232e+03
-7.706592775064409579e+03
-2.288236002924147215e+03
2.230514285878338796e+03
2.791619298990276093e+03
2.839201580639670283e+03
1.153025149679094454e+02
-4.418961472535530447e+03
-2.088664343084349184e+03
-2.104832930397547898e+03
-6.501523775786443366e+03
-7.358607285227781176e+03
-7.584004805508024219e+03
-7.220678887449809736e+03
-7.332636941555270823e+03
-7.346882654390391508e+03
-7.780358138511367542e+03
-7.603057607415436905e+03
-6.927011512307458361e+03
-3.432176399514234163e+03
-4.514796945158615813e+02
-5.532999513746703087e+03
-7.434678233803243529e+03
-6.894337070083105573e+03
-6.017906859529361100e+03
-5.990198515715249414e+03
-6.367221672013587522e+03
-6.122833604006035785e+03
-5.034120661825602838e+03
7.217567410585953667e+02
4.931886719414307663e+03
6.153705618531688515e+02
-6.150720605975184299e+03
-6.780181526897722506e+03
-6.734071356681653924e+03
-1.885602368786836223e+03
-9.356250088452768523e+02
-1.134951373465285997e+03
2.250417248403722169e+03
3.961384645869516135e+03
3.933815012401567856e+03
3.950857544157282064e+03
3.882634017269259402e+03
3.791227491106799334e+03
4.037842826306402458e+03
4.146336740874791758e+03
4.354558443138796974e+03
4.519653554064677337e+03
5.171602798796037860e+03
5.395486199996232244e+03
5.540439212911527648e+03
4.648556057805099044e+03
3.815875200196605874e+03
2.867382049018842281e+03
2.250320110445721639e+03
1.992893106473071157e+03
1.769268779128251936e+03
1.579185016366857553e+03
1.870367197688771967e+03
2.200865874625485048e+03
2.590462095951697393e+03
2.947291311810852676e+03
2.374776445327441706e+03
1.918716688312358883e+03
2.418045061507756145e+03
2.614993739315487801e+03
2.679560556605116290e+03
3.089819772018961885e+03
3.348674888161108811e+03
3.650739339412959453e+03
3.844660406598535246e+03
3.266328583472386981e+03
2.314302916851050668e+03
1.827324018722307983e+03
1.407466581754212029e+03
1.101345308600491308e+03
1.121824072526826058e+03
1.097240396239198844e+03
1.302107420643868863e+03
1.390146396542329512e+03
1.634223721388789954e+03
1.952272218071361067e+03
1.823303014569473362e+03
1.609331211673908456e+03
1.669112265508109203e+03
2.026443659014065361e+03
2.367135537906003265e+03
2.797271142912050891e+03
3.006886889985760263e+03
3.151992039317593481e+03
2.712599896494170025e+03
2.565665415444474093e+03
1.867076410736743810e+03
1.123844744237249188e+03
6.590863376641556215e+02
2.416733420246297044e+02
3.505746328963148244e+02
1.898194219258002420e+02
7.024971344196784457e+02
1.126619263993539107e+03
1.305119344141863394e+03
1.502926200695917714e+03
1.386134358432577756e+03
1.196882923463102316e+03
1.398234768011106098e+03
1.699111004003484368e+03
1.754329595955091463e+03
1.577031111466403900e+03
2.048385010449406309e+03
2.088985545198506316e+03
1.801793528573423600e+03
1.722950811810928599e+03
1.285549899096120271e+03
2.746250557188355970e+02
-2.640037169568670834e+03
-6.926644970835275672e+03
-1.150117871894656491e+04
-1.130859460168981423e+04
-1.076781011204430433e+04
-1.019972592264500418e+04
-9.529377370603777308e+03
-9.176823375034724450e+03
-9.126017734837903845e+03
-8.884907910524822000e+03
-9.106507709724899541e+03
-8.174777646230136270e+03
-7.368673738473287813e+03
-7.557356950221592342e+03
-7.383883452735100036e+03
-4.242421871475758962e+03
-3.196984380763351510e+03
-7.274419001658086017e+03
-5.741753950205892579e+03
9.258404892988282882e+02
1.721350756854567635e+03
5.978628846052687322e+02
6.002712796905808545e+02
5.686204266853401350e+02
8.259386885754009882e+02
1.222231044671541440e+03
2.054596085985518130e+03
2.453079159748996517e+03
2.471519626899778359e+03
2.194936474950013235e+03
2.154558470128344197e+03
2.179320784362196264e+03
2.061978152057746684e+03
1.870422080147046017e+03
2.602631746125538029e+03
3.356854857157996321e+03
3.251088543128806577e+03
3.074284874489761023e+03
2.428535565220066928e+03
1.595718079519183220e+03
1.128676184066780252e+03
5.343804862662969981e+02
5.018359421950108867e+02
5.801395555498680778e+02
6.034529772321675409e+02
8.697737485442797833e+02
1.052036949681794567e+03
1.243300497170388780e+03
1.119552946644135091e+03
1.234868950363236991e+03
1.783269007429564681e+03
2.249713155078222371e+03
2.524036018608857376e+03
1.895202279567699179e+03
1.674181089880686159e+03
1.839981394017614321e+03
1.775634065657613519e+03
1.752284858457727069e+03
1.311925298393140338e+03
1.447415713599312603e+01
-6.840002862458729851e+02
-3.665023677730015379e+02
-4.331331946247065616e+02
-4.298546504775279118e+02
-2.285117371134786026e+02
-7.904672961224827077e+01
1.216950182363916326e+02
9.673428471924427186e+01
3.867069090849068402e+02
8.026827755291903941e+02
8.046455877569236463e+02
7.561325320909007814e+02
5.762251876503759149e+02
7.134841690947528150e+02
1.028791822833926062e+03
9.593793585649058286e+02
4.940903197204278285e+02
6.250086156559401616e+02
8.180574506388019245e+02
3.541466818383980240e+02
-3.896448253840449638e+02
-8.693460182653998345e+02
-9.879476999430270325e+02
-9.664341835502898448e+02
-1.048795858677107162e+03
-9.419840852227951018e+02
-6.999619496599508466e+02
-7.886837474981120977e+02
-4.421842444756877057e+02
-1.174996085950925391e+02
4.163878287238994176e+02
6.625302205868588317e+02
3.828992450047092575e+02
3.254714129450466089e+02
6.963149429238318362e+02
1.028423623912153062e+03
6.307853301533289141e+02
4.144366591811144076e+02
6.864167200666968256e+02
3.457001781643343179e+02
-6.787642955150720354e+02
-1.621031592343484135e+03
-1.698150597651972703e+03
-1.470118678971233521e+03
-1.591914135679120818e+03
-1.678393301577524426e+03
-1.463496767130752914e+03
-1.600226418400921602e+03
-1.227609640092699465e+03
-1.056719431599633026e+03
-2.655932241907218554e+02
-2.202349802455272538e+02
-3.346119508749599731e+02
1.198284438465812173e+03
2.241448187231557313e+03
2.183934111679359376e+03
1.842763212076555419e+03
1.491933729010253046e+03
9.323715264328349122e+02
-1.879851934787797916e+02
-1.023153659060512609e+03
-1.285208968156780656e+03
-1.219136505440334759e+03
-7.809070998622470370e+02
-9.495292209180800000e+02
-1.262009645168149291e+03
-6.643298800382532363e+02
-1.083493064461029235e+03
-1.214517383152488492e+03
-3.224002370156853772e+02
5.988994625335077444e+02
2.543663705513581874e+02
-1.377097955627843703e+03
-1.876482013015734992e+03
-8.657618063660178223e+02
4.770548570572988183e+02
1.984009889366535390e+03
1.590979726399840501e+03
8.789774002868442722e+02
1.930381075481388962e+02
-5.659000195449455077e+02
-1.435864151349775057e+03
-2.640856677682982991e+03
-1.986731705079291942e+03
-1.258428422689499712e+03
-3.069886770027528087e+02
4.154876169010736930e+02
1.100727254708634973e+03
1.480338084274431367e+03
2.530111530827873139e+03
3.240447961380998549e+03
3.258746240802268858e+03
2.789173808550761805e+03
2.627133447972805243e+03
2.533308470654038047e+03
2.421643044242516225e+03
2.152013399008466877e+03
2.067447457251305423e+03
1.710914858029957941e+03
1.263639989652717304e+03
6.984923146232805493e+02
-4.961519250097357947e+00
-2.244694154750621919e+02
-1.757581883323756983e+03
-3.392523502627930156e+03
-3.345521728193121817e+03
-2.265737987662432715e+03
6.976748167366048392e+01
1.338084605344048668e+03
2.804216825092118597e+03
2.806106845415391945e+03
1.597639109579783508e+03
1.302454393623087981e+03
2.213876040704451043e+03
2.590066642074760694e+03
2.892108296739375874e+03
2.602557946892177370e+03
1.259375951990749400e+03
3.920972299758795430e+02
-1.951455687928201428e+02
2.657301312354410925e+02
8.023966545587138626e+02
3.428697917909119610e+02
-3.627392417368422457e+02
1.705311487243619979e+02
5.547312338201710418e+02
1.583849220034110658e+03
2.236907565612761118e+03
2.129957397383238913e+03
2.608992611817266607e+03
2.797003083920878453e+03
1.818882668034520748e+03
1.836619067420429701e+03
2.031203890510610336e+03
2.367737382833377069e+03
2.882218217190696578e+03
3.402705746593249387e+03
3.263206295515308739e+03
3.397674261460972502e+03
3.487076230215320720e+03
1.220460909743051161e+03
-1.300248670429652066e+03
-7.130050589503927768e+03
-9.523989291978379697e+03
-5.524038430624998909e+03
-6.002044431841984988e+03
-8.162906371390270579e+03
-8.384695633196573908e+03
-8.589354368422837069e+03
-9.020880008856302084e+03
-7.874288950444002694e+03
-7.355513568697297160e+03
-6.830587877504187418e+03
-6.313574952455344828e+03
-5.374407501564702216e+03
-4.138035587953582763e+03
-2.840568133459010625e+01
-9.845072123535043147e+02
-1.583409034673060432e+03
-6.807083493472445298e+03
-8.298525646282747402e+03
-7.907711462114337337e+03
-3.762618593268166478e+03
2.042730523961389963e+03
1.431385800444543975e+03
-1.449530702039902735e+03
2.471030610992233960e+03
3.769027048027302044e+03
3.632460561283646712e+03
4.075430809621268509e+03
3.984013264484110550e+03
3.946289417043619324e+03
4.327286434129092413e+03
4.161058108559609536e+03
3.692680981626994253e+03
3.338207806495164732e+03
3.529611982270791941e+03
3.828865387497093252e+03
3.426943206994209504e+03
2.180900177472670293e+03
1.585805328852786488e+03
1.383745105304958088e+03
1.060834122112426712e+03
4.871139399095732188e+02
7.205567192981417293e+02
1.694193833890709811e+03
2.136952540224356653e+03
2.238815180122843230e+03
1.844944231416351158e+03
1.343431356401357561e+03
2.335400927350859547e+03
1.851882288086685776e+03
1.843867423167645029e+03
2.301385865771708723e+03
2.305437687333749182e+03
2.389983781994892524e+03
3.076144010986383819e+03
2.866040315862014268e+03
1.995842135183833079e+03
1.520774879670537075e+03
7.547835463929301341e+02
-5.630651410714408485e+02
-1.306749020399131268e+03
-1.426315659919805285e+03
-6.577992175212513075e+02
-1.902917081022245043e+02
-1.946516266537626620e+02
9.618850059485434656e+01
9.814846380517880675e+01
-1.718485614639293999e+02
1.047393852017784866e+03
1.097897056585843302e+03
5.815089858802692788e+02
1.170512313103512042e+03
1.717047401769108774e+03
1.629516373383068640e+03
1.510171267168963823e+03
9.241454558454714743e+02
-2.448417986181735557e+02
-6.979097044066315902e+02
-1.093004338875827898e+03
-1.827140934390906068e+03
-1.831325247044678463e+03
-1.166608775688572450e+03
-1.227971346412320372e+03
-1.846312902216849352e+03
-1.715671466487527823e+03
-4.970837014881079199e+02
2.515111539848076063e+02
2.331535607174971005e+02
-4.212230623814934916e+01
7.759731804168237090e+01
3.372202463402463195e+02
9.079026799606882605e+02
1.631781702306634088e+03
1.802871106155503412e+03
1.090199844055524409e+03
9.206547235468557346e+02
4.591790064665228783e+02
-3.993197454850442796e+02
-1.166849797082380064e+03
-1.523299972864865140e+03
-2.177634231526712483e+03
-2.280909280318444871e+03
-1.992156586174269250e+03
-2.164520618871347324e+03
-1.837052945170394651e+03
-8.997403315871747509e+02
-4.435788363798537262e+02
-1.535509235007638154e+02
1.926496801383968602e+02
8.961757723781768163e+02
8.509756357358895684e+02
1.228756293651655596e+03
1.486498841908714439e+03
1.168720089060773034e+03
1.367480697657408427e+03
1.624499266822844675e+03
7.471676580215209924e+02
-4.527329355155662824e+02
-9.610542361013948494e+02
-1.472911280989505485e+03
-2.628408557307806859e+03
-5.698565926150467931e+03
-1.050429273584683688e+04
-1.300257717053614033e+04
-1.169051905158894078e+04
-6.690107399931388500e+03
-2.333093406094259024e+02
4.058368695603560923e+02
-5.057552571861720025e+02
1.200883845476566876e+03
1.362762367996412422e+03
1.729935187314990117e+03
2.081312205558543610e+03
1.714901106251437795e+03
1.999657441590831468e+03
1.844559213812151484e+03
1.588519211357301856e+03
1.354486132231739703e+03
8.395097064726005556e+02
1.706343567043389839e+02
-2.291905374844062351e+02
-2.401564641679430281e+02
-2.013868359042008080e+02
-1.289341037984369791e+02
-8.484487336188720974e+01
6.689030237529101441e+02
1.541500036192054949e+03
1.750909683221671912e+03
1.929154788807521527e+03
2.328363934423101455e+03
2.751553257331365330e+03
2.974741041326625236e+03
3.223000672637720072e+03
3.181128017995121354e+03
3.127970193792874397e+03
3.094305069203684980e+03
2.373163958759787420e+03
1.150539130093325184e+03
-8.356136064181710310e+01
-3.333002489892464268e+02
1.920088432209925244e+01
2.830672661691021972e+02
4.505342006784010778e+02
8.823742410442530399e+02
1.218373749674471355e+03
1.408693463878221792e+03
1.796459241492598039e+03
1.861717556205811889e+03
1.813210022977549215e+03
2.004891164295571798e+03
2.397886144733840410e+03
3.110605376789689672e+03
3.557180044955097401e+03
3.687385238622971428e+03
3.671953751074715910e+03
3.096458635529436378e+03
2.677910612327604667e+03
2.561350639893878906e+03
2.145819182864511276e+03
9.653533078241528074e+02
5.908503546633669430e+02
7.811769768374481373e+02
6.239436593370301125e+02
4.944960265890360347e+02
4.503182428260323604e+02
1.921928700685844660e+03
2.303324580936956863e+03
2.410905087549516338e+03
2.519720469725409657e+03
2.639543750212906616e+03
3.229146341355498407e+03
2.953425711589956336e+03
2.784766036978009652e+03
2.710255465190337873e+03
2.971802266655580752e+03
1.901537248751333209e+03
-1.552601160899895376e+03
-6.899318123810515317e+03
-9.205698943027045971e+03
-4.873933138211226833e+03
3.602322146385412793e+01
-1.129938967626265139e+03
-8.716864623474632026e+03
-1.028167005580408295e+04
-9.367516708673369067e+03
-9.260417509415781751e+03
-8.738212290642715743e+03
-7.541988616064701091e+03
-7.091892214671797774e+03
-6.441599796390997653e+03
-6.388509681912128144e+03
-6.070776794527055245e+03
-5.662736340489445865e+03
-1.993000035180518807e+03
1.919511513193033124e+03
1.726491638131876698e+03
-5.322375672886859320e+03
-7.126942465582627847e+03
-7.298762715356056106e+03
-7.972003001704455528e+03
-8.302002130550243237e+03
-8.692973335516113366e+03
-8.390094143799771700e+03
-8.143033050422153792e+03
-7.650280241176397794e+03
-7.220830583739566464e+03
-5.251767399706126525e+03
2.137032827064771482e+03
4.649651015775709311e+03
4.980953916706780547e+03
5.180731691633891387e+03
5.940942786908233757e+03
6.707726430706360588e+03
6.419019807185842183e+03
6.384902980473199932e+03
6.410592306585187544e+03
5.800028472252589381e+03
5.146175527417635749e+03
3.991047509442330920e+03
3.316789449929945931e+03
2.383587176156363057e+03
2.062215130181574295e+03
2.426172776288703517e+03
3.090372482611064243e+03
3.918927769444591377e+03
4.204981765555189668e+03
4.110749804884245350e+03
3.883208773141619986e+03
3.799298875845036946e+03
3.498995093233484113e+03
3.594417865426966273e+03
3.960249490349786811e+03
4.036702871682472505e+03
3.586847726070752287e+03
3.661057028714352782e+03
3.134634389758417001e+03
2.541587435318226653e+03
1.187270528947561388e+03
-2.435353941935508431e+02
-1.098422202095186549e+03
-9.190383219259658745e+02
-8.261627973619291652e+02
-2.969094026584655808e+02
9.874050831274635698e+01
6.097298582159453417e+02
1.961214015947707367e+03
3.102117842451635170e+03
3.344040348497898776e+03
3.433327522399007648e+03
3.340092860869028300e+03
4.035385638807808391e+03
4.739772475437278445e+03
4.354519033590232539e+03
4.277766085532612124e+03
3.867901847766412175e+03
3.633818005749765234e+03
3.204685267297944392e+03
2.159093543702794250e+03
1.299402082681174988e+03
1.075844513497414709e+03
9.318841846981454182e+02
-4.715563451602466927e+01
-1.356975246539432646e+03
-1.990483975507416062e+03
-1.984219261545830022e+03
-1.442063161597513044e+03
-8.747488982937545643e+02
-5.813789590433420926e+02
6.580102176414554833e+02
1.772538047287789368e+03
2.049239009101188913e+03
1.620990630725919800e+03
1.006269139247739020e+02
-1.037970937447501910e+03
-2.357753559143382063e+03
-2.518609543125088749e+03
-1.544480461788854882e+03
-4.013519070860241982e+02
2.108050639108455471e+02
5.819299224056002231e+02
-6.828230884930770799e+02
-2.691503978510732395e+03
-3.275193242129405917e+03
-3.475068207254841127e+03
-2.745187503316788025e+03
-1.121646678967633079e+03
-8.227354980838254050e+01
7.679626774695811946e+02
1.548079841794138247e+03
9.910487417693951784e+02
6.628235349456734866e+02
-1.234655314060573346e+03
-4.345398800461568499e+03
-7.192302728558468516e+03
-7.319331337034296666e+03
-6.390429914644517339e+03
-5.039545646024837879e+03
-4.045781000441143533e+03
-3.819226425973158257e+03
-5.515999635009120539e+03
-5.707120387607046723e+03
-5.814423496243195586e+03
-6.019908494330587928e+03
-7.614585497765526270e+03
-8.143370672078062853e+03
-8.398302589706092476e+03
-7.344300117418714763e+03
-3.833208267938598965e+03
-3.781155914562078124e+03
-6.705291965376591179e+03
1.733437804107724673e+02
5.303594558536100521e+03
5.422546289176177197e+03
4.810398251049442479e+03
4.650953025054330283e+03
4.479082158032068946e+03
4.334184224801672826e+03
3.984494102773266604e+03
3.431883695485982116e+03
3.743343467421406331e+03
3.143796975761421436e+03
1.988941384964596182e+03
1.408668860256671451e+03
1.036058582993200616e+03
8.992153724203310503e+02
5.782933192285589712e+02
-9.606895949877449539e+02
-1.551792880137323209e+03
-4.110334476398144830e+02
6.456275203903622923e+02
2.072422987961794206e+03
2.571571248701274726e+03
2.188709892880592179e+03
1.001689610199439585e+03
-3.972894887472761525e+02
-4.801513501754308209e+02
4.261848360888686216e+02
9.147830300550444917e+02
1.345594255485461645e+03
-3.805916333645647001e+02
-2.915756319848442672e+03
-5.226886311009098790e+03
-7.932859540072318850e+03
-1.113241750044858964e+04
-1.169057237917050588e+04
-9.626552039286019863e+03
-7.042512134629901084e+03
-8.011199367612984133e+03
-9.257616645195847013e+03
-3.494967752440250933e+03
4.011846121529346419e+03
1.044490382562918239e+04
1.142518636595561838e+04
9.564694097383526241e+03
9.913528618111340620e+03
9.436683426353965842e+03
7.774060348821050866e+03
5.929747716364734515e+03
5.132026538247599092e+03
5.167481651021190373e+03
4.486169648767575381e+03
3.843232125144947076e+03
3.921294872313681935e+03
3.767402738816221699e+03
3.144636943303691169e+03
2.654783362310320172e+03
2.226419307275995379e+03
2.438607884871859824e+03
2.516270145822566974e+03
3.355502135377897957e+03
3.501488025552199815e+03
3.372117984548884579e+03
2.544313188980819632e+03
1.541136283679965345e+03
1.621623236215118823e+03
2.760752443625888645e+03
4.229607593622037712e+03
4.033249125797344277e+03
2.098633047223614085e+03
-1.732687603937684742e+02
-3.289452632091898977e+03
-6.225882750407990898e+03
-7.048602030668342195e+03
-8.892734940411895877e+03
-1.039129355236028641e+04
-9.548230831497416148e+03
-7.796547729814512422e+03
-5.733005596665151643e+03
-1.462478416697190596e+03
2.057047007285866130e+03
4.088442667988305402e+03
2.880472679438079012e+03
1.986038469847050237e+03
1.959232991062858673e+03
2.823183475088501382e+03
1.547943051691527216e+03
-1.533506499331710302e+03
-2.987298537737558036e+03
-1.467444779363929229e+03
-1.914943570653471397e+03
-5.515829752262162401e+03
-6.707126091004218324e+03
-6.891922313289793237e+03
-6.416277047533272707e+03
-7.299183279338692046e+03
-9.112624661622792701e+03
-1.058964266936510467e+04
-6.685141343355569916e+03
3.958946791639875187e+02
6.126332350779139233e+03
8.983077178332654512e+03
6.670126391804980813e+03
4.541503244644067308e+03
2.927170983066803728e+03
2.106185521498041453e+03
1.081613594067431677e+03
-1.884386689648518541e+03
-6.543830928271568155e+03
-4.666728645120880174e+03
3.211732736153301175e+03
7.239184148900306354e+03
5.775538546030464204e+03
2.534733302622546489e+03
2.488924098613007118e+03
4.198107617703972210e+03
4.927217992275970573e+03
3.260133067427827427e+03
1.788023269324884552e+02
-2.208450862848495149e+02
-4.385710136600655318e+01
-1.436210139546060418e+03
-1.713012898718848646e+03
-3.468135570348380952e+03
-2.206251115342503908e+03
1.236303212555528290e+02
5.420479221272438508e+02
2.134645084612510345e+03
2.461810000622041571e+03
2.256775477037949713e+03
2.886790742020997186e+03
2.138111030341961850e+03
6.548625341041756656e+02
1.900896184771201547e+02
-2.581285433873127204e+03
-8.366433007404932141e+03
-1.139630750650736809e+04
-6.819004056147659867e+03
-3.695520609524953670e+03
-4.721930506071207674e+03
-9.782849090465243762e+02
4.590242513034715557e+03
6.793618351931525467e+03
4.421526498272166464e+03
3.716600606948486075e+03
7.404811732605143334e+03
8.954008566154830987e+03
7.475191057596305654e+03
3.557247753016347815e+03
-2.453962126042951240e+03
-6.363569672339085628e+03
-3.602618835337055316e+03
-1.724118768650695301e+03
-2.410144163982781265e+03
-9.659063805323471570e+02
3.303065445983103928e+03
6.204186909692080917e+03
6.642752972330882585e+03
5.667240866901409390e+03
4.739478382057838644e+03
2.554483890806433919e+03
7.293190860905615409e+02
2.477013716330788611e+03
3.861490878712998438e+03
3.752666071546844250e+03
3.117545191602267550e+03
5.607195997543148223e+03
1.136760573149411175e+04
1.632974771053290897e+04
1.506663995419571984e+04
1.117430807257644119e+04
8.328652795821742984e+03
6.295578795642109071e+03
5.147066525965764413e+03
4.081173183785461788e+03
1.807913440724921429e+03
-1.533760069394536231e+03
-4.046831114552586769e+03
2.671720285102805519e+03
-1.180055199874796017e+03
-5.119122590550807217e+03
-5.031450125332242351e+03
-3.740058949829520770e+03
-3.207914244297643108e+03
-2.550000289194309062e+03
-2.380227763996418616e+03
-3.438388850492120582e+03
-4.366476724390201525e+03
-4.775579481655157906e+03
-5.235657543648863793e+03
-5.703757096586251464e+03
-7.609768367144473814e+03
-5.952672121967733801e+03
-5.447607890790221063e+03
-1.063557405057952201e+04
-1.221942084336150219e+04
-1.199612837051087990e+04
-1.039465665070498471e+04
-1.068996509611898728e+04
-1.259592160558562682e+04
-1.292227468049874915e+04
-1.389299072148665800e+04
-1.352888432991401896e+04
-8.526002465641759045e+03
-3.018380347559944767e+03
-1.839884939866504055e+03
-3.399459067836524810e+03
-1.669003414113643430e+03
-1.372418037143284209e+03
1.298389381536332166e+03
4.733516977488130578e+03
2.069033463688633674e+03
-1.279755976109716187e+02
1.085468407704528545e+03
1.777463407883690934e+03
1.643072148321544773e+03
2.900240698136176434e+03
5.182085894231652674e+03
7.095772358996582625e+03
7.494489790235483269e+03
5.595437375966971558e+03
2.780696299281272331e+03
1.373420976580276147e+03
8.736247135375979269e+02
3.532873644873293415e+02
-1.845394767908422295e+02
-7.667316232415763579e+02
1.934830282706374419e+03
4.473359741515937458e+03
6.450075646224606317e+03
5.964001399235688950e+03
4.377190703765076250e+03
2.850663429137548519e+03
1.933395088291262255e+03
1.802435456716260433e+03
2.633901708039127698e+03
2.965888255267866043e+03
2.956591782406046605e+03
2.998064150504373174e+03
2.044597309930550182e+03
1.525411214204205862e+03
1.730447170940102069e+03
2.387938644869098880e+03
3.185055166541197195e+03
3.172859709837792252e+03
2.523383354822419278e+03
1.161742260949876254e+03
-9.807059520933383965e+02
-1.741033387970047443e+03
-2.298131186649839947e+03
-3.433033829005059033e+03
-4.009489308926267313e+03
-3.467477181116763404e+03
-2.715860575489322400e+03
-1.667952746447997185e+02
2.542803290049580937e+03
4.012940621787937744e+03
4.698681259122484335e+03
3.213043117389970575e+03
1.895869542037218935e+03
2.171211147982933653e+03
1.569536754037794708e+02
-4.484540750402554295e+03
-5.277121230582710268e+03
-2.191955798981411135e+03
7.290132667616334174e+02
3.589870635598615991e+03
5.393619285437804137e+03
4.002396363988694702e+03
1.983280571767793845e+03
1.811837075099396941e+02
-1.519872146317736451e+03
-1.949817122864799103e+03
-1.978587364575326774e+03
-2.856120218125314750e+03
-3.961473300732898679e+03
-4.670760944048352030e+03
-2.876002874285845792e+03
1.374750807121926073e+03
1.838606273052391316e+03
-4.043524412050986143e+02
-1.243040684967830202e+03
-1.581412122156640862e+03
-7.535929040084108692e+02
5.502991042519066696e+02
1.827271687816014264e+03
6.433191418919836906e+02
-1.373406884383583474e+03
-3.455808764331570273e+03
-3.740898945278947394e+03
-9.066369255296209531e+02
2.262050857763804743e+03
2.924943175750062892e+03
1.796720051559488184e+03
3.046261797089491665e+03
4.904751753687977725e+03
4.005169171582879244e+03
3.350889195664779436e+03
3.963536768685618426e+03
4.338065445059297417e+03
3.149858539712297897e+03
2.134118858523779181e+03
9.645873138172397603e+02
-2.467697478883413623e+03
-6.944787934923557259e+03
-1.180580186056452840e+04
-1.301783742891405745e+04
-1.252092236315720038e+04
-5.829104293947961196e+03
2.352534686454521307e+03
2.102837189961112927e+03
-2.870263932568784639e+03
2.021700297677059268e+02
8.450151780614376094e+02
8.902331864982653542e+02
-1.353566695194176930e+02
-1.918285572375980053e+02
1.407691478180919376e+03
2.397143645265013220e+03
1.839444847428497269e+03
1.675560744090336584e+03
1.769458465947382365e+03
9.689929880687751620e+02
6.519272362346069940e+02
1.140065977225149481e+03
1.387442348105922065e+03
1.247072858428093696e+03
1.077959323841009791e+03
1.289096860682186161e+03
1.797409857074923366e+03
9.396796954611598949e+02
-1.018158356221659687e+03
-2.916229629793811455e+03
-5.131812753588882515e+03
-4.401144371058795514e+03
-1.762435867650964155e+03
1.961958872886636755e+03
4.649933425382644600e+03
4.698470798145967819e+03
3.393690375446690723e+03
2.253483718086813951e+03
1.882712376258050199e+03
1.927192425793538405e+03
2.780008817018494483e+03
2.808197358042653832e+03
2.862527714101629044e+03
3.127669361098111494e+03
3.586656645275123992e+03
4.106670505101965318e+03
3.636497335216991360e+03
2.749952787635822006e+03
1.681863285880275498e+03
6.972260867311177890e+02
-6.000018903730249349e+02
-2.378936809786798108e+02
1.325966568630832853e+03
1.612117649208726561e+03
6.714287649307459560e+02
-3.749980891936977514e+02
-1.749779806544061103e+03
-3.669008927769798902e+03
-4.681746989046433555e+03
-5.033143298780629266e+03
-3.846184451419447669e+03
-1.374792936495337472e+03
2.836155920806303129e+03
5.707146054476994323e+03
4.555516903093035580e+03
2.428400173372079735e+03
1.280087415487246517e+03
1.701680589224587038e+03
2.556932709954103757e+03
3.342612274346636241e+03
3.231746533004932189e+03
3.624456497906849108e+03
2.780820043035585968e+03
1.671629392793865918e+03
1.292791082032229497e+03
2.534798019560884086e+02
-1.864356418162705040e+02
1.316182327913443942e+03
3.110671318969870640e+02
-4.751916486920779789e+03
-7.955669171986966830e+03
-3.617328949455557904e+03
-2.489069119156838212e+02
-1.653501421898231456e+02
-4.773674294500180622e+03
-5.385826355879320545e+03
-5.537737212276360879e+03
-5.551518513691487897e+03
-6.297996391176241559e+03
-6.457777754083043874e+03
-6.938997519365118023e+03
