-3.320057750317228511e+03
-1.773245424198145429e+03
7.496739670390986703e+02
1.407098025859455390e+02
-1.355141781406385689e+03
-4.251880364378080230e+03
-1.568459963547998996e+03
5.711190089121885194e+02
7.368911695951708225e+02
1.175984505786523641e+03
2.546521984273201269e+03
2.842495372977907664e+03
2.952874647420226665e+03
2.629637540459623324e+03
2.137753700671243678e+03
1.725249162629081638e+03
1.575149319880336179e+03
1.154435481560805329e+03
8.291008525812712833e+02
1.090248099392801350e+03
1.085037160716716699e+03
8.295133493350249410e+02
5.418052962851742222e+02
1.356090355541825545e+02
-1.379508283003496274e+02
1.852604476949851744e+02
4.602463018927786607e+02
5.770616632878162591e+02
1.138638056813008461e+03
1.495661417630688902e+03
1.929481845659740429e+03
2.001034339577805667e+03
-9.865901215337937913e+01
-1.341854164887218303e+03
7.887799796806860968e+02
1.766214090305639274e+03
1.945544586293673547e+03
1.548648642179734679e+03
4.944328221209463550e+02
8.777571998789424015e+02
9.732132767519310619e+02
1.013279137268878571e+03
9.647601038432283076e+02
5.049561863872648928e+02
-3.311501132660153957e+01
2.341763392750867467e+02
6.108182704952529321e+02
8.606983097034643606e+02
8.996984821133355581e+02
1.313675764258072149e+03
2.101356609662257142e+03
2.433640474642777463e+03
2.658189585985168833e+03
2.615794232526589894e+03
2.292289039357542606e+03
2.080609661027222046e+03
1.481514866641408844e+03
1.332415256645296040e+03
9.415142648612721814e+02
9.926786267248885451e+02
1.182873919771919645e+03
8.740266885726788360e+02
5.070755738847803968e+02
1.729931721787615118e+02
-2.819949605673772197e+01
1.425149208104672880e+02
4.880472689108806321e+02
4.932814794271322398e+02
5.641748015532198224e+02
1.680752972738056769e+03
2.276086390890907296e+03
2.200153316151788204e+03
2.237936551064746709e+03
1.997403801840628830e+03
1.945651592288023494e+03
1.831625515910355034e+03
1.436292532351279533e+03
9.365189403994681925e+02
7.051337776627652829e+02
7.132080715572150211e+02
8.497768901749349197e+02
3.868811330323663356e+02
3.234797070378030526e+02
2.134751093277606060e+02
3.185941938668797491e+01
2.658563202417505877e+01
3.415999459231089759e+02
-1.090923489502260253e+02
5.751136046531372159e+01
-1.324959271092103563e+02
-1.952087790454802644e+03
-5.671333637103203728e+03
-8.319290244741685456e+03
-8.388960353890674014e+03
-8.629302969185888287e+03
-7.700383283069253594e+03
-2.813236270556746149e+03
5.863028553036352832e+02
-5.191662219090489998e+03
-8.585450516009306739e+03
-8.369009808799986786e+03
-8.296403428010820789e+03
-8.247633230331857703e+03
-8.128695613625021906e+03
-3.733669030008576101e+03
5.150137651002162187e+01
-3.154147287377731573e+03
-9.495973332050839417e+02
7.121832924183423756e+02
1.647143539181469805e+03
2.007354101372262448e+03
2.537918252243146526e+03
2.811828211417626790e+03
2.329988042612947083e+03
2.198441344024753562e+03
1.757204129863129538e+03
1.870259163914741748e+03
1.487573998870057721e+03
1.515051594886281691e+03
1.454725850638219754e+03
1.197664129909766871e+03
8.939255030029462432e+02
4.205081308234408652e+02
1.273486975189067181e+02
-1.325232674714492873e+02
-9.307522042742867541e+01
5.047461803328599217e+02
1.069967801818052749e+03
1.226597057611777927e+03
1.521664483691666646e+03
1.643197900132786572e+03
2.051275954060276490e+03
2.311976465004961938e+03
2.164386043743993469e+03
2.084458293120208964e+03
1.338211698235653785e+03
8.126276484469219668e+02
3.946932609873759361e+02
6.444927232434082498e+01
-1.510727830773155631e+02
-1.157490454074233241e+02
-6.257150636921902986e+01
-1.952383101376189600e+01
1.394147850085230971e+02
-5.372411113991153542e+01
-3.349245200203740751e+02
-6.462591235868748072e+02
-6.346741598401267765e+02
-1.031649326173885726e+02
1.170385595374245213e+03
1.441043334634973917e+03
1.619865725279010348e+03
2.062923204210705080e+03
2.094814446609073002e+03
1.595594032691698430e+03
1.001675106845565779e+03
6.169708111984335801e+02
2.700833172041716921e+02
3.443837026345827468e+01
-4.197528830263132704e+02
-1.785786101236805507e+03
-2.878200136401140298e+03
-2.091701786938941041e+03
-1.496573877490096947e+03
-8.980476926551974657e+02
-7.360620939176875481e+02
-5.895615387629368342e+02
-4.104740900090711193e+02
-2.587462420849435034e+02
1.086614067804127899e+02
6.168427838051305798e+02
1.094821135987878733e+03
1.591568533528992475e+03
1.446154399380957557e+03
1.139654264196595705e+03
6.340530381403191313e+02
2.273198901042318880e+02
-1.805627256690084153e+02
-5.135678858657560113e+02
-6.226511295768657419e+02
-6.137543559235698467e+02
-1.218942711604796614e+03
-1.295224470020817989e+03
-1.459534567643119317e+03
-1.926885541358263936e+03
-1.888301268538363956e+03
-1.425765273243727279e+03
-8.192842939842375927e+02
-4.488100269370378896e+02
-5.312524874864857338e+02
-4.895762193609877500e+02
-6.617945767291757875e+02
-4.709554307971113758e+02
-3.100203685247626026e+02
3.390941070540562805e+02
5.772980704742624312e+02
1.086560078451784420e+03
1.430932557526011124e+03
1.400397268048984415e+03
1.136824749909578259e+03
9.163251843855962306e+02
2.730275087636111380e+02
-4.802042990280688741e+02
-1.394485987598673091e+03
-2.074815859604956131e+03
-1.609180284033806856e+03
-5.915798051451938591e+02
3.892158553471242755e+01
4.727684666086069853e+01
-3.575526107421492270e+02
-6.350997258789606548e+01
3.984334807675305683e+02
5.602956925806472555e+02
5.570987196334102691e+02
1.908620490140030199e+02
1.904187870188171132e+02
4.077038308262051203e+01
-3.271803334415006930e+02
-8.384902162832310069e+02
-1.303128930755714237e+03
-1.844131121705455371e+03
-1.841568984623996130e+03
-1.113439671979366040e+03
-1.515798496418364493e+03
-2.164715641432878328e+03
-7.141462178997668389e+02
5.009150923662418222e+02
5.604527129494307474e+02
7.716351268464862869e+02
1.379333126702926620e+03
2.062909828896092222e+03
1.720770333909822966e+03
1.915211534757613663e+03
2.771842117777198837e+03
2.368941358794796088e+03
1.809921311025128261e+03
4.364933363577011391e+02
-2.504294092978628896e+02
-3.145117266475772340e+02
-2.004819882311976755e+02
-6.137403131951485591e+01
-4.722218793881003762e+02
-2.320541860816916824e+02
7.446160187261496048e+02
1.029171404440568040e+03
1.302175860669499116e+03
1.696649712584156759e+03
2.209003971061090397e+03
2.502062689129650607e+03
2.970834234753266173e+03
3.382301148232686955e+03
3.618623985798090871e+03
3.823012293855253574e+03
4.258003513754987580e+03
4.210831640548678479e+03
3.669761187851965587e+03
3.704275205231589553e+03
3.318359440523724516e+03
3.169056312794735732e+03
2.935733454666942180e+03
2.224206259252758628e+03
1.701926684760163198e+03
1.095954713445313246e+03
3.347780101961672017e+02
-5.415713136610937681e+02
-4.710643730754276817e+02
7.411562948963000963e+02
2.102918924298341153e+03
2.713302096394281762e+03
2.753280324692381328e+03
2.483904630157271185e+03
2.577199972422577048e+03
2.938091026152424547e+03
2.566502245944072456e+03
1.671438338272745341e+03
1.558972713705495380e+03
1.867003638388717036e+03
1.166465799500848107e+03
-1.987645154523880365e+03
-6.311388339775592613e+03
-7.780701143015622620e+03
-6.780569298124477427e+03
-6.498073510753038136e+03
-7.195220747220888370e+03
-7.197950513480778682e+03
-5.625340637228330706e+03
9.616051758778398835e+02
2.042828821221519320e+03
-1.824661644551836616e+03
-5.255567172615365052e+03
-5.824928844793422286e+03
-6.821052185185666531e+03
-5.850813098167574935e+03
-5.568207990385816629e+03
-5.603162414552837618e+03
-4.147584569701160945e+03
-7.335947063396072281e+02
-3.460196833509848602e+03
-6.861340356616980898e+03
-6.586045018131044344e+03
-6.019274077151974780e+03
-5.666919246601878513e+03
-5.090457652712095182e+02
-7.476460161221043563e+02
-6.870653388281501066e+03
-7.627065070187175479e+03
-7.508873793149850826e+03
-6.650122614472430541e+03
-5.794714107547469212e+03
-4.558604189187468364e+03
1.919268518342075595e+03
4.655033827656511676e+03
2.876732664153939254e+02
-3.637629862468548367e+02
2.893772994410437605e+03
3.345336177206895627e+03
3.094902888033549516e+03
2.993475930148185853e+03
2.517196541923512541e+03
1.803044855955458615e+03
1.882078318998657323e+03
3.221396038376929937e+03
3.883986369506349092e+03
3.526892893566839120e+03
2.706181941216061205e+03
1.851928463137826157e+03
1.531097205986141716e+03
1.440725640426928067e+03
1.325911259129655264e+03
1.067740539692719040e+03
2.213333766918755828e+03
3.421728804534634946e+03
4.767011609520159254e+03
5.099202188445523461e+03
3.718389058187446153e+03
3.012654970897111980e+03
2.499003708345884206e+03
2.668400389955808350e+03
2.651938906088646036e+03
2.148680290261183927e+03
1.928688302828326186e+03
1.724989095935526620e+03
9.354909907764412083e+02
4.431758077029311949e+02
-1.486451328184320175e+02
2.043571837765039731e+02
8.752288122464495927e+02
1.230061314823624571e+03
9.931915033041075276e+02
6.966665778752769711e+02
1.108332815467319506e+03
8.292974613485944246e+02
-1.434215881215194486e+02
-9.494178389800016760e+01
2.248568601732060415e+03
2.751215948184660647e+03
2.368415534013442993e+03
1.581028894666116912e+03
1.359212092433141606e+03
6.710994661823059459e+02
-6.947893691292160838e+02
-1.542269439037342181e+03
-1.458488867688989785e+03
-1.445328202429454677e+03
-1.175982630649606108e+03
-1.595153558309289338e+03
-1.608010089682138414e+03
-9.455861742230264610e+01
7.162064435850265909e+02
5.863262669661305608e+02
1.188912682752531282e+03
1.976966036078674279e+03
2.776501034005490510e+03
3.522537761487261832e+03
2.870086991238794326e+03
1.724144037500949025e+03
1.037741088329676813e+03
1.007862989855957835e+03
1.067477915029276801e+03
3.846551315526190251e+02
-3.760307072770633852e+01
-6.423142389023737451e+02
-8.514990092848075847e+02
-5.641885753593496702e+02
-7.453778970809798921e+02
-9.610590697606182857e+02
-1.437243265737669390e+03
-1.895904698811687922e+03
-1.481108933370453542e+03
-7.484782693285319510e+01
5.999259331564177273e+02
1.283216101664780808e+03
1.138055380670455179e+03
9.623864181487426777e+02
8.602178253536092143e+02
-1.534365140641081382e+02
-4.226765595771026369e+02
-5.675902285160287875e+02
-3.591873383184506565e+02
3.494617405925103171e+00
1.844145997923462801e+02
5.885805662343857421e+02
1.689979807343501648e+02
-6.143500941665824939e+02
-1.549515437351880337e+03
-2.208573272951897707e+03
-2.826615096163126054e+03
-4.931648825914810004e+03
-9.105697401204692142e+03
-9.146741934289049823e+03
-8.647832072820045141e+03
-8.519957937526682144e+03
-7.410150380913604749e+03
-6.660459027117599362e+03
-2.460875906485140149e+03
2.237513346605052448e+03
-1.178395204520625612e+03
-1.192704453925496409e+03
4.299520820290216534e+02
9.042474092222370246e+02
1.317013520516890594e+03
1.206012149374063029e+03
5.465541877581683821e+02
1.227078552048157007e+02
1.652610399063837292e+02
7.611179427687815746e+01
3.662006046961315633e+02
5.174521121222148849e+02
3.448113182830537085e+02
9.382349588305321504e+02
1.868757970593579103e+03
2.714357965301174772e+03
2.870984085434448389e+03
2.675593326135885945e+03
2.672156881002180398e+03
2.689624831578030808e+03
3.115931443820642926e+03
2.684985984968269804e+03
2.107789578146941494e+03
1.900241479531930281e+03
1.505332129094421816e+03
1.077029567141508096e+03
1.065306583663017364e+03
4.301094224802769190e+02
-5.366585814188749737e+01
4.669369658177301403e+02
9.819406248162670181e+02
1.036274205701500705e+03
8.809287627101422231e+02
7.968592834464319594e+02
1.776050403623442435e+03
1.953460296007896204e+03
2.035067336651957248e+03
2.467783409689408018e+03
2.600576911542534617e+03
1.163466832517448438e+03
5.164047037489691547e+02
1.947355603827704726e+03
2.543347945410394004e+03
2.178378536659395650e+03
1.985425250377928023e+03
2.302459738082467993e+03
2.718392206775106843e+03
2.442142030965384947e+03
1.668754088052642146e+03
9.872481170859246049e+02
5.416518120562562899e+02
7.278952657290047910e+02
1.041933574224968424e+03
1.935811488208639958e+03
2.822547409459598839e+03
3.218178700062417192e+03
3.465665249146071801e+03
3.518014921240219337e+03
3.237292080234224613e+03
2.986465664164399641e+03
2.920528875384074581e+03
2.457491397198348295e+03
1.951263008819623792e+03
1.392804493942218642e+03
3.452317712817830966e+02
-1.834444626153608851e+03
-5.836371682484460507e+03
-9.091459352871639567e+03
-9.108687469208427501e+03
-8.426029110927582224e+03
-7.897519616577025772e+03
-7.575168515478126210e+03
-6.956898942589471517e+03
-6.388693370620415408e+03
-4.355601393689252291e+03
2.618522858672855364e+03
3.967729811304754548e+03
-3.948983714490062198e+02
-4.061371157221617523e+03
-5.153717871237756299e+03
-6.396956368775537157e+03
-6.534081825195143210e+03
-6.986018806717825100e+03
-2.956813636213592872e+03
-1.955501806772379950e+03
-6.033001912718793392e+03
-6.761315457746074571e+03
-6.793417247870942447e+03
-7.223265897756978120e+03
-7.594822232310802065e+03
-4.397063970773446272e+03
9.710237133730439609e+02
-4.169522098707308942e+03
-6.510690694861205884e+03
-5.468421536583183297e+03
-5.283614324911709446e+03
-4.364194524971530882e+03
-3.405147948803002237e+03
2.919576155419446877e+03
4.189981995461064798e+03
4.230935197119528652e+02
1.464977181311387085e+03
2.032620038036457572e+03
2.187077966928119622e+03
3.558416206221753328e+03
4.415691802459403334e+03
4.376847781342017697e+03
3.654868173518638287e+03
3.386762026733652874e+03
2.974578018134957802e+03
3.105371184469861873e+03
3.755227685539048252e+03
3.855122266543765363e+03
3.480041822203180800e+03
3.036878617883342486e+03
3.898037172094816469e+03
4.519648107754548619e+03
4.414663583763782299e+03
4.180893823750443516e+03
3.151022417932975259e+03
2.736193378966363525e+03
2.672726847310886569e+03
2.281800588611587500e+03
1.867278202450131403e+03
2.234546625802087419e+03
2.284467807853884096e+03
2.278803889530369815e+03
1.667950851403116758e+03
6.653498796730297045e+02
9.646501245327566494e+02
1.198733719423535604e+03
9.566656384863625817e+02
1.545096056519373406e+03
1.511356195650789232e+03
1.735192919280379328e+03
2.250400847518309547e+03
2.520581945359335805e+03
2.355054908194112613e+03
2.620388000350797029e+03
2.320852123318232771e+03
1.646083150621860113e+03
1.825734899126707660e+03
1.657263761578852154e+03
1.424929450332335136e+03
1.682073430929759525e+03
1.460002591082676872e+03
1.352806640914887566e+03
7.340646542147054561e+02
5.308463810386011801e+02
3.675923664335327317e+02
2.478020261179459567e+02
1.077910587686952567e+03
1.363963640636349510e+03
1.328906611009960443e+03
1.801425925694810303e+03
2.262169189396464390e+03
2.349196389302618627e+03
2.064582724480445904e+03
2.539315886705519461e+03
2.028410978710018981e+03
1.463847315883791453e+03
1.572530225417875954e+03
1.258331484620824767e+03
1.052255952072620403e+03
6.903760753013673366e+02
6.657405519263402311e+02
7.343308370831736056e+02
2.601162887519423066e+02
-4.039251931869458758e+02
-6.717481389948233073e+02
-4.063795469971468606e+02
-1.449700132884468076e+02
5.534228019499041693e+02
5.417549137633877763e+02
7.661194394833892147e+02
1.672675649969493861e+03
2.350332844107303117e+03
2.089092358810740734e+03
1.599874780173850013e+03
1.447700030928190472e+03
1.317567756781390244e+03
6.144380804517729757e+02
-2.283718568791907728e+03
-6.732896057709048364e+03
-9.668085455187616390e+03
-8.804301285834437294e+03
-8.247644685257242600e+03
-9.168136663197614325e+03
-9.204748997719349063e+03
-9.041456326926525435e+03
-9.264245838954915598e+03
-8.901165829848700014e+03
-7.378234655728729194e+03
-2.328359106226659151e+03
6.904095248919300047e+02
-5.343295087904662978e+03
-6.301138042997551565e+03
-6.482851669570050944e+03
-5.058637937894404786e+03
-1.713555968469031768e+03
-4.819618423663184331e+03
-9.627720905395658519e+02
1.983920336987973315e+03
-7.866174002575554596e+02
-1.612365312299483776e+03
1.307630126170548010e+03
1.801426171251209098e+03
1.538030940538658569e+03
1.277300275021451171e+03
1.058218527110029527e+03
1.230898868414428989e+03
1.501246241418463796e+03
1.384216123445969515e+03
1.900858584869805100e+03
1.932181188695619767e+03
2.159279580837661342e+03
2.690234242491126679e+03
2.775053581701972234e+03
2.192640002494934379e+03
2.087036855418018149e+03
2.042301015804511280e+03
1.672386598141023569e+03
1.213282367464457593e+03
9.309883235936213168e+02
8.334941739071995244e+02
5.378565224252981807e+02
3.100598178890492704e+02
3.741635910272824503e+02
3.418406221898775499e+01
-2.009354720027756684e+02
-8.425547124097167284e+01
3.672377337456282476e+02
7.755710080452284956e+02
7.778065076608424988e+02
1.176011492896049958e+03
2.205208621638894328e+03
2.463501971631647848e+03
2.131843587424485122e+03
1.979259587153586835e+03
1.636720457214963744e+03
1.171223752639104532e+03
7.107578404598632460e+02
4.733018515738849032e+02
2.618918148369808137e+02
3.759021247810709809e+01
-1.805399035902230196e+02
-1.734689680429021337e+02
-6.782793560224539533e+02
-1.182867138326679424e+03
-6.210213686076976956e+02
-4.716865238114271506e+02
-2.457822064413923897e+02
-9.825636406393427080e+01
5.409043612568355286e+01
9.222414245748902886e+02
1.461277424295107267e+03
9.192748416701108454e+02
-1.980837043387777385e+03
2.715158200252893153e+02
1.170070618197979229e+03
5.408963722640144169e+02
-2.933985173344758550e+03
-2.574547108027173181e+03
-3.897551054859001738e+02
9.542770217585434978e+01
-6.599673557619868802e+01
-1.340138517474507580e+02
-3.506545669086576140e+02
-6.458834475652738547e+02
-8.226694138410654205e+02
-5.490315304750351970e+02
-1.059980913267399814e+02
3.938421364540575098e+01
2.421848527953999053e+02
6.304427174703270111e+02
1.047198610393407535e+03
1.483480477366176729e+03
1.501232720047189559e+03
1.408540083444405354e+03
9.594516980546918603e+02
7.419163498786999753e+02
1.759696028109191275e+02
1.775456076322833496e+02
5.616085078852746619e+02
4.512212978668073333e+02
1.173720619648301522e+02
1.040520429490538561e+02
-2.797816382096098664e+02
-6.490778498069822717e+02
-8.637807170497011384e+02
-8.579019704854284782e+02
-3.075455951822880820e+02
2.113000615326380398e+02
4.516551541270543453e+02
6.605159656271337099e+02
1.234891048866842993e+03
1.341924561711054366e+03
1.312588607810127314e+03
1.431683936977380426e+03
1.541267788321114722e+03
1.244361679668339320e+03
7.759371621039302909e+02
4.149502796599740577e+02
-1.226570789145109472e+02
-1.188892805329851683e+02
-2.326821437575523817e+02
-3.209959239168383078e+02
-5.178532533265091615e+02
-9.903298425583914195e+02
-1.080387792655477824e+03
-1.001130173362967412e+03
-7.485916817212391834e+02
-5.948104937663551937e+02
-4.377602801124571101e+02
4.086287715159295999e+02
7.593413614147809767e+02
1.014311667660829016e+03
1.228540297409054574e+03
6.790669381783174003e+02
2.689141764510951589e+02
1.130276678077269423e+02
-4.835663823516910611e+02
-1.024897699285917497e+03
-4.178894960037145552e+02
-6.454287909301991704e+02
-5.294395148974110725e+02
-5.420006825211245314e+02
-6.601484143069542370e+02
-1.071860605200472037e+03
-1.039190937222678258e+03
-1.111785421151186938e+03
-7.511401734221689139e+02
-1.961699893707923366e+02
1.721322238792561450e+02
6.507161644578679898e+02
1.101782085565866737e+03
1.288148445283492265e+03
1.308776895430670947e+03
1.405629131206626880e+03
1.187696117473946515e+03
1.014801833289387218e+03
9.767084825035826725e+02
5.495443615644907140e+02
1.663520806393078715e+02
9.812027048416628361e+01
-8.147343246295688957e+00
2.352377296805392604e+01
-1.361208208632082233e+02
-3.970264437008169693e+02
-1.055978825093191290e+03
-1.174505577471357810e+03
-8.653621046448150764e+02
-5.414929645324793910e+02
1.559967174737665232e+02
7.641145431329197208e+02
1.301588165495192015e+03
1.700793733761374369e+03
2.016649411726999006e+03
1.779538949935197707e+03
1.548780062284405858e+03
1.353464034916378978e+03
1.096306828741322079e+03
4.272501392360988461e+02
3.722989214470993602e+02
5.395004428737695434e+02
4.508219305178121772e+02
1.302748466361527164e+02
1.397814351482374775e+02
-2.807044545061793315e+02
-1.091114501722261821e+03
-5.039441117514866164e+03
-5.450648371604772365e+03
-3.749878729578633283e+03
-2.147146370097489125e+03
-4.492363710340716352e+03
-1.221496639642231457e+03
2.366521965578326217e+03
-8.833384029985410280e+02
4.090908743451616658e+01
-1.640732522935305269e+03
4.827378095348416878e+02
1.706261959565980760e+03
1.661802289263382136e+03
-5.016598767468215669e+02
-2.177102595415587984e+03
-1.091539732069596312e+03
-2.211673189761720550e+03
-1.625619435841121856e+02
-3.513365103369506414e+03
-8.133191197085582189e+02
-1.720930809856934729e+03
-6.349143899885500105e+03
-1.609192418653898358e+03
-2.579085330095723293e+03
-2.448785394606593854e+03
3.726570612975956820e+00
1.600504007977959418e+03
-9.223708454231521046e+02
2.508071487945902390e+03
2.473857341244056443e+03
2.093985685313978593e+03
-1.523604445572877466e+03
3.331807894569691371e+02
-2.432675791602629033e+03
-3.867126598936719802e+03
1.189851025293649400e+03
1.299285382697795285e+03
4.611831839895544363e+02
-2.732505759474508977e+03
-1.214674402669475739e+03
-2.222740357907188979e+02
9.176518032806911833e+02
7.901263865709704532e+02
1.126188382764507651e+03
1.676934767716381202e+03
2.288320099346526149e+03
2.527450009106692050e+03
2.469389760216555715e+03
2.381107785898403563e+03
2.077684528276756737e+03
1.838148754640713378e+03
1.748521627345909337e+03
1.285796234219709731e+03
8.929549532404538468e+02
4.880611266353436122e+02
8.081935570232132022e+02
8.423595333894362511e+02
6.485366126443743724e+02
2.047998139940819158e+02
-2.598418508860511906e+02
-1.913219915834548885e+02
3.293317599720508042e+02
3.391059018576020776e+02
6.290262361327637564e+02
7.912112718483900835e+02
1.333765273201935543e+03
1.624700182704742929e+03
1.861039174734846256e+03
1.917876358471761023e+03
1.488421968612610499e+03
1.438862707499306680e+03
1.109092747882935328e+03
4.577839713305192504e+02
3.285948049311676300e+01
-1.102288509259273894e+02
-3.943575771292576633e+02
-5.414979931215531224e+02
-4.376451573822781143e+02
-1.180710543635027534e+03
-1.598965381986340162e+03
-1.713648446009582813e+03
-4.141219828593307284e+03
-3.924591244346313943e+03
-5.802838247436012580e+02
2.570936862266213438e+02
1.090452585282424025e+03
1.433637363187961682e+03
1.697187153613347618e+03
1.494956286724995607e+03
1.176533556486705720e+03
1.098895560757482599e+03
7.443450261104252377e+02
3.975875385572513778e+02
5.416016878528063216e+02
6.434039571424743826e+02
1.320200170105626398e+02
1.854683649988332661e+02
-2.272735950684814270e+02
-1.008205315202461634e+03
-1.060305446545064797e+03
-8.916153234165714139e+02
-9.150923157349656094e+02
-6.657706742781416551e+02
-3.569682533895775833e+01
-8.383871417373686086e+01
5.248909368373795132e+02
1.127475361798676204e+03
1.279907430923963602e+03
8.552262418711497958e+02
5.344422293038485350e+02
4.385303559867805916e+02
5.084603774350387653e+02
1.402053882660657109e+02
-1.290630188390348598e+00
-2.120667270950496004e+02
-4.790908333246882762e+02
-4.683358604715007800e+02
-9.608534561117577368e+02
-1.189723040036505154e+03
-1.655920278063787919e+03
-1.577422031550218662e+03
-1.328308240930378133e+03
-9.146262283851980328e+02
-6.533903134475712022e+02
-7.453006646710991845e+01
4.309399187450284217e+02
1.088024683167114290e+03
1.412732193542998857e+03
1.636015736597546493e+03
1.266851653523251343e+03
8.622351072449883986e+02
5.851298127658928934e+02
4.924607002502926321e+02
-1.240840436616475927e+03
-4.342744400182974459e+03
-8.864235467755292120e+03
-1.008242095433429313e+04
-1.005330953534417677e+04
-9.839933840312969551e+03
-5.539270902075155391e+03
-5.323439850647419007e+02
-3.095346788953472696e+03
-3.614333371612936389e+03
6.276974653546382399e+01
1.718337055543221823e+03
1.907850355228295030e+03
1.964377377514716045e+03
2.213007596533125707e+03
2.168939267176801877e+03
1.663884327027897143e+03
1.455666415814246193e+03
1.496283050314163120e+03
1.415726426527671492e+03
1.133983962048585681e+03
1.014986053119904682e+03
7.637346255030271323e+02
9.252082507622443472e+02
1.165325361773801660e+03
7.880545875563959726e+02
5.114280086568820707e+02
1.454003049690107332e+02
2.999552882023808138e+02
7.880493998685763017e+02
9.965872257135205246e+02
1.402604389098917636e+03
2.220148563002319406e+03
2.735201146197409798e+03
3.544738647626530110e+03
3.396783177418119976e+03
3.033246666698256377e+03
2.632052632160947724e+03
1.903214318476170092e+03
1.961679794247917016e+03
1.536407901172948868e+03
1.282411931382821876e+03
1.517654132206945633e+03
1.705102014808702279e+03
1.790747160003812269e+03
1.353519903540996893e+03
1.042439570673003118e+03
1.103470204243541502e+03
1.097624468579340601e+03
1.277862149460080900e+03
1.773171860931370702e+03
2.079561622852367691e+03
2.780015286366231066e+03
3.056540179231768889e+03
3.239182205176311527e+03
3.575952685167764230e+03
3.532862850028556750e+03
2.794925782291245014e+03
2.216022736242018254e+03
2.110152860949484420e+03
1.926290418364402058e+03
1.453431584976080103e+03
1.828565716424024458e+03
1.856740708249244335e+03
1.858895387665868384e+03
1.142080790993515620e+03
7.403074483387288183e+02
1.290527624815296349e+03
1.591687068656876818e+03
1.201825215806971983e+03
1.112963619021720433e+03
1.300108655587991734e+03
1.946343773799361770e+03
2.040689745030438871e+03
2.035100388275350497e+03
9.450259018671734168e+01
-4.028772673495584513e+03
-7.660706642773981912e+03
-7.714357410311925378e+03
-7.714853338882038770e+03
-7.907227621997289134e+03
-7.598465358753451255e+03
-7.160522595222748350e+03
-8.583799092980026444e+02
2.495994792197488550e+03
7.865510817649070532e+02
-6.204690828561401759e+03
-7.999722266094353472e+03
-7.492543302338240210e+03
-6.945161949848563381e+03
-6.973513760112190539e+03
-6.144544296033061073e+03
-5.268242499743597364e+03
-6.315714346791310163e+02
-4.314669683480537969e+02
-4.197912487730679459e+03
-4.961816505692343526e+03
-5.049210880844526400e+03
-5.246100393493111369e+03
-5.544453290778830706e+03
-4.774308327383047981e+03
1.219355997913672354e+03
5.135682523754346676e+02
-5.754552682278053908e+03
-6.241996090584718331e+03
-6.511792548897067718e+03
-7.072924254011509220e+03
-7.041408529452646690e+03
-3.441195140036733392e+03
2.449734805052267802e+03
3.041358569517575688e+03
1.237095846881147594e+02
1.016911971339836100e+03
3.449994865956004105e+03
4.331019782659226621e+03
4.631995038628081602e+03
4.440989434517382506e+03
4.224997058462979112e+03
4.053999168740231198e+03
3.943054383992627208e+03
3.427138174841517866e+03
2.966221648761918914e+03
3.015382996139877832e+03
2.743716973810818672e+03
2.846557175103512236e+03
2.549694188543390283e+03
1.992968084255090389e+03
1.873300478245079375e+03
2.073961037570612916e+03
2.259487128533914984e+03
2.569940743101521093e+03
3.137102400306739128e+03
3.490783324961011658e+03
3.824194453670345411e+03
4.287044200566650034e+03
4.012426497011252650e+03
3.283635541313063641e+03
1.809899753619815101e+03
-1.097187883740791676e+03
8.148147817131408601e+02
2.330218866463033464e+03
1.281939470313848915e+03
-2.720447637327073153e+03
-1.444317544539221899e+03
1.193585882119200505e+03
1.430590430594859981e+03
1.246177988098779451e+03
8.574334350143468555e+02
9.161470214889469617e+02
8.844199428074201705e+02
1.227264624168128648e+03
1.873022728930297035e+03
2.440258928819329412e+03
2.759488513859919749e+03
2.560522273696993580e+03
2.851927444593774453e+03
2.757757634858468009e+03
2.329530439856349858e+03
2.140223248434923789e+03
1.972241547634749168e+03
1.519912631239509210e+03
1.037276216979292030e+03
1.169802523883700815e+03
1.352983603680865372e+03
1.210622181927409429e+03
1.099658639347850340e+03
7.699030388267877925e+02
8.985303794939687805e+02
8.716151791428584374e+02
8.280178215110754536e+02
1.077689075895877295e+03
1.207685058001973402e+03
1.615028661452807455e+03
2.183654363844519139e+03
2.541557138282995766e+03
2.806733524913618112e+03
2.576181150871155751e+03
2.093874446973847625e+03
1.805785352708612436e+03
1.418811835683522304e+03
7.599365790819143740e+02
6.471260374374360254e+02
8.394082553902071595e+02
9.147496813034850902e+02
4.620722134911806052e+02
1.803645171946370453e+02
-2.833182864908366696e+02
-6.120524984593524778e+02
-3.318284928921149799e+02
5.133059520823297817e+01
4.363653989626517955e+02
1.116294471050472794e+03
1.630123262780491132e+03
1.783923811653325401e+03
6.996338452352083550e+02
-1.830789136837879141e+03
-6.738348862770165397e+03
-8.556070839294161487e+03
-8.579990191828614115e+03
-8.278106828025480354e+03
-8.592491338079311390e+03
-7.306268022686192126e+03
-8.320468162652427054e+03
-8.418870744280968211e+03
-1.971298917254905291e+03
-3.425704044210448956e+03
-8.511489998671524518e+03
-8.877806531383692345e+03
-8.873487612449383960e+03
-8.471603782998705356e+03
-7.590177505165552247e+03
-6.581992534207402059e+02
2.120382226090567656e+03
-1.306399021774829180e+03
2.714400108728821124e+02
2.496961271217591275e+03
2.715110004324545116e+03
2.323858378021028784e+03
2.046221318322407797e+03
1.875237033682474930e+03
1.716809013183532670e+03
1.664937814669033060e+03
1.468705233701667112e+03
1.381120834067649639e+03
1.423143814220559307e+03
1.247758470220841673e+03
8.189258171200763172e+02
3.436552948664730138e+02
2.120218433821379733e+02
2.919541454418664443e+02
4.094364172342854431e+02
7.925346330097075906e+02
1.326313437186844794e+03
1.872824303699268512e+03
2.444063106348172369e+03
2.673078326924695830e+03
2.327968965139631109e+03
1.810725275652195705e+03
1.313308784770865941e+03
1.320682842678518227e+03
1.187861520167412436e+03
5.558944965738968449e+02
4.247601350797610849e+02
4.505176774361110006e+02
8.614518349843268652e+01
1.296246538235301671e+02
-4.390210271065350298e+02
-5.437139793710172171e+02
-4.684379158018548992e+02
-2.811088819976234277e+02
1.402945012857488223e+02
2.028171384995294773e+02
4.394762643730526861e+02
1.007286417568007664e+03
1.513246464283806972e+03
1.398372585851998565e+03
8.717607590718646406e+02
3.635619264325199538e+02
1.988369795559268880e+02
5.772564637195486625e+01
-1.927608466668785638e+02
-4.265149040167722774e+02
9.493607671172227924e+00
7.253300325996638094e+02
2.145231608259830693e+02
-9.767902141679182932e+02
-2.256432808414560441e+03
-1.184653599765906392e+03
-1.173370847120341978e+03
-7.844748066214991695e+02
-2.229967052624362793e+02
3.028168841032560010e+00
4.555836150796988022e+02
1.411801015668168020e+03
1.551782688808423700e+03
1.398550340180145440e+03
1.558130532500209483e+03
9.914748204756731411e+02
5.786337727169385516e+02
2.487068216711336390e+02
-4.013650252134717107e+02
