2.269482964084956166e+03
1.128256986788993345e+03
5.123607084825367792e+02
3.289038986498355825e+02
-3.720721169726321023e+02
-1.315147398126761573e+03
-2.303406583984563895e+03
-2.672863494065404666e+03
-2.766391599030519046e+03
-2.708280899741679150e+03
-2.086501824368337111e+03
-1.890069134947643079e+03
-1.131020722097838188e+03
-1.272973797840697756e+02
6.991123992840156234e+02
1.348161189136933672e+03
2.149904250399356442e+03
2.685388608142653538e+03
2.590614533858003142e+03
2.731559171979709390e+03
3.064267748563257555e+03
2.183754143861041484e+03
1.560944235713281159e+03
9.106841465196291665e+02
-4.665951353878188712e+01
-1.269298103504103210e+03
-2.364241954012873975e+03
-2.652729764818018793e+03
-2.553419395968408480e+03
-2.547284837605103803e+03
-2.797478407535034421e+03
-2.355951808614956917e+03
-1.117782800705821501e+03
-1.223530279947783441e+02
5.742577516384882301e+02
1.053765600455640879e+03
2.077287389205889212e+03
2.880841498676542415e+03
3.134445930948201294e+03
3.339201451094498680e+03
3.493106996903706658e+03
2.765210650429609359e+03
1.977621025629242467e+03
4.442597649151717292e+02
-4.146976520645747769e+03
-4.972756989581846938e+03
-4.975921655428051054e+03
-8.191555891734386933e+03
-6.172874001528104600e+03
-4.328341949468105668e+03
-5.991388978511128698e+03
-5.404486901437995584e+03
-3.646617318078856897e+03
-4.342942579299400677e+03
-2.430179846856506629e+03
8.756288716186708143e+02
-1.494158232933605404e+03
-5.956189374097244809e+02
-4.575487718360673028e+01
3.111528401667686012e+03
2.734315910787154735e+03
1.347713773111157934e+03
2.047692512997131416e+03
-5.206248214562006069e+02
1.621764039486982028e+03
-1.965130182100207549e+03
-2.362257116459737063e+03
-6.915804384873765684e+02
-8.660836996034986441e+02
-1.384761700547283226e+03
-4.111509692130051008e+03
-8.781947750974768496e+02
-1.047730708100067886e+03
-1.840135279873985610e+03
-5.873437703927763778e+02
1.114734629748932775e+03
-6.358424622362487071e+02
-4.223973984324818957e+03
-3.780595529305138825e+03
-3.040684252173074128e+03
6.438105958604934358e+02
-5.009959945040073848e+01
1.174628346880131630e+03
2.418010238742725505e+03
2.069019479519372908e+03
1.518632778550479316e+03
7.297853142465675091e+02
6.414763764697246415e+02
5.546812231657966095e+02
3.993956534451194784e+02
6.056003836539100575e+02
1.171323012397225966e+03
2.158591202273313684e+03
2.541402187010028683e+03
2.894772894435442140e+03
3.314690650186840685e+03
3.972195726785568695e+03
4.343296500330265189e+03
4.455137946421532433e+03
4.806842683715763087e+03
4.432354497368040938e+03
3.919437548445379434e+03
3.240048350072983339e+03
2.506045606470360781e+03
1.720344853604404989e+03
6.098204479810520979e+02
-6.596476986937962010e+02
-1.999211616847263258e+03
-4.690181657899058337e+03
-2.250471138580861407e+03
-5.148503698819612282e+02
1.123289454126290394e+02
6.191825959148678749e+02
1.831614655564723080e+03
2.492199052257537460e+03
3.024935433782641667e+03
3.457124363993635143e+03
3.966556546647697360e+03
3.971653046538075614e+03
4.275218002608837196e+03
4.062300275386625799e+03
3.926246900675279448e+03
3.165097237188249437e+03
2.354307355242071935e+03
1.707459940665581826e+03
9.294068542369211627e+02
5.527497942949948140e+01
-9.054443356200327742e+01
5.955500736206994716e+00
-1.201633547402077937e+02
-2.875999396899321709e+02
-1.386120123177555286e+02
2.088321809424855928e+02
7.414866571905754427e+02
1.323502733155808755e+03
1.835863525824622002e+03
2.336255678279262611e+03
2.569511440609945112e+03
2.682497585308706675e+03
2.921066246563830646e+03
3.242078433450149532e+03
2.723390358934004325e+03
2.115821895416766438e+03
1.224171944217534246e+03
-4.672793938445877160e+01
-8.490513022573849184e+02
-1.431979575464651816e+03
-2.067706873347467535e+03
-2.804366405280880372e+03
-2.831163478673849113e+03
-2.503262635888259865e+03
-1.802720359862082887e+03
-1.038656855378573709e+03
5.858859649366489286e+00
6.757466102053999748e+02
1.469897748004486402e+03
2.552233416299437067e+03
3.463679179405208743e+03
4.025147000760400715e+03
4.352507918466638330e+03
4.530701859122989845e+03
4.413596653978434006e+03
4.012147377224091088e+03
3.129262250660559403e+03
2.604792489416142871e+03
4.446502182763455835e+02
-3.025246388775814921e+03
-7.730965747208532775e+03
-8.322610171837450252e+03
-7.326224902606018077e+03
-1.692807247156162020e+03
2.747594459256956270e+03
5.710284943443112979e+02
-3.567460683247186807e+03
-3.583974037258728004e+03
-2.318426470803743541e+03
-1.318766567581588561e+03
-5.069027909785269799e+02
4.251990690183942547e+02
5.875497615248682450e+02
3.158226776232710108e+03
4.621304323757635757e+03
6.256833862711527217e+03
7.137790561911006080e+03
6.980229430869659154e+03
6.354178246066791871e+03
5.228698820421105665e+03
4.574902616720482911e+03
4.148874130878593860e+03
4.173698823971348247e+03
4.573498048620141162e+03
4.978358007918373914e+03
5.835512506521620708e+03
7.050149171974007004e+03
7.285451876640585397e+03
7.361648463537587304e+03
7.756897684243084768e+03
8.921420985403454324e+03
9.127444392983999933e+03
8.482126311082638495e+03
7.938678418508960021e+03
7.514265391404543152e+03
6.377164095669701965e+03
4.760555448929193517e+03
2.703577469570237554e+03
1.212478697758014505e+03
-3.695402524271096922e+02
-1.983269887133081511e+03
-2.832501960606376997e+03
-3.748956210102291152e+03
-4.347373120918188761e+03
-4.565459227442686824e+03
-4.824913018739004656e+03
-4.961417683268844485e+03
-4.829720056889756052e+03
-5.011482112755592425e+03
-5.146375184843673196e+03
-5.410036568577930666e+03
-5.268229359926745019e+03
-5.734657520454625228e+03
-6.613995324014676953e+03
-7.829825239977554702e+03
-8.985846255406606360e+03
-1.070979013940098594e+04
-1.279652226410676667e+04
-1.459272250173759676e+04
-1.632395646772732835e+04
-1.773257526639811113e+04
-1.843344032168560079e+04
-1.907016544953922130e+04
-1.920126947166356331e+04
-1.875258662546041523e+04
-1.754371926248395539e+04
-1.634437291407079465e+04
-1.496649964997749521e+04
-1.465848863896964394e+04
-1.399524231348575813e+04
-1.242649191262514069e+04
-1.140792704214121113e+04
-1.364130150379017869e+04
-1.500742194333632688e+04
-1.472093268038768292e+04
-1.198555243002437419e+04
-1.075001246957087460e+04
-1.388408652919594897e+04
-1.296260326229008024e+04
-1.464834991266461293e+04
-8.853067252716198709e+03
-5.699476994740755799e+03
-4.311377515026124456e+03
-3.573586996561917658e+03
-6.032819814410686377e+03
-3.108798844414372525e+03
-2.042273531562746257e+03
-1.925996085537552972e+03
5.398241037977261840e+03
5.004636038210701372e+03
7.631492229649983528e+03
8.045046376758687984e+03
1.129337499969802047e+04
1.640458564108314749e+04
1.564290916294725321e+04
1.454646860424188708e+04
1.369933790089159629e+04
1.555862042201209624e+04
1.417035250134578746e+04
1.337460231830538032e+04
1.266841733919755825e+04
1.182387443707514649e+04
1.164393981876162798e+04
1.166863379543106566e+04
1.149605502741279452e+04
1.168030739420213285e+04
1.225943093786070858e+04
1.274447762179143865e+04
1.313353366835878842e+04
1.393157804903884789e+04
1.457961603633483719e+04
1.396870422415836401e+04
1.118573971725932461e+04
1.346871744087356274e+04
1.319955296690080831e+04
1.264618444623412688e+04
8.887540410106814306e+03
8.937479926047215486e+03
9.185836769448662380e+03
7.706415304027154889e+03
5.874933697181937532e+03
2.419467292389351314e+03
6.456812204565406319e+03
9.835948330064111360e+03
9.768541046095770071e+03
1.049841200201400352e+04
1.104533799863062086e+04
1.127114376357061337e+04
1.206469338879001953e+04
1.197680552109220116e+04
1.180528730671954509e+04
1.176797867790257078e+04
1.001556223881229744e+04
5.448664471912273257e+03
5.112857904335669446e+03
5.664323907645527470e+03
4.927139014081203641e+03
1.004172600134469917e+03
2.904467653771204823e+03
-2.134386274718443474e+03
-1.066622315901675620e+03
-3.582961213320053275e+02
-2.623921739700712806e+03
-1.852037053107889733e+03
-2.949679806447163173e+03
-4.512142116970360348e+02
3.919512778539780697e+02
7.445514901427117138e+02
1.178148281559278985e+03
1.525313609129712404e+03
1.886511006542513769e+03
1.199728387754921414e+03
1.169305281148723907e+03
1.169846735167756833e+03
3.089827360194224184e+02
-4.622649285417048191e+02
-1.208486769685698164e+03
-2.305258254726222731e+03
-3.910690959104992089e+03
-5.110409268251385583e+03
-5.734743791197535757e+03
-6.077241202729827819e+03
-6.587817408295667519e+03
-6.992110134597874094e+03
-7.056414157706421975e+03
-6.997477789757770552e+03
-6.500982399157293912e+03
-5.713177955221197408e+03
-5.286653409847360308e+03
-4.616740178425640806e+03
-4.355287602831883305e+03
-3.966400137610537968e+03
-3.648310964326853082e+03
-3.782655370576465884e+03
-3.994374067848825234e+03
-4.539805228723346772e+03
-5.288114457353041871e+03
-6.346807734483795684e+03
-7.274272513168602927e+03
-8.379776344496143793e+03
-9.427610351802213700e+03
-9.886020807636567042e+03
-9.837308058712320417e+03
-9.984731589568416894e+03
-9.916548720594697443e+03
-9.216893866559772505e+03
-8.313911439188746954e+03
-7.663790726116769292e+03
-6.978683208980981362e+03
-6.282757582066325085e+03
-5.599115757972779647e+03
-4.979874874564694437e+03
-4.641189031606174467e+03
-4.475140389411810247e+03
-4.829871107632712665e+03
-5.117485321748801653e+03
-6.598096078385933652e+03
-1.132585017821093788e+04
-1.327140233195068140e+04
-1.236529761374465852e+04
-1.446963064146225406e+04
-1.353743095650754731e+04
-9.593723146974616611e+03
-9.026627677565675185e+03
-1.326209503992138707e+04
-1.011109628252526636e+04
-7.307590019945305357e+03
-9.655558264683839298e+03
-8.400866319753553398e+03
-5.908465842332812826e+03
-4.939170531055837273e+03
-2.400880008951648051e+03
7.556382334947619128e+00
-1.186697783050773296e+03
-2.752505228559659372e+03
-1.897145587469737222e+02
-2.961154800381248606e+03
-3.703733321403231457e+03
-1.881344634532588088e+03
-2.548829994262255696e+03
-3.037038464637334073e+03
-3.625844343618056428e+03
-6.119136181555614712e+03
-5.380781877939803053e+03
-2.471643565845787634e+03
-1.283533577755408942e+03
-1.928475980184915528e+01
9.992885099124233648e+02
2.326401123087491214e+03
3.389232247633359293e+03
4.354947682345708927e+03
5.142815682444728736e+03
5.441001493087935160e+03
5.861726737780874828e+03
6.008206031804470513e+03
5.751614538576006453e+03
5.094102669993308155e+03
4.631858697854888305e+03
3.640094340795000335e+03
2.713917279885242806e+03
1.754493392743230743e+03
1.111984890170507470e+03
1.125546168679246193e+03
1.634343350094215111e+03
2.148573708178400011e+03
2.914359759295838103e+03
3.915869736907438437e+03
4.945339983331924486e+03
5.734986979585175504e+03
6.834035964134714050e+03
7.607631711086630276e+03
8.254946373992139343e+03
8.749218199113734954e+03
9.017971409050811417e+03
8.817384104815750106e+03
8.219754736536026030e+03
7.662360626411825251e+03
6.979601459438837992e+03
5.747338952101667019e+03
4.978632127229610887e+03
3.576459341376152224e+03
2.625722105789234774e+03
2.669532137173690444e+03
2.521300056172696713e+03
2.919245191692128174e+03
3.526459585312461058e+03
4.766122419467266809e+03
5.725488721673707005e+03
6.617594931822165563e+03
7.456230696985080613e+03
8.338542166677603745e+03
9.042725504527315934e+03
9.108889885899408910e+03
9.322418021397077609e+03
9.130142076828085919e+03
8.313956433151875899e+03
7.350903932173809153e+03
6.098037965882236676e+03
5.100448736207757065e+03
4.089106068531837536e+03
2.733991514290277792e+03
2.234102836548747746e+03
1.969431054986363733e+03
1.808935422604881978e+03
2.369709495304965913e+03
2.608821373352951468e+03
3.264285071590836651e+03
3.954996655515383281e+03
4.630985164522237937e+03
5.278322170220018052e+03
5.797007955873204992e+03
6.589007529331176556e+03
7.120300888181918708e+03
7.101859074654796132e+03
6.860654837190538274e+03
6.301638644738707626e+03
5.121760433335711241e+03
3.706930348375724861e+03
2.698003631774545283e+03
1.365879790887804575e+03
2.114047921999632820e+02
-4.865374428186356113e+02
-7.180560233025993284e+02
-1.267282664950895878e+03
-1.192322940460185009e+03
-2.722579374922871125e+02
9.548233553498021138e+02
1.637823107475654069e+03
1.824521351769247985e+03
2.113852918538970243e+03
3.127752912312801527e+03
3.849139124737310340e+03
3.756822922928008211e+03
1.980708298271626063e+03
-1.193269200968061341e+03
-5.611285034047245972e+03
-7.619513967354873785e+03
-8.088135200147819887e+03
-8.825360281243381905e+03
-1.029539303607204420e+04
-1.170442812572060393e+04
-1.199068509687817641e+04
-1.231141309192678273e+04
-9.893807045468109209e+03
-4.632103772807884525e+03
-3.430341121750704133e+03
-1.756540571648464720e+03
-3.549968657699981236e+02
4.571540402418042390e+02
1.032049608073835088e+03
1.933507410942324668e+03
2.578262582226126142e+03
3.254924133858987716e+03
3.741405250343959779e+03
3.539000905860974399e+03
2.515262379441912799e+03
1.440245152921419958e+03
7.071939251506418032e+02
-3.778534925442806411e+02
-1.922938292760210516e+03
-3.291141825889617849e+03
-3.914284179159395990e+03
-4.324846953617378858e+03
-4.493815517771798113e+03
-4.386125493154290780e+03
-4.335439125764102755e+03
-3.350252830743916093e+03
-2.112803865967620368e+03
-1.471967132901853120e+03
-9.629804915657431366e+02
2.419576385648022665e+02
1.116243002484283807e+03
1.173913335842526976e+03
1.611983931845768211e+03
1.449304724991535522e+03
1.049128439777448875e+03
7.654899302760701403e+02
9.944605293717884820e+01
-1.398952773133822120e+03
-3.284669465189204402e+03
-4.853625192596075976e+03
-5.844698450986305943e+03
-6.503825546248738647e+03
-6.901964037455345533e+03
-6.850987253811029404e+03
-6.701697893402390946e+03
-5.853936686050228673e+03
-4.938536201930001880e+03
-4.572259535615998175e+03
-3.590707716397019794e+03
-3.180066940875588443e+03
-3.042975880101716029e+03
-2.799230882715440202e+03
-2.348323959559544619e+03
-2.136280312624250200e+03
-3.022006299820834101e+03
-6.711160839282029883e+03
-7.471468688879347610e+03
-8.060522192855522917e+03
-6.675684115466358890e+03
-7.376762403302018356e+03
-8.329272653085523416e+03
-9.216029745853622444e+03
-1.001077235177956209e+04
-1.047319479833260266e+04
-1.056007015501348906e+04
-1.021401058502958767e+04
-9.784699514459694910e+03
-1.064186771478140690e+04
-1.480200065162543797e+04
-1.237752965722363479e+04
-1.385845812235948870e+04
-9.732589706107082748e+03
-6.233511740270935661e+03
-5.611638657470681210e+03
-6.007184454763087160e+03
-9.426278279463032959e+03
-7.639085182729653752e+03
-6.486308537600926684e+03
-1.081440949776165144e+04
-8.969346178543686619e+03
-4.633704618711740295e+03
-6.433504570706243612e+03
-4.110328304184656190e+03
-2.631872141096470386e+03
1.700145839688337219e+03
9.760770802333307756e+02
3.683194533715887246e+03
5.039864631569505946e+03
2.249359128169058295e+03
3.846944104970832086e+03
4.804973304663805720e+03
5.775728337609362825e+03
6.506439418725943142e+03
9.318390984619671144e+03
8.642879630173554688e+03
5.217106531021375304e+03
4.951243977459079360e+03
7.711490953573897059e+03
6.286087171643845068e+03
7.733206883508454666e+03
4.693019155749824677e+03
6.583705716280145680e+03
7.497390253355448294e+03
9.179250450416704552e+03
1.198450708191868580e+04
1.205830629701712496e+04
1.085285730524598330e+04
1.285929394245021467e+04
1.111075954947681566e+04
1.255245106532568934e+04
1.350250071544382990e+04
1.617001957278634654e+04
1.709909935786234564e+04
1.671387755683018258e+04
1.618041320108898435e+04
1.551776944154562807e+04
1.532598963431954326e+04
1.500009047211592951e+04
1.375005660405819981e+04
1.174091073667460478e+04
1.052154942255637798e+04
1.027187440160039296e+04
9.857825256261716277e+03
9.584712484950881844e+03
9.659565659405894621e+03
9.838390643104143237e+03
1.032407884806611764e+04
1.043661057049698866e+04
1.107604651183474198e+04
1.135425683589305117e+04
1.120421280602016122e+04
1.032981385096190570e+04
7.921021153372043955e+03
8.953011819411116448e+03
9.181509822852998695e+03
8.820270834379991356e+03
7.736421261956445051e+03
6.560020056238124198e+03
4.708775250501223127e+03
2.891939491070978420e+03
1.023740918792535354e+03
-9.056490468756401242e+02
-3.232487430832834434e+03
-5.253558242399700248e+03
-7.427095676282557179e+03
-8.889338938759903613e+03
-1.023395844046457387e+04
-1.171966219577217998e+04
-1.277622920722339404e+04
-1.353052789278800083e+04
-1.414274479647124645e+04
-1.439452220153489361e+04
-1.440358716569029639e+04
-1.443032219790184718e+04
-1.433468564176266409e+04
-1.412964568093900016e+04
-1.380035197350669114e+04
-1.367387026864130166e+04
-1.355752139721898675e+04
-1.358303931522683342e+04
-1.328504445033698903e+04
-1.289677555753349043e+04
-1.252959277237565766e+04
-1.171480643977177533e+04
-1.062173351368028307e+04
-9.435705577893761074e+03
-7.834996428221778842e+03
-6.531928721549219517e+03
-5.092818002542588147e+03
-3.813003056765981000e+03
-2.350784273348439456e+03
-1.212405561616473960e+03
-2.351578446274384646e+02
7.925903701703905426e+02
1.367586384319686204e+03
1.961519324451694274e+03
2.652038319306441736e+03
3.059787171572732859e+03
3.573380265480180697e+03
3.919457407520264042e+03
3.481696161534311614e+03
2.955752226739466550e+03
2.820263622251035031e+03
2.628924490793715904e+03
2.561443346975733220e+03
1.530504788188108705e+03
-5.601127990274351305e+02
-3.102655551461426057e+03
-2.304370107450576597e+03
-1.266512202597142505e+03
-5.522908085185873688e+02
-5.618818395452972254e+02
9.242422469837251242e+01
3.503268079513241560e+02
1.060646111673916948e+03
5.704111238318752839e+03
8.217599107714835554e+03
3.690883705515117981e+03
-1.469377753446124871e+03
-2.874412722650461092e+03
-3.635462463140412638e+03
-3.813729264031630464e+03
-1.997471776213225212e+03
-3.698284259677324144e+02
-3.670007987738872998e+03
-4.124125084705406152e+03
-3.896258568071515583e+03
-2.641545097741907284e+03
2.959957828589472683e+03
5.609120350096492075e+03
5.885872848147788318e+03
5.201133651384429868e+03
4.644803911617574158e+03
4.737856879369566741e+03
4.366185608424565544e+03
3.706705226678593590e+03
2.644392938294332453e+03
1.638096946557905312e+03
3.407563710263674466e+02
-8.916883858785494112e+02
-1.550360311185147793e+03
-1.586250394852506588e+03
-1.772419101610289317e+03
-2.107886182328463747e+03
-2.060637706990224160e+03
-1.479673916651789568e+03
-5.619426567964079595e+02
7.857037334470555834e+01
4.229437127141629844e+02
4.222648145767689698e+02
9.296187919686881287e+02
1.515095248486607034e+03
1.767791906211911055e+03
1.901800663056840676e+03
1.776185394130879331e+03
1.085065176467038100e+03
4.725255027230153360e+02
-2.993793632041553110e+02
-1.348561807792308855e+03
-2.086936912867071896e+03
-2.679466756757067287e+03
-2.770089458432158608e+03
-2.497692892313429184e+03
-2.852135108590805430e+03
-2.885233076817574329e+03
-2.380819157911179445e+03
-1.409794771301848186e+03
-9.439530578595478119e+02
-5.220494784737945793e+02
4.472231929281589373e+02
1.270229684825265394e+03
1.743301903011441254e+03
2.077446157086606945e+03
2.370685723981998308e+03
2.109229183534807817e+03
1.853299607224461624e+03
1.474998794810320305e+03
8.874176052931754839e+02
2.270792431935002398e+01
-1.625768943173972730e+03
-2.976101119410739557e+03
-2.209817847279219222e+03
-1.950020206372731764e+03
-1.674617854313228690e+03
-1.071390820464649096e+03
-4.351393561121957418e+02
2.683776824345937939e+02
6.713719845267813753e+02
7.020170963656486265e+02
1.626548529137500964e+03
2.299240789336337457e+03
2.585386609630356361e+03
2.635146816753864641e+03
3.080740110035151702e+03
3.089389928069053440e+03
2.737323699073208445e+03
2.157727271992647729e+03
1.595713170756015415e+03
4.764229440644804754e+02
-1.449681983150654219e+02
-6.642880114744303910e+02
-1.211391811249622833e+03
-1.253185084656718800e+03
-1.311517165919994568e+03
-9.941889738382634505e+02
-1.559752891691927630e+02
4.872345303144372224e+02
8.786213106177898453e+02
1.149422411343573003e+03
1.968770397531179697e+03
2.395870922999134564e+03
2.979899948856795163e+03
3.497954627323857039e+03
3.441202809058595449e+03
3.315818142746470130e+03
3.190981264751231265e+03
3.104804921138796999e+03
2.743369438930885735e+03
1.730756940683352468e+03
4.580543764135018705e+02
-2.796777246304269511e+02
-3.893476336168143348e+02
-2.949196490253656862e+02
-5.233765429729755851e+02
-4.605792981314004919e+02
-1.249354333704533282e+01
5.379681934942784665e+02
9.569273727705102601e+02
1.720464275774511634e+03
3.127623880146694773e+03
3.497489124988138428e+03
3.633208080606438671e+03
3.671040779134560125e+03
3.700862519056991914e+03
3.628679733860040415e+03
3.185330049390337535e+03
2.640960989976802011e+03
1.925570996097771967e+03
9.941888632243272923e+02
1.187782820881497798e+02
-8.666962559227841894e+02
-1.403263728067421425e+03
-1.701023725848227741e+03
-2.184972002966288528e+03
-1.695092934030627930e+03
-1.112097217252053952e+03
-5.565996928980107441e+02
-1.683599740933308908e+02
6.142487668506510090e+02
1.599393989955253346e+03
1.793224494375174345e+03
2.150821736423941275e+03
2.295331780252600311e+03
2.429283783679344197e+03
2.621638392111718076e+03
2.482686834696726237e+03
1.961942324268860375e+03
1.092064645463078705e+03
4.993493864588535871e+02
-3.936670654074078470e+02
-1.381956934735849245e+03
-1.629727925685445143e+03
-1.931881617159459893e+03
-2.257204201525894405e+03
-2.055489075113113358e+03
-1.804322247905545737e+03
-1.277065043516400920e+03
-4.017530325128572031e+02
1.955060109528050702e+02
8.416352808748339385e+02
1.515615217210162200e+03
1.954593128156388275e+03
2.108160632287315821e+03
2.179779806800090228e+03
2.350556694783049352e+03
2.095779132596226191e+03
1.654121835197227256e+03
1.085807056186102045e+03
4.650399524976374721e+01
-7.588846337470944263e+02
-1.275000483252822278e+03
-1.725766810616262319e+03
-1.813014005218853299e+03
-1.842406704883980410e+03
-1.746546531364465864e+03
-1.077349090559300521e+03
-1.252227761530987209e+02
6.736797118413298904e+02
1.207570167792311167e+03
2.027289427653773600e+03
2.698854405520078217e+03
3.035250330962580392e+03
3.054407812412041494e+03
3.134208828789458494e+03
3.045629436948320290e+03
2.689717800463125968e+03
7.404549772521609157e+02
-2.467238103613654857e+03
-7.001482130223228523e+03
-8.186301295686062076e+03
-8.730829939143070078e+03
-8.667088775075155354e+03
-9.385065923528289204e+03
-9.732838760218728567e+03
-8.559423696344296332e+03
-8.012846467373517044e+03
-7.135093266985422815e+03
-6.121131827279344179e+03
-5.475842923439104197e+03
-4.985118043002524246e+03
-4.352364206097681745e+03
-1.954457451082349053e+03
1.626926970400724258e+03
-1.928389188841262467e+03
-4.169430024639846124e+03
-3.946131218198305305e+03
-3.631512440306387361e+03
-4.269565585287774411e+03
-5.411283405672881599e+03
-6.474622419510210420e+03
-4.131574858515496999e+03
7.238942131752352225e+02
-6.342394972743386461e+02
-7.000960343050387564e+03
-7.824210980557764742e+03
-7.236968408156149962e+03
-6.299232629119162993e+03
-5.791996036248934615e+03
-3.279304710109541247e+03
2.358414748821566036e+02
-2.050506013910192905e+03
-2.984363527709768732e+03
-2.051739506716829965e+03
2.333325795619515247e+03
5.159841290019570806e+03
6.046790420658956464e+03
5.744184840759319741e+03
5.157989067311991676e+03
4.248170431632380314e+03
3.277741068047416775e+03
2.794646437790488562e+03
2.089857340709052551e+03
2.099351589728852559e+03
2.191108196632013914e+03
2.042156471784910082e+03
1.888512477573294518e+03
1.817276785486048539e+03
2.437434841384546417e+03
3.144026670749733512e+03
3.469122093162812689e+03
4.120784213913601889e+03
4.945108612954570162e+03
5.283135035389259428e+03
5.336834456916976706e+03
5.095228648479396725e+03
4.796367864662571264e+03
4.446265476577124900e+03
3.974042595601708399e+03
3.074796707095883448e+03
2.180555605708959774e+03
1.089421857281712391e+03
-4.955507112362911926e+01
-6.792876307386721919e+02
-9.306751994447643028e+02
-8.515844855972233063e+02
-7.000337785599313065e+02
-2.296582138069276482e+02
1.018701035381428483e+03
1.958149431812403691e+03
2.060613060854491323e+03
2.183261735818089164e+03
2.048275051954931314e+03
2.385154560347024926e+03
2.945286766660445664e+03
2.818423294924907168e+03
2.151197754364733100e+03
1.363273057333751240e+03
6.010916455589949692e+02
-4.742586475143075404e+02
-1.308897019278517746e+03
-2.814739264035352335e+03
-3.941294405597384412e+03
-4.070128167400348502e+03
-4.162017253722485293e+03
-3.815893058477890008e+03
-3.264914676985793449e+03
-2.351647740953787434e+03
-1.670197370690026219e+03
-1.228439378003557749e+03
-3.763134893244295540e+02
3.341960006340718792e+02
8.012456553794492038e+02
1.321950389464456066e+03
1.346337621085211367e+03
1.401500964051699839e+03
1.292562784911486233e+03
7.396464725525894437e+02
2.897358379506448500e+02
-3.231899181890908608e+02
-1.050083530277710906e+03
-1.615796792371077117e+03
-2.337276212511321319e+03
-2.756512477921584832e+03
-2.985478929178533235e+03
-2.753097820719701303e+03
-2.362186770083930696e+03
-1.651638633674454695e+03
-7.543789509916853149e+02
-8.431103893004905103e+01
4.236743536917901451e+02
9.785941636047047041e+02
1.495521167922366885e+03
1.933516363564231824e+03
2.137662309914398975e+03
2.595025641289152190e+03
2.373641071186867975e+03
1.612524501785220082e+03
8.857089564974526184e+02
4.051345566530297333e+02
-4.262497725360584013e+02
-1.302447383076149208e+03
-1.921409746878099895e+03
-2.468199513238961572e+03
-2.503819774620337739e+03
-2.156280295331553134e+03
-1.822569282824062384e+03
-8.366806862232706408e+02
2.664977613282577522e+02
1.074003246556602562e+03
1.322779429825638772e+03
1.663840179106884079e+03
1.620179733484753115e+03
6.078071937205494635e+01
-2.270282049297122740e+03
-5.917877630980376125e+03
-4.621111321639999915e+03
-2.600176553241264173e+03
4.702385968130062111e+02
1.094722105470870474e+03
5.151230719349479159e+02
-2.397518220900867902e+02
-1.268001623734235864e+03
-1.395785887674268906e+03
-1.459250332101681806e+03
-1.712505452495402778e+03
-1.578629809207416884e+03
-1.066739859019196729e+03
-1.578585856031697290e+02
9.499072340401305325e+01
8.767165080319833805e+02
1.650209369527581202e+03
2.262418870239886019e+03
2.782405225195514504e+03
2.934096958345305666e+03
2.607340933851928639e+03
2.294021290679891081e+03
2.109995270721256475e+03
1.373230192304435150e+03
4.825803117956933761e+02
-3.512859056920679564e+02
-1.393584148153064916e+03
-1.859433788311443323e+03
-2.188951118372958717e+03
-2.385259815396390422e+03
-2.256447581033802635e+03
-1.886456265955347135e+03
-1.221244634254856692e+03
-2.520237794510823903e+02
4.086273449250389831e+02
1.173299271270551571e+03
1.535174866560620330e+03
1.886357054220841746e+03
2.105681534694202128e+03
2.195921044608287048e+03
2.081871779986745423e+03
1.860410915172143177e+03
1.508494481022430591e+03
1.201031827371359668e+03
1.005828203209228036e+03
1.406997392302608603e+02
-5.135132291671530993e+02
-1.024971942072768115e+03
-1.856825347277152787e+03
-2.321114598909034612e+03
-2.430863134467299460e+03
-2.363313329867803532e+03
-1.944668615377123388e+03
-1.215005856429687810e+03
-8.873834567601438721e+02
-5.684702571977457097e+01
7.624689554611190943e+02
1.556528948370261332e+03
2.292365869813435893e+03
2.583817887933539623e+03
3.167839235493169781e+03
3.307366708639812259e+03
3.300371032649279186e+03
3.431758374700265904e+03
2.956442394040661839e+03
2.967366178672493334e+03
2.082430408697642633e+03
1.130535341971670960e+03
-1.340335679671744629e+03
-4.759268307884929527e+03
-7.253291064871706112e+03
-6.935438641624182310e+03
-6.321723559629892407e+03
-4.715093502874795377e+03
-3.711575253797009282e+03
-2.742103160629908416e+03
-1.402565722572152708e+03
-1.142967358403718663e+03
-2.174355756992131887e+02
8.670350931344532910e+02
1.111394573981928261e+03
5.626161685879076231e+02
1.058740050158542545e+03
4.017796998497630284e+03
5.300765299277284612e+03
8.436382600310439557e+02
-1.599562342669646114e+03
-2.407828908003739343e+03
-2.677158342289797474e+03
-2.626547496787361979e+03
-2.563943361288205779e+03
-2.344281793421395378e+03
1.895492314268240989e+03
7.248495922591096132e+03
5.761848336009941704e+03
3.206058505932167009e+02
2.583203917825378682e+01
6.335742071416741510e+02
1.270975956429107555e+03
1.336123250458763323e+03
3.391053607105137871e+03
5.298856843398215460e+03
9.136556965320032759e+02
-3.864893919296491163e+02
-1.017539716108030916e+03
2.726533301212513834e+03
3.770820492692292646e+03
3.334397540999753346e+03
1.560280806809711976e+03
-2.045486660260464760e+03
4.019543422134515254e+01
3.242739111052581791e+01
-1.056716620948521239e+02
2.110267795191240907e+02
2.686500094713468343e+02
-1.360599055273055313e+01
-2.069258230280357225e+01
3.005216156354524628e+02
-3.178967517254134023e+01
-3.384096505483259421e+02
-7.791361793370164150e+02
-1.182704812035630539e+03
-2.860254830589943595e+03
-4.248734148801681840e+03
-5.037158551368406734e+03
-6.115393164658124078e+03
-7.511398001113440841e+03
-8.450235664951116632e+03
-9.254814095179432115e+03
-9.855141408173192758e+03
-9.457388439875116092e+03
-9.221123299764052717e+03
-1.083807201031727891e+04
-1.154208564677079812e+04
-8.086685680708288601e+03
-7.027802462488662059e+03
-6.225647760030521567e+03
-5.256282644753789100e+03
-4.610964693845246074e+03
-4.095403023443789152e+03
-3.807961316146487661e+03
-3.756345788502058895e+03
-3.763431237767689709e+03
-3.968296922994463330e+03
-4.249501781633740393e+03
-4.619818132651341330e+03
-4.814310585602690480e+03
-4.612179787201679574e+03
-4.292894678879777530e+03
-3.849734741456064057e+03
-3.737505169331395791e+03
-3.446061697695890871e+03
-2.455685976221113833e+03
-1.406195717511300018e+03
-1.671834146181566041e+02
8.738227821006428258e+02
1.968622172896442862e+03
2.919420065295339100e+03
3.898957001561100242e+03
4.755700136324297091e+03
5.258488879140983045e+03
5.813198932246313234e+03
6.018815393663225223e+03
6.021246929740808810e+03
5.662467468913245284e+03
5.251362054491783965e+03
4.664813587303336135e+03
4.078778985329472107e+03
4.354225946633565400e+03
4.402087778309628447e+03
4.314242438036999374e+03
4.563627150426521439e+03
5.344247250999012067e+03
6.627040290499444382e+03
8.190951213146952796e+03
9.187969846788770155e+03
9.708058702242331492e+03
1.042319062884617233e+04
1.049633375036560938e+04
1.044743375005789494e+04
1.053635909237356827e+04
1.035111424567606628e+04
1.043260114564838113e+04
1.027373921888291261e+04
8.965476369517773492e+03
5.911680168941117699e+03
1.511256150587376851e+03
-2.111915518338397305e+03
-2.107896733820280133e+03
-1.105807819436731506e+03
-2.177861785708204536e+02
-5.478914151485305410e+02
-4.307881731208612308e+01
2.683606877567694482e+03
2.943113536371213286e+03
6.366477271820458554e+03
1.228662847867321034e+04
1.117252791150504345e+04
