3.453344199522255167e+03
4.262269611391539911e+03
4.631471146670381131e+03
4.257049447458409304e+03
4.333034499756438890e+03
3.812435384373347460e+03
3.773271386910836100e+03
3.275567371906496192e+03
2.870298425429477447e+03
2.741397469391366940e+03
1.989909969176512504e+03
6.688149250429405583e+02
-5.979116379638295484e+02
-8.182659146682379969e+02
-3.103096123078971118e+02
-5.807492392516127921e+01
-5.035673968738743156e+02
-1.436827881820473522e+03
-1.701808371084456439e+03
-1.674484116192491456e+03
-1.412917047816180911e+03
-8.621242149601746405e+02
-2.902030035665708510e+03
-1.798528287222844483e+03
-2.347133809929056980e+01
4.481743751821235264e+02
1.160218780038356044e+03
2.201602953790776155e+03
2.825779030993367996e+03
3.560023880229473889e+03
3.813907938918450327e+03
3.338147964179634982e+03
2.290541786369183228e+03
1.076925491788427280e+03
1.226991155142007983e+01
-1.016122490791799578e+03
-1.717228978771727952e+03
-2.153119484384414136e+03
-2.872759129114529969e+03
-3.420386172938296113e+03
-3.698866750608535767e+03
-2.809022267734113484e+03
-2.080094897685999968e+03
-1.712955635614844596e+03
-1.411252634757987835e+03
-8.514086866541194922e+02
-4.867499165542868695e+02
-1.384289978299718769e+03
-3.594959971673390100e+03
-5.850658211752358511e+03
-6.276186726994296805e+03
-5.358799738354261535e+03
-4.346852850384178055e+03
-2.460032855435322290e+03
-1.654118000089588577e+03
-2.225445436605768009e+03
-5.868315177366486068e+02
1.242065889779923737e+03
1.890700499277696963e+03
2.467023724279018552e+03
2.874255646269097724e+03
2.187203069398382468e+03
1.575783184187087272e+03
1.391084883738203644e+03
1.147052520789321079e+03
3.606459597201866245e+02
-4.419524978169321230e+02
-5.777724187208688278e+01
9.840861289741184237e+02
1.222641445919484568e+03
4.939250527353518692e+02
-2.780620302325430089e+02
-5.373519991273423102e+02
-8.850145450642369269e+02
-7.221148207683270357e+02
1.006304951670957848e+03
2.028274884933533713e+03
1.484761859500235460e+03
3.237445604993489496e+02
-1.476865063790026333e+01
3.752330775510050671e+02
6.557370597699616610e+02
2.958157369809883903e+02
3.024872268014642032e+02
2.104743338230372956e+03
3.401534550429826140e+03
4.038833699251942107e+03
4.818632365145805124e+03
4.812917177706911389e+03
4.359714021542487899e+03
3.566997072772597676e+03
2.315832615847222769e+03
1.143181488646042908e+03
-1.160085764464913467e+02
-1.906688689815690623e+03
-4.825935706412495165e+03
-8.299742732125150724e+03
-9.616140666479117499e+03
-1.008909160238428558e+04
-6.007327791594483642e+03
-1.684094113589845165e+03
-1.254471406559332991e+03
-3.945338099940560824e+03
-4.993647432600922002e+03
-4.493323468741864417e+03
-3.402316026912228153e+03
-2.290620740015972387e+03
-1.582280846552828280e+03
-1.102551774212336113e+02
3.537487587506202544e+03
3.479922070335128410e+03
2.344074999834580922e+03
1.576943339424341502e+03
-1.774428734954362199e+03
-1.857029535287834051e+03
-6.769515664718278458e+02
-7.352515186510346439e+02
-8.069284266852355358e+02
-2.759594925987036618e+02
2.367284937611934197e+02
6.632873196575576458e+02
1.437722652881586782e+03
2.119084959407628048e+03
2.304371735225468001e+03
2.429537430034571571e+03
2.853625920237891023e+03
3.072780260485644703e+03
3.152073529811915705e+03
3.324470488701859267e+03
2.777996545568039892e+03
2.246710111986146330e+03
1.560609711044937512e+03
1.067688798876708461e+03
1.156968997300849196e+03
4.944593381931107956e+02
2.407282122560566151e+01
-5.782659956405582307e+02
-3.684561005050014728e+02
-5.234595798387957757e+02
-6.422928723844386241e+02
-5.589361261618621484e+02
4.346972510539024483e+02
1.210600087525926938e+03
1.723879243717515465e+03
2.063602444520317022e+03
1.943806254993627363e+03
2.200506420065093153e+03
3.291768747666882518e+03
3.307639634853419466e+03
2.600025430807585053e+03
1.940991000124715129e+03
1.502511851821409437e+03
8.644982119623298331e+02
-2.590489659273100074e+02
-9.547395246988231747e+02
-1.718582485117244687e+03
-2.563631063659423035e+03
-2.908938874429582029e+03
-2.491545027807937913e+03
-2.066320722610946177e+03
-1.857244119972388262e+03
-1.384144037267863496e+03
-5.977249886933321932e+02
-7.242851352337758044e+02
-1.450051059720336752e+03
-3.641919995165696946e+02
7.224156256973175232e+02
6.768588378878664571e+02
1.527228483617585653e+03
1.533544873931724396e+03
8.497317971741373412e+02
3.178082355309468312e+02
1.056910571134707908e+02
-5.673037940832605841e+01
-1.063401927142865588e+03
-1.905257886809966521e+03
-2.379296655019498303e+03
-2.434452438767374133e+03
-2.464793649961354731e+03
-2.271270307850893460e+03
-2.353806579863870411e+03
-1.817450809667777548e+03
-9.463091007401346815e+02
-2.364095537455840486e+02
7.503593920727305431e+02
1.679006093107305560e+03
2.539529465900493960e+03
2.861915438589283895e+03
2.875168290580293160e+03
2.356294357013688568e+03
1.535211605366840558e+03
3.839530106076571769e+02
-3.985028342827367851e+02
-1.243177429806743930e+03
-1.733125378607159746e+03
-1.968309735398639759e+03
-2.570728666554203301e+03
-3.557431117639500826e+03
-4.069393850081436995e+03
-3.564616635385654263e+03
-3.413111057286285359e+03
-3.265920397482555472e+03
-1.880112084956170520e+03
-9.976299541227011503e+01
8.571231412850401057e+02
1.870583786504684667e+03
2.330682027235962323e+03
2.565447903269975541e+03
2.595883951502686159e+03
2.866079596484499689e+03
2.533139216361547369e+03
1.881940498955168096e+03
1.483141531412011545e+03
1.079731026207334935e+03
2.918400550062512480e+02
-2.285221053262176838e+02
-8.135194381508279093e+02
-1.112191739779474574e+03
-1.003646131710463123e+03
-1.361904194087625228e+03
-1.494017565198399325e+03
-7.071617920828155093e+02
-4.014756254296165139e+02
1.331798324187327012e+02
6.519619632981930408e+02
1.094940116593809080e+03
1.463105298429294407e+03
1.866989666498024462e+03
1.721587538063062539e+03
2.103564938520071792e+03
1.737853554871214328e+03
7.623567871063636403e+02
1.291008467125471526e+01
-2.029569694887289586e+02
-3.738581933931992580e+02
-1.099026047931625271e+03
-1.645660687327157120e+03
-1.821385453525469529e+03
-2.256547173474914871e+03
-2.048104325221974705e+03
-1.184902382986966359e+03
-2.331978386090056006e+02
4.553656604596126272e+02
9.023275792385734348e+02
1.562796905104445159e+03
1.878242776095630916e+03
2.571366781570366129e+03
3.204901643117394997e+03
3.205681608843333379e+03
2.813114424030305145e+03
2.432953386142962700e+03
1.786359390627354287e+03
1.285248312423256493e+03
6.166386797744290789e+02
6.328220605325652315e+01
-3.678439474274123313e+02
-8.248172744858405849e+02
-1.722739601262537917e+03
-1.785300957555488594e+03
-1.328818321708562507e+03
-1.140058740214596810e+03
-3.600653156645842046e+02
6.063270515267321343e+02
1.635206423063121292e+03
2.196263532523299091e+03
2.556669821064615007e+03
2.736558386630552377e+03
2.974797452909434014e+03
2.984403377819015986e+03
3.260407000968830289e+03
3.453692810002039550e+03
2.834193015810649285e+03
2.189870556591644345e+03
1.060755926066756501e+03
2.818883845865968283e+02
-4.627994893624890551e+02
-1.277320553615070594e+03
-2.050705163199584149e+03
-2.261003845656985504e+03
-2.646967708792716621e+03
-2.553812213671536028e+03
-3.253581366598506065e+03
-4.360169664344630291e+03
-6.539594380198901490e+03
-4.384885418388645121e+03
1.508981003480276286e+03
3.740984117397261343e+03
4.377172681749389085e+03
3.860605433414263189e+03
3.883360352832901867e+02
-2.955523304831764563e+03
-4.211976475169599325e+03
-3.230111830901403664e+03
-3.834931018029181359e+03
-5.629430748545760252e+03
-6.984598128178455227e+03
-3.356444195618855247e+03
-7.697519970371796205e+01
-2.299282463951205500e+03
-4.700336045810515316e+03
-2.540783854102895134e+02
8.555564690489179611e+02
1.345540934718822427e+03
1.951917373773437248e+03
9.048116154539923173e+02
6.023700390070443973e+02
3.177663478327924622e+03
3.015630072033855868e+03
-1.616856090815876087e+03
-3.507831102828020903e+03
-3.643386916437915716e+03
-3.894453155358802178e+03
-2.501917628337086626e+03
-2.137986215633587108e+03
-5.961747853091362231e+03
-4.730119248690722998e+03
-1.528053491074171461e+03
-6.385423316573387638e+02
-3.985003764227056990e+02
-3.808430224255405392e+02
-9.655741077112228368e+02
-1.619653933926087120e+03
-8.559706358134891389e+02
-1.044836730121695041e+02
3.567701008456732552e+02
7.467658048893606519e+02
1.374590299622501107e+03
1.991361725973374632e+03
2.318127474157851793e+03
2.418833276238248800e+03
1.875493326242439025e+03
1.073065977517675719e+03
3.363904912034052472e+02
-3.394911281222466641e+02
-1.084477068420912701e+03
-1.100490520850703433e+03
-1.237568649892629082e+03
-1.220749521527295428e+03
-2.159854612539155312e+02
1.030818361590564109e+03
2.412681929411553028e+03
3.297452644049048558e+03
3.605088611860099718e+03
3.580567701625718655e+03
3.346193482889788356e+03
4.007188619981071952e+03
4.174588240088183738e+03
4.447465840629864942e+03
4.342871649693458494e+03
3.924055042923308974e+03
4.086090285324025444e+03
3.627559705600687721e+03
2.587385722037805408e+03
1.270177510165094418e+03
5.180796428581683699e+01
-5.739641238775371903e+02
-8.293833133633494299e+02
-1.026310405040511114e+03
-1.339787521415833453e+03
-1.562786690137553705e+03
-1.323511610283662094e+03
-7.266862561031281302e+02
3.548607200891494244e+02
7.180310083347202408e+02
1.461547075745687152e+03
1.988617070124374777e+03
2.319042814462568003e+03
2.854162552968020009e+03
2.577323606714591733e+03
2.563327787024387362e+03
2.850135789258911245e+03
2.159528288351371884e+03
9.283704014261394377e+02
-6.613571171705671077e+02
-1.967724204104846422e+03
-2.958803600088091571e+03
-3.157581945547275154e+03
-2.571048974057295709e+03
-7.342164373142588829e+02
3.159459950168382534e+02
-3.325296066359687757e+02
-9.256614559146352121e+02
-4.374519673156363524e+02
-1.088499155021491163e+02
-1.292720650302859475e+01
2.783476706544431636e+02
1.330090000172814825e+03
2.151303463787441160e+03
2.663957309397093923e+03
2.723074802845395425e+03
2.707596286175390105e+03
2.091512061573695064e+03
1.037830954540025914e+03
3.053935978449016275e+01
-7.564854857547796882e+02
-1.406267320278003126e+03
-1.812813753163834690e+03
-2.253152420715687185e+03
-2.839393823307972070e+03
-2.693527743005166030e+03
-2.363504627036002603e+03
-1.940291696789748357e+03
-7.758596827954858099e+02
7.897745112488961468e+02
1.500515168672807249e+03
1.690449034560049768e+03
2.305641122419348449e+03
1.361115301969328129e+03
-9.791976057544176228e+02
-4.039242892629722974e+03
-4.155994648609588694e+03
-4.696510564504634203e+03
-5.348783529078202264e+03
-5.751826053798194152e+03
-7.140717835709283463e+03
-7.923544360943055835e+03
-8.343313016938613146e+03
-7.640066150513011053e+03
-2.796013677042342806e+03
-5.499649249525720052e+02
-5.707753137564184271e+02
-1.315483793918719130e+03
-4.073222503037557090e+02
3.006781525232299828e+02
1.088857346341039374e+03
2.009995508053139929e+03
2.463129539448335890e+03
3.114324873904884043e+03
3.410516814358134070e+03
3.382707615278050071e+03
3.182952215279401571e+03
2.405309794880997742e+03
1.554730356209862293e+03
9.940898344131711610e+02
9.723820108476182611e+01
6.198982035817281577e+00
-2.279837710334543601e+02
-5.703236259803899202e+02
-7.938950138250312420e+02
-8.957354050341275524e+02
-8.758142264072000671e+02
-5.481755534804037779e+02
1.931841935654724125e+02
7.702873890264557986e+02
1.296165083533454663e+03
1.738802301310229950e+03
2.102251645786673635e+03
2.576608984218302794e+03
2.549934794015030093e+03
2.825217060075025529e+03
2.861435124201032522e+03
2.575550759152410592e+03
2.095520539093304251e+03
1.465319833211988907e+03
5.089614416095174647e+02
-1.265690434733019742e+02
-7.733252621060552201e+02
-1.089301707060950548e+03
-9.425033283130044310e+02
-8.650583093204712668e+02
-9.699772707167453518e+02
-7.601768142407230471e+02
-2.906646468026581260e+02
3.806062545924938263e+02
7.686822802114860451e+02
1.676638487179221102e+03
2.358433382625421928e+03
3.204100202930400883e+03
2.891664189195568269e+03
2.376176213467436355e+03
2.403682749974537728e+03
2.527170657979593216e+03
1.962604309784532461e+03
1.036955532728995195e+03
4.154191162269071036e+00
-6.407616262168252206e+02
-1.369763280151109484e+03
-2.000859870099420505e+03
-2.354069828306358431e+03
-1.837363721589393663e+03
-1.623752072063989317e+03
-2.432136375855443021e+03
-4.764424071818953053e+03
-4.588619193742610150e+03
-3.055787266603414992e+03
-8.629699124692883743e+02
-1.481760865429835405e+02
2.454660987269246561e+03
8.546808516441330994e+02
8.609299004717180424e+02
2.329324096483795984e+03
6.818223106997045306e+02
-6.235095781871330018e+02
1.172347314859890275e+03
-9.235343817480422786e+02
-2.656138399317791027e+03
-1.560668196327546411e+03
-4.042300039118833411e+03
-2.435983797856592446e+03
-5.466671989151844173e+03
-6.332327934816166817e+03
-2.030930352901114247e+03
-4.404637055681986340e+02
3.809992698172980852e+01
-1.481196098685659081e+03
7.087402195099117534e+02
-4.060269535263401508e+02
3.844917676128993094e+02
9.623496554305024802e+02
3.355507122304342374e+03
3.207959654155897624e+03
2.929751733464165227e+03
1.793840637746059883e+03
-1.541754326118545578e+03
1.119900438703141106e+02
-2.574964537704717259e+03
-3.332690226421905209e+03
-4.352175754533804138e+03
-3.871452701677592358e+03
-1.352608770482369891e+03
-3.139720390206665343e+03
-2.853720877692116574e+03
-1.665730116531775309e+02
6.477849210850423560e+02
1.098380376026301064e+03
1.934240044306318623e+03
2.419323232331775671e+03
3.054632386123207652e+03
3.270243041818742768e+03
3.274153809965527216e+03
3.185417419598040851e+03
2.748035904390692394e+03
2.366019881893166712e+03
1.795340669517129754e+03
8.039319396078039972e+02
1.264712814544687625e+01
-7.165598437396768077e+02
-1.112623031811154078e+03
-1.256308864435381565e+03
-1.291524220245873948e+03
-1.200227339438399213e+03
-1.040697648136764656e+03
-9.082748589685940033e+02
-5.318214598938709514e+02
-1.701500323440243108e+02
7.689154457561619438e+01
1.399462442752891775e+03
2.774610907470851089e+03
2.873266231027376762e+03
2.983169053077649096e+03
3.197597437275323500e+03
3.051504126601366806e+03
2.583586903852006344e+03
1.937591475377587358e+03
1.040712826249711497e+03
2.152484192422333535e+02
-4.403118531188584939e+02
-4.905013181063209231e+02
-7.457813213257616098e+02
-7.571254167397679566e+02
-6.735243020973682633e+02
-6.109067118451451961e+02
-4.293433599167007628e+02
3.869615317854818954e+02
1.010199385470806192e+03
1.488743713045540289e+03
1.986456729570644939e+03
2.615453195201655490e+03
3.312658975011464918e+03
3.643615151132947631e+03
3.253242541188852556e+03
2.722740630899491862e+03
2.538853143288103183e+03
2.072760488189558146e+03
1.111367400501911334e+03
6.775400560073726410e+02
9.818832702942725632e+01
-5.357175099592316201e+02
-8.241602771121282558e+02
-1.197224356337012523e+03
-1.261940601550255451e+03
-1.079292044384463452e+03
-6.293122738618047833e+02
1.759876220075944673e+02
1.318611542066794073e+03
2.121519499172904489e+03
2.878678856120667206e+03
3.512164335909755209e+03
3.754005911736121561e+03
3.994215523725570620e+03
3.776724021722096040e+03
3.353526974856587458e+03
2.668619744090030963e+03
1.755993878020629836e+03
9.386027045435845366e+02
2.122519338160708742e+02
-3.871238223530105529e+02
-1.406558891053722618e+03
-3.806047885148661862e+03
-8.095497481191165207e+03
-9.207850175088997275e+03
-8.551130630116202155e+03
-8.154417485418458455e+03
-7.507624131899485292e+03
-7.117713921449269947e+03
-3.522657338013488697e+03
1.515537081650290020e+03
5.908190848786614424e+02
-3.993677993073219113e+03
-2.759909468622563509e+03
-1.437991287700638168e+03
-2.715899477424608449e+03
-2.329406969163840131e+03
1.667354085466856759e+03
2.369270885380462005e+03
-3.566879994316280431e+02
-5.721555286869619522e+03
-7.056368802417591723e+03
-5.465095721628871615e+03
-4.603753102629680143e+03
-7.892330561001118440e+03
-8.009817975640976329e+03
-7.944068503939774928e+03
-6.706982452006767744e+03
-1.485533358286626481e+03
2.464356822022608412e+03
3.421633298324752104e+03
4.698291870353784361e+03
6.046465344552753777e+03
6.336316049342600309e+03
5.724890689782077970e+03
4.699096156134837656e+03
3.778881367084181420e+03
2.852233784786965316e+03
2.127086569064561900e+03
1.815321072803773859e+03
1.514003134641689712e+03
9.012911110853916625e+02
5.681910570835678982e+02
8.305838003627600301e+02
7.246819868747465421e+01
-2.210199330071860118e+02
3.071561162142482999e+02
1.005963672151229844e+03
1.216450814614994897e+03
2.012676095689894510e+03
2.926660497555794791e+03
3.185455773726540883e+03
3.880222625259365486e+03
4.462094451509846294e+03
4.483095627773165688e+03
3.956198211948678818e+03
3.366432045360960728e+03
2.624767299236870258e+03
1.437189991715352789e+03
2.497401461264960574e+02
-4.926016946788639643e+02
-8.747919370594989914e+02
-1.268843156276965374e+03
-1.412782387158530128e+03
-1.688586090437833263e+03
-1.676189672988532720e+03
-1.477523233072329504e+03
-8.505496707176871496e+02
-7.940542981532350950e+02
-1.188650810444024302e+02
5.140912676540075381e+02
9.096586220112635601e+02
1.449896304414600991e+03
1.860852209007771307e+03
1.849713481160513084e+03
1.699641368636977859e+03
1.768633168100036073e+03
1.309731362974452622e+03
-1.773260927098847333e+03
-2.223569184617138944e+03
-1.438913357383071570e+03
-1.630492108041305528e+03
-2.994280456691355084e+03
-4.743362455950274125e+03
-2.992726342639401537e+03
-2.669331336992323941e+03
-2.404138279231105116e+03
-1.850040383649251908e+03
-1.956067108707315356e+03
-1.665132410537974692e+03
-3.291374516348533348e+02
1.289936547774014571e+03
2.734134364440461013e+03
3.179500847248806622e+03
2.116006966191660467e+03
1.257688673743055006e+03
1.225517086203248482e+03
8.234648977566594112e+02
1.095251114253219527e+02
-6.622692939563979735e+02
-1.065932047589525155e+03
-1.591442299418978109e+03
-1.941800104083793030e+03
-1.834024377198963748e+03
-1.648163869786744272e+03
-1.918244231726736189e+03
-2.176210944214487427e+03
-1.644034954813302193e+03
-7.307138465800570657e+02
4.258352736649418375e+02
1.330584121476992323e+03
2.178537528392630520e+03
2.856741943866427846e+03
2.858254261528344159e+03
2.395059379851088579e+03
1.922173245648069951e+03
1.699583601966138303e+03
1.190254570179703023e+03
4.861447193083910747e+02
-6.947895534578125307e+02
-1.505595345875450221e+03
-1.936316686823652617e+03
-2.344952192917137836e+03
-2.710458237497149184e+03
-2.783910977231073502e+03
-2.101371092258670160e+03
-1.645867805859428472e+03
-1.409428920117687994e+03
-1.391114845904906588e+03
-6.288438909244270008e+02
7.854952336133767403e+02
1.678840150640414549e+03
2.301089435479517761e+03
2.333542027720882288e+03
1.411971702727648790e+03
1.087339510189652856e+03
3.776455296448165200e+02
-6.391555965837427493e+02
-1.232099261963492154e+03
-2.122258557896561342e+03
-3.225889447126152390e+03
-3.255087419710792346e+03
-2.058775175691016557e+03
-7.127702732283348723e+02
4.373675917801461566e+01
-3.653965848360579685e+02
-5.762292750639534233e+02
-9.126844505686285629e+02
-3.809597007891936755e+02
8.202561712713481938e+02
1.447863396734486287e+03
1.496685892176975585e+03
1.613935146341772452e+03
1.919480349994909602e+03
3.583049163885530106e+03
5.491966209729644106e+03
5.581124894657654295e+03
3.910242269247996774e+03
2.744523161324094417e+03
1.750601493334477482e+03
7.577349588324192382e+02
4.863814042032772278e+01
-1.048135299310102255e+03
-1.636392547677937046e+03
-1.793113279454736812e+03
-1.432234372498638322e+03
-6.820907670889802148e+02
-1.083684825393244182e+02
8.368388669297619344e+02
1.364453155337631870e+03
1.518169736058164290e+03
2.243145594310986326e+03
2.481571135361416964e+03
2.862579531654087077e+03
2.952173717111283622e+03
3.294798930643655694e+03
3.318763182726504510e+03
3.299899663475028319e+03
3.634189589814977353e+03
3.251518228811857171e+03
1.990683568977435698e+03
1.022941878092402590e+03
2.001024568000208035e+02
-1.080610635744563410e+02
7.617183784836266014e+00
3.151276017113252692e+02
4.593719454545921508e+02
6.633534309985117261e+02
1.060072563259941944e+03
1.363607102077443415e+03
1.756920698188223014e+03
2.477961509393447614e+03
3.469829947194973556e+03
4.129558920349680193e+03
3.941099885745263691e+03
2.161450842589735657e+03
-1.001384544399306606e+03
-3.520472669748315639e+03
-4.237873120049926001e+03
-4.416424070070022935e+03
-5.629039027586532939e+03
-6.209727949796148096e+03
-6.326660016691883357e+03
-7.314914994839993597e+03
-7.139428868681530730e+03
-5.873259226652274265e+03
-5.760485144314010540e+03
-5.637190761574001954e+03
-4.630256446546818552e+03
-4.406601650020023953e+03
-1.534342507251443521e+03
3.849651548245369526e+01
-2.069036618824625748e+03
-2.201948097659704217e+03
1.448787946206577544e+03
4.736234071736256737e+03
8.824703688749780213e+02
-3.528501306217714500e+03
-4.027755516797281871e+03
-4.505259481468482591e+03
-4.441048564317966338e+03
-5.025133859923716955e+03
-5.929481865376526912e+03
-6.223034996978135496e+03
-6.317687347474528906e+03
-6.543315570799477427e+03
-6.438955375449806525e+03
-2.583627314657271654e+03
1.495749925846027736e+03
2.456284918473982088e+03
1.994155567451672823e+03
-6.324594080226406732e+02
-2.052552094769546784e+03
2.078703693327286146e+03
4.382330175078564935e+03
5.202380405972379776e+03
5.094754047537511724e+03
4.103346345545391159e+03
3.158160585387935498e+03
2.678305740306332609e+03
2.150859850385169011e+03
1.887774701740329192e+03
1.404097907035306434e+03
1.333863576734230264e+03
1.760131555500923241e+03
1.805861044154673664e+03
1.448182135162044460e+03
1.530287367269674633e+03
1.824185441322401857e+03
2.471776185130096110e+03
2.392990703832820145e+03
2.170831688794163711e+03
2.773431950613649860e+03
3.503863257939663526e+03
4.152272960971373323e+03
3.631790702422035338e+03
2.801662541207324011e+03
1.932032577418711071e+03
7.837803637995441477e+02
2.897571567862901247e+02
2.410498337950861014e+02
-4.019280808408588541e+02
-1.260999721733548313e+03
-1.516403064945709502e+03
-1.112178931449493575e+03
-5.643560933023455846e+02
-4.363858373098157699e+02
-4.136044131476454027e+02
7.916905133239384895e+02
2.085633010930154796e+03
1.334646259783249434e+03
3.879394396363971964e+02
2.863805272835978030e+03
4.378210435545141991e+03
4.630877959887969155e+03
4.223310129048865747e+03
3.153467313698805356e+03
1.634403253793401518e+03
5.516791295035128542e+02
-4.554757082278220537e+02
-2.411233782942339985e+03
-4.427253345868140968e+03
-5.192514067762203922e+03
-5.088976206828907380e+03
-4.489790690244890357e+03
-3.755185136172791772e+03
-3.663997434374271506e+03
-3.543272520066010657e+03
-2.940138660166312548e+03
-9.976075479754895241e+02
1.065534183681407512e+03
1.959362996090700108e+03
2.086858385523614288e+03
2.504160007610191315e+03
2.721386434568992627e+03
2.741537368548551967e+03
2.939457895938523052e+03
3.294135850758016204e+03
3.361656979407820472e+03
2.546861316980820902e+03
1.021551506746345922e+03
4.327271978248590472e+02
6.844793220275647627e+01
-2.492444838074974029e+02
-3.882747028586925353e+02
-3.265705640300925552e+02
-8.552217901388304426e+02
-1.353381223228342151e+03
-9.141063792869548479e+02
3.765330400398784718e+02
1.673609754010981305e+03
2.459300125361422943e+03
3.403731964183398304e+03
3.859850307772569977e+03
3.630605484121902464e+03
3.150973543913346020e+03
2.561942369706638601e+03
2.266580456397511171e+03
1.452026193340478130e+03
6.082127324256697420e+02
2.418965895012607916e+02
-4.249890664628668446e+02
-1.241534863255162236e+03
-1.671835579217025725e+03
-1.429981114229909736e+03
-1.192942879472780987e+03
-1.945763204293861463e+03
-2.809464772765793441e+03
-4.115949919249340383e+03
-5.891175666375033870e+03
-5.775158308928002953e+03
-5.096900535290682456e+03
-4.313354571641537405e+03
-2.829518868773234317e+03
-2.854408929000232547e+03
-9.858661114454855579e+02
3.310952045726173310e+03
3.337008919226366288e+03
2.439261189080380973e+03
1.606759094531533719e+03
3.625705946528183858e+02
-6.906246565906412798e+02
-1.429806628469612860e+03
-1.502001588400503579e+03
-1.992222603515053379e+03
-1.972365483389112796e+03
-1.154460332045506675e+03
-3.636449673762142538e+02
2.170231991838263355e+02
1.032622577704660898e+03
1.538265545356342500e+03
1.898993054248959425e+03
2.521801618016377233e+03
2.538702443030699214e+03
2.085620994983476976e+03
1.890533491013203275e+03
1.395453633034614541e+03
1.072355872829130476e+03
9.571865502047859309e+02
1.078923193107019415e+03
4.505390682244755567e+02
-7.100517987078103488e+02
-1.429868088260690683e+03
-1.964877772677997200e+03
-2.420089488219709892e+03
-2.331536122670310306e+03
-2.269198266335710741e+03
-2.347032699317591778e+03
-2.154075630863163042e+03
-1.361366964786674089e+03
-8.267919357367350131e+02
-4.152363920991039663e+02
1.922723615025445554e+02
3.987039848712011576e+02
4.680213139215490514e+02
6.212641838620434100e+02
2.975261416352480524e+02
-7.572347794229943929e+02
-1.489075469357018619e+03
-1.138000782919477388e+03
-1.131016275781762715e+03
-1.903132299516900503e+03
-2.256418916515834553e+03
-2.850874343850811329e+03
-3.798501963747389709e+03
-4.772255320772331288e+03
-4.437179979428706247e+03
-4.036395262523424208e+03
-4.527696211764622603e+03
-1.223974010934433409e+03
-4.972626748272885493e+02
-1.044925894976345688e+02
1.071353332921290985e+03
2.126343276518284256e+03
3.411503832804852209e+03
4.730790853177168174e+03
4.263225116985899149e+03
2.581905691491755078e+03
8.437420404196413983e+02
-3.733082946423189128e+02
-1.629323485876638188e+03
-2.962377918192823017e+03
-3.666404478969076990e+03
-4.138431098930267581e+03
-4.441393442065339514e+03
-4.363247309333610247e+03
-3.568018949502669784e+03
-2.654695920367203144e+03
-1.363254229284992789e+03
-1.067687863107392786e+03
-4.499267380785846058e+02
1.260982240772378191e+03
2.398026343708816057e+03
3.522283760229979180e+03
4.373932966441447206e+03
5.335971972711820854e+03
5.553372167124915904e+03
4.225115565633057486e+03
3.063187505251073617e+03
2.849574427804723655e+03
2.552252613654392462e+03
1.272186786523862338e+03
-3.646794127701907655e+02
-8.974104760475921694e+02
-2.499355437780432965e+02
-2.427040253754997323e+01
-1.141386967330148309e+03
-2.330258678833937211e+03
-7.658935808910198375e+02
2.558739730739124298e+03
4.260648880941673269e+03
4.308889420253427488e+03
4.323442724602400631e+03
4.114352602323936480e+03
3.530608115803502187e+03
3.243151800322529652e+03
3.186022918224258774e+03
2.536322579612008212e+03
1.484039279949724687e+03
4.101125693635750622e+02
2.354804508835091212e+02
2.203566582316216493e+00
-7.807686998984215734e+02
-1.650557533966427400e+03
-2.157150393353374966e+03
-1.769557163297580473e+03
-1.782790950362204057e+03
-2.477906504462367593e+03
-2.189931441379962507e+03
-1.212932932025106311e+03
-8.549099613956296935e+02
-9.857227272602985977e+02
-1.000230180067656761e+03
-2.034266646970075954e+03
-3.946869803119129301e+03
-3.755194534714629754e+03
-2.061282812499466672e+03
2.148881043879090385e+02
8.502665138508498330e+02
5.527841965411123510e+02
1.494470318511005871e+03
1.970181301248704585e+03
1.364740856939313971e+03
7.641027609386680979e+02
2.151339282382115016e+03
3.814588130070193984e+03
4.202900354546113704e+03
4.394035160213688869e+03
4.807035816616077682e+03
4.631194084603608644e+03
4.234376112870483666e+03
3.926290509535119782e+03
4.324137670003477979e+03
4.625123310417056018e+03
4.275958170594237345e+03
3.777493970297318810e+03
2.576965472425633834e+03
6.732727359105385858e+02
-1.641586745704336408e+03
-3.994554320217870099e+03
-5.005516594237849858e+03
-4.921903051384443643e+03
-5.783811919387869239e+03
-7.508404288156682924e+03
-8.725053674835802667e+03
-8.941674098585172032e+03
-7.385945553668150751e+03
-4.077779804408645305e+03
-4.559470614540952056e+02
1.497558344090849459e+03
3.477442077840692036e+03
5.597553303174662688e+03
6.825828144864412934e+03
6.113265788868654454e+03
4.536987718883537127e+03
3.893018211756600522e+03
3.542237221741368558e+03
2.182585945427522347e+03
9.279745949692683098e+02
-3.036402738202712612e+02
-9.433756404026554492e+02
-2.233287898442856203e+03
-2.637369071909549348e+03
-6.886083609654772317e+02
1.496976574010713875e+03
2.001399303837971956e+03
1.167658379615513923e+03
-9.541871392284682543e+02
-2.651132397932864023e+03
-4.843219435963750584e+03
-6.603481595081442720e+03
-7.711919658410567536e+03
-6.212447438788350155e+03
-2.720013301361005233e+03
-1.184601272143112055e+03
-3.974182546120847746e+03
-9.991813091822941715e+03
-9.339538551609930437e+03
-4.332346196194527693e+03
-1.855223044086848404e+03
8.637751417954682438e+02
3.522609575407201191e+03
4.303220944293757384e+03
3.005673286427573203e+03
5.141994998696835864e+03
4.547109869886015986e+03
1.134001984173491792e+03
-2.111237031790536633e+01
-4.791333799864198681e+02
-7.528022221072932041e+01
8.985084634832293204e+02
6.259311557958039884e+03
8.174178446208774403e+03
7.011195667272104401e+03
2.466428008846009106e+03
3.200811726875714612e+03
9.883947480895387798e+02
-2.135718306264549938e+03
-2.915439435346764640e+03
-3.268848610561489750e+03
-4.537989484846186315e+03
-4.116868039682376548e+03
-1.374543182511467649e+03
-1.306924616708723534e+03
-2.552941605238206193e+03
-4.018605001030251515e+03
-3.895042611141705947e+03
-3.836250908759459435e+03
-4.922128496150427054e+03
-4.559586683696674299e+03
-2.708548852408716357e+03
-3.719737020699558343e+02
6.811550473444710860e+02
1.802908850523052251e+03
4.075307378316739687e+03
4.915404758561641756e+03
3.850322493081451739e+03
1.295130599897791626e+03
-6.931812627412122083e+02
-1.599684883198752459e+03
-1.195357912063251661e+03
7.388792134757977692e+01
1.342042697308927245e+03
1.254167908742815371e+03
-1.606345929564045605e+02
-2.269399591723452886e+03
-3.768202088892361189e+03
-3.560013320075196589e+03
-1.987669044192274441e+03
-8.551251709337526563e+02
-3.302895054504426753e+02
-6.280868374841508057e+02
-1.362458787357672463e+03
-8.772567060899262970e+02
2.280581335406106518e+03
5.542138918733366154e+03
6.692500380744075301e+03
7.302655251663280978e+03
7.373600768384801995e+03
6.637214530087810090e+03
5.286339782528650176e+03
3.703968090708528507e+03
2.132696130675726181e+03
1.754448611997789271e+02
-7.880414121308377844e+02
-8.508635441817198171e+02
-9.355750683615840444e+02
-1.273129512057646934e+03
-9.545299840162315377e+02
-3.772227688534422896e+01
5.042505336042675026e+02
2.515942673168654267e+02
3.512945410868180147e+02
1.687291432498131826e+03
2.030551111989385618e+03
1.914053560092987027e+03
2.136774172992270451e+03
2.004783502411643894e+03
1.079090045762338832e+03
-2.343120376969238521e+02
-1.441464558980693482e+03
-1.940312406828170197e+03
-2.338892915432084010e+03
-3.250296772492814398e+03
