1.111088498443717526e+03
5.813587150061828197e+02
1.222368493936676941e+03
2.094120427200313316e+03
3.450634618860861792e+03
3.711949386815485013e+03
3.201017236641004274e+03
2.842808168635849142e+03
2.354384454469324282e+03
1.785846021061568308e+03
1.620095373374332667e+03
1.313031477651086789e+03
1.684650059280272899e+03
2.275051898673235428e+03
2.309322488358583541e+03
2.318526835949959150e+03
1.699670689396136368e+03
1.115710656729959965e+03
9.535423597311364574e+02
1.001148826662079273e+03
9.535117313687416072e+02
9.175700436903097170e+02
8.593826399964978009e+02
1.063015665868422047e+03
1.252491329902817142e+03
9.047972262755645261e+02
2.498823433792651656e+02
2.076406664119323295e+02
9.472320607462319231e+02
1.151401727933624898e+03
8.891163815372808585e+02
6.964112035554924205e+02
1.014335605620077217e+03
1.435849407559366000e+03
1.626009639221100088e+03
1.822700690897519735e+03
1.575927997908098178e+03
8.327912632303815599e+02
-4.691680600307536508e+01
-1.002220764554598873e+03
-1.447109549162263420e+03
-1.430610169030281895e+03
-1.407754426924670270e+03
-7.885590578566213935e+02
6.194286880473658385e+01
1.026799492186454700e+03
1.430082501714910904e+03
1.559760890320530734e+03
1.503779595511041180e+03
1.804052240358611471e+03
1.543599326935593581e+03
8.214149072228178738e+02
-8.461880896821478260e+00
-4.670167063112954793e+02
-3.002710231789193926e+02
-3.832414031456705175e+02
-6.610166964718598592e+02
-3.646081603337788124e+02
1.600121107255298014e+01
-1.672675792310623422e+02
-9.904762180971814587e+02
-2.257625494744178468e+03
-4.273686309350499869e+03
-4.306658365535842677e+03
-4.496542049381021570e+03
-1.427296120798535867e+03
8.090231982961076937e+02
-9.416093462069540010e+02
-4.432177539513862939e+03
-4.765627975596226861e+03
-3.567949449669240039e+03
-2.904203017693822858e+03
-3.609377525858576519e+03
-3.943551875738261515e+03
-3.918676493497805950e+03
-4.021706835016188052e+03
-4.355705517917805992e+03
-3.739700151239109346e+03
-1.588765189053795439e+03
-1.674989564525341393e+03
-1.585373013158387721e+03
-2.038944274121535329e+02
-3.315641798272658320e+02
-1.054055687606518603e+02
1.496796713542001100e+02
3.569825674505808877e+01
-6.039907918527335795e+01
5.754202649074688907e+02
1.228120907650286199e+03
1.110666868975895568e+03
1.199089474631859957e+03
1.721390546532659755e+03
1.721543385226050077e+03
9.915576056467371018e+02
9.404649020907902468e+02
9.542665410135412003e+02
8.538751565834882058e+02
5.983793199496194575e+02
-1.372834116719025701e+02
-5.721876105912973571e+02
-1.080255932913892593e+03
-1.114482196424350150e+03
-5.509127209106727605e+02
-1.985089024112031098e+02
2.867599409042549610e+02
7.468484744521249468e+02
6.387635412205063403e+02
3.175057966722505398e+02
-3.919041060293839678e+02
-9.451887473246578963e+00
9.078813695496514811e+02
1.080060617412638976e+03
6.321106274549259751e+02
7.301397387698762032e+02
1.156106364744796565e+03
1.584012770409126915e+03
1.045840946119793216e+03
6.806091288120884428e+02
3.983517466967072096e+02
3.530240321028169888e+02
6.896512257663406444e+02
1.007220094552248838e+03
1.077710959617061008e+03
1.661194220773178813e+03
1.764607043983120775e+03
1.565036324706302366e+03
7.925895627379555890e+02
-7.456665978650265743e+02
8.392204049205942056e+02
1.361299506525930610e+03
4.315891955516548251e+02
-1.317967017605183628e+03
2.104580651048912614e+02
1.440021513162436690e+02
-7.262885808496592972e+02
-2.665465501354372009e+03
-1.846434973564656730e+03
-1.635253634503276089e+03
-1.703978670991449690e+03
-9.076408714009394316e+02
-2.732555628496861573e+02
2.782259508146842109e+02
3.938544712231489484e+02
5.436757287858242762e+02
5.586594622200907452e+02
1.465822070396665595e+03
1.733146503295811044e+03
7.016839100205770592e+02
9.245871315346161623e+01
1.864412307796062862e+02
2.706731853521698099e+02
2.781782104105315057e+02
4.589698586192899938e+02
5.530661049555482123e+02
8.504255937590279473e+02
9.609815760882812583e+02
2.507519827751809487e+02
-3.762044188526094217e+02
-3.198349301668481530e+02
-3.031371447199335876e+02
-6.752014662068629605e+02
-1.110083113948418031e+03
-1.242678092149566965e+03
-8.349934648134405961e+02
-8.630514093034096277e+02
-7.958422472876709435e+02
-4.463714688441955332e+02
-1.526170577876166021e+02
2.703673470028516590e+02
9.295478469075884504e+02
1.047910637617183738e+03
7.474454966257412707e+02
3.772083519686284490e+02
7.243680457661490664e+02
9.179120694792912900e+02
1.386784538575155239e+03
1.537989101545144194e+03
1.000481664905996809e+03
1.039289081238315930e+03
9.733416770191886371e+02
5.365678970222994622e+02
3.508629826475271329e+02
2.971617839758764035e+02
5.346474464690631123e+01
-3.811485604299177226e+02
-2.756516281289333961e+02
-2.199967081995911755e+01
-1.114423853255867769e+01
2.558638138135874556e+02
3.794867064696406800e+01
3.560580309387970033e+02
6.962349820556312352e+02
7.924789023340980521e+02
3.207813603458801026e+02
1.102181047740770765e+02
1.569718962173622501e+01
-2.369183579664475872e+02
1.473837873917936747e+02
1.239604221263956561e+03
1.256625447347850695e+03
1.188227859720093420e+03
1.177597141540198209e+03
1.148046732421749539e+03
6.464481680725371007e+02
1.032801589227259228e+03
1.572918913596512994e+03
1.494557008601369262e+03
8.279550012250098234e+02
3.532107627158373475e+02
6.513918706780954437e+01
-5.246411454282174702e+01
-2.024633876669375070e+02
-1.820604893498818910e+02
8.871534639368832131e+01
2.920912718117912164e+02
2.986312019540873166e+02
3.142720698354474962e+02
6.558143513221527883e+02
1.042247686274742591e+03
5.837437179562552956e+02
7.195675883092208096e+02
1.013614240254894867e+03
8.726604500675869076e+02
3.528091134430731017e+02
5.078718172145577796e+02
7.059106770881461443e+02
7.237835349128191638e+02
1.072231929025374711e+03
1.461395753759811669e+03
1.533036323325293779e+03
1.223314134018847653e+03
1.634336181206661649e+03
2.214842284096774620e+03
1.989521721848085917e+03
1.970645136766740961e+03
2.550079651046508388e+03
2.541715796618457716e+03
1.966375616368782630e+03
1.932033834007724181e+03
2.060692377174056219e+03
2.143398117891701077e+03
2.440094238539141315e+03
2.855633167282159775e+03
2.616016138959391810e+03
2.590249558831225841e+03
2.781270861703540504e+03
2.424061068363693721e+03
1.860736672146586670e+03
1.695450586164956803e+03
1.323084090158654590e+03
9.604834605446582145e+02
9.606973975989662407e+00
-2.512468116286378518e+03
-3.872725665862293226e+03
-3.949056352825551130e+03
-3.998443342219529313e+03
-4.442019313529821375e+03
-4.343804542898496948e+03
-3.818671685645328125e+03
-3.489620390217014574e+03
-3.444658311862692244e+03
-3.464896139562793451e+03
-3.631285401847914727e+03
-3.840712973816644080e+03
-4.110984809169958680e+03
-2.903086426716753067e+03
-7.540190271520576744e+02
1.373070608357153333e+03
2.021431524070060050e+03
8.311596332606276292e+02
-2.070881474973343757e+03
-2.025731115352096367e+03
-1.719309384680202356e+03
-1.376469306295149863e+03
-1.524113047795902276e+03
-1.366176666619535126e+03
-1.900726306701381873e+03
-2.652792619151272902e+03
-3.349247584649291184e+03
-3.571995310203978988e+03
-3.234045939288534555e+03
-3.784274719411177557e+03
-3.735512520931970357e+03
-2.022666292518389582e+03
4.052820425337549182e+02
-2.276587572455147495e+02
7.376644524435807853e+02
1.570374673842960647e+03
1.882547577936243670e+03
1.355255553953325489e+03
1.018591413428892565e+03
6.096161471560365044e+02
6.104671429956019892e+02
2.389347144037891212e+03
2.009431527005541966e+03
1.654837028096314725e+03
1.632762482697797168e+03
1.548296242220811564e+03
1.440409046299415195e+03
1.039260386191923317e+03
3.299341683895061692e+02
3.924241715719373360e+02
7.367863930716733876e+02
1.077189068146696400e+03
1.492740434349853558e+03
1.076668613942490538e+03
8.571088457827706861e+02
8.192155038384615864e+02
4.961540698029354530e+02
3.691013505029680459e+02
1.121165409710882699e+02
1.142290978275813416e+02
-1.554551653319391278e+02
-4.458134313904117789e+02
-6.975534026091831663e+01
1.568355276587303990e+02
-2.358254906855521256e+02
-6.175895541633979064e+02
-1.132341476721700019e+03
-1.741936950331633625e+03
-1.859428838341795881e+03
-1.556653047046614347e+03
-1.748865291601959598e+03
-1.926909573821692447e+03
-1.816193215538022514e+03
-1.174304384917318430e+03
-1.034338343841526239e+03
-1.527180203975383847e+03
-2.293609716578185726e+03
-2.907501232340743627e+03
-2.809613931437016163e+03
-2.146850235092624644e+03
-1.635376710571485091e+03
-1.362218739581778664e+03
-1.404455361579370219e+03
-1.602218668990097740e+03
-1.472195353846783973e+03
-1.229135656034906333e+03
-1.305280809696535698e+03
-1.923732308216090587e+03
-1.719541597842332976e+03
-1.363592356077095701e+03
-1.334670236746952469e+03
-8.994569124812126120e+02
-6.699388930643881395e+02
-7.139946306436409031e+02
-6.133506765852490616e+02
-4.738441276149488317e+02
-5.964219684240534889e+02
-1.085326483515987775e+03
-1.208084812892227092e+03
-1.199955880135172720e+03
-1.361904670414152633e+03
-8.700094392316590302e+02
-9.003775050465051208e+02
-6.890573482210497787e+02
-5.831759491134267819e+02
-6.128676971010935404e+02
-7.193122837314557501e+02
-4.256237903436370971e+02
4.014381391612698735e+01
-2.920409675496648561e+01
1.132430038791290343e+02
2.283229390740417273e+02
3.949654131793508895e+02
6.031888285119173361e+02
7.018022812045626324e+02
3.396041350214231329e+02
2.946018528246671622e+02
5.507505016525527708e+02
2.918654203060295345e+02
1.808644340839554445e+02
3.806590575104822847e+02
3.431843826100081856e+02
9.772911121131271557e+02
1.156903546019241276e+03
1.905944805706296393e+03
2.512267605727442515e+03
2.390761842412024635e+03
2.438320353696644361e+03
2.151808618024944735e+03
2.043170826079441440e+03
2.023287772865935722e+03
7.510981192311215864e+02
-1.313408908936912667e+03
-2.019573482370594093e+03
-2.143455370724512704e+03
-1.719074948911778847e+03
1.915417770954591958e+02
2.063062246842971490e+03
3.084392680801988718e+03
3.308469989352468474e+03
4.009469269770794654e+03
3.989934744208462234e+03
3.628746283183552350e+03
3.490822024695180517e+03
3.246937847148861238e+03
3.015947478477163259e+03
2.992741519509738282e+03
3.238214683394262011e+03
2.900238963383761529e+03
3.179705451038073079e+03
3.175420847934946323e+03
2.799298267421990658e+03
2.682369889635510845e+03
3.033521913883502748e+03
3.342582463050017850e+03
3.247479156398671876e+03
2.617088841096971464e+03
2.389282777008475932e+03
2.375935821587944247e+03
2.358901244855315781e+03
2.385030142772060572e+03
2.228203893310039803e+03
2.574324758293177183e+03
2.713188074690943267e+03
2.538619183989166686e+03
1.649558532471715807e+03
1.591921103447530641e+03
1.571490054231998329e+03
1.579082404220635681e+03
1.456622324680078464e+03
1.249937151599060599e+03
1.198818084295003473e+03
1.021192128626228282e+03
7.789062769226792398e+02
7.207846877193812816e+02
5.367817336358818920e+02
-7.112503031193325853e+01
4.087162234745346012e+01
-1.624161013389481525e+02
-7.141053386818207400e+02
-9.573754306157378551e+02
-1.255309267419052958e+03
-1.301958709599624399e+03
-1.425478386319082574e+03
-1.397964155729333015e+03
-1.506493596771009379e+03
-1.968168380807648418e+03
-3.060065494713064709e+03
-3.396215323031702155e+03
-3.756696961629653742e+03
-4.456648505469317570e+03
-4.436164667127319262e+03
-4.964278640983058722e+03
-4.979040725532635406e+03
-5.168439713335214947e+03
-5.593541190645322786e+03
-5.897434682851629987e+03
-5.811195984069777296e+03
-4.822815802790363705e+03
-3.779364268168556009e+03
-3.658882364839842921e+03
-3.634396806333412769e+03
-3.356000979993952114e+03
-3.504737893794237607e+03
-6.575587586069631470e+03
-8.346573686287491000e+03
-7.195643164849668210e+03
-6.669749836394042177e+03
-4.550852672413273467e+03
-4.475035463976533720e+03
-6.529303034872114949e+03
-6.001628176254768732e+03
-3.984923607188822643e+03
-3.815105977904441261e+03
-5.535185779177864788e+03
-4.507175052552758643e+03
-5.847961111785250978e+03
-7.739572099689863535e+03
-4.815047431871963454e+03
-6.005288055628453549e+03
-5.445174945066291002e+03
-5.065656731528893943e+03
-6.071728851229101565e+03
-7.061315927612055930e+03
-6.034318893880429641e+03
-5.021728820778937006e+03
-5.315430292711461334e+03
-3.614339695756595120e+03
-3.821326386193056351e+03
-2.029384319777197106e+03
-1.073480502476653783e+03
-2.964565876813374871e+03
-1.559594535524965067e+03
-3.063399774247609002e+03
-2.244812063889285582e+03
8.642645701297249161e+02
9.407758110316983675e+02
-6.541205505241740639e+02
7.388226973867351717e+02
2.412590811992193721e+03
4.465177598405762183e+03
4.945708124029587452e+03
4.993327559563242175e+03
5.304151286002741472e+03
6.407273689155116699e+03
7.232817559795492343e+03
6.874887232052803483e+03
6.185549056175123951e+03
5.249955017144689009e+03
4.083212423935815423e+03
3.122362613772726945e+03
3.219583755612110053e+03
5.329087336048175530e+03
6.168922523724691018e+03
5.989322302023160773e+03
5.280370395865749742e+03
4.783147280034132564e+03
4.148885828044995833e+03
4.218868946182701620e+03
5.157206905274158089e+03
4.799965029003029485e+03
3.624235176622494691e+03
3.073147932972487069e+03
3.486763748875293004e+03
4.130187466055207551e+03
3.904598000273535035e+03
2.939170993460424143e+03
2.003875159696872970e+03
3.236858844713287908e+03
4.285280526744351846e+03
4.858157698686062758e+03
3.224579314307743516e+03
3.946430821587632181e+03
6.465886915321023480e+03
7.468438286072259871e+03
6.950519317595587381e+03
6.694901835061251404e+03
6.939387966489864084e+03
7.748063587058897610e+03
9.278246489958535676e+03
9.646021115054876645e+03
8.652525954036662370e+03
8.300904277196350449e+03
8.228306685946176003e+03
7.271779966118347147e+03
6.836338655150320847e+03
7.011177122489540125e+03
6.958347957028553537e+03
6.572907983174444780e+03
5.985606548147568901e+03
5.753689746890536298e+03
5.429460865119310256e+03
4.807831714215747525e+03
4.312823677609897459e+03
3.875596867700874554e+03
2.601239029003760606e+03
1.569760131662334061e+03
1.205253096757620597e+03
1.076830070485184251e+03
6.885627755986593002e+02
1.202465131747716214e+03
1.990543350570374741e+03
1.476886770968952987e+03
1.593596601465588719e+03
2.170774400827227964e+03
1.704461310026248157e+03
6.956615667624497519e+02
-2.285623400138421459e+02
-1.747143642747756758e+03
-2.250023403388036058e+03
-2.162087001723400135e+03
-2.110296455404716653e+03
-1.979673826686049551e+03
-1.247115208504569864e+03
-8.645751836104664108e+02
-9.219730947718453535e+02
-1.365222551711482765e+03
-2.057215824677073215e+03
-2.603015901365437458e+03
-3.028640514029230872e+03
-2.640009928739822499e+03
-2.424092718210406929e+03
-2.843860699221043888e+03
-4.165255739385990637e+03
-6.222258693777840563e+03
-8.196865986267865082e+03
-1.187007363674692533e+04
-1.602082061756854637e+04
-1.870405275243206052e+04
-2.041079133817309412e+04
-2.245309029532327258e+04
-2.294281984101874696e+04
-2.203786860574679667e+04
-2.191924665990989160e+04
-1.920701856979219156e+04
-1.506020640621572784e+04
-1.339983710017835620e+04
-1.299383591231394530e+04
-1.348913672960297117e+04
-1.484774578829469101e+04
-1.514869433852458496e+04
-1.248796798793701055e+04
-1.165654628549912195e+04
-1.434343376688253920e+04
-1.886763295454252147e+04
-2.359120923091023360e+04
-2.760517748894267061e+04
-2.871952702148052049e+04
-2.957226664885230639e+04
-2.912735788058817707e+04
-2.568180457926958479e+04
-1.881463995248412539e+04
-8.617847936989359368e+03
5.836174566129282084e+02
3.977811545937744086e+03
5.495677503732903460e+03
8.417246501510448070e+03
1.137054291185044349e+04
1.394048803371635222e+04
1.650412332971249998e+04
1.886239019860300687e+04
2.053631240768988209e+04
2.141984177791539332e+04
2.262397859387729841e+04
2.433371368677927603e+04
2.507296946833653783e+04
2.600278132938165072e+04
2.544815647009808163e+04
2.466309835191714956e+04
2.465255994495582127e+04
2.442053448299943921e+04
2.339504486474107034e+04
2.296609208286196008e+04
2.251967055185895515e+04
2.135877146526951765e+04
2.070649712372899012e+04
2.033678965260398036e+04
1.946160414094692896e+04
1.790694674617530109e+04
1.652571782342424558e+04
1.561196347260858056e+04
1.455757045075632050e+04
1.349151834040880749e+04
1.217583341840305366e+04
1.106840027655955237e+04
1.028125861847827400e+04
9.080420557293346064e+03
7.775793641652602673e+03
6.684459626818143988e+03
5.856535719122028240e+03
5.030124870902335715e+03
3.971148139715523030e+03
2.928485292493700399e+03
2.483107728350711113e+03
1.004962803235828801e+03
-8.139186109855054383e+02
-1.245134915352463167e+02
-8.189501562179485745e+02
-1.888322352461660330e+03
-2.635629152009439167e+03
-3.660922652920335167e+03
-4.977224411093288836e+03
-6.082568556366012672e+03
-7.347021671549296116e+03
-8.684565132302648635e+03
-1.005522127042133980e+04
-1.143406606553724305e+04
-1.299210159939599544e+04
-1.409031814683269295e+04
-1.490979508167153290e+04
-1.573860988734706370e+04
-1.583280784438751107e+04
-1.582134775435119991e+04
-1.546121359257414224e+04
-1.488849296152034185e+04
-1.401517611194114579e+04
-1.323829475718843241e+04
-1.303289895879079631e+04
-1.234399045751065933e+04
-1.181070694547321546e+04
-1.178706737645498652e+04
-1.121012404654409693e+04
-9.997885324175922506e+03
-9.467402524170931429e+03
-8.942645276068909880e+03
-7.971663257795788013e+03
-7.317584245506103798e+03
-7.367479882051899040e+03
-6.712388241549095255e+03
-6.132340198192655407e+03
-5.845392504442826066e+03
-4.991619956084364276e+03
-3.093051805781280109e+03
-2.053720213235240863e+03
-1.086748741351957733e+03
-1.220814852945438815e+02
3.903238906791698923e+02
1.007335808821909154e+03
1.595859630821478049e+03
2.022827097050427710e+03
2.351131004804894019e+03
2.394718437428952257e+03
2.359543853437053713e+03
2.457601462088503922e+03
2.988893732995859409e+03
3.255281316459719619e+03
3.146754602875290402e+03
2.788266461099870867e+03
2.489702776992711279e+03
2.533070507507371076e+03
2.987231339311701959e+03
3.970096246872599295e+03
4.727594006645649642e+03
4.998689991436014679e+03
5.342318862204673678e+03
5.457341780642028425e+03
5.539672050894266249e+03
5.410330749761022162e+03
4.945208430825507094e+03
5.009125849652574288e+03
4.518332855673125778e+03
3.555833922190905923e+03
3.208348357121892150e+03
3.416676600392905584e+03
3.619835453212858283e+03
3.541724953930404808e+03
3.519065413893960795e+03
3.021275875827088839e+03
2.584146190290641243e+03
2.951235365015994375e+03
2.978986090719822187e+03
2.524242515549457949e+03
3.020531404872016083e+03
2.875318578922916458e+03
1.827510055024425128e+03
1.254782024583483690e+03
1.352152945777640525e+03
1.479641577644853442e+03
1.320143970155532088e+03
1.517846359534290968e+03
1.336441846272148950e+03
8.986742616728837447e+02
1.269639416225504419e+03
1.455145918508380646e+03
1.997174338701178840e+03
2.382559886397777973e+03
2.306180754343624358e+03
1.546246692700763106e+03
4.148160760227636388e+02
2.646346970377950356e+02
9.428280226963033783e+02
1.401312534957745356e+03
6.376973381060821566e+02
8.872442067830916130e+02
2.532929019871154651e+03
3.174523176871909072e+03
3.184904284729009760e+03
2.923040783171431940e+03
2.424868841653122217e+03
2.426617432118208853e+03
2.419109086933315666e+03
2.576185252098413002e+03
2.980836610760281474e+03
3.069154250940106976e+03
3.022123461716564179e+03
3.055741358328345541e+03
2.271010666375487745e+03
1.495910638893926262e+03
1.492387592659196571e+03
8.072385041381819519e+02
1.280503323245894308e+03
1.271277035314117256e+03
-1.953595021915141388e+02
-2.772377130066201062e+03
-2.969793247359092675e+03
-2.098680214929353497e+03
-1.738069716095141757e+03
-2.183896057460800876e+03
-2.001032129118181274e+03
-2.016549797506419964e+03
-2.312553090021409844e+03
-2.047065179658194438e+03
-8.869787838736596086e+02
-1.736181673712993415e+03
-2.446612213969870027e+03
-2.854502359910024552e+03
-2.957837770241827002e+03
-1.849520251808701005e+03
-3.144401592317395171e+03
-5.205741334261817428e+03
-4.505717410874515735e+03
-1.399241827908602090e+03
6.418797932475314383e+02
-8.282860437215904312e+02
-2.879718648586062500e+03
-2.924455156559169609e+03
-2.902596170690091640e+03
-3.180009811943322347e+03
-3.343478197039118641e+03
-2.930994826313124122e+03
-2.711576395075712298e+03
-2.936204734406065654e+03
-2.770893397925252430e+03
-2.499577663122644026e+03
-4.262497372937290834e+02
-1.266876145263430317e+03
-3.250417568918392590e+03
-7.158772663833054821e+02
1.727883417727459801e+02
1.864859718140064970e+01
8.746711977988649522e+00
2.311190494141006013e+02
-6.520897103738785745e+02
-1.117792487660164625e+03
1.179997987957458008e+03
1.919268091727842375e+03
1.993152851493580329e+03
1.521652142825181045e+03
1.179734173325969323e+03
1.238524968277228709e+03
1.492960183743897232e+03
1.028010310820942323e+03
4.197136667069086684e+02
1.051828253263733615e+02
-2.952882807965523781e+01
7.768490466956373552e+01
1.888248497971795530e+02
2.849757745637812150e+02
-4.619193295536334745e+02
-9.749040270049010815e+02
-1.487014708367041976e+03
-1.819220396164964086e+03
-1.339446042340291342e+03
-6.856932880839119093e+01
-1.757548886188167714e+01
2.956954621105675685e+01
6.768945325381065459e+02
7.574138441201379237e+02
7.092924186592989599e+02
7.776578720759720227e+02
4.546409805412839660e+02
1.505139844227608990e+02
-4.795480231385603531e+01
-3.118310317979734805e+02
-2.298929114288739868e+02
-4.329340584199179034e+02
-1.071901206041725118e+03
-7.318148339600720647e+02
3.082161460291309822e+02
7.651143530577279535e+02
1.519772017697379169e+02
-4.344944419521733039e+02
-1.022407133348975776e+03
-8.594578029656104263e+02
8.222063787265575741e+00
5.686788404614349020e+02
4.891673746961488405e+02
8.497183165816280734e+02
1.709101301566821803e+03
2.337276277577253950e+03
2.323541621053714152e+03
2.171983120331205100e+03
1.973636077781862241e+03
1.521502736167806006e+03
1.311517921188714126e+03
1.449687401079461097e+03
1.270871359871507138e+03
7.128018531165367904e+02
3.001180791648275772e+02
1.443528182839187366e+02
2.554228892015167389e+02
-9.034273891362316533e+01
8.612815708747741894e+01
5.006666059928986670e+02
7.332050212800226063e+02
1.182816495338095820e+03
1.280418228731961790e+03
1.769024620684418323e+03
1.639730530567182768e+03
1.465663917943057413e+03
1.698792498638218603e+03
1.278972639691450922e+03
8.132443280536764405e+02
6.845816459953761068e+02
6.981307224261029205e+02
2.489286257059281127e+02
-2.020090296711811959e+02
-3.976138304934774510e+02
-1.071763658114525470e+03
-1.588452484406338044e+03
-1.867628659228957758e+03
-1.157183825786759598e+03
-8.080908205501045813e+02
-4.684114701770253646e+02
5.945426297749530242e+00
2.121167257107090336e+02
9.712272103956273668e+02
1.297342608824694025e+03
1.684394919808661598e+03
2.042405462103681202e+03
1.219434106561578119e+03
5.524722117486942352e+02
2.505225503799752289e+02
-1.182303736954239184e+03
-3.231963465188548071e+03
-5.339420296463433260e+03
-5.157647687125402626e+03
-5.266622602809236923e+03
-6.222235380524463835e+03
-5.530480343417126278e+03
-4.580413863157975356e+03
-3.119939309606853840e+03
-1.284948430512841014e+03
2.364069207507456269e+02
4.621956457238575240e+02
6.894629620178025107e+02
7.802586462878317661e+02
7.976127226603514373e+02
6.685780320574118605e+02
1.371926130496895553e+02
4.955005065679064842e+02
3.894929725158881979e+02
2.841427427405678259e+02
2.974247058566177770e+02
4.513829928834259704e+02
1.930051353776125893e+02
-2.126979393223132320e+02
-8.497204632237051101e+02
-9.860917856819108920e+02
-1.124763581166055928e+03
-1.726794263313009424e+03
-1.601357402710049882e+03
-1.346551991746733620e+03
-1.119351114508861656e+03
-4.777194367304851426e+02
-4.537108853374579667e+02
-2.363203162646751423e+02
-4.495027393399114999e+02
-1.179314536344508042e+03
-1.406881869571060179e+03
-5.371983319307508964e+02
5.966927936240471126e+02
7.407486340508719422e+02
4.609362605207063552e+02
4.253367715056633074e+02
5.069199322072313976e+02
4.136819505421254348e+02
1.425592429851271845e+02
-2.355391839670390297e+01
-5.118171427311754087e+02
-1.401132814351961997e+03
-1.278516374064407501e+03
-1.620068298687185404e+02
4.464209879061985475e+02
5.777545225669049387e+02
8.740121285226565533e+02
4.682354331449053575e+02
2.324270641704102331e+02
5.607590121963152541e+00
6.277661585585687476e+01
1.558378246972592365e+02
-1.752667078104931591e+02
8.542911107133390658e+01
1.549428483000340862e+02
2.733022654714772557e+02
8.225570529342927557e+02
1.010736318106280123e+03
7.237584640315956221e+02
-4.944950179861292838e+01
-5.198227456418242127e+02
-6.613419552969828601e+02
-6.770514557984133717e+02
-5.919590353129805180e+02
-4.313554875102932584e+01
-2.565665089802476828e+01
-1.311379138052056987e+03
1.244791955319619774e+03
1.806945241474193836e+03
1.801969212142264212e+02
-5.875727052660707841e+02
-7.804575535940867894e+02
7.375523163391862909e+02
-2.449526484755111142e+03
-2.177675998726219404e+03
-1.216766690731986500e+03
-3.424791547707647624e+03
-5.959108883279350266e+02
-6.831306481276759541e+02
-3.806444025368864914e+03
-2.838947734481273528e+03
-3.181580725354176138e+03
-1.805195826699887903e+03
-3.315822622367192707e+03
-2.205527843487318478e+03
-1.489243713909870394e+03
1.382045510015022273e+03
1.172225527425266364e+03
3.013773842239519922e+02
1.725552786399651950e+03
1.786929780854326566e+02
1.188812200886962273e+03
-1.130070539684494406e+03
-2.675008181663121377e+03
-1.424968110551593099e+03
-1.669871269779500608e+03
-1.361753902670202933e+03
-1.817688415052588425e+03
-4.436711109865501612e+02
-5.917045454049592763e+02
6.642430006739637065e+02
3.481084870132650053e+02
5.048017590109203638e+02
2.013681010634572885e+02
8.199297079403778525e+02
-3.034479986967230616e+02
1.615243738745905148e+03
2.239943391474057535e+03
2.205659611772906828e+03
2.337345745375261686e+03
2.877946142752344258e+03
3.115473477052395992e+03
3.125926228064613952e+03
2.851232901278444842e+03
2.339466847469811000e+03
2.184683814998846628e+03
1.821848043290818850e+03
1.080017638077685888e+03
5.620902810484792553e+02
4.290592288764665341e+02
8.190312289977260889e+02
7.951632638718086810e+02
4.542070058068791241e+02
7.069962617029090097e+02
5.935876102697236547e+02
1.122232689047172016e+03
1.162950253322048638e+03
7.087979087854055251e+02
1.167729566112559496e+02
-1.131782114707159934e+02
8.680688202653593066e+01
8.678867586098955371e+02
8.461233641280051643e+02
9.944940051201557480e+02
2.147922632921663535e+03
2.938250177246861313e+03
2.486640406051156333e+03
1.589320831357942325e+03
2.331214294599735695e+02
-6.484988607754070244e+02
-9.645554202429317456e+02
-8.466898083076001740e+02
-7.999479250209139991e+02
-1.431337689027586975e+03
-1.767866418878075365e+03
-1.076485235595273934e+03
1.980547271367772311e+01
1.022935171809638632e+03
9.869280343257447612e+02
6.848992351343543987e+02
1.463754966680023244e+03
1.896472544819004042e+03
2.046873540375379434e+03
1.981130537140788874e+03
1.663393624096310532e+03
1.227472152915757533e+03
7.162811676603746491e+02
1.767264739020219508e+02
-5.582950337746017340e+02
-1.097803383420539149e+03
-1.079657131684282831e+03
-1.180906064809867530e+03
-1.809823202821954965e+03
-1.501321996836340531e+03
-5.322947634031347661e+02
2.883283285642139049e+02
1.284496169933894635e+03
1.821167649808326360e+03
2.249303632027202639e+03
1.718993178201294995e+03
1.375348486929557566e+03
1.056271721517508013e+03
6.996597145136673817e+02
6.624072672716226862e+02
2.050484123303612705e+03
2.570922822208152411e+03
2.304807486064820296e+03
1.825158752467998738e+03
1.000986597011590675e+03
1.503348085969883812e+02
-9.989605331308750635e+01
-1.095780698214248332e+03
-2.336269495431885844e+03
-3.964354568809633747e+03
-5.373057616572042207e+03
-5.308367256927700510e+03
-4.525238413799996124e+03
-3.280631180817948007e+03
6.374574744339930703e+02
1.467040524456755975e+03
-1.537842426909219057e+03
-4.191141338768964488e+03
-4.197948457709223476e+03
-3.181305172632124595e+03
-3.302144202638471597e+03
-3.829540934202067092e+03
-4.139358922280755905e+03
-3.989552228564014058e+03
-4.942164109787217058e+03
-5.216248762254847861e+03
-3.231724381489334974e+03
-3.888460463895994508e+03
-5.275578118968755916e+03
-4.746059971799300001e+03
-2.773853171693628155e+03
4.300513935612109861e+01
1.446471873666724832e+03
3.276555284916049459e+03
3.672314941785823066e+03
3.071768596781309043e+03
1.847968685683289323e+03
1.916965613161083866e+03
2.186771218605040758e+03
2.007330667780059002e+03
1.960705751676020782e+03
2.151009845517587109e+03
1.942283311326419380e+03
2.196485030043714687e+03
2.509646930888411134e+03
2.416829802584103163e+03
1.904058243612930482e+03
9.513022231018693446e+02
9.415564841109568306e+02
1.958490942594823991e+02
-3.637631731271727062e+02
-2.053021512314960830e+02
1.015322735938299502e+03
2.449133739147406231e+03
2.843176944606017059e+03
2.815503741232495031e+03
2.465117683417129683e+03
2.102043115902900809e+03
1.283293281792030257e+03
7.879515531913829136e+02
4.270473203335029098e+02
2.206038178923232351e+02
6.970217875388006235e+01
5.035212576389290717e+01
1.325731401014491553e+02
5.312999242094491592e+02
-1.074323702380898311e+02
-7.716692551134051428e+02
-1.168392143431081877e+03
-4.755443735857189722e+02
1.221804053658663179e+03
1.621718121672008010e+03
1.797248967185694255e+03
1.954407783646151984e+03
1.611332250938336756e+03
1.008062560400534267e+03
8.225748381067211312e+02
4.690134319026177536e+02
1.933941496181398634e+02
2.072693704644447621e+01
-3.161034677796098435e+02
1.281585154375733282e+02
3.256691276618028610e+02
6.443981855371224299e+01
-4.576895376365221750e+02
-5.407791475042856746e+02
-2.709324387622166910e+02
-5.702149587811985612e+02
-1.054532826770929660e+03
-9.009461177570558448e+02
-8.734426386137392910e+02
-7.529962476053159435e+02
-1.405293281992505570e+02
8.109707493598713199e+02
1.515391632451939586e+03
1.680815237439069506e+03
1.221302926190882772e+03
7.668003173508046757e+02
2.782803841450563596e+02
1.276210025845717766e+01
-3.137048374187921809e+02
-2.581014772567463638e+02
8.635285316148526817e+02
2.160165783349532830e+03
1.920851790716943242e+03
9.635969485084893904e+02
5.023758935316777183e+02
1.591256000399819754e+02
-1.522394148891414147e+02
-2.356910474635004675e+02
5.876696628062364880e+01
5.791523942475315607e+02
6.365054072579929425e+02
5.238058092645140960e+02
1.209592599185985193e+02
-7.411624953447869757e+01
-7.203101331284530033e+02
-8.766225793640521715e+02
-4.241236341997649220e+02
4.091413619586576260e+02
5.441991834933396603e+02
1.710296784915801425e+02
-8.823872862618216004e+02
-1.201061285930781878e+03
-1.489936917505503061e+03
