-1.384944651483694088e+03
2.217218438523550503e+03
1.955793732057278248e+03
1.164890857190974202e+03
1.836522531492012604e+03
-6.452899791344138976e+02
8.524638796118858863e+02
1.371814427962397303e+03
1.205770773290322495e+03
2.609376640840031996e+03
4.223618131266527598e+03
4.114487385921182067e+03
2.418005537511694456e+03
1.915160520442151210e+03
1.374988830333952365e+03
1.394817540135200886e+02
-2.125392755164475602e+03
-3.215628063915206894e+03
-2.493217062624392838e+03
-4.161179217153840909e+03
-5.328659029678540719e+03
-2.165698972364236397e+03
4.369712860920668390e+03
7.259845411206239987e+03
6.606900503376132292e+03
5.627977068929684719e+03
4.279800153387860519e+03
3.986187860942734915e+03
4.749564741785095976e+03
3.809914600715259894e+03
2.361428980915353293e+02
-2.241812943318410362e+03
-1.352994417385079487e+03
1.851632187598560449e+03
4.542096760334868122e+03
6.408352201786437945e+03
5.697400141674880615e+03
2.206174308755491893e+03
8.381819506350524307e+01
2.299995002278556342e+02
-1.681431407384067825e+03
-4.690426061819060124e+03
-5.361227826954609554e+03
-2.821652745048710131e+03
1.730464545843507040e+03
5.525190817313845400e+03
7.080562299753077241e+03
6.472457820162646385e+03
5.483870073970259909e+03
3.163763710318828089e+03
1.354124188370877391e+03
1.482936938969312905e+03
3.388104855747194506e+03
4.713759092123676965e+03
5.383788764525405895e+03
5.149809586863625555e+03
3.216956070875604382e+03
1.396995020304124409e+03
6.122791267862553468e+02
7.114137735739897153e+02
9.572047998513235143e+02
8.626276831000121774e+02
6.657276228693732492e+02
9.834751995128485760e+02
1.466845589185075141e+03
1.111872093999028266e+03
1.089551678889664117e+03
1.677858824301659070e+03
2.254784340100669397e+03
2.235248914773851993e+03
2.370248009000463298e+03
2.426734807421326423e+03
1.847647027205540780e+03
9.169877551277262455e+02
-2.503029184933049578e+02
-7.032478083185852711e+02
-1.216836091827978180e+03
-1.775117519652472311e+03
-2.213163267671637641e+03
-1.906000687262826659e+03
-2.022662400626613135e+03
-1.808216423163730269e+03
-2.022651206025583178e+03
-3.028953293047811258e+03
-5.742137140799151894e+03
-7.431205690406897702e+03
-7.237129551815213745e+03
-6.026903381765538143e+03
-4.282545436563978001e+03
-4.197085987605776609e+03
-3.930479884598143599e+03
-3.232799700085030054e+03
-3.821068720839855359e+03
-4.647254908264968435e+03
-3.579398625041968899e+03
-1.026635110359032524e+03
-2.574645173063715902e+03
-4.826582015290310665e+03
-4.524524513530196600e+03
-2.875438828788295268e+03
-4.792397737444956874e+03
-6.598501756278632456e+03
-7.090691103495688367e+03
-6.951946978993695666e+03
-6.122243099097520826e+03
-5.006492863678898175e+03
-3.093707322497618406e+03
-1.684930237466012386e+03
-1.537081776559080708e+03
-1.500168346498365736e+03
1.651775903925680495e+03
2.746752607026230180e+03
3.777826734995996958e+03
3.551978991558547023e+03
2.786199768235089778e+03
2.951521602630861707e+03
2.831923053331987376e+03
1.814412651194247701e+03
1.171037695753459047e+03
1.008827344110039007e+03
7.657802115535284884e+02
5.268411686703472014e+02
2.840169708939459383e+02
-1.215257594065964639e+02
1.523535858036864283e+02
1.172679385536163181e+03
1.807416345753598762e+03
1.970610637085165763e+03
2.425443793359780102e+03
2.694994274741705340e+03
3.048220798649886547e+03
2.935011109552017388e+03
2.298304727531565277e+03
2.037278826449102098e+03
2.238009240344339105e+03
2.407506399682976280e+03
1.977719746844831207e+03
1.326589291336375027e+03
2.901790572536137915e+02
-3.224908408685257086e+02
-3.983768306394412662e+02
-2.084381030980901812e+02
-5.156683462893902288e+02
-2.629623635843748275e+02
6.948141037849605937e+02
1.365824884888287670e+03
1.676024674670619106e+03
1.304429450249895353e+03
4.372355569106257462e+02
9.154878568037047444e+02
2.289093670754916275e+03
1.772026216423714231e+03
8.264316105403723896e+02
-3.856093282382809662e+01
-9.508780850801371116e+02
-1.237392374984904109e+03
-7.915930526367468190e+01
5.417732476959424730e+02
-7.923820387940965020e+02
-1.985602297864876846e+03
-2.203868383009280933e+03
-1.354591055073399275e+03
-1.653746982622349833e+03
-1.758352914186002408e+03
-1.043352670184378894e+02
1.144409122084428873e+03
1.653817954351226945e+03
1.345835659883892504e+03
8.886290119261237805e+02
7.463188386996620238e+02
8.989500305436852159e+02
1.165486616617743039e+03
1.118970245189468869e+03
7.833886973934919524e+02
-7.225314133654499926e+01
3.414875865938947896e+01
-1.734089726127896824e+02
-1.386930637377764697e+03
-1.747467609418386928e+03
-1.728078003466814380e+03
-1.831749968405043546e+03
-2.084416380132317045e+03
-1.999083453259215503e+03
-1.216952712330934219e+02
4.038143737377442903e+02
8.250449342898136251e+01
3.904054915072316589e+02
4.735550631143234455e+02
6.340621020727138557e+02
1.169906404543983626e+03
8.380017256229393752e+02
3.042732765954549450e+02
-2.933448623821330443e+02
3.752304164084137028e+02
1.052981401040744686e+03
9.439216859675416345e+02
7.311062222248957596e+02
-1.747461871055077509e+01
-7.938275913662665744e+02
-1.397004798441464573e+03
-1.413057609187226717e+03
-9.700564693469882513e+02
-5.420422941229745675e+02
-1.589881979233504978e+02
1.942509939970827304e+02
1.876769009052051160e+02
2.517285513108588191e+01
-4.592356237592769048e+02
2.084968954692592433e+02
8.442022466728337804e+02
1.284857218442014300e+03
1.496501601627228638e+03
8.501002867465222153e+02
1.248644384327348234e+03
1.239202159119148973e+03
1.201591775889915198e+03
7.327292309412739542e+02
-2.623629425944491800e+02
-1.074689585976437229e+03
-1.395232625758497988e+03
-1.461061653716885530e+03
-1.546326131454651204e+03
-1.465173344058136990e+03
-8.508392848118750180e+02
-4.259236443728008226e+02
3.335943342978715691e+02
9.599289694356008340e+02
1.231889158093282731e+03
1.282142020298200123e+03
1.242940373299517660e+03
1.391356240942740442e+03
1.731366395204996934e+03
1.569595203624225860e+03
1.509915891131266562e+03
1.205996682338481151e+03
1.196366843372529047e+03
1.047947420502857995e+03
5.105653542534899998e+02
-1.359472925593288437e+02
-4.365290466943396837e+02
-6.751027235014529424e+02
-4.520604974666595695e+02
-6.600982949736863930e+02
-4.092177985412645853e+02
4.132262673591187081e+02
9.562029383343553945e+02
1.686684393639512109e+03
1.951207759064123366e+03
1.649208261768990496e+03
1.651540664498565093e+03
1.826359170552157138e+03
2.045481720609934428e+03
2.192089999112909936e+03
2.173112501084999167e+03
1.962324890279144029e+03
1.456502478194274772e+03
1.011071642592599574e+03
1.728545693690732321e+02
-6.458479875586532444e+02
-4.616083162716431048e+02
-6.821682996872734748e+02
-7.559137315070254317e+02
-8.305826115863437735e+02
-7.364927484526500621e+02
-4.066508950424869226e+02
3.882076230750245145e+02
9.848100829841503128e+02
1.081013013791585308e+03
1.483939509925116681e+03
1.708702028543704273e+03
1.499195413606415059e+03
1.601403961479014924e+03
1.925340138379543305e+03
1.891110062053804995e+03
1.818640120629311014e+03
1.689786925282505081e+03
-4.130933102588637240e+01
-2.559639499735262234e+03
-5.626578470091517374e+03
-6.350498980301763368e+03
-4.125206560097603870e+03
2.749433662150923041e+01
-2.003552704659505537e+02
-4.387656966478050890e+03
-5.058453600059156088e+03
-3.983842150196639977e+03
-3.313669372205825766e+03
-2.723586967726219427e+03
-3.118599412900157859e+03
-3.524988929617452868e+03
-3.258987153164014671e+03
-3.517604732443690864e+03
-2.986856132642475131e+03
-2.433561011094543119e+03
-1.140895278300286009e+01
-6.354375376570650360e+02
-2.973798596984003780e+03
-4.151316474181715421e+03
-4.228800176309498966e+03
-3.853380842588524047e+03
-3.651321085079477143e+03
-4.854839932608581876e+03
-5.430964014758702433e+03
-5.441512199940573737e+03
-4.935274054326820078e+03
-4.124130567306629018e+03
-3.301883564233721700e+03
-2.443516489787713454e+03
-2.133125231484475989e+03
3.351854927171543750e+02
1.893466011525470776e+03
-6.062808783143073015e+02
-1.115962114364231411e+03
-9.153818777703107799e+02
2.619494135900820766e+03
4.281666278570371105e+03
4.114125501308424646e+03
2.937887617759756267e+03
2.373036244855560199e+03
1.872589998704536129e+03
1.161548408043056043e+03
1.110951026857880379e+03
1.427894187336756886e+03
2.112395216513691139e+03
2.973438279172353759e+03
3.218070669372231350e+03
3.575406769585347774e+03
4.036502161266564599e+03
4.039402474366539082e+03
4.034217916834665175e+03
3.747010287831002643e+03
3.356845416608900450e+03
3.431679997645096591e+03
3.469561335255359154e+03
3.167564451084148459e+03
2.968738148682420615e+03
2.526076527519722731e+03
1.776652444828957641e+03
1.200375431746888125e+03
8.702858130490857320e+02
4.594301818839351199e+02
1.071956115285402120e+02
2.497035584918742472e+02
6.958528879793607302e+02
1.157617525925353220e+03
1.487996289464886104e+03
2.280105885866048084e+03
2.926991912109382611e+03
2.804620368643998518e+03
2.525139574877806808e+03
2.057660986241219234e+03
-4.830470743101923858e+02
6.738159523804138189e+02
1.435690307719611383e+03
1.293880029578276890e+03
8.919734311007074439e+02
4.496402669212713477e+02
-1.285959528369670295e+02
-2.406122405035533802e+02
-6.414789729179000233e+02
-9.072645257476621055e+02
-4.920405145721001077e+02
-1.188251109777468031e+02
-2.736827536418055047e+02
9.641987992780401839e+01
9.927770218303330694e+02
1.308263596960709719e+03
1.502569628161393666e+03
1.792868904487633472e+03
1.857042357502507457e+03
1.775151607219070456e+03
1.633263712067916686e+03
1.425279284864055853e+03
1.045200451636715115e+03
5.771093859314978545e+02
2.389881086726245201e+02
6.482748874603002776e+01
-5.723824202337648330e+02
-1.730623425037938432e+03
-2.612878650977096640e+03
-2.823137168838917205e+03
-2.980511656496567866e+03
-3.188072720163397207e+03
-3.059777822575255414e+03
-1.842586805073887945e+03
-8.894977876794725944e+02
-1.944946568072664377e+02
1.474051573839870457e+02
4.262085525389927625e+02
6.919663311530182455e+02
6.886892093503895467e+02
8.962776219999572049e+02
8.066956302220197585e+02
6.870080739382715365e+02
7.281986707826015390e+02
2.662952045841838640e+02
6.283004990230814713e+00
-3.628935331376177942e+02
-8.523044313817398461e+02
-1.379893192166066910e+03
-1.422732272008374139e+03
-8.389231449731827297e+02
-5.304680874210299635e+02
-6.143784181928392627e+02
-4.156120508894230170e+02
-1.651184919951102188e+02
-1.687958966767366064e+03
-4.288261456505835667e+03
-5.832889926937540622e+03
-5.733790979700837852e+03
-5.327010768618182738e+03
-4.439537501289173633e+03
-4.284480636961732671e+03
-4.720988643536502423e+03
-3.761058284431536322e+03
-2.802538748845272949e+03
-5.624522721657079956e+02
-1.329016059050169929e+02
3.440906094959137818e+02
3.815458949365379340e+02
-3.906323022188456662e+02
-4.376012404908240683e+02
-1.937125408474351573e+01
3.090568674944049690e+02
6.177445662012499952e+02
9.307011904559993809e+02
1.714952296627611759e+03
2.119440814772146496e+03
2.077143319528388020e+03
2.102095738689277823e+03
2.343270450029583571e+03
2.328680034914389580e+03
1.846240740216721179e+03
1.694908698580735290e+03
1.811800963587705610e+03
1.533857007208031519e+03
1.195021817678776188e+03
9.332827503102323590e+02
5.646291773936047775e+02
-1.009839915008176519e+02
-7.117238655013119342e+02
-1.119532830227701652e+03
-7.993966454284263818e+02
-6.063545337226380525e+02
-4.639120927407740425e+01
4.045223009624644419e+02
6.503789214837637473e+02
1.093231880432008893e+03
1.520094055894736812e+03
1.754956935561557202e+03
1.341734570401973542e+03
1.389377614164813394e+03
1.825939659996513001e+03
1.543357816886311866e+03
1.307696675655567333e+03
1.306981083680542497e+03
1.023226672720535021e+03
5.893709267916689214e+02
2.143618515243323657e+02
-5.798147005207538314e+02
-7.731532850095939011e+02
-6.006757026753218724e+02
-5.273636958322614419e+02
-4.692073779385855801e+02
-1.241723045541015864e+02
4.076667119529926140e+02
1.086344396899191452e+03
1.883904386247490038e+03
2.157318748822490761e+03
2.066738553961440175e+03
2.005067373301966200e+03
1.621312570418103860e+03
1.536468544848664806e+03
1.519545937802476828e+03
1.406605970609146198e+03
1.317665692005665505e+03
1.416724380723181412e+03
1.072741434293102429e+03
1.466974999101160790e+02
-3.222399964983363589e+03
-5.207600835803681548e+03
-5.052909452107511243e+03
-2.841347656572241704e+03
-3.190889979019648308e+03
-3.577496651642188226e+03
-1.759142277080987242e+03
6.901937262189903777e+02
1.317568906849114910e+03
1.750988064474753855e+03
1.024685205874318825e+02
-4.169743584136749632e+02
1.411665436791587354e+03
-6.606629440255431973e+02
-2.198034459944577179e+01
-9.882263851420535730e+02
-9.603628435918050172e+02
2.415895022600773245e+02
-1.536333392724953683e+03
-2.689165145916623260e+03
-1.929875541261629223e+03
-3.126483551695278038e+03
-2.948076059340316533e+03
-2.938644164584139617e+03
-1.243181933905871119e+03
-1.117650888550459740e+03
-2.380941324283847280e+03
-4.720537334007902359e+02
-1.561014218449762893e+03
-1.187822754620008482e+03
-2.044592431165499988e+02
-6.418883809587695168e+02
-1.841129816891078917e+03
-1.601627089143731553e+02
1.872031234317207463e+03
-1.121518527608924387e+03
-2.138786943329592759e+03
5.512806810408074654e+01
-6.707521469595246799e+02
-1.200438455255389272e+03
-1.733927666607017727e+03
-2.947237849829300103e+03
-9.683704562378178480e+02
-6.640555664379233747e+01
2.965110667318192483e+01
5.368683017998911282e+02
1.058228982118099793e+03
1.510779967132591082e+03
1.945561213100389296e+03
1.891513620775298705e+03
1.929668588279221694e+03
1.981037371972750407e+03
2.193594896646273355e+03
1.867259162339592422e+03
1.926079734897280559e+03
1.928137915193109620e+03
1.910652756638092342e+03
2.076613642755300589e+03
1.469901595141868256e+03
6.533883780972448676e+02
2.359559304952483672e+02
-2.728760443276719982e+01
-5.912580452521438019e+02
-1.148030599985016806e+03
-5.546284941838015357e+02
3.818813054928405109e+02
9.506524567359588218e+02
1.422708093081621882e+03
2.016998553626062403e+03
2.112547307467307292e+03
1.871270988055080579e+03
2.051229610336313726e+03
2.192174560957119866e+03
2.178010960352099573e+03
1.848021697699658944e+03
1.953189341934354616e+03
2.003415090824771823e+03
1.871645436553952777e+03
1.525877256291650610e+03
6.961927509894068180e+02
9.553901352171233441e+01
-3.921760944766004968e+02
-4.389878034232606296e+02
-1.009638529547500241e+02
4.880008189289083020e+01
3.063197353938111860e+02
9.418100087709005948e+02
1.814765898491855978e+03
1.999118352745856555e+03
2.084366498176497771e+03
2.242389590673552902e+03
1.951122635395473708e+03
1.810343247284143445e+03
1.842241294053240381e+03
1.767593753340174089e+03
1.959426673555571369e+03
1.736665087947545089e+03
1.457296093843968720e+03
1.389339286798451440e+03
1.170726413700980402e+03
8.523970250836664491e+02
3.702506396256283665e+02
-2.579418264004346995e+01
-9.075751518920398553e+01
2.003348787827248429e+02
5.525096708160256185e+02
1.194876822828962986e+03
1.685443051466996167e+03
2.094175697006909104e+03
1.961074928642515715e+03
1.678088485384240585e+03
1.619179312898097805e+03
1.674373534189317297e+03
1.928619606258877639e+03
2.318905353838160863e+03
1.329285412571917732e+03
-4.142506340395418079e+02
-3.658734270562329129e+03
-5.254137988669867809e+03
-5.575458382974929918e+03
-6.079698913659978643e+03
-6.257927847851539809e+03
-5.958145075567917047e+03
-5.982328210947744992e+03
-5.576461407603244879e+03
-5.393480375701532466e+03
-4.894429890957325370e+03
-3.530374713706748480e+03
-3.386333782478658122e+03
-4.304153263626114494e+03
-3.964838344431066162e+03
-7.924138918716613489e+02
-4.458864238597424787e+02
-3.358254463099434815e+03
-3.875481918276961096e+03
-3.471587011454617823e+03
-3.094521329521851385e+03
-3.187257364844981566e+03
-3.653906853042124112e+03
-4.125469654941617591e+03
-4.530845809826540972e+03
-4.855039828999550082e+03
-2.339127743319485489e+03
-1.186135566913123739e+03
-3.529913152059607455e+02
1.440282941256915819e+03
2.134668121890257680e+03
2.512197110436088678e+03
3.129009216164863574e+03
3.369226072319072046e+03
3.336831181862055928e+03
3.264842048517744843e+03
3.063310603971408000e+03
3.096143101739466601e+03
2.852308032251542500e+03
2.765928030212156955e+03
2.872072876656697645e+03
2.949783734121066118e+03
2.223013318894219083e+03
1.370784762113282568e+03
7.821893643573066583e+02
2.753031666187821429e+02
1.660021909434172471e+02
2.612497334565784968e+02
4.310588749733274767e+02
3.774479398377437747e+02
4.794706347026398703e+02
1.221270382970410537e+03
1.407931485230903945e+03
1.322423165892429552e+03
1.634760859410167541e+03
1.588984737040017762e+03
1.463178180921839839e+03
1.558414906744211976e+03
1.626661965716786654e+03
1.265910149855250893e+03
1.312284358098571147e+03
1.214860996547754894e+03
8.635626805885648309e+02
5.693955366178189479e+02
2.948585973374990132e+01
-5.690824311694484550e+02
-1.081321385301090686e+03
-8.792929991595489128e+02
-9.098627255207036342e+02
-6.958294753069686749e+02
-4.817525691704574342e+01
2.382615098086166086e+02
7.835757921283515088e+02
7.457130147472905719e+02
6.317918122438703676e+02
5.149057124352819983e+02
5.638780281826611827e+02
4.116454713965962355e+02
-5.783383499276263962e+01
6.646071044160757992e+02
1.029934029249854120e+03
5.830902880178102805e+02
2.710748255488167047e+02
8.858661210636402217e+00
-6.225760522249921678e+02
-1.153204362836845121e+03
-1.708883795294563924e+03
-1.501638852994842182e+03
-1.456564100992307431e+03
-1.275646759354616506e+03
-5.647816599397990558e+02
-1.689184325318676088e+02
2.294184524833381644e+01
2.967801817817598362e+02
-1.072335687087111040e+02
-1.505780583801067429e+01
2.123291165714637430e+02
3.389111695492777585e+02
4.156768925352218957e+02
3.796300304140743833e+02
2.687501072095651011e+02
2.400809486949944187e+02
7.261927213319177099e+01
-6.885867148334297099e+02
-1.363569170068706853e+03
-2.057248672059651653e+03
-2.262640956176118380e+03
-1.965840053113595559e+03
-1.637843941970643527e+03
-1.267611022503336699e+03
-1.043138869242411829e+03
-4.443620903511085771e+02
-7.822198459104873791e+01
4.632121971707220496e+02
1.508555444283233271e+02
9.626246968921103431e+00
-3.541743131751425633e+00
2.644057523220184862e+02
3.305367780122726344e+02
2.928954820198447919e+02
1.895646554917198046e+02
2.334914912590057554e+02
5.850341510599214701e+01
-2.613439300929067599e+02
-7.499944615144410136e+02
-1.370544558644141944e+03
-1.969146928966121322e+03
-2.125920205988481030e+03
-1.810898970456490133e+03
-2.055104086074486077e+03
-1.274461183646326845e+03
-6.027922577572043110e+02
-1.151317626914939609e+02
3.084965773131851847e+02
3.520794779625190927e+02
3.924978445760326622e+02
5.405315451380217837e+02
1.027123548277764712e+03
1.206287838825802737e+03
1.017075699452254753e+03
9.764231067335940679e+02
8.035036600161372462e+02
3.422245135082571323e+02
-1.406251233995534449e+02
-4.718440547673661740e+02
-7.334844303217819288e+02
-1.059410820759919488e+03
-1.442169325798349973e+03
-1.020843990467288677e+03
-2.693404607233759407e+02
2.551632138478192076e+02
1.094833453111148856e+03
1.793678785236453677e+03
2.100559458824333888e+03
1.868737186956318510e+03
1.769750836810997953e+03
1.766916198351545972e+03
1.581407775562677443e+03
1.736668349650007713e+03
1.850549544475019957e+03
1.835201007315680499e+03
1.955371353558052078e+03
1.534539077020661580e+03
8.854930591353921727e+02
4.122978971882160977e+02
-1.516496667654951693e+02
-5.208304170028610258e+01
2.498098880835898683e+02
3.638131431614316966e+02
5.114344726525110900e+02
8.665120737132913291e+02
1.582020357906532581e+03
1.879730757604992277e+03
2.050658401344393496e+03
2.403738571256275009e+03
2.600814917761788365e+03
2.964360390487948280e+03
3.026252460075184899e+03
2.939016469842541483e+03
2.785239856264392074e+03
2.611670661020822990e+03
2.325204212557612209e+03
2.281519282301579551e+03
1.763132120955568553e+03
1.002599768257691380e+03
5.739975153624529867e+02
2.091587270430618446e+02
3.380996742227056870e+02
6.286419081013807499e+02
5.136047353776017417e+02
1.197143812048680502e+03
1.946336962925667649e+03
2.565090486398084977e+03
2.147536788987436012e+03
3.006655806596941716e+02
-2.358593477188276665e+03
-3.953241607702053443e+03
-3.936450649213467386e+03
-1.900136942902028068e+03
2.210759694066112843e+03
1.544114852194189098e+03
-2.784179534749000595e+03
-3.689693407014822242e+03
-3.723213288597714836e+03
-4.119810616558416768e+03
-5.339922642145884311e+03
-5.571935157635330143e+03
-5.469837487369778501e+03
-5.108381684879252134e+03
-4.669543202551925788e+03
-4.145479625736868002e+03
-2.132965454424052950e+03
-3.217469906668634394e+02
-2.334902485808915117e+03
-2.929538382079767871e+03
-2.879474219213258493e+03
-2.903590250788749927e+03
-2.853874522567381064e+03
-2.635430421348274194e+03
-2.585231819370646008e+03
-2.519291582824415400e+03
-2.893585260322353406e+03
-2.887177098946063779e+03
-2.985008864781795182e+03
-3.928103396857763528e+03
-4.296431691507219512e+03
-1.717018552505934849e+03
-2.589897630546174696e+03
-4.871057209339453948e+03
-4.975373601100301130e+03
-4.762764578803067707e+03
-4.365195906776813899e+03
-2.418633392255277158e+03
1.875983875804128502e+03
2.610677592656836168e+03
2.912534275358024843e+03
2.964633849981307776e+03
3.085054790044871424e+03
3.437792074329561729e+03
3.865849251250215730e+03
4.325287438083461893e+03
4.338180368421457388e+03
3.900634654711339863e+03
2.785667395838695029e+03
1.445225768783459671e+03
5.881957763576552907e+02
8.768135469790519210e+02
1.569223084499133392e+03
1.840323080081977878e+03
2.191050055357403835e+03
2.573530584625731080e+03
2.701707176639409681e+03
3.018677229924076528e+03
2.897530726507776308e+03
2.356417106484723718e+03
2.089412044717405024e+03
1.739632669401281646e+03
1.107191900673967893e+03
6.152170220334353417e+02
9.255776399610212479e+01
1.308936359685137329e+00
-6.012939230031170155e+02
-1.161167778456097722e+03
-1.543551710023990381e+03
-1.076326811831967916e+03
5.516365587918477331e+02
1.211298036795718190e+03
8.664986607856775436e+02
-2.126077733616709224e+02
-2.222834016672780763e+03
-9.181567458542981512e+02
1.954270060949560275e+02
5.358709216950478549e+02
5.401663117488596981e+02
8.163351453160754545e+02
4.954594106255826205e+02
1.116517379261507585e+03
1.805515708243212657e+03
9.764857010122995007e+02
5.614497540206770054e+02
1.411466709526362365e+03
1.704578779081931543e+03
1.411766757870406991e+03
1.237755796980304240e+03
1.365779875242961907e+03
8.991162160496510296e+02
-7.373522828796726003e+01
-1.351565556677492168e+03
-1.437578878183472170e+03
-1.758362011457696781e+02
7.677179456454248339e+02
1.639100889045859276e+03
2.982447752888715058e+03
3.039772333528451782e+03
2.417073541656492125e+03
2.410355972170402765e+03
2.199605904330893281e+03
2.175856769185119447e+03
1.680969077673031279e+03
1.001082307361748462e+03
9.594127155012004096e+02
2.004809309686322649e+03
2.584097658178066013e+03
2.402375430094979492e+03
1.874657214537294294e+03
7.508346580866726754e+02
-3.760491826056540390e+02
-1.490664981726613689e+02
6.216778607331237936e+02
9.381093812152572582e+02
7.432761253792966727e+02
4.992598660930411825e+02
1.066131732236726521e+03
1.729980238035541333e+03
1.708700201212408274e+03
7.991130068491254406e+02
6.654077732922443147e+02
8.955000345445072298e+02
-6.719273014167385760e+00
-8.222462873190734172e+02
-7.390664710186812272e+02
-3.502179486678894023e+02
-2.207751172385712266e+02
-1.385759916043796693e+03
-3.699227815986775113e+03
-6.160200838390234821e+03
-9.069721587479069058e+03
-9.347697622964613402e+03
-8.416073099079900203e+03
-7.792045442495259522e+03
-6.427697080797258423e+03
-4.489011302956461805e+03
-3.367140353765974396e+03
-3.014816646040515025e+03
-1.670119235678342193e+03
4.279170783384429342e+02
2.418194463615930090e+03
3.336694776294618350e+03
3.081448569469492668e+03
2.650253285042148491e+03
2.044080946971611411e+03
1.265013545640211532e+03
2.071124440966837938e+03
2.509372737506708745e+03
2.051537706832353251e+03
1.052575590423175527e+03
5.164820387425949093e+02
3.151673005975489446e+02
1.469882209650064375e+01
-1.220886576666454857e+03
-1.223608986781007388e+03
-6.004639109797069523e+02
5.853552896762288356e+02
1.188989971028599939e+03
1.440464908245035076e+03
1.641690894714869728e+03
1.222658302100753190e+03
6.853541563564707531e+02
-3.172784362235925641e+02
-9.373305691987166028e+02
-1.485742873571714881e+03
-1.165568453877402362e+03
-4.968235642195523951e+02
-1.023508593785941571e+03
-1.831689813849604207e+03
-1.946432641428988290e+03
-1.939764559816841711e+03
-1.057601585979739184e+03
2.399802857217080145e+02
1.464895721893771224e+03
2.439254337823231708e+03
1.829151892670255393e+03
1.814889028784650407e+02
-7.687200873828292060e+02
-1.195394268179205255e+03
-1.187562270068807265e+03
2.117255214278004587e+02
8.434046036517039511e+02
-6.946550986456431076e+01
2.790500172370307723e+02
1.805959329094617715e+03
2.718290650970886873e+03
2.407028563890487021e+03
9.732379017208309051e+02
-6.730230933676997438e+02
-2.387785421765265710e+03
-3.586060832387967366e+03
-2.518931329618472773e+03
-1.220335994297782463e+03
1.176910301852596206e+02
2.404137980775319193e+03
4.181988155258291954e+03
3.631306074204430388e+03
2.598170952660856983e+03
2.214597084243895551e+03
2.473616190325315984e+03
1.559165806752216668e+03
4.429945320372294049e+01
-1.932948332727140951e+03
-4.843560920107608581e+03
-2.326538073779189745e+03
-1.871789123003803070e+03
1.204663866870400852e+03
5.398460210541713877e+02
4.547490054173026692e+02
7.493964536438764981e+02
-9.332767425515273771e+02
-2.621333205235816877e+03
-3.100760982247138145e+03
-2.263589410355652035e+03
-1.193733434683495716e+03
-3.080967735603735946e+03
-2.121363884989987582e+03
3.377135824478874838e+03
4.523563794032954320e+03
9.918587652237031307e+02
-4.438666051218214648e+02
-3.230604992324004343e+03
-1.444375267634965212e+03
-1.521172473737448740e+02
2.998268306065813704e+03
1.051812043904036955e+03
1.591615088670049545e+03
-1.616453158724799323e+03
-4.628465783186174122e+03
-3.776351077744984650e+03
-2.904108521515119264e+03
-6.537319945984169181e+02
-2.081341520561110428e+03
-4.284892833391965723e+03
-4.184219933626663988e+03
-4.882312836920841619e+03
-4.228163578459478231e+03
-3.023790333861098134e+03
-4.106130737275934734e+03
5.288827191006473640e+02
3.374299264879158272e+03
5.882068107247817352e+03
3.860138663508696936e+03
-1.664505913387578858e+03
-9.907311761161547565e+02
6.284999591920014836e+02
1.228158229717113727e+03
2.801269291081051506e+03
2.639812923340606631e+03
2.008187413611568104e+02
-8.837231988997964436e+02
-7.758948581195489851e+02
-1.752698841880787086e+03
-6.210922161314078949e+02
2.669494737334547949e+02
9.766354273232554988e+02
2.004100580445504420e+03
9.313531472009888148e+02
1.137359999645953621e+03
1.449963900605509934e+03
-3.541204316258539961e+02
-3.977633179884015135e+03
-2.234347022898158684e+03
2.748461268342895437e+03
8.066636462341397419e+03
9.914540962793304061e+03
7.281169457032574428e+03
3.805339487215218924e+03
2.935130373750576837e+03
2.371499261315983858e+03
-1.301797212896583687e+03
-3.342538036546918192e+03
-1.984099337924253405e+03
-1.598249022474861249e+03
-3.081598435004306339e+03
-3.036603232992991707e+03
-1.030137214760899951e+03
1.426672986512985972e+03
2.577675011861716484e+03
3.841195275603738992e+03
4.248967940260713476e+03
4.868209314732235725e+03
4.356928377424313112e+03
4.631965063994618504e+03
4.776306926521257083e+03
4.869925708934300019e+03
4.409601630603027843e+03
3.457147241638357173e+03
2.438877385114618846e+03
1.828769258452806980e+03
1.672710910410391079e+03
1.574687599204832622e+03
8.765487508032949791e+02
4.212472353977705666e+02
-2.396859129667731452e+02
-5.346997914281981821e+02
-7.965784170502909767e+00
7.553739454181813926e+02
9.285655675245685643e+02
7.864930908671598218e+02
6.711020803249582514e+02
7.922974396436314919e+02
1.594098930580729984e+03
2.237539571403321588e+03
1.986619338773632080e+03
-2.116624227830630218e+02
-5.532069126042114249e+01
2.120546490273218751e+03
2.813879081559117822e+03
2.178605692577883929e+03
1.994746856532634183e+03
1.327619970837299945e+01
-1.586818097513746352e+03
-2.885602070805582116e+03
-2.771044492813606212e+03
-1.925073538915966083e+03
-1.437687791102544679e+03
-1.066889146767401371e+03
-1.815656963248478860e+03
-4.462975783196543489e+03
-5.935822576436294185e+03
-5.298230540794274930e+03
-3.539149813824248213e+03
-4.770571415090683331e+03
-5.492585887133667711e+03
-4.497331445913991047e+03
-4.485947391192222312e+03
-6.870362175379942528e+03
-6.935517508342107249e+03
-5.930265092824278327e+03
-6.103554419414452241e+03
-5.391614980150101474e+03
-1.794490407882609361e+03
-3.741387573389328054e+02
-2.742550337751547431e+03
-2.758701415103775162e+03
-2.414499721739495726e+03
-2.117008913895814658e+03
-2.083243755469110965e+03
-2.524022600149825848e+03
-2.656357376704873786e+03
-2.519349003450473447e+03
-2.877927948771116917e+03
-4.032131629455861457e+03
-3.302013457438033583e+03
1.491488539095651959e+03
1.677464861194407831e+03
3.982939949474154673e+03
3.640959289448188429e+03
2.607472475526047674e+03
1.672391452362441441e+03
3.277991502123317105e+02
4.246031403697350015e+02
4.916819525264189679e+02
7.551572419072632556e+02
7.841649165271736592e+02
7.377230835105696087e+02
1.404885981383043827e+03
2.296369356402748281e+02
-2.238881427180356241e+02
2.065324525591916426e+03
2.997263330374607449e+03
1.682858579415015356e+03
1.923113984395495436e+03
2.849078757968969967e+03
2.761782992958226259e+03
3.247299326517328154e+03
3.216706642528674365e+03
2.720989085873715794e+03
7.080666279971986796e+02
-1.269990573043591439e+03
-1.912148698405193727e+03
-1.827400771927598726e+03
-2.667927114318667918e+02
7.416974130981977851e+02
-2.958330540672363327e+02
9.247472379874369608e+02
2.017420996888330592e+03
2.003195596305852177e+03
2.044228098865804441e+03
2.657572858721036027e+03
2.875166264486754244e+03
2.221997478559563660e+03
1.390033053708278658e+03
6.783171257937649443e+02
-3.979637965585379220e+02
-1.705563231240708546e+03
-9.952720349986276460e+02
9.067456408195450877e+02
1.322398141655961808e+03
4.876875248226007784e+02
-2.742517365679180941e+01
-2.561988214923673240e+03
-1.298972324487534024e+03
-6.403386646606560362e+02
-3.180945136018370363e+02
5.099240508147374271e+02
1.523456119322074073e+03
2.803430395227449480e+03
1.972346921129365683e+03
9.001112367710408080e+02
6.035972507718594215e+02
1.691852593502075251e+03
2.767689372035562883e+03
2.188127204230275311e+03
1.088302864363722165e+03
2.182547873818221547e+02
-1.079042869993234717e+03
-1.565569456556696650e+03
