-4.079937147499778348e+03
-5.052132135863703297e+03
-4.403969434674901095e+03
-4.189418989649208925e+03
5.685892760627513098e+02
4.878111647784282468e+03
5.450208342210086812e+03
5.790895699153712485e+03
5.900266367120795621e+03
5.560367518720723638e+03
5.360170432080106366e+03
4.876706379365433349e+03
4.077060485603927646e+03
3.429307945089621171e+03
3.037465785159389270e+03
2.963487434654186927e+03
2.699351438342017445e+03
2.532153895202319291e+03
2.813966005924527963e+03
3.024806238993247916e+03
3.204599357021468677e+03
3.318470610588776708e+03
3.551688986303823185e+03
3.512432191907364540e+03
3.921840378654618689e+03
3.824689214698575142e+03
3.380934634869174261e+03
3.970635795586616041e+03
4.647863668212952689e+03
5.133617614473053436e+03
4.315893724948891759e+03
3.722590006237101534e+03
2.699676469248686772e+03
2.389568181679942882e+03
2.404315139830060161e+03
2.097984167340501244e+03
1.797858284935473193e+03
1.750864223182765500e+03
1.789664986395544702e+03
1.946246970490313970e+03
2.411736283205237214e+03
2.425666962614077420e+03
2.581457055536635835e+03
3.041344495931352412e+03
3.045697892531517027e+03
2.458834335064208972e+03
2.174719779805387589e+03
2.730130132818541824e+03
2.478481120257651128e+03
2.326337749325479308e+03
2.405097688954902878e+03
2.431480126921333522e+03
2.582229547369641750e+03
1.889635795818340057e+03
1.062899800172472169e+03
1.052385296831941332e+03
4.663806162942801734e+02
3.717228312185522441e+02
7.463779258877963230e+02
8.843776687843169384e+02
1.008752695047701309e+03
1.216540239330294298e+03
1.836650137154322920e+03
1.832094406852899965e+03
1.687919121187238943e+03
1.976134519547184482e+03
2.352682732154620680e+03
2.538587084734233940e+03
2.562886099886470220e+03
2.422556319805890780e+03
2.132607127178453084e+03
2.164078096147786255e+03
1.849972024916617784e+03
1.398128331570646424e+03
6.435359746979825104e+02
4.141879519132971268e+02
5.910581027236333966e+02
6.021057587350305766e+02
-2.206349887763305446e+02
-6.417956985969497907e+01
-2.774944831721939522e+02
-2.085826325827197820e+02
2.405348773264747138e+02
2.967901803525545574e+02
-8.987658401083966737e+02
-3.640093211136462742e+03
-8.061237915075726960e+03
-8.724227492702060772e+03
-8.538030358579420863e+03
-8.107594575690081911e+03
-8.291991749629156402e+03
-8.450281280822799090e+03
-7.877425199662367959e+03
-8.478412974443572239e+03
-8.965316172886285131e+03
-8.665211593090411043e+03
-9.116049539676634595e+03
-8.940685982536690062e+03
-8.839295931532009490e+03
-8.142897231117700358e+03
-3.669419981325186200e+03
-5.019902575090442042e+03
-7.472342352389215193e+03
-7.447801568474044871e+03
-7.327382281885121301e+03
-7.229972397883459053e+03
-4.799542023896525279e+03
-1.392173624105757426e+03
2.662126064186216809e+03
3.734458099787532319e+03
3.688811197679313864e+03
3.519171027370217416e+03
3.425545094216129655e+03
3.320890287005199298e+03
2.308197789971424299e+03
1.722429134263657943e+03
1.639509017660434893e+03
1.308403601902061610e+03
1.271163683731456786e+03
1.921781544399216273e+03
2.460268486646349174e+03
2.411732412606502294e+03
2.469132123030755338e+03
2.554487192740849878e+03
2.617854949838943412e+03
2.522188070305847305e+03
2.582476711233899096e+03
2.569789772351790361e+03
2.776087707222495737e+03
2.592346961236316474e+03
2.345609680137060423e+03
2.164934719715837673e+03
1.803295860680648047e+03
1.774593598403896067e+03
1.715820488093189397e+03
7.690097283611812600e+02
7.052552316907166414e+02
9.425066453044881882e+02
7.987399099621658252e+02
6.320072811915421198e+02
1.241200158296340760e+03
2.192254938401755680e+03
2.089208662034131521e+03
1.330114929240341098e+03
1.487041276628993728e+03
2.097025561447356267e+03
1.676996197156810922e+03
2.425960295696260800e+03
2.950990470970266870e+03
2.729028923307550485e+03
2.459172633897683681e+03
2.019654294604619963e+03
1.507957810919062922e+03
1.282852509657732753e+03
9.122931221132583914e+02
5.912875136104823923e+02
1.119211472993490020e+02
-5.658970559856256841e+02
-8.035679507860135118e+02
-1.243731076205129511e+03
-5.446664477125672192e+02
-3.014148333033591030e+02
-1.750733549429717755e+02
3.654282520246621289e+02
4.550970474531969217e+02
7.439728031486102964e+02
6.470406059544078516e+02
4.443011417997651051e+02
8.768102492355085360e+02
7.476498742466991416e+02
5.307627901676228248e+02
4.511373961324115953e+02
-1.906030659565276508e+01
-6.448498232293688943e+02
-1.304326356821985655e+03
-1.776548258687611451e+03
-1.739555160716607588e+03
-1.677314423167691984e+03
-1.444858180732962865e+03
-8.381353608339962875e+02
-1.091211070024305769e+02
-2.398892468374849329e+02
9.767261172766099264e+01
3.886022317464911566e+02
1.318493003142971247e+02
-2.752426755387914170e+01
1.511216490643329191e+00
-7.307192471080500695e+01
6.068614966610395811e+01
6.078921768818948976e+02
2.958611718766580267e+01
-2.183892190471245840e+02
4.105875309417982777e+01
-6.181031324375377380e+02
-9.830005563602385337e+02
-8.626025588142155129e+02
-1.407906909848597252e+03
-1.674979430343987133e+03
-9.838211671078789777e+02
-1.451387796868238865e+03
-1.303608410922918438e+03
-2.754584858343121709e+02
4.199581522119628829e+01
-1.017097365939294384e+01
6.510236547970142738e+02
2.495428514830047391e+02
-2.006621043698420408e+02
-1.726728810461966077e+02
-1.163994385335726776e+02
2.120623159328405194e+01
3.601081331010742588e+02
1.913507046934075504e+02
-1.879696071918524467e+02
-9.800757552977087528e+01
-1.134701715052251529e+03
-1.174059061604011731e+03
-5.629819969074233086e+02
-8.294877348062009332e+02
-9.976346931950569115e+02
-2.246449345846376389e+02
-4.565529989998760811e+02
-4.437399568003677075e+00
7.175586529110825040e+02
-9.518416403464202702e+00
4.232294903682813469e+02
3.202041104957947368e+02
2.767152301352912218e+02
1.064919684213703931e+03
1.260333743321137717e+03
1.163823171309308691e+03
1.515578422604659863e+03
1.621512640790820114e+03
1.257657316360461436e+03
4.849173613448983815e+02
-4.070753732529463065e+01
-1.500702047510452246e+02
-3.276832096354623332e+02
-1.251414650872091670e+03
-1.515047952566738786e+03
-1.178622481449496263e+03
-7.271560886077430723e+02
-7.684565073994988325e+02
-6.616083699948189860e+02
-5.322364503287366233e+02
-2.349241549791284172e+02
1.435907034795654624e+02
3.347230421198329964e+02
3.938793727571376166e+02
1.304743567710314437e+03
1.365656265561557575e+03
1.126409655601278928e+03
9.955713159428227073e+02
6.376291444286115393e+02
5.724850797713347674e+02
1.498547141248448327e+02
-4.121174633981489421e+01
-6.983320014371869888e+01
-1.550709506029409397e+02
-4.335086954010585032e+02
-2.027763802825356265e+02
9.438541572214681707e+01
3.564574492658654776e+02
7.866952731527409242e+02
9.029001698327925851e+02
1.357218187115162436e+03
1.692744668507487177e+03
1.535763068721328409e+03
1.346038136591467037e+03
1.317445796556833329e+03
1.341999925053916968e+03
1.723813179431602521e+03
1.927869747854126217e+03
1.701092304077287508e+03
1.354478162294060894e+03
1.003033992290197830e+03
1.044757960396019598e+03
1.356195073610481359e+02
-3.213686883549902404e+02
-2.811954518937696434e+02
-3.998773799858905704e+02
9.160727488394934426e+01
3.883014871256866627e+02
2.103022780111498946e+02
1.486114395731233060e+02
4.821234498957908272e+02
4.838012540457787054e+02
-2.163999592487963639e+02
-2.449368730317567497e+03
-6.161094478440075363e+03
-4.711544282240392022e+03
-2.650760804322593685e+03
1.298304773471141061e+03
-2.929250841866952214e+03
-5.412474942934293722e+03
-1.914364710679284372e+03
-4.544957007146107571e+03
-1.878220834906049731e+03
-5.787171931304194004e+03
-4.721745658742401247e+03
4.403018187402117434e+01
-2.701843969716094762e+03
-1.030259060295436029e+03
7.682888945081985810e+01
-2.259587007343138339e+03
4.384906799973591092e+02
-2.756817792891596582e+03
-1.002506233425302753e+03
-1.087610921019373336e+03
-1.681072609117577770e+02
-1.179963789162718740e+03
-1.522089694020486604e+03
-4.298460881849988255e+03
7.879014027775725708e+02
1.543078686975567734e+03
1.185004030523959045e+03
9.026962330696940171e+02
9.011625455013537476e+02
1.366421070011476331e+03
9.675135040521444125e+02
8.434307881544963266e+02
1.126234781741379948e+03
1.481959042474792341e+03
1.242667865711245668e+03
1.227354241269441900e+03
1.362030222688617641e+03
1.510761837686077797e+03
1.306565233802915827e+03
1.736472257187481091e+03
2.920457297215066774e+03
2.806598070908767568e+03
2.518885927230030120e+03
1.993382085536082968e+03
1.750104524764142297e+03
1.044045700348040555e+03
5.032614566830827130e+02
3.080921387988352578e+01
-6.231809218888050594e+01
2.394046562341883799e+01
-1.764787215147230768e+02
-2.685702157360373121e+02
3.720766532240534108e+00
3.414676751895973439e+02
4.206848655887453674e+02
1.805225872233647237e+02
4.329927993955759575e+02
1.258334962963246880e+03
1.205540423527800385e+03
9.366421852748626407e+02
1.166619374672632830e+03
1.431417729379331831e+03
1.243167720238105858e+03
7.892846099767001533e+01
-2.614594025362943057e+02
9.607070656235960371e+01
-2.484467802527018705e+02
-7.321117034664044922e+02
-6.339557448503380783e+02
-2.990443281307533425e+02
6.155506247941847278e+02
8.958565188825359655e+02
8.340038116160553727e+02
1.152951710618426659e+03
1.389712419194293261e+03
9.781146819408073725e+02
4.431315747462490435e+02
7.228642275728723234e+02
1.023044587873328965e+03
1.015575158250933782e+03
1.379415854705331867e+03
1.413564933888548921e+03
1.774005743607833438e+03
1.770767143489059663e+03
1.300873156328150571e+03
4.382270482488074208e+02
-7.721097571518583891e+01
-7.514673686256738847e+02
-1.777620047982936057e+03
-1.716683288899970648e+03
-1.715649709332238899e+03
-1.700532139321231853e+03
-1.028345833485255753e+03
-8.210835730287483329e+02
-6.797797504545625316e+02
5.554802547956282410e+01
2.509666760907233538e+02
-1.425395673032937225e+02
-5.849575354570612262e+02
1.666823969701781891e+02
1.130354082412143725e+03
6.560833953912931520e+02
-4.120707238059452493e+01
-1.355629157083935468e+02
8.361183199763985385e+02
1.535788536017714478e+03
1.871325589663405481e+03
2.638673000679227698e+03
2.750904747281982054e+03
2.071908446208976329e+03
1.296660252870155773e+03
1.306239466288461017e+03
1.446710958985482421e+03
1.683949849904849088e+03
1.362950860395824293e+03
6.638020240544309445e+02
3.094357553096368179e+02
-1.632112222416638588e+03
-5.281816284053288655e+03
-8.927741339931480979e+03
-9.245922355781716760e+03
-9.715364329546959198e+03
-1.068004013767351717e+04
-1.096297861816663499e+04
-9.220224772192277669e+03
-8.551759212131179083e+03
-6.046560161017400787e+03
1.762798016177832778e+02
1.261620421637113395e+03
1.653813653674347734e+03
9.296875113379905997e+02
7.271089736642485377e+02
8.280647001805739364e+02
1.184601378274060380e+03
1.669698979484566735e+03
1.700389269321974098e+03
1.389668967746821636e+03
1.609487074909902731e+03
1.411855750930138583e+03
1.310816367193952146e+03
2.624339740544256529e+03
3.431467914348592330e+03
3.801193878529189533e+03
3.744455413058263275e+03
3.521259731568223287e+03
3.468605512725652716e+03
2.696437599310768292e+03
1.911747112303735321e+03
1.327466549185536451e+03
7.658632964298797674e+01
-2.628387883224424968e+02
3.616158619437353394e+01
3.506127675380448068e+02
9.845711988182530376e+02
1.626051001800023641e+03
1.518046124161299758e+03
7.036039613266133301e+02
1.403710970691301100e+03
2.467338499369740020e+03
2.188559571784137006e+03
2.980353947332763710e+03
3.686680682791426989e+03
3.184634254485530619e+03
2.822198930904222379e+03
2.372360963468913724e+03
1.415217595643301365e+03
3.827113697803718537e+02
-3.762328271145983081e+02
-4.484948360120512234e+02
1.858999395685844380e+00
-3.132688211929532827e+02
5.051795857356886472e+02
1.144308020216282330e+03
1.395054505473168092e+03
1.344498309072583879e+03
-3.443063082823963441e+02
-1.468310011975619773e+03
-1.401502695152471006e+03
-2.612835824893563313e+03
-3.435350522747149171e+03
-2.772006157673100461e+03
-3.706780249374144660e+03
-4.788677104716673057e+03
-4.418514979535146267e+03
-2.172377878689153022e+03
1.142702920101758536e+03
3.910754485730107717e+03
4.822780418382259995e+03
5.285770208164718497e+03
4.982798822819233465e+03
3.199815615892924143e+03
1.685776414903768227e+03
-2.217207381219033323e+03
-2.406041637611906026e+03
-2.296804784639018351e+02
1.980845117568872865e+03
7.305006175223074933e+02
-5.446611647047152474e+02
-6.505981061827379790e+02
-1.710316815350595334e+03
-1.239810808900339907e+03
-8.880333218314847272e+02
-1.789899605110101220e+03
-4.133767739850374596e+02
-4.153510298618379238e+03
-6.246304804875067930e+03
-5.726683399530860697e+03
-5.297643141677809581e+03
-3.760220995098681669e+03
-9.497435523740026838e+03
-1.047622276798881649e+04
-6.380578665491123502e+03
-6.639454413547204240e+03
-2.452879671936590967e+03
-5.376852673918026085e+03
-2.749302782099905926e+03
-3.885192849565502001e+03
-4.475509097662053932e+02
1.318719568995570853e+03
-2.678389987750515047e+03
-2.759388087932191524e+02
1.090097747852648354e+03
-5.012935031725209569e+02
1.047958412610613777e+03
4.728851785883199227e+03
6.883530248013825030e+02
3.994439310546023080e+03
1.090111107319932898e+03
1.054324391736940015e+03
-4.439268441851448870e+02
2.456352487533751628e+03
-9.984052697161345691e+01
-1.265480222388975108e+03
-1.465581491110803427e+03
2.015886172498109772e+03
3.253972905268550676e+03
2.702680489631531145e+03
1.719002531416680540e+03
2.135923746586021480e+03
2.651402402121063460e+03
2.535447969238255155e+03
2.123121721121697647e+03
1.764388770312918950e+03
1.823193510527385570e+03
1.443506334288218795e+03
1.145451341658662614e+03
8.589379072915331790e+02
3.798986283140574756e+02
-2.756109538224003472e+02
-6.696603663033320331e+00
1.147597799633126897e+03
2.096296224963651184e+03
2.878402292204647893e+03
3.528862287578596352e+03
3.541678251309515872e+03
3.514832349830187923e+03
3.529281300261553042e+03
3.137636153334263781e+03
2.446597480109016033e+03
2.418915193463754349e+03
3.212545633438381174e+03
3.269675726405778732e+03
3.426537047000361326e+03
2.973492456727546141e+03
2.785689866001735481e+03
2.522962679979666518e+03
2.443181181717682193e+03
1.855574904722861902e+03
1.263796960476302729e+03
1.364558400054095500e+03
1.079052932131979105e+03
5.166951477278963694e+02
4.416384330132420928e+02
9.201658066714776396e+02
1.367042736384020827e+03
1.343124857707950468e+03
1.303129209734541746e+03
1.553849793947689250e+03
1.836910884414762450e+03
1.844138285130524991e+03
2.022505509319814109e+03
2.380452535507234643e+03
1.992264979021244017e+03
2.020042515731188359e+03
1.636781196700901774e+03
1.091256096023632381e+03
8.003390297877036801e+02
5.390691597704858395e+02
1.343846695531728983e+02
-4.377809841517980658e+02
-7.042904607191827893e+01
1.504448801169100420e+02
1.267933999498811488e+02
5.656113295574225504e+02
8.209104237684532563e+02
1.045681896979792555e+03
9.548647530042188691e+02
1.216412315559330864e+03
8.314154903640300063e+02
3.878756830591168523e+02
2.227432344645786202e+02
5.398033963603284491e+01
2.026652421291015287e+02
-1.252035815473550713e+02
9.134639091838174352e+01
5.742468082029323568e+02
3.084824684529320962e+02
3.100796901856095360e+02
5.050070042243913804e+02
-1.789190851202643096e+00
-3.052329368022101335e+03
-8.044629410970038407e+03
-1.103064767643967389e+04
-1.067538925757812103e+04
-1.015491610191747895e+04
-9.830150912655200955e+03
-9.891061976680843145e+03
-1.000566326174910682e+04
-9.700954181777435224e+03
-8.560916339413706737e+03
-8.629456637266399412e+03
-8.675537148642784814e+03
-7.581275241895588806e+03
-7.689643919186114545e+03
-7.490595036024900764e+03
-3.044130780451350802e+03
-4.514336932004855043e+03
-7.834309365031723246e+03
-7.695954513595841490e+03
-7.920214786309031297e+03
-7.944131925105129085e+03
-7.346686706899688943e+03
-4.853830689750207966e+03
1.887473434625791469e+03
4.189219904502652753e+03
4.770397141999904306e+03
4.928089227754726380e+03
5.336322155696108894e+03
5.772179938568512625e+03
5.757634623491195271e+03
6.564697772155325765e+03
6.900436585149084749e+03
6.649910785765205219e+03
6.471114942765944761e+03
6.231121490666881073e+03
6.019973670173532810e+03
5.512631382190608747e+03
5.045131175490740134e+03
4.524474271271816178e+03
4.210638014860829571e+03
3.364703984400763147e+03
2.433677982005982358e+03
2.390493490189926888e+03
2.641259331123509583e+03
2.981071968971238675e+03
3.105966806863324564e+03
3.167871578513027998e+03
3.621823583251552009e+03
3.678990827402834839e+03
3.320443535742691893e+03
3.486131835143308763e+03
4.151965837855725113e+03
3.887959253876705134e+03
2.582214929499256414e+03
2.193678794249445218e+03
1.269419728771652444e+03
6.165345980375901718e+02
1.160546943160474314e+02
-2.070321698555870569e+02
-1.261726992212451478e+03
-1.832991245654759723e+03
-2.197809710990606618e+03
-2.049262819884809232e+03
-1.166342229223562754e+03
-2.256137185824649407e+02
1.374388255433323991e+02
1.774861488079617899e+01
-2.147741226271751600e+02
3.259301641341717186e+02
5.699249832812183740e+02
3.961763547205807185e+02
3.715650663759581107e+02
4.741705617366715160e+02
-1.811647887340016041e+02
-3.248556318498763176e+03
-4.968020309936950980e+02
3.498336878836822166e+02
-4.106397974370817110e+02
-8.502186270208209180e+02
-9.989290353875594519e+02
-1.057809225245269772e+03
-9.448595452790851823e+02
-8.870674265363616087e+02
-6.813538219980348458e+02
-7.247340165801256262e+02
-2.211196688578654630e+02
2.125276292858447391e+02
9.590636855959533023e+02
1.573483856612120917e+03
1.307837722599853805e+03
1.195146406420122730e+03
1.625392206490436138e+03
1.481551332820379685e+03
1.459692546476725283e+03
1.031852240434193618e+03
6.990159557423220349e+02
1.802369639605250882e+02
-3.775677201661226832e+02
-7.195016068468894446e+02
-1.002579358226583736e+03
-1.173864451838906689e+03
-1.361367961314972263e+03
-1.113042462687270699e+03
-8.328478142603688639e+02
-4.138684867150622040e+02
-1.991737460574170484e+02
-8.268718766098650974e+01
-7.747494521428006919e+01
7.347281872029655858e+01
7.822953282861436719e+01
2.537719822295503036e+02
9.360785863937481963e+02
1.013179241013900082e+03
1.004074684131314484e+03
1.294713944898710906e+03
1.167021111511331355e+03
5.529188841721130530e+02
-2.205455967592813522e+02
-3.104994378809294062e+02
-6.769870575375143744e+02
-1.424975499020610641e+03
-2.053508675182824391e+03
-1.934479760373131285e+03
-1.868927015676241126e+03
-1.230935856813807959e+03
-9.964260476637824695e+02
-9.454334703531783362e+02
-1.174079806765783133e+03
-1.345275445428674175e+03
-6.260015947603668565e+02
-2.494014527686200040e+02
3.142804571499579538e+02
1.888576051998064997e+02
-1.797139705032715256e+02
5.161260080415276974e+01
7.586251362229654660e+01
-1.359505470705662447e+02
-8.977863686910538945e+02
-2.242926968289288197e+03
-1.646675765201638114e+03
-1.090067709519721575e+03
-1.106726872646122956e+03
-8.970035520487358554e+02
-7.024893206798038818e+02
-4.719779863068764030e+02
-3.565838581338149282e+01
9.876759897511558961e+01
7.265517593893258663e+01
3.443745445988119513e+02
9.802083080232879411e+02
1.238383511234988418e+03
1.114567935459549972e+03
8.023972188647722987e+02
7.658590805142398494e+02
6.290378805478327422e+02
1.878031017793580588e+02
-1.824847098797025637e+02
-6.588271715105306612e+02
-7.262396086663052301e+02
-1.219085188115759820e+03
-1.860979890781174618e+03
-1.998122854412944662e+03
-1.952305656589679074e+03
-1.379871856043891285e+03
-2.255445494896203797e+02
6.066868549590540169e+02
7.294530211486355711e+02
7.783829842650885666e+02
7.934347075645965788e+02
1.266431027528842606e+03
1.937132945359730684e+03
2.393078071167486087e+03
2.508376567187929140e+03
2.341429944030016941e+03
2.017956165335536070e+03
1.638663281564650333e+03
1.097256854477627257e+03
6.337693123129064361e+02
1.233217903180241990e+02
-2.878175040980001995e+02
-3.838967333139775064e+02
-2.933380680144978783e+02
-2.120313975814978278e+02
-5.809773405642534527e+00
1.543814793710286608e+02
2.884106479120561062e+02
5.692520320559340234e+02
1.439002520983755630e+03
1.945739073848890257e+03
1.803545202240588424e+03
1.731355463897125901e+03
2.408158652134445674e+03
2.440964340935289783e+03
2.189813741619715074e+03
2.696727090430859334e+03
2.769700849978026781e+03
2.336722895737059389e+03
1.828714297465424352e+03
1.553632821187166883e+03
1.138530198229858115e+03
5.423795938877257186e+02
-1.165728983794525902e+03
-6.001778251800928956e+03
-5.617716573505840643e+03
-3.673523543388744201e+03
-3.309343840126937721e+03
-9.469104869643543054e+01
-2.296660238400959770e+03
-4.283227553655454471e+02
-3.464355250928817753e+01
-3.913537062037428313e+03
-4.999034575132734062e+03
-9.531123148115588037e+02
-1.421787709074460736e+03
-1.648017241848759340e+03
6.022219501512329316e+02
-3.115062948796446562e+03
-1.696824552235371584e+03
-1.377979412494767075e+03
-5.374538753315943723e+03
-5.781562159559295651e+03
-2.629018897116969129e+03
-4.224827906051394166e+03
-7.737959582508471613e+03
-4.992434685352342058e+03
-3.092220957342932707e+03
-3.931221596919697731e+03
-3.552376565435232806e+03
-2.589704535185087934e+03
-7.480778728100333410e+02
1.929522719248237536e+03
2.729097789487626869e+03
2.842672645784527958e+03
2.940277327638483257e+03
2.737898970239852588e+03
2.321587763715308029e+03
2.269402164261641246e+03
1.914294776783041470e+03
1.272286857214425254e+03
8.394090692945993624e+02
7.846435110498183576e+02
4.320446070837547268e+02
8.460697154087908700e+01
2.894042970445055403e+02
7.894019494343634733e+02
1.410718384957529679e+03
1.291392712552396688e+03
9.784768068898271167e+02
1.235996658300399304e+03
1.727950406140026644e+03
2.060401177179271144e+03
1.998285526173641983e+03
2.051571735111147063e+03
2.304339195206924614e+03
2.377595746966443130e+03
2.242337195708406853e+03
2.029662724942630575e+03
1.361624234777351376e+03
7.733830838338459444e+02
5.398667167841949777e+02
1.611965888046360647e+02
-8.460642904910712048e+01
-2.544449316489344994e+02
-1.502892690634575672e+02
5.789073422471371799e+01
2.403222440469854959e+01
-5.202624164188693356e+01
1.043887849838463580e+03
1.448848981737825625e+03
1.465719663669833380e+03
1.798639532516271629e+03
2.687498895828730838e+03
2.779888038061940733e+03
2.186547980283095967e+03
2.074139246063495193e+03
2.224410612922906694e+03
2.069635020351294315e+03
1.914805006941578313e+03
1.411824387192299355e+03
7.615427034715421541e+02
4.518314671252714447e+02
-3.053376819648007654e+02
-6.701779906212266269e+02
-6.077374512295089062e+02
5.803472702887061274e+01
5.991345867584998359e+02
7.535648136861065041e+02
9.742563319585307227e+02
1.120242697336417677e+03
1.046568860602922769e+03
1.282188588848697918e+03
1.187124592695461388e+03
1.194350495664929213e+03
1.299856400800362053e+03
1.081600060592991895e+03
9.215641033565239013e+02
1.107764536115900000e+03
9.942209183310491198e+02
2.499468050396955334e+02
-3.113469551406521063e+01
-1.280811833439589691e+02
-3.669629941237078583e+02
-7.827784132728706936e+02
-7.325003352591601242e+02
-2.321743857291242534e+02
5.581925894878291956e+02
9.665890240686322841e+02
1.074957737135369825e+03
9.013079932878638374e+02
1.472695487852605311e+03
1.618207657469257128e+03
1.741777937854591983e+03
1.876416042445328003e+03
1.727078158805552903e+03
1.690731320197926152e+03
1.357321579217687940e+03
1.218896109423849794e+03
1.654204436294978677e+02
-3.438157361562252390e+03
-8.241914658497064011e+03
-1.073587535660150752e+04
-9.635063520877116389e+03
-1.072748713694943217e+04
-1.064716124788922934e+04
-1.032509886073480084e+04
-1.010037832052859449e+04
-1.003696683884938466e+04
-9.465819688048150056e+03
-8.702910480275666487e+03
-7.718272682027091832e+03
-2.795864776145256656e+03
1.558605585425872050e+03
2.522600608765465040e+03
2.379229866273661173e+03
2.524580799105524875e+03
2.491574796284457079e+03
2.091205986639137336e+03
1.693396737587293956e+03
7.761244692875071678e+02
1.833413195433381304e+02
-3.389581521234922548e+02
-2.967740274668101961e+02
3.028181006314148931e+02
6.917607375944838850e+02
8.100211853695005857e+02
1.325664109886733740e+03
1.835725683740389286e+03
1.992222070185932125e+03
2.005167221984611160e+03
2.111582630573468123e+03
2.586457473291818133e+03
3.088885134436284261e+03
3.587903044156363194e+03
3.947535193432964206e+03
3.764712605965077273e+03
3.586325291791991731e+03
3.102373806010669796e+03
2.693862183654184719e+03
2.272808487337298629e+03
1.567204605552284193e+03
1.340031706868933725e+03
9.302772940181748709e+02
3.309358882945662117e+02
1.200455417185034577e+02
3.676602556533511574e+02
6.757574989541628838e+02
1.039373697780178873e+03
1.265504776487154913e+03
1.520080721912773697e+03
1.811180114987775823e+03
1.838799575411949263e+03
1.793953216210558367e+03
1.641682371219692868e+03
1.681036452206505601e+03
1.643052777638332145e+03
1.366661307471655164e+03
1.601901805043244849e+03
1.367841227852087286e+03
9.284981298591330869e+02
4.618212335635123509e+02
2.628423998378055444e+02
1.849227980656047166e+01
-2.071897239892291793e+02
-1.192127395463176640e+02
-5.543779833644910582e+01
3.461256092654605823e+02
8.444466811441133132e+02
9.675779886217177364e+02
9.664951503801272565e+02
1.110305707471103005e+03
8.940393227219424261e+02
1.145646333605207701e+03
1.283092230053907315e+03
5.014409361517872412e+02
-4.425129044630949465e+03
-3.653634560427771248e+03
9.727924093974211246e+02
1.299228162501651241e+03
-2.262285510225509825e+03
-4.240805665525079348e+03
-3.736337251303801622e+03
-4.291850385403853579e+03
-1.424349786976092901e+03
-5.104832840121908703e+03
-3.991271378016896961e+03
5.633377939889331856e+02
-1.790982972404596239e+03
-7.731907159052906309e+02
-3.374230284498738001e+03
-3.721044965003977723e+03
-2.435581222105185589e+03
-6.717967719811404095e+02
-1.604703903868181442e+03
2.084675654220983233e+03
-1.343672898553018058e+03
-3.707951437388589966e+02
-2.092612488210567790e+03
-8.903850047561304848e+01
-2.474160649434815696e+03
3.869930512440756161e+02
-6.275827734250997310e+02
-2.617925335118713974e+03
-2.576034797993366283e+03
-6.128647531415945195e+02
9.696220578636612117e+02
-2.788552109988547272e+03
-7.413458014289200037e+03
-2.068131853975929062e+03
-2.265499045754695544e+03
-2.889463725192801576e+03
-3.198693336085331751e+01
2.365866450036364313e+03
-6.469191881055203339e+02
1.303684707289648031e+03
-4.962920922690269663e+02
2.252158678150757623e+03
3.159012422609207533e+03
2.911288244922476224e+03
2.397954653144940039e+03
2.255944947943573879e+03
2.142287772585072616e+03
1.549027478276065722e+03
6.051317765629612495e+02
7.050831980104443630e+01
-1.848042080389642017e+00
9.790832628052385189e+02
1.610296357058742615e+03
1.588702975999186037e+03
1.555483830438242649e+03
1.896788690690580552e+03
2.142321931747310373e+03
1.862704916248424752e+03
2.142511133177217744e+03
2.377861510049327080e+03
1.923718697158826672e+03
1.926002740579176816e+03
1.331809765310405510e+03
9.681439995804111049e+02
3.950731104340448496e+02
1.349257578637757149e+02
-7.676919372793973935e+02
-4.959948045385983278e+03
-2.952805143899071027e+03
-1.068523201302927646e+03
-7.746029530823022924e+02
-1.183134224167246060e+02
8.608763108211181816e+02
1.487572127240078544e+03
2.107739921613283968e+03
2.419923029410119852e+03
2.386412179656899752e+03
2.096168526898427444e+03
2.141957390838676019e+03
2.022204960195711919e+03
2.242521164537926779e+03
2.416952358430549339e+03
2.048854445251190555e+03
1.706865130878334185e+03
1.553672262443238424e+03
1.330790375447310907e+03
6.623070537234889343e+02
-5.978014811956671082e+01
-2.941719224288327155e+02
6.034645220993611758e+01
8.167075277488963536e+01
6.849020022929479410e+02
1.739177642840451654e+03
2.161887173440358765e+03
2.337014279576443641e+03
2.763570906923088842e+03
2.675516148290205820e+03
2.640839448671896207e+03
2.731522229451041312e+03
2.819498905331141032e+03
2.795718662061191480e+03
2.597249810216440892e+03
2.303100201773977005e+03
2.256235074928319591e+03
1.792591988455451428e+03
1.579145447933047535e+03
8.668477744663282465e+02
5.795917621480082289e+02
2.493586768397947253e+02
4.851400297591917479e+02
8.059033194125123600e+02
1.256630075303591639e+03
1.915307563953037970e+03
2.172890242598553868e+03
2.192477956730032020e+03
2.314069201792078275e+03
2.618597582160420188e+03
2.982087710195388809e+03
3.860568998630562419e+03
2.113984088558020630e+03
-1.401626711053160761e+03
-6.111245613882108046e+03
-7.142965434354628087e+03
-7.986737609000228986e+03
-7.863514911801404196e+03
-7.775351632497966420e+03
-7.390270104532876758e+03
-7.375243276058599804e+03
-8.620305008553164953e+03
-8.968330012851150968e+03
-8.347420826902209228e+03
-8.118627963721145534e+03
-6.987906697555220489e+03
-6.749247792207333077e+03
-6.874730010922059591e+03
-2.387249355206405198e+03
-4.348689230412819597e+03
-7.027045280378832103e+03
-6.800356648300071356e+03
-6.299621351294722444e+03
-6.126788937186565818e+03
-5.322767563612896083e+03
2.814530812042669936e+02
3.596859713703857324e+03
3.392502418541643692e+03
2.216406771801877767e+03
1.985603259293038946e+03
1.964055968403344195e+03
1.702785284381550582e+03
1.591818414547221437e+03
1.763174708131775105e+03
2.183962939982510761e+03
2.269255306650536568e+03
2.797068070946178068e+03
3.285483316892833500e+03
3.563519287479067771e+03
3.447232327325797087e+03
3.084687387257872615e+03
3.225934509700777198e+03
3.184958903689206181e+03
3.249809855740019884e+03
3.367610627540410860e+03
3.342329835608212761e+03
2.764991760768268250e+03
2.162666275991105522e+03
2.034482967682722347e+03
2.021445630887780226e+03
1.822496674125623031e+03
1.164679027207691661e+03
3.300848474011655185e+02
3.727642059433648001e+02
5.317810400203085237e+02
8.881889718622912824e+02
1.470064676990029056e+03
1.870440569984287777e+03
2.140396070894341847e+03
2.335979335454303964e+03
2.207209091200940293e+03
2.024134312861400076e+03
1.926763016240295883e+03
1.470245096838681093e+03
6.289221127416059289e+02
5.129924532165131268e+02
6.703292368945582211e+02
5.996703009706285457e+02
6.601784818485779738e+01
-7.142469446475662380e+02
-1.673948010886921111e+03
-2.397062541677878926e+03
-2.896592561088928505e+03
-2.772456411695658971e+03
-2.710562368157258788e+03
-2.740279300825043265e+03
-1.557723909084881825e+03
-1.077667369481463538e+03
-2.366498147253734317e+02
5.460665827796619851e+02
8.183301941167333098e+02
1.560091998219121706e+03
1.674399802296275539e+03
1.913305438493458496e+03
1.686886251260817289e+03
1.718151312925092043e+03
1.680153826567642227e+03
1.382887343412095106e+03
3.592982012048572074e+02
-7.895368885858939620e+02
-1.169572508186984351e+03
