-3.960155755487289298e+03
-2.789014900988564477e+03
-2.666776704983676154e+03
-1.568074414698839973e+03
-1.372772382591454914e+02
6.528164853837688852e+00
-1.641974648365909616e+03
-1.897050691469772119e+03
-4.290244504039361573e+02
-9.362838116246508662e+02
-1.137199390975722736e+03
-1.409327288659418628e+03
-1.860919597051866049e+03
-2.091888514622145522e+03
-2.277882500231520680e+03
-2.517403022605011301e+03
-2.690708032497529530e+03
-3.440052988715585343e+03
-3.846611301921147970e+03
-3.725695747978839336e+03
-3.058745324857949981e+03
-2.156152983680094167e+03
-1.934288361759192640e+03
-1.868538363784998637e+03
-1.525260031826831664e+03
-1.492755581807793305e+03
-1.266399582398337543e+03
-9.515280502422809832e+02
-6.794888937114720875e+02
-4.360899252497510759e+01
4.768506547598594807e+02
8.545082718704436502e+02
1.253004477694887782e+03
1.298967897183185414e+03
1.228115345818530841e+03
1.029125868533402354e+03
9.556941013207555216e+02
8.364625649098950362e+02
1.178147384456175814e+03
1.434446202888725338e+03
1.739014128777245560e+03
1.787559199808534913e+03
1.597712948946973256e+03
1.717176509232820536e+03
2.053715073968839079e+03
2.272016820792729504e+03
2.576855819485231223e+03
2.974934241399946586e+03
3.278925708985284928e+03
2.857553038413760987e+03
2.620464983006266721e+03
3.072421798461891740e+03
3.953230035650021364e+03
4.388741903794198151e+03
3.659612849812470358e+03
3.479581478215129664e+03
2.802415839390058409e+03
2.738872754791743318e+03
2.052802006684183198e+03
3.919893378381214006e+02
-1.594715433514939377e+03
-1.269476648827981080e+03
1.136361883616810246e+03
3.521655710893854575e+03
4.330176494156813533e+03
4.565782626845687446e+03
4.066293430020989945e+03
3.920464171991270177e+03
3.702209345534737167e+03
3.406410232282543802e+03
3.271902419071077929e+03
2.927638816231353758e+03
2.458390937941700940e+03
2.223003051542718822e+03
2.164352674941678742e+03
1.811258535572844266e+03
1.832614451204495708e+03
2.162489030033213567e+03
2.228751446609068353e+03
2.128226335235513943e+03
2.350800607781240615e+03
2.643499834717606973e+03
2.551311342018992036e+03
2.378094909000452390e+03
2.210724996504551655e+03
1.741205761076672388e+03
1.106601344681922001e+03
1.648476606423971020e+02
-1.740126391699519957e+02
-8.230209318280911930e+02
-2.901217445901149858e+03
-4.593522084236164119e+03
-6.232897879024740178e+03
-7.971402482548771331e+03
-9.401017529611724967e+03
-1.118749475128580343e+04
-1.363561017456666559e+04
-1.619234034371740563e+04
-1.927579616742063081e+04
-2.188976544320530957e+04
-2.227719802253966918e+04
-2.034505384561288520e+04
-1.799419099195770832e+04
-1.586940624852772999e+04
-1.442729419103019063e+04
-1.289585560599575547e+04
-1.121192976114558587e+04
-1.033435416839042045e+04
-9.402013409847209914e+03
-8.934722263794074024e+03
-8.035364834898115987e+03
-6.806894463679782348e+03
-5.843954644622875094e+03
-5.465146095850462189e+03
-4.498380260291679406e+03
-4.013271989398058849e+03
-3.145118539758795123e+03
-2.439592419796470494e+03
-2.297781919199792810e+03
-2.551976371691393069e+03
-2.043877612776989736e+03
-9.129631773171616942e+02
2.122161574538143114e+01
1.214024207409928522e+03
2.102585987973868214e+03
3.067373745275614056e+03
2.732834486455850310e+03
2.660278703588567168e+02
1.425304574384045509e+03
3.144051571372972376e+03
5.236410731245505303e+03
3.658631650400139279e+03
5.395292077133911334e+03
4.525854773667002519e+03
3.228606198220356418e+03
6.456737642669883826e+03
5.919649502620322892e+03
5.909759509856879959e+03
6.161609976060488407e+03
5.788534282277676539e+03
5.257735724665106318e+03
6.038512432654509212e+03
3.307280968586508607e+03
5.351533245208774133e+03
4.549666917773113710e+03
5.073145623896540201e+03
6.760323314211077559e+03
7.778556858355697841e+03
4.211345956446095443e+03
3.843820319012665095e+03
3.133346456451020003e+03
2.063473806591788161e+03
2.770534875813538292e+03
4.666857478630617152e+03
4.106746067919943016e+03
4.595608930512491497e+03
4.738886484716884297e+03
4.389883214438599680e+03
3.256077532197037272e+03
4.666950048305673590e+03
6.305752912115737672e+03
4.994785669155468895e+03
6.520502775147077955e+03
4.916391844397583554e+03
4.144640492053747039e+03
3.055430643808184868e+03
2.135827859928194357e+03
2.687065169520590189e+03
1.339388673804333621e+03
-2.728389262710265939e+02
-2.462275015359284680e+03
-4.639685801684096077e+03
-6.046745895084162839e+03
-7.198111679090282450e+03
-7.468436404116409904e+03
-6.827449961597108995e+03
-5.705862932396527867e+03
-5.354427197432336470e+03
-5.021875201209574698e+03
-2.894912154998191454e+03
-1.733259963492893348e+03
-1.948857897713921830e+03
-2.200395255356283542e+03
-2.613487378235729921e+03
-3.050967861768312559e+03
-3.243801218964915279e+03
-3.392989808082541913e+03
-3.544393129711090751e+03
-3.755934338404187201e+03
-4.165467598288259069e+03
-4.285744564380539487e+03
-4.081818495740461913e+03
-3.445823434266049844e+03
-2.991548368188352015e+03
-2.919931387194429590e+03
-2.762058973249829705e+03
-2.467901344656272158e+03
-2.456532750670582118e+03
-2.554901693992058426e+03
-2.679986263783423055e+03
-3.394854682979059817e+03
-4.255550287250162000e+03
-4.548026735285413451e+03
-4.525321455775382674e+03
-4.190514773789234823e+03
-3.538656904619006582e+03
-3.349777197335127312e+03
-3.072959994294203625e+03
-2.509284638739151887e+03
-2.091759196578050705e+03
-1.662442280177167959e+03
-1.650356378809995704e+03
-1.269454402274208178e+03
-9.498181043215519139e+02
-9.346575687822390819e+02
-1.185052587170184779e+03
-8.661943212966971259e+02
-9.583463623763096848e+02
-9.292668134797265793e+02
-2.671232180185290304e+02
1.141799158508264327e+03
2.395374518985623126e+03
2.948454842140362416e+03
3.159982828278224133e+03
3.464843800170738632e+03
3.962903050014743712e+03
4.078009699315670787e+03
3.644050105264913327e+03
3.315799364731846254e+03
3.368073612582692931e+03
3.099672009410190640e+03
2.768450341260368532e+03
2.525342067811878223e+03
1.797121991960689456e+03
1.021590615749722929e+03
5.355551525286780361e+02
9.238379989370307612e+02
1.444246034489194926e+03
1.683615287888364492e+03
1.320721539395575064e+03
1.070350444727199147e+03
7.693344496812266016e+02
1.855016379257265555e+02
-2.593621124924836749e+02
5.495477100895579952e+02
1.084078114460204233e+03
1.823098638721185807e+03
2.538435811219310381e+03
2.541977332328982811e+03
2.297606120684431062e+03
1.356140871432075301e+03
2.362077819984480076e+00
-7.109782224081518507e+02
-6.070093470711515238e+02
1.211879490980368423e+01
9.404764550443971416e+01
-4.200064403626584522e+02
-2.433208068114273033e+02
2.679702669125052580e+03
3.861915050202414932e+03
1.389032762740170710e+03
8.898587054391679203e+02
7.393758296288626752e+02
7.256317799210507928e+02
6.743961683961658764e+02
5.043426366212687526e+02
6.514830185075468307e+02
-4.928800886760953404e+01
1.068915468876176419e+03
4.896019118556886497e+03
5.801943622768684691e+03
5.207611448551909234e+03
4.775959468324052978e+03
4.003960033890318300e+03
3.837639869025604185e+03
4.028853716909531158e+03
3.549528407821680503e+03
3.135527427338540747e+03
3.076730501373647712e+03
3.375101975748944824e+03
3.015588872435107078e+03
2.864176868753015697e+03
2.739871623671296675e+03
2.392629206944652196e+03
2.196388470315557697e+03
2.334177113585055849e+03
2.328993684732854035e+03
2.268820280430288221e+03
2.079654906576233770e+03
1.148572254073375689e+03
6.296453989171000103e+02
2.659240322112207195e+02
2.245363468381405170e+01
-5.877449608258864373e+02
-1.275606519451521763e+03
-1.708061474709316826e+03
-2.013003843332983706e+03
-1.978412214211027276e+03
-2.647218567779276327e+03
-3.345323953282493676e+03
-4.027688670569520127e+03
-5.010246586291274980e+03
-4.890845375480876100e+03
-4.384386083337879427e+03
-4.785816564195686624e+03
-4.962029787290698550e+03
-5.897827713942341688e+03
-6.550112805092708186e+03
-6.420846535468533148e+03
-5.502994039176765909e+03
-5.685454773483895224e+03
-5.986961932271443402e+03
-6.962083963114080689e+03
-7.841697023008769065e+03
-8.432720951626262831e+03
-9.177899883069305361e+03
-8.773040031694306890e+03
-7.886936233435292706e+03
-8.295527594358258284e+03
-8.189850785029428152e+03
-8.014680384982520991e+03
-7.348849144851374149e+03
-6.361282504649033399e+03
-6.447790206586390013e+03
-6.815275899570306137e+03
-6.739583708662601566e+03
-7.034508256903611255e+03
-5.695877887011454732e+03
-4.972530005279812940e+03
-4.174245754292596757e+03
-3.089846607029611278e+03
-2.990149764473217147e+03
-2.901944878421972589e+03
-1.038052982693083550e+03
-1.093416965628594397e+02
-5.246028104703300414e+02
-1.395655072737166165e+03
-9.213756931639552477e+02
2.044725680580500295e+02
1.165135302406891924e+03
1.644811665685184380e+03
1.901690075587894171e+03
2.820966470165705687e+03
3.275866207235733327e+03
4.405660388122912082e+03
4.902395737485397149e+03
4.607263709112430661e+03
5.078662685012800466e+03
5.790716710168622740e+03
5.028578122517701559e+03
2.748530709001211562e+03
2.990785914294477607e+03
5.781549784576166530e+03
7.801068679834011164e+03
7.219600094068926410e+03
7.739398477995058784e+03
7.172641375629246795e+03
5.924286063960911633e+03
4.996306823683742550e+03
4.900832622264086240e+03
7.106957960814826038e+03
7.882746029463417472e+03
8.513425814965328755e+03
9.470082096690468461e+03
9.868836552753753494e+03
1.032778828220519972e+04
9.829073824265613439e+03
6.550817556109331235e+03
4.539119477737472153e+03
4.465066652729262387e+03
2.580801774045874481e+03
2.507345733958303754e+03
6.325835952783012544e+03
1.062431187363685058e+04
1.212988264741667990e+04
1.069970594728597098e+04
7.706901199415271549e+03
6.487453855343402211e+03
7.369312962935230644e+03
9.029487900650952724e+03
8.755981150881214489e+03
9.707836057540604088e+03
1.178406221547818132e+04
1.118582739339631189e+04
1.065432529652716585e+04
1.104330863871997281e+04
9.625700557383745036e+03
6.819427836217564618e+03
7.028745280211084719e+03
8.439394346478224179e+03
8.759566512252245957e+03
7.326286734887104103e+03
5.986135752685059742e+03
5.570330067612628227e+03
7.338782581263945758e+03
7.996346575170134201e+03
6.479045650536128051e+03
4.336810789899445808e+03
2.138419433328119339e+03
6.520666581537370803e+02
-5.877392286474740786e+02
-1.086879372073310151e+03
-1.355580003771284510e+03
-1.614083077518944719e+03
-1.248685446104667385e+01
-1.062591368699421082e+03
-2.506766675560137628e+03
-1.556164539581574218e+03
-9.318986640127449164e+02
-1.403234938593546076e+03
-2.832438526290506161e+03
-4.082527435178345058e+03
-5.053773004155871604e+03
-6.895373587829246389e+03
-7.757499469080597009e+03
-7.567266194301259020e+03
-8.214095640416737297e+03
-9.712320723585888118e+03
-9.517897042290860554e+03
-7.037297090159077925e+03
-4.355531937673007633e+03
-1.462922211987260653e+03
-6.316866697740077825e+02
-1.183060601219257705e+03
-2.380398914829518162e+03
-3.423849440476493783e+03
-4.291606778474710154e+03
-5.790822296582160561e+03
-7.596760540826411670e+03
-9.214740424694293324e+03
-9.860028663878256339e+03
-1.047903099081112305e+04
-1.104603504975920805e+04
-1.190436409949294830e+04
-1.222931169300333022e+04
-1.168720151633664864e+04
-1.134249838876328977e+04
-1.363948565120838248e+04
-1.516736777481563695e+04
-1.297444699281575413e+04
-1.091800836747056928e+04
-1.011030745659648892e+04
-1.004864814704314267e+04
-9.203446198621122676e+03
-8.618098011927659172e+03
-7.950858054969435216e+03
-5.381992790473203968e+03
-3.513813801234500261e+03
-3.392735278501580979e+03
-1.890026462595149269e+03
6.630292579036322422e+02
3.669218094195974118e+03
6.109238043366290185e+03
5.111748037440149346e+03
5.473493699791968538e+03
5.960189375028387076e+03
6.367542959157054611e+03
7.384324796519611482e+03
8.272243930713155351e+03
8.659965270446951763e+03
8.290189674632441893e+03
7.927624359769314651e+03
8.052946466825107564e+03
7.411929495685333677e+03
5.547326476870752231e+03
4.594867511045293213e+03
6.570321760046135751e+03
6.380418617186373012e+03
5.408987146505634882e+03
4.867785794516568785e+03
3.321590023451099569e+03
2.786210145859801287e+03
3.134484747272982531e+03
2.769228763988008723e+03
4.794311590394144332e+03
5.886500136347223815e+03
5.169519151469508870e+03
4.487150249578531657e+03
4.143280199731525499e+03
4.133775594369528335e+03
4.036526567142461772e+03
4.186408272115910222e+03
4.412254342389896919e+03
5.244944253581908015e+03
5.603450259026302774e+03
6.000696041166068426e+03
5.817619216522965871e+03
5.326223347929771990e+03
5.827352820023734239e+03
6.302929635072035126e+03
6.530014134013536022e+03
6.296646016652880462e+03
6.467802604099467317e+03
6.523458958922167767e+03
6.671591112997950404e+03
6.598181571749977593e+03
6.072259084269127925e+03
5.259803427683654263e+03
4.983858844293122274e+03
4.303448222748961598e+03
3.452597261582974170e+03
2.997203185400107486e+03
2.802292472883313167e+03
1.704906277489328886e+03
5.133380637928213446e+02
3.018006098213766677e+02
5.173926022291525442e+02
8.652937221553700056e+02
1.040684209314843656e+03
1.525657159165362373e+03
1.715329301392430125e+03
-5.817759724769014440e+01
1.498300365627168276e+03
3.106972897161797391e+03
3.498945605150070605e+03
3.240142887010525556e+03
2.396856722480679764e+03
1.454711973434121546e+03
9.594443746272237377e+02
8.832636412162709121e+02
7.824499006453895618e+02
1.019904267653050844e+01
-1.013250794487072653e+03
-1.809753304579564428e+03
-2.923000950964014464e+03
-4.110920935362780256e+03
-5.092482295804695241e+03
-6.030151577242474559e+03
-6.903768307856827050e+03
-7.120188413362067877e+03
-6.579111226727388384e+03
-6.658283399023942366e+03
-6.220508995809141197e+03
-5.953523686871559221e+03
-6.005044712156416608e+03
-6.444870144826208161e+03
-7.274715374184532266e+03
-7.627335868306442535e+03
-7.848488094641725183e+03
-8.171869429231946015e+03
-9.067131532672885442e+03
-9.645026529646464041e+03
-9.831353322125138220e+03
-1.037282192479581499e+04
-1.132216252268671815e+04
-1.160708542304327239e+04
-1.163525415769786741e+04
-1.157537138693128509e+04
-1.161117724731865201e+04
-1.194240606709015447e+04
-1.228471584270599487e+04
-1.202776422437338078e+04
-1.111641542785054844e+04
-1.054639679648411220e+04
-1.020342225032607894e+04
-9.842197662054855755e+03
-9.780490186048164105e+03
-9.833006627768376347e+03
-9.217485471311911169e+03
-8.373807799954507573e+03
-7.971764621178446760e+03
-7.630053242615998897e+03
-6.949527550996996979e+03
-6.421816903500094668e+03
-6.324682125316692691e+03
-7.051048927729348179e+03
-8.973762851091825723e+03
-1.115449804918735390e+04
-9.424047678641796665e+03
-8.401053160066778219e+03
-7.698319161880719548e+03
-6.283748427213111427e+03
-5.549123179400379740e+03
-5.016381768028847546e+03
-3.573435687525824051e+03
-2.023949204743377095e+03
1.395173939257584152e+03
4.319037181297695497e+03
6.025757512265755395e+03
7.447459217062521930e+03
8.279226686170624816e+03
8.750167141654685111e+03
9.430391262490808003e+03
1.015101101909828139e+04
1.033602337832286139e+04
1.068554053748354272e+04
1.106858549119879899e+04
1.154419372245884915e+04
1.197947174365813771e+04
1.267548481127294508e+04
1.304610855327203717e+04
1.346040045010080576e+04
1.357851828993039271e+04
1.303355375783508498e+04
1.308743987101591665e+04
1.347912099281786686e+04
1.391562924024463973e+04
1.435795464308674309e+04
1.454005375286913659e+04
1.492986683638081558e+04
1.606436125390868256e+04
1.597646393968798657e+04
1.546319012996360107e+04
1.594256816849281131e+04
1.563345470494420442e+04
1.444675520895441332e+04
1.392749321828406573e+04
1.376177621759083740e+04
1.325941381815466775e+04
1.246910263810361721e+04
1.205475183589404332e+04
1.158149919609932658e+04
1.111020342509733018e+04
9.888819161480967523e+03
8.799286128716334133e+03
8.445464785043719530e+03
7.871184264968708703e+03
5.925167993517012292e+03
5.491322623061099875e+03
5.056452876866889710e+03
4.019377949217534479e+03
2.799023132204162266e+03
1.293252101490279301e+03
3.270162309428951062e+02
-2.326289735156128984e+02
-1.060850294585089159e+03
-1.840995126164184512e+03
-2.937081711791080579e+03
-3.861359407779234971e+03
-4.956308367358808937e+03
-5.759277310689428305e+03
-5.952292302849757107e+03
-5.776253167845638018e+03
-5.615142699097470540e+03
-5.868272873180628267e+03
-6.559001635618231376e+03
-7.302562148196738235e+03
-8.079024898182462493e+03
-8.907688816482204857e+03
-9.140910930322885179e+03
-9.589709656585338962e+03
-9.877162252729169268e+03
-1.022563664272014830e+04
-1.058120616380957472e+04
-1.115390044944490182e+04
-1.151710071800399055e+04
-1.155211830059472413e+04
-1.146604942466271314e+04
-1.135897630504621702e+04
-1.114409676981385746e+04
-1.072561218024769914e+04
-1.099879885756984368e+04
-1.061877121353744042e+04
-1.022554195556606828e+04
-1.010715555489356666e+04
-9.940722378724589362e+03
-1.002743989349522781e+04
-9.782519970081095380e+03
-9.535139946259807402e+03
-9.220429884654646230e+03
-8.628528343747075269e+03
-8.464852396472355395e+03
-8.424436797049384040e+03
-8.846416642670161309e+03
-9.330068084698741586e+03
-9.369525717907758008e+03
-8.950844753305515042e+03
-8.577013268847505969e+03
-8.094089624057010951e+03
-7.793281302663886891e+03
-7.518612200772873621e+03
-6.904202624382995054e+03
-6.186197909653541501e+03
-6.181619887265820580e+03
-5.518436282544615096e+03
-4.920814160130481469e+03
-4.414081916555051976e+03
-4.313427893902826327e+03
-4.399020870997448583e+03
-4.356825485262231268e+03
-4.098766770969379650e+03
-4.373796078079816652e+03
-4.415991362389871028e+03
-3.930368337464197339e+03
-3.764848534528504842e+03
-3.758414120283570810e+03
-3.560031987250877592e+03
-4.222740209190102178e+03
-3.908555092959149079e+03
-3.095441136977456154e+03
-2.643340579167822852e+03
-2.332300107454872432e+03
-1.912378585922472666e+03
-1.702607117984640809e+03
-1.417555464835677640e+03
-1.136125422215876142e+03
-7.646245330308478287e+02
3.059574909802494176e+02
1.931755645930448964e+03
2.448851746237447969e+03
1.760223725773849083e+03
1.514949969678450543e+03
1.459207791317298643e+03
1.542756653733692474e+03
4.006646546281518226e+02
1.515436648296710231e+01
-2.987788569355697632e+02
1.579415796777386163e+02
7.742234102462143710e+02
1.075024219127579954e+03
1.702881905847776125e+03
2.390870380062502591e+03
3.092064896805745320e+03
3.946555882604699946e+03
4.445359350953735884e+03
4.661598537362393472e+03
4.824459132837267134e+03
5.036117038573235732e+03
4.892673373194587839e+03
4.711300564319277328e+03
4.671176353342164475e+03
4.675559193697199589e+03
4.748654723687723163e+03
4.389072796095896592e+03
4.288103985459311843e+03
4.278108775022576992e+03
4.088199533336865443e+03
3.738537053268623822e+03
3.450179973384323148e+03
3.792222156217765132e+03
4.550862777768499654e+03
4.796080447994368114e+03
4.338249253859133205e+03
4.022453070867271890e+03
4.369694437257583559e+03
4.395084160578514457e+03
4.476746912829004032e+03
4.746777640402913676e+03
4.678246587814511258e+03
4.022287014558453393e+03
3.506984908655473646e+03
3.010466341295221355e+03
3.003881167208580791e+03
3.684322917060589134e+03
3.012967523043645087e+03
1.770883734885883086e+03
9.741693940775329565e+02
7.418877749045229848e+02
6.171572464207438315e+02
1.321010829854967596e+03
2.288557396460801556e+03
3.067861863309209184e+03
3.654010698127813612e+03
3.885126069231137990e+03
4.302315094399212285e+03
4.200623932555684405e+03
3.800158051380007691e+03
2.470021866600023714e+03
8.522500385589877681e+01
-3.070206630851206683e+03
-3.881139530877557263e+03
-3.872505643575412705e+03
-4.222348601799882090e+03
-4.621654297339005097e+03
-5.032407396187105405e+03
-5.611655750362189792e+03
-5.746461137317233806e+03
-5.484877656350862708e+03
-5.408739506951977091e+03
-5.243322644342532840e+03
-5.107686248661932950e+03
-4.908820869598287572e+03
-4.312707634334570685e+03
-1.389323689975674370e+03
-2.443694675809306318e+03
-3.269930258859866626e+03
-3.018129615057095634e+03
-2.878356551376084553e+03
-2.455646110325365044e+03
-2.568092669942550856e+03
-2.487804559654347031e+03
-2.483819400181606852e+03
-1.562191904653613392e+03
1.402964149708697050e+03
2.415541322562909045e+03
2.301366549523673257e+03
2.379297109942195220e+03
3.090154409382064841e+03
3.593837047348125452e+03
3.566147320334629512e+03
3.835960311329161414e+03
3.660156205611656333e+03
4.205567187949008257e+03
3.853034088319878265e+03
3.216376627522268336e+03
2.886421914136535179e+03
3.297000998354686544e+03
3.595002896974568557e+03
3.330238752500863484e+03
3.119483960874640161e+03
2.746560533768471487e+03
2.342399947040019470e+03
1.755778176477641409e+03
1.642466000694503919e+03
1.398259974596479879e+03
1.089962127585589542e+03
1.253402672123801949e+03
2.335397575297263302e+03
2.005698570566828494e+03
1.810002610103940015e+03
2.342080205081775603e+03
2.730753963328435930e+03
2.740758369213524475e+03
3.255956424233502275e+03
3.614117015591819836e+03
3.455017617667035665e+03
3.416441148453156984e+03
3.410202515339467936e+03
2.391103753341114498e+03
2.225916147687642024e+03
2.430383416522514381e+03
1.487322898249924719e+03
5.516278564044816903e+02
8.442759143730603100e+00
-7.653329977900406220e+02
-2.681511052581099648e+02
3.628951810169887722e+02
9.664109235028837475e+01
5.287276104423347078e+01
-2.625427738452514177e+02
-9.656471124753752520e+02
-5.918000370476596572e+02
-2.941392214486813259e+02
-3.098332002923887671e+02
1.391689489530762955e+02
1.334588378508842652e+03
1.295233316927644410e+03
7.969717324376106262e+02
7.167070466688860506e+02
3.813745960305896574e+02
6.178293689973303344e+02
9.750236126103044398e+02
9.859125496622398259e+02
1.132456225335075942e+03
1.041584964668423027e+03
1.107267091259362132e+03
1.002457963236548835e+03
4.721091325904521909e+02
1.542228099120492857e+02
-7.182013408194681148e+00
8.916567663122426879e+00
3.650553302447228532e+01
6.145769438960959405e+02
9.291711227079240416e+02
6.993205844063749055e+02
7.071094140608186080e+02
2.566652985838222776e+02
5.006765794585441398e+01
6.351218166831378653e+01
2.561445303179947928e+02
3.104629701699186484e+01
-3.736054439166368297e+02
-1.336596589650110445e+03
-2.194794018288864208e+03
-2.420169785541507736e+03
-2.602617086473168911e+03
-3.062897196124959009e+03
-3.047859759056126222e+03
-2.424431094850530371e+03
-2.016424529157714915e+03
-1.822582806809474732e+03
-1.891723239301931471e+03
-1.916730135529762720e+03
-1.204310991983097665e+03
-9.171085771708017091e+02
-1.391014181488151962e+03
-2.014732019983658347e+03
-2.261937509617504020e+03
-2.239334988738082302e+03
-1.817651919730142708e+03
-1.935576506828040920e+03
-1.543729904595428479e+03
-1.832501417020623194e+03
-2.377294509247407859e+03
-2.455981569544178456e+03
-2.040630760464468267e+03
-2.284965082578811234e+03
-2.730655910587341623e+03
-2.590554760121143772e+03
-1.980539387289568594e+03
-1.710288480237238673e+03
-1.561493767733995583e+03
-7.918211962417564109e+02
-9.200283210185449434e+01
6.782441178551749772e+02
9.261058731379054052e+02
8.906880942238685748e+02
2.378225531642556234e+03
2.688248443306164972e+03
2.548015385563378459e+03
2.463999384531306077e+03
2.569224333782313806e+03
2.495195968410861951e+03
2.723003657094946448e+03
2.330978094571666588e+03
1.272334369091893677e+03
3.783070475405878028e+02
4.782841692873406032e+02
5.965588934167622028e+02
4.784375601221130410e+02
9.110395605951466678e+02
1.615614110679969826e+03
2.347277686341481058e+03
2.482464292525925430e+03
3.033490859900170108e+03
4.345431929819817924e+03
6.265768512950331569e+03
7.223573884337228264e+03
7.211114343531445229e+03
6.524858811619718836e+03
6.324829740943341676e+03
5.961549562919120945e+03
5.380087440792255620e+03
5.281812584357847300e+03
5.898865636855571211e+03
5.360646312445225703e+03
4.550259609039245333e+03
4.032139795454348132e+03
3.840243444666582946e+03
3.677883506774377111e+03
4.004303525597645148e+03
5.001655203560620976e+03
5.693160572915302510e+03
5.938024931774752076e+03
5.854460660184001426e+03
5.354477927546686260e+03
5.052663307950916533e+03
5.068097397340873613e+03
4.382756407838898667e+03
3.693122066963694124e+03
3.305258385461162106e+03
2.560356386176753404e+03
2.046550204557155439e+03
1.778976234797764846e+03
1.131999737101263236e+03
7.117065266330911300e+02
3.992041854643595116e+02
-4.173565047609723706e+02
-1.563807082409209670e+03
-3.952081891164302306e+03
-4.470054326951006260e+03
-3.895635542956262725e+03
-3.891722431699321987e+03
-3.910187120373479956e+03
-3.695005853166569977e+03
-3.770167627143394384e+03
-4.072590125754751170e+03
-4.385114625549569610e+03
-2.953680361318005453e+03
-3.110232911163040626e+03
-3.664734670000334972e+03
-4.111003371060868631e+03
-4.306064499653335588e+03
-3.052824056641080460e+03
-2.944301345985478292e+03
-4.863481743828360777e+03
-4.827269999868303785e+03
-3.956702973721297894e+03
-3.216812230017177171e+03
-2.693634934798490121e+03
-2.724150090321782500e+03
-2.711417420042597314e+03
-2.282412796470172452e+03
-1.976168362679446773e+03
-2.196692391371359918e+03
-1.440894808943944099e+03
-8.367906757848418238e+02
-7.146983744269313377e+01
2.542049784071503836e+03
1.652717992981327370e+03
5.086000320015123179e+02
1.201685987375674131e+03
1.965858549292519228e+03
1.813108763963203728e+03
1.289390977392654577e+03
9.565986638438945420e+02
6.285462577078254753e+02
8.830432578085446949e+02
4.164976056103090741e+03
5.703240035283347424e+03
5.656675104343955354e+03
5.589078382599805991e+03
5.831320414894757960e+03
5.624207239729312278e+03
4.910534209795643619e+03
4.356154154618529901e+03
4.060896646046018304e+03
3.509581315164306034e+03
3.543076478163291085e+03
2.756127988785508933e+03
2.348461761272303193e+03
2.506964358666881708e+03
2.867462827862975246e+03
2.740717360977589124e+03
2.504524997018384511e+03
1.913682624709128504e+03
1.492845780530008142e+03
9.447273925571133759e+02
2.360828968063158584e+02
-4.513720164745157035e+02
-1.179870212525282568e+03
-1.799718850959749261e+03
-2.383195916059405135e+03
-2.668635909122749126e+03
-3.195267096707914789e+03
-3.764157156455425138e+03
-4.144283917871927770e+03
-4.375069403158078785e+03
-4.596887010705047942e+03
-4.280955023449173495e+03
-3.406595432259023255e+03
-3.002115234940458322e+03
-2.746751626392498110e+03
-3.176944203318557356e+03
-3.418084833131196319e+03
-3.554412419434027925e+03
-3.520199692597327157e+03
-3.806822347040032128e+03
-3.919567610279755172e+03
-3.766924328443573813e+03
-3.434631223283084637e+03
-3.331591663262186103e+03
-3.178175712233792183e+03
-2.795759508371388165e+03
-2.448684648583527633e+03
-2.590332343565860810e+03
-2.938062421103311863e+03
-3.059178166172338024e+03
-2.829056110997638370e+03
-2.581120346065163631e+03
-2.276728856653851381e+03
-2.746285694965548828e+03
-2.904217519459488358e+03
-2.783943444649385583e+03
-2.655888393942399944e+03
-2.583396482395362455e+03
-2.181784285573648503e+03
-1.457421285446652291e+03
-1.147620070905366219e+03
-1.309811490869777117e+03
-1.330332506333818856e+03
-1.309531072424921604e+03
-1.392764990119619142e+03
-1.350413210663904920e+03
-1.265747178342790903e+03
-1.420042785607658743e+03
-2.015753240708342901e+03
-1.710214215710949020e+03
-1.223756367625209350e+03
-8.777080100928586717e+02
-4.514251749841586729e+02
-3.323025300556963657e+01
5.185794438258409400e+02
1.329675859324498788e+03
2.332692418376300338e+03
3.034390142784741784e+03
3.328403312963733242e+03
3.897362876258158849e+03
3.756963930191791860e+03
4.167898375624764412e+03
4.033854249924110718e+03
4.276578039629569503e+03
4.689785129495697220e+03
4.959194180892973236e+03
5.174563611458366722e+03
5.323730585066366075e+03
4.389398070079866557e+03
2.663284532225050953e+03
3.191939890815372110e+02
9.091462646168139372e+01
-1.967439562214010778e+02
-4.539801209680674106e+02
-2.661785649596148460e+02
-3.436552513743795316e+02
-3.235622947379795846e+02
-6.602035661623536953e+02
2.242468489360535102e+02
-7.073164675100582599e+02
-1.587043175969863341e+03
-6.301493389131718459e+02
3.355242682292987411e+03
5.220849670305637119e+03
6.361471089343048334e+03
6.854987639608852987e+03
7.043325158488962188e+03
7.833346782482265553e+03
7.952949427176398785e+03
7.786997342298095646e+03
7.928354852348200438e+03
8.306997887832925699e+03
8.526766662782265485e+03
8.839512473878718083e+03
9.343180391401330780e+03
9.233780018476127225e+03
9.334394331083927682e+03
9.404060115113588836e+03
8.784787291035932867e+03
8.069418375135025599e+03
7.016941783930828933e+03
5.826289491591882324e+03
4.165366152675872399e+03
2.170235687616367613e+03
7.769839375869707965e+02
8.067334669355417986e+01
-4.567034797081002466e+02
-9.859997621907448320e+02
-8.540873335394903734e+02
-5.849366965167198487e+02
-5.646372091874218313e+01
1.255524084509279646e+03
1.723156664795146980e+03
1.357623611571784522e+03
1.712126362485032814e+03
2.371570517839433705e+03
1.737011250428074618e+03
1.042660309822018689e+03
2.287318431059186139e+02
-1.026617147468527037e+03
-3.127238661930759463e+03
-4.844023583275181409e+03
-6.774838142413467722e+03
-9.421488817112662218e+03
-1.184756302071213577e+04
-1.444676086054476400e+04
-1.743477709576064808e+04
-2.155743937201915105e+04
-2.568665313103427252e+04
-2.893619090764040811e+04
-2.844285371415014015e+04
-2.299428219242175328e+04
-1.850605010352455429e+04
-1.764767816319530903e+04
-1.683883220817456095e+04
-1.481322424950973800e+04
-1.339587489510774139e+04
-1.332458684879538669e+04
-1.249032250409715743e+04
-1.141573507888098902e+04
-9.829408672077037409e+03
-8.204903778409130609e+03
-6.313908918691843610e+03
-5.552139500768355902e+03
-6.645026087551016644e+03
-9.152292482090375415e+03
-8.732936444884904631e+03
-8.779831015948977438e+03
-6.212404811771340974e+03
-7.163141313258582159e+03
-5.075695224026451797e+03
-4.969819545515700156e+03
-4.041328429612866330e+03
-3.842951757343274494e+03
-4.186323373994782742e+03
-2.801183612896168142e+03
-1.659218575110538723e+03
9.270414362547097653e+02
2.018042059454270657e+03
2.732146259682796426e+03
1.342669464092273302e+03
1.547809848839752931e+03
2.806813367157697030e+03
1.547823062557696858e+03
3.135130525017442778e+03
2.720048760480100100e+03
1.743948651365509477e+03
3.335235342337940892e+03
1.220357080524590856e+03
2.096557677350023368e+03
8.440725134099667457e+02
1.455221520186874386e+03
6.382722499533196014e+02
2.029432269372844530e+03
1.641130758117171808e+03
4.013913702910179381e+03
3.443105941422821616e+03
4.162903031589889906e+03
4.561495576101168808e+03
4.814914147147286712e+03
5.238284078400928593e+03
5.646001295061702876e+03
5.765378860210255880e+03
2.738616001916515870e+03
4.559970818506948490e+03
5.440666264294290158e+03
2.711967424042127277e+03
3.668124859627336264e+03
3.776373106323861066e+03
3.793904274863642513e+03
3.040813252296556129e+03
1.801296953959272287e+03
