2.979175409488414061e+03
4.576215625924495725e+03
4.734102015607179965e+03
4.629866032989084488e+03
4.220514642460955656e+03
3.740109734527960882e+03
3.337629212245073631e+03
3.333091615373286004e+03
2.759564188226041551e+03
2.306058247834519079e+03
2.624516173481564238e+03
2.717048494211281195e+03
2.366706794629442356e+03
1.934491825071256017e+03
2.178413058764839207e+03
2.356538345802913227e+03
2.449907411145647984e+03
2.714696293506322490e+03
3.045088635763369894e+03
3.287112641765071658e+03
3.887459794449448509e+03
4.371290386081896031e+03
4.149886440283948104e+03
3.652920614012884471e+03
3.404869701241344956e+03
2.881696051379998153e+03
2.269205024599459193e+03
1.029249750566135162e+03
1.406167685819201552e+03
1.282974898289089879e+03
1.065665104184988650e+03
1.420196415545115769e+03
8.146666956161948292e+02
5.560279030197995098e+02
4.612107094037293109e+02
2.389015400157012152e+02
5.105908826066822144e+02
1.031546895421004820e+03
1.719120966139844768e+03
1.927226268312841739e+03
2.356048213693051821e+03
3.076244317711139502e+03
3.558166177245172548e+03
2.948873504917195078e+03
2.376527633574673018e+03
2.054166385111784166e+03
1.987740064562873613e+03
1.645781166303586588e+03
1.393679068847239932e+03
9.594020442008850296e+02
6.084548161301548816e+02
7.900493497430470597e+02
5.659476337778324933e+02
1.915848185206384358e+02
1.327634998626689082e+02
1.623723208149721415e+02
3.583625824052525104e+02
5.776643620032316448e+02
1.074278815884002142e+03
1.802280567319647616e+03
2.038695431374353575e+03
2.228470395837224714e+03
2.430638123450185503e+03
2.462175508475343577e+03
2.371042514013923210e+03
2.192283079547085435e+03
1.808823975989525252e+03
1.400626914236232324e+03
1.152675959357654165e+03
8.769368766025938839e+02
4.963767064292051714e+02
5.269638437499583006e+02
3.276982276774972433e+02
-1.994477542544339315e+02
-7.434559898937576463e+02
-8.893859364158954577e+02
-4.962858525521975253e+02
-3.821970545880042209e+02
2.409179995994456362e+02
9.650749092840749199e+02
1.129253670256737450e+03
-2.595405577643948050e+02
-3.230310912627652215e+03
-6.808083332720544604e+03
-6.256894600080719101e+03
-6.698714695838482839e+03
-8.001610924305601657e+03
-7.796619078025275485e+03
-8.099785921872664403e+03
-8.094101719577949552e+03
-7.416580681624012868e+03
-1.962285419087421360e+03
-2.349196519302211527e+03
-7.999188962675227231e+03
-9.200478753124221839e+03
-8.586987139192204268e+03
-7.885844512057607972e+03
-7.391984131379688733e+03
-3.702454827406400909e+03
-2.396212128502782434e+03
1.427701257144293834e+02
3.102510263597672747e+03
1.669908725239417890e+02
-1.767453126889804196e+02
-6.687069304133962078e+02
2.032026757944286146e+03
1.312452693748026377e+03
2.454570389508687640e+03
2.195312442486927011e+03
2.186767163788087601e+03
1.962911064467753476e+03
1.683736315918437185e+03
1.634227136864500153e+03
1.356402161832951379e+03
9.672221333668080661e+02
9.436918811713378545e+02
1.201840152809690380e+03
1.496586140156831561e+03
1.374922486914854517e+03
1.936941490093101720e+03
2.643683054381111560e+03
2.588160121793535382e+03
2.843411246217274766e+03
2.749437593441926310e+03
2.533278473890023633e+03
2.275912641128164069e+03
1.907330342646538838e+03
1.510559381459225733e+03
1.030625919788602459e+03
5.435093925874083425e+02
5.812360509959207775e+02
3.398383205471899373e+02
-3.068313192673361556e+01
-1.683413885738326030e+02
-4.821308855939272462e+02
-5.119889421780471253e+02
-3.879497603798085379e+02
9.999224775036818613e+00
2.878927797368996266e+02
6.307279821639363036e+02
9.276010623709447600e+02
1.172599005777630737e+03
1.485765371622803286e+03
1.408102944870937563e+03
1.321530960244697781e+03
9.299850253644053737e+02
7.356873684108578573e+02
6.020796919838302301e+02
6.463562718441725110e+02
3.651944162625188710e+02
-9.062245897792844573e+01
-2.958017208239285765e+02
-3.656130912394978054e+02
-1.033348571385850391e+03
-1.582342794723574343e+03
-1.749003994633362481e+03
-4.750121146733345995e+03
-4.550752355064421863e+03
-3.204159527576796336e+03
-1.103239532686909143e+02
8.862899928427762006e+02
1.280610585290140989e+03
1.448527107806025469e+03
1.545094540734468637e+03
1.150354417785290934e+03
8.082657211245904136e+02
3.787723561778862518e+02
4.988320562788430834e+01
7.355548063830806882e+01
5.590618190403457533e+01
-4.000785904362805354e+02
-5.603929658872494883e+02
-9.080581135279585396e+02
-1.047029025911501776e+03
-1.262303099723435480e+03
-1.308874472596162377e+03
-9.507096307886929480e+02
-5.808638864248381424e+02
-2.263228870446358485e+02
2.459638877447798109e+02
8.020546060992796811e+02
9.179809246663166959e+02
7.777336129312097910e+02
1.091347433476996912e+03
1.522806811375529833e+03
1.020085522588359368e+03
7.742099165287975211e+02
3.951979492505236635e+02
9.403105559379811496e+01
2.961757064355408531e+01
-3.302380083019188817e+01
-1.489001116841583325e+02
-2.069856635745199469e+02
-6.662927180261929152e+02
-9.058513580147828179e+02
-1.259706762463073801e+03
-1.212834564649391496e+03
-9.112531899548592946e+02
-3.679240164612394892e+02
1.951838054769781081e+02
6.340487363447731468e+02
9.946811815411497264e+02
1.408106162274280223e+03
1.625343382098713391e+03
1.613262468342665215e+03
9.478216515956995636e+02
6.100198283176159748e+02
3.468616705284975978e+02
-1.368294248555042181e+01
-2.117078638280441965e+02
-8.252034876766790603e+02
-9.481778422931639625e+02
-4.835409044313421418e+02
-5.333623725387349168e+02
-6.457249893091695867e+02
-7.406685515076534330e+02
-4.812439886421162782e+02
-1.294822717907719039e+02
1.975365134610669315e+02
-9.631283251959539484e+02
-3.057630956079883163e+03
-5.187341107334310664e+02
1.603900412862567237e+03
1.636212955560564296e+03
1.067231653644951621e+03
1.697692448462126549e+03
1.456324911765384286e+03
1.008039195249207069e+03
6.418175464855305563e+02
6.577549062184559716e+02
6.112176437650293792e+02
5.397914141190244663e+02
6.344778716200232793e+02
1.788099160851824365e+02
-5.746754887968971381e+00
-2.700816069039911440e+02
-4.860018597254840955e+01
6.188337682080472177e+02
7.838494903035167454e+02
1.222658970605080867e+03
1.749836219301011170e+03
2.451654715272955400e+03
2.744551227711006959e+03
2.793938511466951695e+03
2.592017874626100820e+03
2.017119602966758066e+03
1.924804052214876265e+03
1.834479708617078813e+03
1.542555407653718703e+03
1.140299227339463187e+03
1.126097055326093596e+03
1.363306859914784354e+03
1.106527592197110835e+03
7.987112043129366157e+02
1.697860389954183518e+02
2.331022463874483037e+02
3.861032659362466575e+02
5.970467001508249041e+02
8.358795497313965370e+02
1.396500541750106095e+03
2.107916982268315223e+03
2.895212230441441079e+03
3.295414675580536823e+03
3.085405830497309125e+03
2.847063982472959196e+03
2.847450983919487953e+03
2.289602033584188575e+03
2.126456075993577542e+03
2.016946351143424863e+03
1.632052114915477887e+03
9.508186750650376098e+02
8.382183760311445440e+02
8.942232858545286263e+02
5.388108317545832051e+02
-5.803123174688990815e+01
-2.318259202474297581e+03
-5.986859529244488840e+03
-9.804911256234632674e+03
-9.294478176307300600e+03
-6.119465137336970656e+03
1.374226418694177255e+03
2.696675811537626487e+03
-2.680049314076733026e+03
-5.866032791895006994e+03
-5.593097767430781460e+03
-5.734225478965227921e+03
-6.043635084475386066e+03
-6.846354906069854223e+03
-6.824399719873993490e+03
-7.416669912560529156e+03
-7.408161821890929787e+03
-6.713890550264615740e+03
-5.745847119919971192e+03
-2.861983952701917133e+03
-5.886269717413912986e+03
-7.220726855324960525e+03
-2.380301966030415315e+03
1.079080719916544695e+03
-5.067656035927171615e+03
-6.607473906329127203e+03
-6.026237452743018366e+03
-4.842951128514512675e+03
-4.126507111976003216e+03
-1.985830135487791040e+03
3.935143255301970839e+03
3.710416607223778556e+03
3.096670007150563819e+01
9.037933415007797748e+02
-4.471449431719024119e+02
1.982316765859002771e+03
2.750212062189922108e+03
2.715540495425694189e+03
2.724306637473088358e+03
2.257529819118783962e+03
2.031392450109987749e+03
1.956914137251281318e+03
2.252030773695483731e+03
2.336781239904022641e+03
2.700136694152044583e+03
3.002130390524527684e+03
3.310873342851409689e+03
3.828442874441757795e+03
4.075828044066320217e+03
4.015228461913382489e+03
3.712746902492751360e+03
3.286269692280529853e+03
2.843766243977833710e+03
2.246318317580553867e+03
2.053976778912577629e+03
1.746785479314269196e+03
1.615708979800928091e+03
1.659808604529729337e+03
1.366172683314582400e+03
8.137250060303928194e+02
6.435862216932963520e+02
6.667918785145269567e+02
6.692230870734628070e+02
9.858938816253219102e+02
1.470976336486111450e+03
1.510065125978588867e+03
1.803375208496153391e+03
2.497516297240482800e+03
2.805579658290424959e+03
2.823748281530233271e+03
2.441953247657691008e+03
2.136327511452355793e+03
1.956944408733659202e+03
1.180674192148822385e+03
-6.938017103001607211e+02
3.208168242815570466e+02
3.515160155437184812e+02
1.072911808960984388e+02
4.519031290577963489e+01
-1.962798512021783282e+01
-3.123299492868071638e+02
-5.424472499365758722e+02
-5.602581575670129723e+02
-2.734062666407593838e+02
-8.737561705635957310e+01
5.379198346077190536e+02
1.207342611523831238e+03
1.629769387887037965e+03
2.027844820583689625e+03
2.170829302495170850e+03
1.627541280874609811e+03
1.274008116359371570e+03
1.221307699102819015e+03
1.052574597984058073e+03
6.827533429377820084e+02
5.786609776766364348e+02
2.002580065691605569e+02
-7.142565911633066378e+01
-2.342177674410941890e+01
-1.817184971565132514e+02
-7.862719564210948420e+02
-8.791052147582548741e+02
-8.413395493728219208e+02
-6.439517502528707382e+02
-2.768698254420655189e+02
-9.812884541237231417e+01
3.122906446471924369e+02
3.623541594591341664e+02
6.961296487947014384e+02
8.765793770166859531e+02
9.846416100414157881e+02
7.403270761076670397e+02
2.406570343136112342e+02
1.414890529938005841e+02
-6.821193339911526721e+01
-1.194818648047670706e+02
-3.703253986924001993e+02
-3.156673331833607676e+02
-2.976428451097123684e+02
-2.302986501554631786e+02
-6.186425951751855337e+02
-1.271581540403964027e+03
-1.314196037961408138e+03
-9.324935226992608932e+02
-2.944215249179885632e+02
-5.506103856635395033e+01
-7.624995888099057311e+02
-3.163833179893149008e+03
-7.018093566745053067e+03
-8.316303625702495992e+03
-8.041500102024951957e+03
-7.794657148457700714e+03
-5.086779886150883613e+03
3.501256124690577280e+02
-3.492993731927981116e+03
-5.447252252070448776e+03
-6.026168656332878300e+02
-1.389039184762102650e+03
-1.321620612830724667e+03
-1.522434690359077649e+02
-1.079836975559454686e+03
-4.657549421360617089e+03
-2.010780810550213573e+03
-2.383646965456677549e+02
2.036864256412939653e+02
8.732867313515462229e+02
2.016522080487512085e+03
2.602465005634664067e+03
2.870024180492388041e+03
2.943204282605479875e+03
2.410003599545034376e+03
2.345316716449383421e+03
1.810123239017503238e+03
1.612476349870469676e+03
9.863063213149723651e+02
7.635913466554303568e+02
5.873001780717784186e+02
5.723909225828181206e+02
9.018955120298550128e+02
6.188589948527724118e+02
3.231625466097837034e+02
1.687044787407450599e+02
2.775652000821806382e+02
5.627921023891306049e+02
6.822779240637370322e+02
9.300384661658108598e+02
1.084156635118804616e+03
1.352589041132431248e+03
1.847349371482509923e+03
2.375370102435075296e+03
2.866693063996777255e+03
2.547385993500019140e+03
1.963403568681162142e+03
1.568747028040159648e+03
1.352397871703235978e+03
1.127312655873217409e+03
7.135123321453285143e+02
-6.895619147856349684e+01
-3.731324174585838023e+02
-6.340168586242471065e+02
-9.305146595261959419e+02
-8.166392485192616277e+02
-9.184500504536422341e+02
-5.189031445436118020e+02
3.569983151955870539e+02
1.611225514502461920e+03
1.736796016769349535e+03
1.539715988456359810e+03
1.652107410423474448e+03
1.643959453252329013e+03
1.571342295799728390e+03
1.341292550469044272e+03
4.868163085488903334e+02
-8.970386067773649756e+02
-6.563172484335085528e+02
-1.450244549830229914e+02
-4.241374075822654390e+02
-3.496920497257709144e+02
-4.946867071201344288e+02
-4.590947923207662029e+02
-9.468381874091743384e+02
-1.375008718652542711e+03
-4.256455986160123757e+03
-4.751657958160070848e+03
-2.878139794159443227e+03
-3.807944692155198027e+03
-2.911898381802914173e+03
-2.644889556384576736e+03
-4.620938041713686289e+03
-1.060913644473594331e+03
1.928193292985321705e+03
1.715316023763109797e+03
7.013803806419026614e+02
-9.005893802342997105e+02
-1.545359759792435170e+02
-5.368455932308296724e+03
-4.486283593792111787e+03
-1.215034633907492662e+03
-2.151605374817878328e+03
-4.810498337650996632e+02
-3.754391871203715255e+03
-1.315562805071121602e+03
-1.176567457229326919e+03
-3.915403228614125965e+03
-1.426034792310325656e+03
-3.948398768751922944e+03
-2.784445424571309559e+03
-2.815096185826685087e+03
-1.232928937490131887e+02
1.180899920597684286e+03
-2.604552580458142188e+02
2.952654669070572254e+03
-3.546986058867174165e+02
2.335137085991715935e+02
-3.367783674692667773e+03
-1.995790565397721537e+02
6.841340480951723748e+02
1.002425778686714011e+03
-1.823785777584798325e+03
-4.525143489607697802e+02
1.245315193855492680e+03
9.217230234522664887e+02
6.456407048678548790e+02
1.404106127849058566e+03
2.900118614170557976e+03
3.348678559906667033e+03
2.810837767483020343e+03
2.544601551129919244e+03
2.944969369144826032e+03
3.661004936771309076e+03
3.619707636695767633e+03
2.898156605681481778e+03
2.580296985820533337e+03
2.650158769236808894e+03
2.436702399285582942e+03
1.862897695091015748e+03
1.252757162139218963e+03
1.310263901327270105e+03
1.586553334587186328e+03
1.308802790134837778e+03
-5.881678433453283894e+00
-1.156811320017018033e+03
-1.727242900808653985e+03
-1.247641517069521569e+03
-1.926230211504773138e+02
-4.826527736626417209e+02
5.940031894314255396e+02
3.845149056966080479e+03
4.138270329205413873e+03
3.763263712027557176e+03
3.535950701957339334e+03
3.349250192120629890e+03
3.188375966608457020e+03
2.631489766193319156e+03
1.561969970778737661e+03
1.143056137036809332e+03
1.139339217443217649e+03
8.274076510644174505e+02
4.207344960926636759e+02
9.681663458643072317e+02
6.334580270158731992e+02
2.377831180483497633e+02
-5.466749528303382455e+00
-9.988111149759986347e+02
-1.032010411300293072e+03
-2.206808385319339152e+02
8.973983526135031070e+02
1.919944213687837419e+03
2.093645473743784805e+03
1.787518045516737402e+03
8.447227989683825626e+02
1.054121045435377027e+03
1.022231014195821331e+03
7.281224307476801414e+02
-4.217544223615381327e+01
-1.098771949930495339e+03
-2.599194111726438337e+02
9.766390158699240374e+02
1.517017349246735648e+03
1.799058573071968794e+03
1.166600280802708994e+03
3.155312715451936469e+02
8.826037272478768614e+01
1.825726156480740201e+02
-6.036554570956848238e+02
4.025583313421963112e+02
2.497220732755045447e+03
3.057339759604109531e+03
2.660936528431037914e+03
2.577010589056851586e+03
3.090564793500035648e+03
3.577554827741493682e+03
2.666007153530276355e+03
1.673894808946574585e+03
1.517151368663138783e+03
3.217327874750245655e+02
-2.153875350110610327e+02
-2.092361060513950974e+02
-2.158831137289071648e+03
-5.532149333358574040e+03
-9.903250423294775828e+03
-9.827177774584990402e+03
-8.750861200268142056e+03
-9.299316627830456127e+03
-1.023661573666156437e+04
-1.043575560772147583e+04
-1.055170813450418063e+04
-9.715427092301388257e+03
-7.578897425871914493e+03
-6.152139710011793795e+03
-2.864033863339819618e+03
-3.624080885400377952e+02
-4.532539292190506785e+03
-6.173367345836896675e+03
-5.792951275881630863e+03
-2.812235060395337314e+03
-1.576307151508379548e+03
-3.636131765059602003e+03
2.272299018443683963e+03
2.366002940485541330e+03
-3.448026672888175653e+03
-1.839796540316876417e+03
6.306600755339649140e+02
1.694341889450746521e+03
1.825255747821240902e+03
2.217431435337990933e+03
2.267903836380178291e+03
1.290785020615071971e+03
1.462090269285037721e+03
3.460840467439835720e+03
5.203074847624209724e+03
5.106805034068614077e+03
4.228033335492005790e+03
3.451800758694167143e+03
2.495149379765618505e+03
1.960043582046713027e+03
2.225489421227357980e+03
1.977545138908695890e+03
9.242074113866818834e+02
4.704760409956171543e+02
3.883447768917104668e+02
3.838643242201077896e+02
5.350796825151958274e+02
2.940166205063519556e+02
1.142723596799423603e+03
1.763189608033312652e+03
1.824430532133110319e+03
2.166498765867878774e+03
3.123487601146080578e+03
3.168489040132900300e+03
2.737486696142034816e+03
1.790480771357427329e+03
1.071530005034916712e+03
1.376668217177543511e+03
4.558862263765118428e+02
-8.347795565100844897e+02
-1.832319411589153333e+03
-1.383686595512328722e+03
-1.412842427525999938e+03
-1.102803999948841238e+03
5.224544338275430846e+02
2.039951974028161430e+03
2.754723002863773218e+03
2.683876337544436410e+03
2.153619085780526802e+03
1.717058491444543051e+03
1.076042367263707092e+03
1.263464602935813900e+03
1.470685055298863745e+03
1.789621022747424377e+03
2.061986388853736571e+03
1.292647571390201392e+03
4.268156745949558513e+02
4.073099334927314317e+02
-3.495087035768374335e+02
-2.908392507290599951e+03
-1.504590042001793790e+03
1.230301945918416635e+02
-5.633405298988145660e+02
-3.871410886202157826e+02
-4.453323569476868329e+02
-1.603809238847901725e+03
-1.537591456606426618e+03
-6.506947923167454064e+02
-5.640850818796119484e+02
-2.707756368739908339e+02
4.113358451801266824e+02
4.183087201396122623e+02
3.871007539520473415e+02
8.548486995382501163e+02
9.685601513432376350e+02
7.802161258702138866e+02
5.048303564680732052e+02
-3.655461367715008123e+02
-6.399519831680164543e+02
4.015944742512962762e+02
3.301122783713184958e+02
-9.904118712626905108e+02
-1.099001437989374381e+03
-1.446524263592482669e+02
-7.694120460058393292e+02
-1.545288863127786271e+03
-6.952526264564636449e+02
9.073238397403802935e+01
2.896921669966593527e+02
-2.244750178258044855e+02
-4.957841026952810353e+02
1.537719482107603994e+02
5.502902145360534405e+02
1.060782665271798578e+03
1.344230431860270528e+03
1.076639121714151770e+03
4.460226639133556432e+02
3.973849428648215394e+02
-5.572658577941240310e+02
-1.498976495907647404e+03
-1.099816487305163264e+03
-5.108202898404708208e+02
-5.870289514324216498e+02
-1.994491752629407983e+02
1.018801977325737766e+02
4.186448744778821407e+01
-1.285115347821001990e+02
-7.321850180420060497e+02
-8.241500345061316466e+02
-1.146431243820769168e+03
-8.091239872959663444e+02
-3.171617935187299508e+02
2.294532679140757523e+02
7.577715596701797267e+02
9.388530759165437303e+02
1.532530719292277809e+03
1.807719060653288352e+03
1.221473136208100414e+03
1.417347036861799836e+02
-7.835283842582510943e+02
-9.933936506565795526e+02
-2.927829425444288518e+03
-5.460020459750179725e+03
-3.002794368198518441e+03
-2.560252210146104971e+03
-2.791323705613091079e+03
-3.008775881418991503e+03
-2.842776887560874002e+03
-1.951326045896959613e+03
-2.222856487415893127e+02
1.427909146241633380e+03
2.172238439692296197e+03
2.050172747598612204e+03
1.792604598851695300e+03
1.876959355186756284e+03
1.853026861779580258e+03
1.728718618490202289e+03
1.174598792179527436e+03
1.455426803322936848e+03
1.208602801022025915e+03
8.167250331461318638e+02
5.037140753514728999e+02
6.338445628061955262e+01
-5.920390010769157243e+02
-9.062955353294670431e+02
-1.069841377758632689e+03
-1.143291513457759265e+03
-7.489419423612453102e+02
-2.677688878699268571e+02
-4.737988244592773412e+02
-1.629647279794464509e+02
-1.618734146034960020e+02
3.753248728286262690e+02
1.613431565063201788e+03
2.183129419402706844e+03
2.290786413670497950e+03
2.160130461504953018e+03
2.309063047275768895e+03
1.809264495727941494e+03
9.088321624715738380e+02
7.946001491347734600e+02
8.804821155885340431e+02
3.175038509933471573e+02
3.657093581890097198e+02
5.959322771355052737e+02
5.080593252060336340e+02
3.691918335663364701e+02
6.235462739161474133e+01
-1.964514918151816119e+02
-3.933611074715255427e+02
-3.724175683008843976e+02
8.094924954744637944e+02
1.131416347532679538e+03
1.500328884887384220e+03
1.961162893300456290e+03
2.352953674145417608e+03
2.600739316371403675e+03
2.340540636827664457e+03
1.766265759661941502e+03
1.258831137571377667e+03
1.037255028426931858e+03
8.416484763294890854e+02
6.490294626099073412e+02
3.273337062601632965e+02
1.646410920064291972e+01
-6.206190983260677285e+02
-3.955729522145582905e+03
-7.432989450105944343e+03
-4.998647067631415666e+03
-3.355435626359328126e+03
-4.305365440403995308e+03
-5.611405060406435041e+03
-4.628549686743229358e+03
-4.775652499929018191e+00
-1.910017044671980102e+03
1.067894105893593490e+02
-1.383550930715960874e+02
1.825473817734311524e+03
-1.718652856735912337e+03
-5.477506394307524715e+02
-2.585916146378124722e+03
1.048937207025231601e+03
1.346849074793070486e+03
-3.209148685797519647e+03
-4.205989167043238922e+03
3.593000000359216983e+02
-2.716319663776366269e+03
-4.929865243275357898e+03
-3.464314951902179928e+03
-5.531605236011859233e+03
-6.466629275658099232e+02
1.446623820690401772e+03
1.990246177832091234e+03
2.730236551236401738e+03
3.736636425208646415e+03
3.897531710751439277e+03
1.649893320465123736e+02
-3.351346423917888160e+02
1.214135882577976872e+03
1.754831027123383365e+03
2.509903515167758030e+02
-2.607264143545452498e+03
9.310572418563121744e+01
8.731000304694935039e+02
7.667178316026894436e+02
4.961232954374328870e+02
2.301696137679450942e+02
-3.021949866767423032e+01
-1.791584990720147275e+01
1.271896269670840240e+02
3.031431600950550092e+02
4.989343975839201448e+02
1.208581983109564362e+03
2.138271746907133547e+03
2.819056622887505000e+03
2.883927764906746688e+03
2.394016486672623159e+03
1.926298196514210076e+03
1.464760703093057373e+03
1.389480700293409882e+03
1.002546276219440529e+03
3.372313203159284285e+02
2.186367305925489291e+02
2.966666186313820504e+02
5.648133719890687843e+01
-4.198000704125093421e+02
-8.451921876602042403e+02
-1.186763365350293952e+03
-1.397509871440249526e+03
-1.892553704758910044e+03
-1.593850248305584955e+03
-3.334920477095960223e+02
4.028931683456182213e+02
1.267522213163050310e+03
1.146643854048205640e+03
1.945652161058893398e+03
1.606703934839841168e+03
1.313419442879528106e+03
9.610268728649760988e+02
8.741922906645027069e+02
9.425985843175554919e+02
7.603605232212547662e+02
5.104597596145983971e+02
2.434703934871697300e+02
-3.145785930312763981e+02
-7.197684571437580416e+02
-1.180197514428146633e+03
-1.226800727415128449e+03
-1.245512448124842422e+03
-9.523984927074141069e+02
-4.426502132632139137e+02
-2.132147301404995119e+02
5.307635935549984652e+01
3.093047482813078659e+02
9.754782591785085515e+02
1.330600926569996773e+03
1.300686210959325308e+03
1.156662284182532858e+03
1.057544838708940006e+03
7.124063848758754602e+02
2.117724652666017349e+01
-2.312007397867585325e+02
-4.246878754482321483e+02
-3.473058085930654784e+02
-2.920054745915856529e+02
-4.249009379519529830e+02
-8.989890292035469201e+02
-1.229236341699194327e+03
-1.161627513147431728e+03
-5.772442196164078041e+02
-1.440710771573984061e+02
-2.060492699416421090e+02
2.698712769771713056e+02
6.606903479216252890e+02
9.033462191264733292e+02
1.275896112679307407e+03
1.524376150892141141e+03
1.516753101823959469e+03
1.167894389677131358e+03
6.098015592535231235e+02
3.543718609529391870e+02
3.014501865523430411e+02
-4.098673907346060474e+01
-4.959240991225678954e+02
-8.973173429827371592e+02
-2.892164763791994119e+03
-6.006472743589484708e+03
-1.040823696654333799e+04
-1.121350205688592541e+04
-1.065132868073844838e+04
-1.022976674881906001e+04
-7.757814842681480513e+03
-5.264228550010774370e+02
-6.686304362824432701e+02
-1.732630755544333397e+03
1.072843584014820408e+03
2.179993093932471766e+03
2.881621482638375710e+03
2.602216717370075912e+03
2.503324845840860235e+03
2.356704214365935968e+03
2.259202845364565292e+03
2.006894933158403546e+03
2.004676150297094637e+03
1.870451083118177166e+03
1.006243862823398104e+03
9.720001647942800673e+02
7.976614624329042726e+02
1.662680689001160488e+02
5.207673019240422718e+02
1.177053095962126008e+03
9.571606879577227573e+02
1.052104449591697175e+03
1.785846926988295536e+03
2.209459315737478846e+03
2.835865325378581019e+03
3.154891062157646957e+03
3.208588496878640399e+03
2.980079644650184491e+03
3.007197538395681022e+03
2.588778433067920560e+03
1.778916258354368438e+03
1.374592749980879262e+03
1.339675936152065788e+03
1.899140046021488160e+03
1.537020388985032696e+03
1.085333929164842630e+03
7.680166355149153787e+02
9.490138037949160434e+02
1.001306259857348664e+03
9.598355717813034289e+02
1.220636239415204727e+03
1.828736483511546112e+03
2.525149541176236653e+03
3.131830597556785506e+03
3.824868730061919450e+03
3.893226143912426323e+03
3.592793233560776571e+03
3.297521961580182506e+03
2.836423137910585410e+03
2.561400073466633785e+03
1.827443747216203064e+03
1.689589440044793037e+03
1.636832170070287930e+03
1.567197031125578860e+03
1.759673726397810015e+03
7.892705698356907078e+02
7.409381389230783270e+02
7.476938691206177054e+02
9.584779721996414992e+02
1.530241855144808596e+03
1.878051769527066426e+03
1.883867330408369980e+03
2.229738864247007768e+03
2.602775175259027492e+03
2.767994822083280724e+03
2.452376504783455403e+03
2.268850777276360077e+03
-3.452979173190626057e+02
-4.106049286777296402e+03
-7.856849921031120175e+03
-8.365515541249871603e+03
-8.267994952010030829e+03
-8.131332690510647808e+03
-8.084536816144072873e+03
-8.415645946118613210e+03
-8.254761556213969016e+03
-7.592871010635140919e+03
-2.621913076337101757e+03
1.597221686725925338e+03
-2.020454427479201286e+03
-6.820952487156951975e+03
-6.689212617015059550e+03
-6.154220728034444619e+03
-5.172881564241112756e+03
-1.998246150295974076e+03
-2.182704679618747718e+02
-4.534906300797810218e+03
-5.994169094741099798e+03
-6.382034555386280772e+03
-6.300468408815183466e+03
-6.524451392478274101e+03
-6.455013838159558873e+03
-6.268142527353649712e+03
-6.437835406473064722e+03
-3.075083579370262669e+03
1.754196400733057999e+03
-3.676994477567620379e+03
-6.943602213396434308e+03
-6.485653894513350679e+03
-6.140215544883164512e+03
-5.142211012339032095e+03
2.654480328216016005e+02
4.265818207204138162e+03
4.709904365610704190e+03
3.153765093780257757e+03
3.702481380512118449e+03
4.390045609868681822e+03
3.937463360356412068e+03
4.336769468516552479e+03
4.020945839872811575e+03
3.464968632883867031e+03
3.644893535069807058e+03
3.392761654456741326e+03
3.548572957677467912e+03
2.814401154656414292e+03
1.993263681618243481e+03
2.052191372713162309e+03
2.133116577001107544e+03
2.367123269870839977e+03
2.267165287223346240e+03
2.478120689917457184e+03
2.937030565948748517e+03
3.769002394414484115e+03
4.319427583525945920e+03
4.231398906653962513e+03
3.858869181499291244e+03
3.674874646929123628e+03
3.599431982820679423e+03
3.031503696220451275e+03
2.108112492669557014e+03
1.244542320543825554e+03
1.451812600019675301e+03
1.591732060136646169e+03
1.222037224400065725e+03
1.746534228529912298e+03
1.396582002421958123e+03
1.369401519744713141e+03
1.258088461459521795e+03
1.293644215024836058e+03
1.589451021552426255e+03
1.904750889663271209e+03
2.681575963178331222e+03
2.807127517702971545e+03
3.426192214831684851e+03
3.583227328412524912e+03
3.262934281704072873e+03
2.911764259291397138e+03
2.609253161426765018e+03
2.500840698143373174e+03
2.023066818975298702e+03
1.654050602065737621e+03
1.391336035653492218e+03
1.120443794612089278e+03
9.604461450331888273e+02
5.293839204577542432e+02
9.219054213837097222e+01
-1.441736542429016481e+02
2.268795863106920763e+02
5.272907344425169640e+02
7.619925673168480671e+02
1.205862676107067955e+03
1.744958598942945855e+03
2.044624704173357941e+03
2.423700097014030234e+03
2.385936458935188966e+03
2.290378651250451639e+03
2.397175047356951382e+03
2.152451348492269972e+03
1.913734269134204169e+03
1.458082518328225660e+03
1.689531832301392569e+03
1.426080752728151992e+03
1.176713721521911339e+03
8.654410215120960856e+02
4.642119686074830156e+02
3.740330154484414038e+02
3.149061078074744842e+02
8.775907243308992634e+01
3.165133522574121798e+02
4.701230828173826808e+02
7.895885255211281901e+02
1.219952903922730002e+03
1.394260215107746262e+03
1.477510520012385314e+03
-3.313040341043519561e+02
-4.338197042382563268e+03
-8.334184887080342378e+03
-8.069264572157136172e+03
-8.293512836763422456e+03
-8.473999827033403562e+03
-8.078722053396514639e+03
-7.539669349082962071e+03
-8.221846495902656898e+03
-8.260277047969002524e+03
-8.573981603283587901e+03
-9.008076142372012328e+03
-8.498395429379290363e+03
-2.755981516464475590e+03
-3.726652288916193925e+02
-6.702724714819403744e+03
-7.323089364208852203e+03
-2.633851419507233459e+03
-3.826930855689664440e+03
-6.238307109416747153e+03
-4.875967842346572070e+03
9.230518103051807657e+02
2.245732748984024965e+03
-3.423916569221846203e+03
-9.268796542855507141e+02
1.454795560912731162e+03
2.264104899749335345e+03
2.061073089201208859e+03
2.262741657527146344e+03
2.017068818906768456e+03
1.783032782081174446e+03
9.486118239875597737e+02
7.838251130114407488e+02
1.062690496691311864e+03
1.468221177038195492e+03
1.884412094532049650e+03
1.945224951443901091e+03
2.436689213753374588e+03
2.871886850711771331e+03
3.078848113515120986e+03
3.312559327462047804e+03
3.085073830313681810e+03
2.329465753833975214e+03
2.076700478011389805e+03
1.708769158873949209e+03
1.583628297314168776e+03
1.185276600331432519e+03
7.877537783950742778e+02
3.450939019626134154e+02
5.123563161120925997e+02
5.705236722422279172e+02
1.285843892793315320e+02
-2.039969160870682430e+01
-9.739863772551171905e+01
8.577692617165274314e+00
5.705396469703468938e+02
8.855317471784172767e+02
1.332560318488184294e+03
1.703686663729205975e+03
2.120967799182158160e+03
2.532441505337098533e+03
2.325153564297983849e+03
1.918119450143278982e+03
1.745357808439146766e+03
1.499912393535646743e+03
1.379782648149084935e+03
9.819500732684218747e+02
6.934749748853200799e+02
3.564864191416217523e+02
5.273357267321251811e+02
3.281126059365587366e+02
-6.427237211429930142e+01
-1.176622874160183159e+02
-3.159828515740393300e+02
-1.110176397895284708e+03
-3.751087865301062720e+03
-3.790001765232129856e+03
-3.028253058734804654e+03
-1.021030480235922369e+02
-2.689131909770410857e+03
-4.226711847642764042e+01
1.216347002028107681e+03
8.376906142882376116e+02
4.768035357596007771e+02
1.966752368482323163e+02
-7.008129832128362491e-01
-1.892963390141578657e+02
-4.630605805100930183e+02
-6.150198441593989855e+02
-4.191526651835258122e+02
-5.243973749479386015e+02
-1.128795664860651641e+03
-1.260368523765029749e+03
-1.130026096525755293e+03
-1.239752628234699614e+03
