6.021094882342721576e+03
5.101474403835270095e+03
4.602842274553249808e+03
3.163286052056862900e+03
1.036900897404384295e+03
1.474990109793970561e+01
-4.321733459402485096e+02
-1.652873027797582608e+03
-2.112296430299979420e+03
-1.074383213440724603e+03
-1.583146061822314778e+03
-1.615581740649710810e+03
2.193070944708155139e+02
1.774526292623707832e+03
1.753177928046692614e+03
8.213010641068516406e+02
-1.206026236306006240e+03
-2.991701271147352600e+03
-4.367662540017325227e+03
-7.067773518282258919e+03
-7.098952193318172249e+03
-2.914175769861074514e+03
1.003578728433215588e+03
2.460484635882625753e+03
3.663841639710210529e+03
7.365674238967062593e+03
6.660897547813239726e+03
2.235513954116156583e+03
-1.687464989845387208e+03
-3.868993939172464252e+03
-4.976014387455107681e+03
-5.551434626512879731e+03
-4.184179869619327292e+03
-2.555215957758628633e+02
9.036223324454331305e+02
7.097605843580593046e+02
8.345784589511977174e+02
-6.709213865759469400e+02
2.352385008014062180e+02
5.729716534691928018e+02
9.694651426460626453e+02
8.927462316297539928e+02
2.562241020532959283e+03
5.383911998856683567e+03
6.162688647341944488e+03
5.793549237495788475e+03
5.105557238864031206e+03
3.764684346424490741e+03
2.211869428198249807e+03
1.069215479596028672e+03
1.671711025084941639e+03
5.453868540483707648e+02
-1.486658214229939858e+03
-2.553324530377839437e+03
-4.038552597694382712e+03
-5.125363268720647284e+03
-5.301797893000667500e+03
-6.799884154304769254e+03
-6.809619993453968164e+03
-5.541048617164528878e+03
-1.541181415787805236e+03
1.929104977727856522e+03
1.859919595818127618e+03
2.552992897579563589e+02
-9.406511165602315714e+02
-1.414910702992405731e+03
-2.377504206220632113e+03
-1.833351630777980290e+03
-1.245449773830576305e+03
-2.359939262298024971e+02
-4.969108331194481707e+02
-1.247019813262926618e+03
3.666252328760944579e+02
2.719963996880368995e+03
3.250015053165974678e+03
1.872857670703251642e+03
2.087459762200500336e+03
2.538593657277615876e+03
1.013191258936863733e+03
8.219111977094985377e+01
4.625430520329505839e+02
6.255523471589901874e+02
-1.524316499035112145e+02
-1.444431667817445941e+03
-2.925650194646155796e+03
-5.211048885466453839e+02
3.258068945319990235e+03
4.220609282331737631e+03
2.929482166862562281e+03
2.886641068078128683e+03
2.478178871697880368e+03
1.270433031341893155e+02
-2.006724181387871113e+03
-2.173032593007430478e+03
-1.927072097638333844e+03
-2.210907059409048088e+03
-3.245441838514307619e+03
-3.234659239359387811e+03
-4.816110200126801715e+02
1.756823261905975869e+03
2.949725457795951115e+03
3.120016020314977595e+03
2.925668199176007874e+03
2.678833443917649220e+03
2.640413488155400046e+03
2.309114681135956744e+03
1.266935308875472856e+03
9.084255166267661608e+00
-9.495613098860559376e+02
-2.336256192739393555e+03
-9.326205787782876087e+02
1.812619766608665941e+02
-2.778563342755996928e+02
-8.511582349039802011e+02
-1.827733831864849435e+03
-3.057190396567871176e+03
-2.034687105510173751e+03
-3.893205029797856582e+02
-3.621516830333517873e+02
-7.543025254237824129e+02
2.042131428989600579e+02
5.533733694807154961e+02
7.761443842997106231e+02
1.640797295425380526e+03
1.862117299061600306e+03
1.726406506013825719e+03
1.012621108029579091e+03
-2.093990605309541877e+02
-1.120871616775402117e+03
-3.177572718138883374e+02
-1.180674049113956272e+02
-6.787717398964522317e+02
-1.035247886865135342e+03
-1.450294364718534325e+03
-2.099972868775286770e+03
-2.040339467550785685e+03
-4.474917593949722914e+02
9.084720629903980580e+02
1.096425294893371074e+03
1.372292747724479568e+03
1.695260862843272662e+03
1.293298599934277036e+03
1.809612681177619379e+03
1.917218611181465576e+03
1.053914336846820788e+03
4.655932078377091443e+00
2.293690172577989017e+02
1.889773358451618321e+02
2.064073225609463975e+02
6.827711177033786498e+02
4.709600006545130668e+02
-3.122077215983043175e+02
-1.436768269592670038e+02
-3.865010138514408595e+02
-1.421768438497619172e+03
-1.363547703191416076e+03
-1.652882150665972404e+03
-1.999688010657546329e+03
-3.715814433779438787e+03
-4.022384965618794922e+03
-2.592518526013776409e+03
-2.048252492931015240e+03
2.021491974767163356e+03
9.157577833735924742e+02
-1.843405864763844875e+03
8.300855396655795175e+02
1.251114662246634225e+03
-5.124155443673436139e+02
4.364082184612149717e+02
-2.187441984137560212e+03
-3.141033254801191674e+02
-4.186617206465335244e+02
-1.004150466553292290e+03
-1.669523116026153048e+03
-1.471762911337022160e+03
-1.222890478229448263e+03
-1.339899165025737602e+03
-3.082804061888382421e+03
-8.156898385960091673e+02
5.553412727308573267e+02
-1.416553420861091013e+02
1.828450700493276599e+03
-1.982322965465428695e+02
1.893153689963734223e+03
1.899564936743767248e+03
-2.360475929545210363e+02
1.147369990638461104e+03
-7.511491034123488362e+02
-2.018714097346941116e+03
-1.833431978234601729e+03
-4.153687283772185310e+02
-1.914618988731692184e+02
-2.566022728188123665e+02
-1.657897456963825675e+02
-3.860192132539751810e+02
-8.293033401878388986e+02
-8.448399407413459130e+02
-6.836437499072027322e+02
-1.563678919308096965e+03
-5.999299374468930637e+02
6.926928390102377762e+02
1.046198270734257676e+03
1.257534193047045619e+03
1.861812102143538823e+03
1.974178391484019357e+03
1.505621664667282630e+03
4.430399519024219899e+02
-3.396455229481758806e+02
-1.464450221662227932e+03
-2.483388271669803999e+03
-2.870463214914680520e+03
-2.419591762454990203e+03
-1.240781796503479427e+03
-8.967726531669683032e-01
9.580895911746898719e+02
8.623678263595842282e+02
3.197507361898383351e+02
2.011712695636588535e+02
1.628380850314478323e+02
-8.516401196319085898e+01
3.481117585919778321e+02
1.731660726798944324e+03
2.648281377110367885e+03
2.963742741909529286e+03
3.172409595169434851e+03
3.169549307718336422e+03
2.924841600544570611e+03
2.495870343175082780e+03
2.469878394692491383e+03
1.983944358612457563e+03
1.235033554917137508e+03
1.921897891445753430e+02
2.654744412996982987e+02
3.091461019926419453e+02
-4.198636418540588124e+02
-5.126284513444811637e+02
-6.188659375066814761e+01
1.214314837118442654e+02
1.030337645962603972e+02
5.188253193571908923e+02
7.358522016950987563e+02
1.329090444399281978e+03
1.520354658821947169e+03
2.371133011376704417e+03
2.979226104539172411e+03
2.747637965087911198e+03
2.352408646667781341e+03
2.180569329934055077e+03
1.981159010185652050e+03
1.084136573746609884e+03
3.814243363196513883e+02
-3.010531712771403363e+02
-6.762156234033482178e+02
-7.632053666293246579e+02
-1.059155139019729177e+03
-1.442941815951656508e+03
-1.126443119636640176e+03
-6.796302332418846390e+02
-2.403904924243593939e+02
1.602735242281654848e+02
6.534579064690389032e+02
1.064333638566912214e+03
1.393849311691411003e+03
1.473025560441927837e+03
1.269956636719997050e+03
1.471584133268849200e+03
1.364772584117716406e+03
1.221635094954821852e+03
1.004119782008145648e+03
5.690644094537846058e+02
6.942397613364305187e+01
-6.856469849082714063e+02
-1.183054336157352509e+03
-1.107695177301509375e+03
-1.366532631377163852e+03
-1.688574028970340123e+03
-2.113623047442460120e+03
-3.263781455364652174e+03
-5.361405522216900863e+03
-6.863527484843127240e+03
-5.892976021711323483e+03
-5.014721604649357687e+03
-4.688003054516724660e+03
-4.057471622484245017e+03
-3.529777839321012834e+03
-3.497918283042054099e+03
-3.217987049021354323e+03
-1.686942347879428780e+03
1.229998210059401117e+03
-1.512532834004736628e+02
-4.285744988906503750e+03
-1.532399306133959726e+03
-4.081751712643622909e+02
-7.641214350874234924e+02
-3.540319082697712361e+02
-2.960473378209201201e+02
-7.671934322234405954e+02
-3.230418460408132887e+03
-1.379654203993910869e+03
3.000505460575687380e+02
1.064590662443139763e+03
1.796062483356377243e+03
2.504594051338371173e+03
2.536273814458236757e+03
2.686170322908430535e+03
3.559298617443618241e+03
3.668634481816148764e+03
2.866060206209760963e+03
2.056716821525646083e+03
1.565696442612075998e+03
9.929796563203093456e+02
3.225982150449733012e+02
2.075171227152556526e+02
-2.622953617646915632e+02
-9.536813241499212381e+02
-8.917564458424666327e+02
-4.026017513368540790e+02
-2.844368011523196742e+02
-3.302315268555176999e+02
4.023073963392605492e+02
9.543023632928806137e+02
1.424815119109860461e+03
1.908755754863262609e+03
2.430236471363141845e+03
2.719167661941073220e+03
2.693509168712202154e+03
2.684200189227547980e+03
2.603328757700605820e+03
2.180950886557550348e+03
1.423823711020548444e+03
6.058679929854456532e+02
-1.282167121737205839e+01
-6.230630997736974450e+02
-9.070403959886937173e+02
-9.017476223746118649e+02
-1.073977339067327421e+03
-1.270694324998280990e+03
-1.034898472718322409e+03
-7.305814801034820221e+02
-3.546560872871820607e+02
5.119180520394810401e+02
1.403229125954540677e+03
1.833909476772027574e+03
2.180810067974579852e+03
2.606127615084698846e+03
2.703256152261300485e+03
2.526151786207152782e+03
1.824005696119344066e+03
9.179400014663724505e+02
3.596800844386846165e+02
4.020904766036680940e+02
4.157430363651983818e+00
-4.001177542991732707e+02
-9.136676061971011222e+02
-1.427574781892317560e+03
-2.000076885834812629e+03
-1.884133698494311830e+03
-2.747655443112707871e+03
-3.981570964791080314e+03
-2.905836880453809499e+03
-1.720406416583056853e+03
-2.282338049090759341e+03
-2.502559640001941261e+03
2.590834360661244773e+02
1.849612114885787378e+03
-3.249813816008375511e+02
1.361318024878557708e+03
2.269213216794654272e+03
1.347685395568106060e+03
-1.312118659577537073e+03
-4.205197637689257135e+03
-1.422549332491038740e+03
-7.631572345391301724e+02
-8.811733691621567459e+02
-7.116303056773156186e+02
-1.156498462106934767e+03
-1.521743145203001632e+03
-1.875403285724731177e+03
-3.640380396240338086e+03
-2.728700002165565820e+03
-4.459444051259526532e+03
-2.062507093265033291e+03
1.135162589836085317e+03
2.172604908052716382e+03
1.798104316304233237e+02
-2.602206807320128519e+02
3.084058700814127292e+02
1.632675888995249352e+03
-6.544262759315801077e+02
2.011647162511530595e+01
1.642497272825071661e+02
1.298868125611754998e+01
-1.867353688480658320e+02
-1.841057643574374936e+02
-1.791682500460055394e+02
-1.289787530166992838e+03
-1.351928346995823176e+03
-2.655642457951439610e+03
-2.390885317824591311e+03
-4.637027204276753878e+02
9.198159975081732398e+01
7.092396949936279498e+02
1.379089615466949908e+03
2.021470394356351107e+03
2.122360932678231165e+03
2.064746666651992655e+03
2.161537822886314643e+03
1.463764193584053373e+03
1.374382934070825740e+03
1.308280836977103718e+03
9.084320328355922811e+02
6.291741598711748651e+01
-5.914086666454667238e+02
-1.020459536941867441e+03
-1.251368002844322746e+03
-1.413978839175834764e+03
-1.371239677548409873e+03
-1.721363258069162384e+03
-9.222887151475690644e+02
-4.433348941851821223e+02
-5.771333040171556377e+02
9.704524203734166576e+02
2.050054456708320231e+03
1.929717095863908071e+03
1.787388541010940799e+03
2.241129652871673898e+03
2.161297051919055320e+03
1.972562241597296634e+03
1.562038445662243703e+03
1.130675619754150830e+03
5.475059357004894309e+02
-1.276000165790778027e+02
-3.536821332303214263e+02
-5.347604690044601057e+02
-6.247312578090312627e+02
-8.267341285367582486e+02
-8.146022988950613808e+02
-4.994757971872780900e+02
1.872929963977294108e+02
3.100210815951224390e+02
3.264255492082837122e+02
6.396394680948990299e+02
1.714674328137557950e+03
2.440320473150305133e+03
2.687872729597060243e+03
2.661627897025166931e+03
2.538279659713674391e+03
2.586523893788420537e+03
2.257581800279351228e+03
1.889510279014502657e+03
1.181422679822997907e+03
4.810521175300547725e+02
-3.707197340456150414e+02
-9.929617839428153729e+02
-1.332676992675294059e+03
-1.179793419602527138e+03
-9.234424530772414528e+02
-5.406889268495913257e+02
-7.534426865595378331e+02
-1.756777708881427316e+02
6.945412705693288444e+02
1.176237712089330898e+03
2.056462106517606117e+03
3.040311499350907070e+03
3.567763682447011433e+03
3.373830519298821400e+03
3.118495024424130406e+03
2.822719260166330514e+03
2.136411286669356286e+03
1.229455472923248863e+03
6.975080821159171762e+01
-4.857250464151055098e+02
-9.619228402408075453e+02
-1.608765566198281476e+03
-1.999298554644545220e+03
-2.254530030649796117e+03
-1.974417791622713821e+03
-2.096965866346749863e+03
-3.117243190069712909e+03
-5.330224862907549323e+03
-6.232888205723178544e+03
-4.536247683219332430e+03
-3.275253032594644992e+03
-3.551828099835231114e+03
-3.552944034535300943e+03
-3.397653356192394767e+03
-3.184919289129423305e+03
-3.168726898087425070e+03
-3.049057470789869512e+03
-3.806016182717409265e+03
-4.798601889834281792e+03
-3.083789756243906140e+03
-2.205972504125153932e+02
-3.160769735780999099e+02
-4.402345113313168667e+02
-3.050655408135095286e+02
-3.495739998488533615e+02
-1.890697172729798012e+03
-5.616406941435167028e+03
-3.429640881157761214e+03
-5.394381304898279268e+02
1.433188709535365888e+03
2.981345202791273095e+03
3.495101223903033770e+03
3.533454045051954836e+03
3.860385721706025834e+03
3.972970303125780447e+03
3.210218013603673626e+03
2.830117460515088624e+03
2.104605112682333129e+03
1.601673989138012757e+03
9.673597936984364196e+02
4.656790801427582664e+02
3.525614084248613267e+02
1.460212524874031601e+02
-1.428707005703949164e+02
-7.230722058448594680e+02
-5.206493907213541661e+02
-4.495868280768092973e+02
1.761687273636107705e+02
1.043677003284417424e+03
1.746963117476043408e+03
2.296092134965150308e+03
2.814155319036327910e+03
3.020154722696755925e+03
3.144108299684806298e+03
2.653982173438059363e+03
2.527779787071119699e+03
2.366571025584100425e+03
1.776344323630675262e+03
1.069031300829883776e+03
-1.443291408831997558e+02
-1.130756149774722417e+03
-1.421210944618703934e+03
-1.746587457633275790e+03
-1.908713964525530173e+03
-1.815577097445975824e+03
-1.376362272063591490e+03
-9.610944934069888177e+02
-1.346548233583811225e+02
8.009850483561943975e+02
1.163834889099245174e+03
1.138977837997930919e+03
2.305306382951636351e+03
8.159119984149864422e+02
-2.173745942197343766e+02
1.316479296254201927e+03
1.871765042721533291e+03
1.604255894684162513e+03
6.960507026190956594e+02
2.812436677945485144e+02
1.478385980348864450e+02
-1.073044816251533121e+03
-1.932379316686638049e+03
-2.762196097720536727e+03
-2.544832063439334888e+03
-2.051337416485739595e+03
-2.045581530844721328e+03
-1.668542205232067772e+03
-6.572141417958389411e+02
3.675087188862490848e+02
1.011625594766006884e+03
1.342055990629638018e+03
1.755849174763915698e+03
2.116098501622122058e+03
2.239833116443598101e+03
2.584095457941826680e+03
2.476892516206253276e+03
1.741192670030196041e+03
1.027900804691662415e+03
5.210682172269018793e+02
-5.022887697231562925e+02
-1.511232606460353736e+03
-2.287823991643075715e+03
-2.516992489852591007e+03
-2.244729281190212987e+03
-2.316059939439438040e+03
-1.653009781674577880e+03
-1.731526407267053173e+03
-1.131632077087173002e+03
-1.713265258340331059e+02
5.494159963720725273e+02
1.160642183873302429e+03
1.756385537469589053e+03
2.496622476978505347e+03
2.577410589464210716e+03
2.815793986840149500e+03
2.702712691982851538e+03
2.759158700802855947e+03
1.597150591227260293e+03
3.716455374928821698e+02
-7.754197571253987462e+02
-1.619069176871113768e+03
-1.467331949939362858e+03
-1.489252902472517690e+03
-1.575832409351417482e+03
-2.164008131152049373e+03
-2.419802722749752775e+03
-3.732305084093216465e+03
-5.297478184345315640e+03
-7.152264506737690681e+03
-6.600686981862781067e+03
-5.504707681111140118e+03
-1.919311057693164230e+03
1.759510059279998359e+03
1.953680851063139471e+03
2.040172120003632472e+03
2.371060287802316907e+03
2.146296602576411260e+03
1.733835497388145996e+03
9.736460691901661448e+02
-7.305184641093403819e+00
-5.930580729904570489e+02
-7.966634538866344428e+02
-1.074020658739532564e+03
-1.312085041971699866e+03
-1.148073980628161962e+03
-1.688017273459327271e+03
-1.796765664348403789e+03
-7.453428144716364159e+02
2.890016421704472123e+02
1.507305620708815695e+03
2.472867376692762264e+03
2.570403243504361399e+03
2.492892382806341629e+03
2.877472284516578384e+03
3.143299869424310600e+03
2.868424001844462055e+03
2.184342506375017820e+03
1.668138654236357297e+03
1.698860017282892159e+03
6.234220415093710699e+02
-7.521243719220624371e+02
-1.431841539599061889e+03
-1.316741138817101501e+03
-1.555709998320737895e+03
-2.127951689224578331e+03
-1.840220671540059584e+03
-1.043825668566825925e+03
-1.418804308120907081e+02
1.007247379801176663e+02
5.582557506854085432e+02
1.670646734734973734e+03
2.502799899115799690e+03
2.569605579843580472e+03
3.162306227338339340e+03
3.112665172354901188e+03
3.018769864484382651e+03
2.792576449484715340e+03
1.987069996706182337e+03
6.101893254475546655e+02
-1.311151657719186403e+02
-2.477359767351995004e+02
-8.657975136234027786e+02
-1.705159762892828667e+03
-2.249893367028986177e+03
-2.054204464676406133e+03
-1.807080252754195953e+03
-1.551513159434739009e+03
-5.924860850886246908e+02
2.680142145031269933e+02
1.450061468285473893e+03
2.490648719367036392e+03
3.772818668250517021e+03
4.250669167090712108e+03
4.461130298969642354e+03
4.133189451170946995e+03
4.065882001279022916e+03
3.206226304572584922e+03
3.208135800758823734e+03
1.353559392806497726e+03
-3.894789159129244354e+02
-3.019975104405714319e+02
-8.970331024557207229e+02
-1.228554011857965861e+03
-1.370585566557690754e+03
-1.378047363191908289e+03
-1.627913189310341750e+03
-9.112703612423536015e+02
-1.204014987375687269e+03
-4.845092885778452001e+03
-5.474559488585515282e+03
-5.170436563983022097e+03
-4.347708163421263635e+03
-3.377380267264035865e+03
-3.277382160341831423e+03
-2.709706409391239049e+03
-2.712310819933936273e+03
-2.928271841347606369e+03
-3.660590706746423621e+03
-4.990170703401603532e+03
-3.848089981169318889e+03
-1.204454374838012143e+02
6.437601224364728978e+02
-5.253944238919456922e+01
-6.283025118959092197e+02
-5.694361433080553070e+02
-3.668560236331478563e+02
-2.493591626245908174e+03
-4.210682798011906016e+03
-5.736113022364305834e+03
-2.874823786817493783e+03
-1.940765896217954605e+03
-3.328911637902566326e+03
-2.768252321222857972e+03
-1.285765738308740538e+03
2.740519376376674700e+03
3.910680832194904269e+03
3.584750375131519377e+03
2.816784622843464149e+03
2.241783512255901314e+03
1.482663868383923273e+03
9.083981461482036366e+02
1.300240724335291418e+02
-1.924651954239915028e+02
-1.310425512195238298e+02
-2.647602207993455181e+02
-3.976299976010170667e+02
-3.996019011673904515e+02
2.622780887356471453e+02
9.879917471282917631e+02
1.582632689283241234e+03
2.066340054665912703e+03
2.819269513151754836e+03
3.586437910746732541e+03
4.127859003980498528e+03
3.929526776702881762e+03
3.484381584654920516e+03
2.662367449544825831e+03
2.216510378604384186e+03
1.437790990883137283e+03
4.412302234561482237e+02
-4.621845984253714050e+02
-8.455442432212699941e+02
-9.699484495122771932e+02
-9.441741276794737132e+02
-1.088890239322817933e+03
-1.559165001435954764e+03
-1.678318830954891837e+03
-1.068226192216743584e+03
-2.078309188546927260e+02
4.838834312395126176e+02
1.274876676499686255e+03
1.990097502948533247e+03
2.545472495710666863e+03
2.809142330544522792e+03
3.108415306624023287e+03
2.820404410926888431e+03
2.735513883644167436e+03
2.458853610510453109e+03
1.722740945710953156e+03
5.221527048722409745e+02
-6.572511252376635866e+02
-1.534627965389028986e+03
-1.857700190904827650e+03
-1.863145097228598615e+03
-1.708380349422512381e+03
-1.939611016110807668e+03
-1.787737985215025446e+03
-1.042757940989513827e+03
-1.426710090381239411e+02
4.774761205516890072e+02
1.215709797630284129e+03
2.120024331402123153e+03
2.760685545587042270e+03
2.670023546959101168e+03
2.529917393104458824e+03
2.392236024592022204e+03
2.063984282433913449e+03
1.193304209287065760e+03
3.300698370433624973e+02
1.550201174451028407e+02
4.041188706140200111e+02
-2.476066557118035405e+02
-1.078333352989732930e+03
-1.619024195224426421e+03
-1.940673728950981740e+03
-2.614322509086404352e+03
-2.349976305825302006e+03
-1.280665715257794773e+03
-2.152569098838071397e+02
1.029472296954214016e+03
1.540515446579220225e+03
1.787886854996603461e+03
2.413644178841504072e+03
2.926771128050563675e+03
2.947342699919080587e+03
2.907314123812891921e+03
2.179511068226623138e+03
1.338855811524878618e+03
5.033065252421450282e+02
1.418684109539624387e+02
-2.093595818264891193e+02
-8.534597276349900312e+02
-2.102544538015817579e+03
-2.646684516163160424e+03
-2.671912345970170463e+03
-2.735249452615671544e+03
-2.304570119237374001e+03
-3.231794223444909221e+03
-1.598985136848452839e+03
6.807178992333977874e+01
-2.225657003292117224e+03
-5.149428915796753245e+03
-4.827266997497988086e+03
-4.463755956977385722e+03
-4.418865984638106056e+03
-3.642737747210364432e+03
-1.408421958371200390e+03
1.043147891120284612e+03
8.698706174428352824e+02
3.808133446349582414e+02
-8.161633041845237813e+02
-1.295110993014312044e+03
-1.578943630205714726e+03
-1.858703508922456876e+03
-1.500468468568923527e+03
-1.055294165361434125e+03
-8.451506231885805391e+02
-7.350690850455313239e+02
-5.210911395329540028e+02
-2.062063537620745706e+02
8.766494367344520242e+02
2.031561283689762604e+03
2.683643576866699277e+03
2.577929499112677604e+03
2.645471705636908609e+03
2.497344444774572821e+03
2.115685395554361548e+03
1.263407566597916230e+03
8.283151322244489165e+02
1.832882194648377663e+02
-6.376892663924834181e+01
-8.018966593015392164e+02
-9.561638532856095480e+02
-1.354485426652644264e+03
-1.700943905904595567e+03
-1.941649517395645944e+03
-1.907475369746309525e+03
-1.365285230197551982e+03
-1.104057842078074373e+03
-3.678420125638992317e+02
7.113648069848858313e+02
9.726935984388953784e+02
1.276300752887711951e+03
1.857147737772494793e+03
2.324346811459708078e+03
2.404801412767685633e+03
2.052502823497914051e+03
1.207503856288814404e+03
7.864141631017793088e+01
-1.108113705173885819e+03
-1.419759025303441376e+03
-1.280232104667929889e+03
-1.992642770034962950e+03
-2.579905729458757833e+03
-2.349939432086192028e+03
-2.055643598248633225e+03
-1.276246425908355377e+03
-2.136984154299182705e+02
6.988829368616466127e+02
4.764264260282488976e+02
1.191459646906944414e+02
1.596852138469755346e+03
2.453462352404334069e+03
2.994078603638469303e+03
3.215613374090863545e+03
3.101082579810223706e+03
2.385602878771850555e+03
1.681173474870552354e+03
1.269867457080989652e+03
9.124519027678926477e+02
1.318970457655693167e+02
-5.955500643743066576e+02
-9.998029096891133349e+02
-1.352076922844251612e+03
-1.439500389812522371e+03
-1.445975244797758251e+03
-1.238437407291632098e+03
-5.639785205874571830e+02
-2.636246388094837698e+02
2.837120889359459852e+02
1.013925350824639281e+03
1.841167649559021584e+03
2.288582317254914869e+03
2.462196907502893737e+03
2.850948025327439609e+03
2.713615884080988053e+03
2.805207101000210969e+03
2.234704027183301605e+03
1.482328066016973935e+03
4.849747933384721250e+02
-6.256015498669145245e+02
-1.363430046180410500e+03
-1.806669664285237559e+03
-2.081342074534456515e+03
-2.473374106474759174e+03
-2.511780392496757941e+03
-1.944713946746041074e+03
-1.293115898639981424e+03
-7.338000320252099300e+02
-5.495597018239116096e+02
-4.742766398888696244e+02
6.050642173036428630e+02
1.192526346634315132e+03
1.799249511840768491e+03
2.056977114159708435e+03
1.826567913400333055e+03
1.822977763012317610e+03
1.159126193925239477e+03
8.769883519786940269e+02
1.256535373453536295e+03
1.083672437938821531e+03
-3.854811454765192025e+01
-1.047964227938242402e+03
-1.783380479794979692e+03
-2.326652877486747002e+03
-2.419072578549575610e+03
-2.795971378250712405e+03
-2.457363714564273778e+03
-1.563314129481641885e+03
-8.398269045119653811e+02
-6.682607600370765510e+01
1.023797218858748693e+03
2.033033529149053720e+03
2.081937650327081428e+03
1.504446612513444052e+03
1.248612966172483311e+03
6.666421072974109165e+02
-4.244777799525858768e+02
-1.899719333422500313e+03
-2.845815404690391460e+03
-3.119733047411250936e+03
-3.814129169958671810e+03
-3.946007793513113029e+03
-2.817236727335279284e+03
-1.884377399414726824e+03
-1.660243740077059101e+03
-1.065291325319785983e+03
-7.246308318467763456e+02
-6.522323033499485518e+02
2.403778566900119884e+01
7.472218475264752442e+02
1.873980693159595603e+03
1.807748615548478028e+03
1.978737274108795191e+03
3.520810826233315765e+03
4.340034812405621778e+03
3.702209667345405251e+03
2.941104784879712952e+03
1.248718088248676622e+03
1.009477758785236148e+02
-7.018631463146790566e+02
-7.687257057272282736e+02
-1.074696807799151429e+03
-1.157898241001730185e+03
-1.343881579620941238e+03
-1.326444676514400498e+03
-1.067138539909434712e+03
-6.638195611629821542e+02
-3.137262759162981496e+01
4.388396572531605102e+02
2.714510102086870234e+02
4.481228241593157122e+02
7.473010004683869738e+02
1.378038050672922736e+03
2.063461685741507154e+03
1.736747118877865432e+03
1.274770089352585728e+03
1.242577749858584866e+03
1.169475226776104819e+03
6.393141263347694121e+02
-4.020658034504889145e+01
-7.331307204467201473e+02
-1.338447732302498025e+03
-2.353196992457454598e+03
-3.768320095659989875e+03
-4.763746170105952842e+03
-5.031595158822528902e+03
-3.460760021660218626e+03
-1.523185432251173324e+03
4.001323972983395265e+02
2.139232623167430120e+03
2.758152581553712480e+03
3.029062189590506023e+03
3.571936836837389819e+03
3.505616378266211086e+03
3.756097968391929498e+03
3.850385008245826157e+03
3.151440524141577498e+03
2.183593944284721999e+02
-1.627948109805187642e+03
-1.114565718497834496e+03
-5.154772570287319695e+02
-1.446649364088415723e+03
-9.399254303120445684e+02
-1.158192676504933161e+03
-1.009566957621218080e+03
-1.287097353471219094e+03
-2.365748406611215160e+03
-5.137566349041951071e+03
-6.627594663842188311e+03
-5.210810677577906063e+03
-2.304321092109014899e+03
-4.163946888892230163e+03
-3.002599356570854980e+03
1.626328360163734601e+02
3.842909479070378893e+03
3.896506924251592864e+03
1.435488853955050217e+03
3.586302690482859248e+02
4.107275614028251312e+02
8.855617085834130648e+02
6.409761264303730854e+01
1.376746708324512269e+02
3.085830235630590437e+02
-3.793208501418110927e+02
-2.473206008474640385e+03
-4.481239982340108327e+03
-7.437569200845900014e+03
-8.551111827029599226e+03
-4.927653504261090347e+03
-2.610105119011097941e+03
-1.480517397601294533e+03
-2.598843942173401160e+02
3.440873923707093581e+03
6.814781438652908946e+03
7.278865784062891180e+03
7.276049698869857821e+03
7.311276927947607874e+03
5.685558121100886638e+03
4.098993912173537865e+03
2.937532742465544288e+03
1.395131363809028471e+03
-6.031363263298679840e+02
-3.623311559029585624e+03
-5.451449102823006797e+03
-4.805480973121821080e+03
-4.112509996802156820e+03
-3.761549938736172862e+03
-2.114453043052963949e+03
-2.652368391717687359e+02
2.697093056073710613e+03
5.642655991209890090e+03
6.131430230759405276e+03
5.664365156708135146e+03
5.168588680179430412e+03
4.590263297743779731e+03
5.541375111110241050e+03
5.977831710948610635e+03
5.492694258699923921e+03
4.041974882547765901e+03
2.435594281461607352e+03
5.026631295724215533e+02
-5.548621448830433565e+02
-1.092986944389471091e+03
-1.145719489046290846e+03
-1.106986924933240971e+03
-1.369949206572661978e+03
-2.448435649547662251e+03
-4.980457268261338868e+03
-3.025244248877277641e+03
-9.298044656582586640e+02
1.276617504295223711e+02
1.051202580657592989e+03
1.847162092183214099e+03
1.562187712021021753e+03
2.045390863809973553e+03
1.814036373957271735e+03
1.259987991961032094e+03
1.406099697205949269e+03
1.532358606416350767e+03
1.557766788103836006e+03
1.153290936218037132e+03
9.339303336175677259e+02
8.653424435055978137e+00
-1.582528329282986078e+03
-3.443610679615232129e+03
-5.135663702214673322e+03
-5.789743383310666104e+03
-5.472789693188626188e+03
-5.459781663390060203e+03
-4.890744774813708318e+03
-3.017674491302008391e+03
6.384822551735761635e+02
3.861780579438389395e+03
5.228244076328018309e+03
5.796843226154321201e+03
5.793577494430464867e+03
4.911482602533234058e+03
3.751547195856289818e+03
2.793644462005227069e+03
1.228765665882456915e+03
-1.768065139863784680e+03
-3.822889460921234331e+03
-4.437745899354656103e+03
-4.801678678805978961e+03
-5.682698697852258192e+03
-7.495867651759900582e+03
-7.770155477364430226e+03
-6.278465268502366598e+03
-4.787731713046779987e+03
-2.806981864901033532e+03
-2.123225899860306072e+03
-1.645522597760021426e+03
-1.908846326030596856e+02
3.507185732680464412e+02
4.703552297607307651e+02
6.010907777810915604e+02
1.048801055811972219e+03
2.984402907520805570e+02
-8.339477590586311635e+02
-1.790372716007417239e+03
-2.356930469696184446e+03
-3.845696566198164419e+03
-4.125709982888695777e+03
-2.609965499091056245e+03
-4.454295668078694348e+02
2.144971344928531380e+03
2.669233900765893850e+03
2.512217559391189752e+03
3.231960969347554965e+03
2.601545602482872710e+03
1.475931893286667673e+03
1.256116612516434088e+03
1.219234346098623064e+03
2.627240796251950997e+03
9.151347001778447066e+02
-1.740132012540036612e+03
-1.050513990509374707e+03
3.079486043313380605e+02
-6.578139769829364241e+02
-2.285814634734983883e+03
-2.621078420763741633e+03
-1.525613452608670741e+03
-1.387455368799994631e+03
-2.410626398907577823e+03
-2.627089263499846766e+03
-3.893844890667006439e+03
-3.318910696488845588e+03
-1.058328076679793867e+03
1.714894816160079472e+03
4.466788634227043985e+03
5.444362975664581427e+03
5.484669825542837316e+03
4.665683596329135980e+03
7.487482354496523840e+03
1.059710302142673754e+04
1.075256013996859292e+04
1.018991543680458562e+04
8.216151874257358941e+03
6.222134762588728336e+03
5.213828141385670278e+03
3.205237279021102495e+03
-1.243639333489671344e+03
-5.134887981655782824e+03
-7.470525570718609742e+03
-8.216529243956360006e+03
-6.752805824762915108e+03
-5.291324109596344897e+03
-2.515233087027870624e+03
3.006486605039921415e+03
5.653853514100899702e+03
6.123945303960989804e+03
6.608800297541387408e+03
6.762410743908792938e+03
6.030810126270785986e+03
4.294000465344111035e+03
8.629206833462408213e+02
-1.948424290608216552e+03
-3.020998729670533976e+03
-1.379758789040670536e+03
3.962261293427776309e+03
6.880051408292342785e+03
6.563628049063407161e+03
6.213969917486081613e+03
5.518015784948612236e+03
3.951767105559568336e+03
2.874255611293633137e+03
2.472465740882888440e+03
2.070285504899639363e+03
1.319732709305278604e+03
2.809043385261498429e+02
-2.716129813056235434e+03
-4.010313491288433397e+03
-4.025510503870079447e+03
-4.512750005129002602e+03
-1.029959361169461545e+03
4.173859445589350798e+03
1.413587875426760775e+03
-2.527750816983794721e+03
-4.518216956114464665e+03
-1.722901284215666692e+03
2.351618557198532358e+02
-1.097984640662980610e+03
-3.407345869089368080e+03
-5.182928046359787004e+03
-5.072681720442126789e+03
-5.144592273296923850e+03
-9.639677860547881210e+03
