1.245685692615224525e+03
1.353976176423799188e+03
1.214460114329616545e+03
1.415180819523203354e+03
2.071134332268615253e+03
2.096368914925523768e+03
1.611869040451027786e+03
1.392645524825105667e+03
9.556556153479447175e+02
5.048223102941132652e+02
-1.619182022916321841e+02
-1.095792407413760685e+02
2.888307880083651753e+02
3.823552500853125480e+02
4.919859695633771821e+02
6.073177096280740273e+01
-8.136433321277777964e+01
-4.553186865935172705e+02
-7.431673159206907258e+02
-1.605899857701248266e+03
-1.719629839363517931e+03
-1.055370499379306239e+03
-1.062126159840090622e+03
-2.451854229287281214e+03
-4.609520620343011615e+03
-6.235131182476417052e+03
-5.045707759912340407e+03
-4.967270711666561510e+03
-5.601861878720436835e+03
-6.701486223835454439e+03
-4.243244823926090248e+03
-1.292156700156594070e+03
-1.380211066890903339e+03
-1.444466753730370328e+03
-1.684929051148528060e+03
-9.915866609402220320e+02
8.461944015588613865e+01
8.506569743902481378e+02
8.725523722554806909e+02
1.485264118842887228e+03
2.115694764901981671e+03
2.557773100915049781e+03
2.824478568863787586e+03
2.971847136765620689e+03
3.311894106715305952e+03
3.802597076667111651e+03
3.627992997478831057e+03
2.730975846769687450e+03
1.754523497488728708e+03
7.785577879849524834e+02
2.421256746196382892e+02
1.161374396928002710e+02
-3.429821737775392343e+00
-2.315449694031865704e+02
-5.020447102502324555e+01
5.395297592311903827e+02
8.577365547180628482e+02
3.634144502127379610e+02
9.153975052866449857e+01
4.430782898406430945e+02
5.098545404383127106e+02
7.588852638765786196e+02
6.681834685730807450e+02
4.077702807652827914e+02
3.136811453231007931e+02
8.585777741770137084e+01
4.042829534218199115e+02
1.839651897877499778e+02
-4.021526487854689549e+02
-9.610656393043772141e+02
-6.047769871546837521e+02
-4.132919918438282139e+02
-7.686612079620164195e+02
-1.044922083938703054e+03
-1.213058749657961471e+03
-5.920273399696095566e+02
1.292020380534665378e+02
6.416967264754013058e+02
6.293969458220063871e+02
1.142152824292769083e+03
1.334979698957954042e+03
1.339889536850363129e+03
1.290825584095490740e+03
1.582788380445933853e+03
1.521864450222758478e+03
1.789113697046667312e+03
1.588471027544768504e+03
1.121844743323673129e+03
5.645317658029395034e+02
-1.486337277257237872e+02
-2.517167412684916599e+02
-1.607613411213890799e+02
5.127949441164050626e+01
3.424597812807533046e+02
4.046907668363156745e+02
5.281581833776501753e+02
6.412195270797730018e+02
-1.901567176086060044e+03
-3.794142821296324655e+03
-3.297467479981619817e+03
-2.955296695676033210e+02
2.378580583194193878e+03
2.242906678868681865e+03
9.348773911527854352e+01
6.344455242452647781e+02
-5.431952330254923709e+02
-1.262482107627068217e+03
-2.929393320672695154e+03
-2.641894957768789482e+03
-1.272964972011657210e+03
-1.445608972484591277e+03
-2.839833282414550922e+03
-4.459641075627227110e+03
-2.289975080044058359e+03
9.392189005778676574e+02
1.711967841926753408e+03
1.201304364092809919e+03
-1.388713241808741941e+03
3.449966717029736287e+02
7.294986357406797879e+02
-2.652613006104419924e+02
1.665702985922117023e+03
-1.145887249477032270e+02
-4.590358647784469213e+02
1.635376037182891878e+03
-4.203032061435070545e+02
1.720937993133056125e+03
-9.088407264984251697e+02
-1.636652691003933569e+03
-4.132457281917107139e+03
-3.528224068320636434e+03
-3.274003966867321651e+03
-1.172774168563926196e+03
-8.464308809733059888e+02
-2.326920463371445749e+03
8.127920736215411353e+02
1.764763784995687502e+03
2.680045479387192700e+02
-2.251401620456951150e+03
-6.841952484569371506e+01
8.329122707573760636e+02
6.075722267462809896e+02
4.386105407131478842e+02
1.082139048883106625e+03
1.611167329009432478e+03
1.529735241701210953e+03
8.358406937557897436e+02
1.515016706648833917e+02
3.467531047660359036e+02
6.226177555161507371e+02
4.450787571121759925e+02
6.631542827710234178e+02
4.088076336461369351e+02
-4.591495695609587102e+01
-1.688405225742252824e+01
1.319507908650716956e+02
1.535617130990924579e+02
6.197174423963750911e+01
-3.748076320642545625e+02
-7.978354614486981973e+02
-1.097558830353673329e+02
3.553965687477198117e+02
7.417880686701397508e+02
1.129117678088412504e+03
1.385176548086942375e+03
1.093310785239102870e+03
4.673987466286783956e+02
-1.434685520509759442e+02
-4.593040676182152993e+02
-8.578716828358709563e+02
-1.308587436364110772e+03
-1.285582416895752203e+03
-1.062097971742980690e+03
-5.607232695824675375e+02
-9.350377823614573458e+01
5.161778052809418114e+02
1.469725162544669274e+03
1.835652247484557847e+03
1.298395955692403732e+03
1.017322001295873861e+03
1.040423913724494014e+03
7.193455348076513474e+02
4.356889136893373120e+02
6.310142324492164789e+02
1.011508321670622990e+03
6.784766408431383979e+02
-3.576896544579962267e+01
-1.988715560664803093e+02
-4.919216520647332800e+02
-1.228920086259512118e+03
-1.848233973938453801e+03
-1.457719249029782986e+03
-5.473779986018091677e+02
3.628267951599657408e+02
5.759112224015946140e+02
8.688478779733467263e+02
1.240691958809584548e+03
9.775081737920793330e+02
8.852262739626140728e+02
8.957278604438176899e+02
1.148902701689783271e+03
1.236748905440778799e+03
1.783265500726037999e+03
1.931515185960990266e+03
1.848529918965311026e+03
1.888304364358224348e+03
2.051788937848987644e+03
1.574783390042299743e+03
8.663676576362989863e+02
7.334953984627977661e+02
5.490836795296950186e+02
4.481935523861982347e+02
7.327506591351600491e+02
7.387299234017659728e+02
6.971424559145459625e+02
8.169050550573612099e+02
1.414049439650585327e+03
1.475483421321606784e+03
9.651815280210595347e+02
8.141146293722034670e+02
9.282763929446725797e+02
9.166128805026978625e+02
4.590835357530816623e+02
5.397071778510015747e+02
5.986381927502211511e+02
2.309064030716722868e+02
2.046027158685380343e+01
-4.178141861182064076e+02
-1.160036085906241169e+03
-1.712347408360385771e+03
-2.861699291732205438e+03
-1.986116887672695157e+03
-1.438609426577076647e+03
-1.828092448838539667e+03
-1.845538628701991911e+03
-2.501030096874877472e+03
-3.365763032426242262e+03
-2.880761271735295395e+03
-1.554938388647401780e+03
-1.255195022204744419e+03
-4.006818449369709469e+02
3.444816148742538076e+02
-1.426157353735857782e+02
-2.408954017418010608e+03
-1.925964332012358966e+02
4.654274159407262346e+02
6.860359683413798848e+02
2.151151280212629615e+02
-8.341861359382106684e+02
-1.280837352796745336e+03
-1.615993904938199194e+03
-2.058767939818071227e+03
-1.904219707717409847e+03
-1.883309674898962385e+03
-1.157897813301399083e+03
-6.950386306030228525e+02
-5.018017036246776570e+02
-5.791277858067087436e+02
-6.709683829062382756e+02
-7.863737499263438622e+02
-9.883626525640589762e+02
-7.190666228188321156e+02
-5.785420168328898853e+02
-3.427498943626054597e+02
-7.163692211895484263e+01
4.807558353741373480e+02
9.274192858888011415e+02
9.094279230636262810e+02
3.687306671474588597e+02
-3.266555558152495564e+02
-1.014713003855300144e+03
-1.360526851735272658e+03
-1.232072524727110476e+03
-9.313758808752103278e+02
-6.424670163603238962e+02
2.606856375041568867e+02
4.101575804147435633e+02
4.149225713753864966e+02
3.638618760982535036e+02
5.819558001309716246e+02
6.633601628463634370e+02
5.094394541888837011e+02
5.401468456158129356e+02
9.972036498306392787e+02
1.115748675722858252e+03
1.161867090598002733e+03
9.007285912436467470e+02
6.792912864478687140e+01
-1.876228418094947017e+02
-2.246582738436814282e+02
-9.053078047359169886e+02
-1.103659449397205890e+03
-9.358562403858279595e+02
-6.929582580347605472e+02
-3.193428079840368738e+01
8.273230970242049125e+02
1.293740914073722479e+03
1.125309186216120906e+03
8.181318909541049607e+02
7.292660273212125048e+02
7.867487458831299136e+02
4.875441374963558019e+02
7.696348400868339468e+02
5.681554462364285882e+02
7.431856921235558957e+02
6.897232251181267202e+02
1.087800456305333000e+03
7.433876161156216540e+02
2.547779445465667791e+01
-4.928616760921765376e+02
-9.856585112199945797e+02
-1.505931024407887207e+03
-1.392747836310106550e+03
-1.033091505116937469e+03
-7.084699494229013794e+01
1.033033470372593229e+03
1.174489711649980336e+03
8.455334127572438092e+02
9.362308401065532735e+02
1.144652347142840426e+03
1.322768907103779384e+03
1.323546925019678383e+03
1.238977089219788240e+03
1.135093262909477289e+03
1.056936753977635590e+03
1.103461262573944623e+03
1.120662621687363753e+03
6.845617129766189919e+02
4.301176783806224080e+02
-4.866604971467755547e+01
-6.438155577163605585e+02
-7.933399063405277047e+02
-9.743527678989454444e+02
-5.208809598190016459e+02
1.670875346798296164e+02
4.005515415352035120e+02
7.835351015867253182e+02
6.131243192981847869e+02
3.313334019632481500e+02
-2.028837150250126058e+02
-2.545716290939928399e+02
5.263207086159393384e+02
1.546866556803019819e+02
-1.824438313234203406e+03
1.269937361613869626e+02
9.489661405191845915e+02
1.118503815455135509e+03
5.915704691456238606e+02
-1.457816307336077273e+02
-6.705538652814231000e+02
-2.485660710459398615e+03
-4.049208881896497587e+03
-1.866072245836694037e+03
-1.023286735651075674e+03
-7.157680908981857328e+02
-4.684821552743217694e+02
2.267500559491411707e+02
4.737849291988439973e+02
5.476228398844801859e+02
3.724318896445249720e+02
2.573632785419102902e+02
5.372286401665743369e+02
4.731787808510409832e+02
5.342282659511719203e+02
7.875110991804125433e+02
9.719053144432849649e+02
7.973100034926786748e+02
6.728797036302355536e+02
1.689993350512032677e+01
-5.925528892006959722e+02
-1.018845537669650298e+03
-1.267289210707190023e+03
-1.466046301826053877e+03
-1.487878925030094706e+03
-8.082390529300454318e+02
-1.943844211486868687e+02
1.675189251516049183e+01
4.836628454321481030e+01
3.702757012956802214e+02
7.617629871043592402e+02
9.367736076588959122e+02
9.950596319549273403e+02
9.079611620079742806e+02
9.271982171420634131e+02
7.521717290208524673e+02
4.349284781997008054e+02
7.676188669812534044e+02
4.086414526292339815e+02
-1.637387012283735999e+02
-8.503655187168252496e+02
-1.480351707731803344e+03
-1.788749723112900256e+03
-1.776997533448221930e+03
-1.729898929914966402e+03
-9.822759884964099228e+02
-2.039548555046118281e+02
2.727852786940084115e+02
2.790616986493886316e+02
7.495756924040973956e+01
2.864465925346503923e+02
6.564852194611177083e+02
1.132072156300858296e+03
1.152263256221978054e+03
1.003099483591704711e+03
1.114593588225041913e+03
1.376744439290362152e+03
1.423599189396352585e+03
1.352229588908388678e+03
6.646341067278607397e+02
-5.001648686305665024e+02
-8.791006674800570408e+02
-9.032405491858875166e+02
-1.120562752751511653e+03
-1.363080790209575525e+03
-1.955839638441633724e+03
-3.985808203209266139e+03
-4.414690017328885915e+03
-3.582765976384996975e+03
-1.123091369058675809e+03
-1.441729330874480183e+03
-1.405693402801914544e+03
5.229723264580011346e+02
5.262875370462280671e+02
-3.317110288811177838e+02
-1.869011647928349021e+03
1.483379046117209782e+03
2.674485572067684984e+02
-2.777793945894628905e+03
-1.455306875090736412e+03
-2.585147110087444162e+03
-3.973423927069778529e+03
-2.472164829732770613e+03
-3.635414509128629561e+03
-1.371198030446363873e+03
-3.120499595442739064e+03
-3.328213836377719417e+03
-1.806401751383069723e+03
-3.445084607462649274e+03
-1.643211733826268301e+03
-1.572743262884373507e+03
-1.629757051301344063e+03
5.556458075896699711e+02
-1.169512655622636657e+03
1.119824228523746569e+03
2.249601733239570876e+03
1.666816009758896143e+03
1.406475154696808431e+03
1.399542879148367547e+03
7.779424811763022944e+02
6.461440577574201427e+01
-4.435258202281398781e+02
-1.272541603259640624e+03
-1.273421409694849899e+03
8.485802667816770395e+01
1.245329350489475019e+03
1.714971984273514863e+03
1.397757313782864458e+03
9.316236107254292165e+02
5.095748725762397839e+02
6.325458439863391504e+02
1.017486196610935735e+03
2.155335825459410444e+03
3.223053929494718886e+03
2.795713411218541296e+03
2.970339291267603130e+03
2.788820789522526411e+03
2.559036981768249007e+03
3.001959637275132081e+03
3.196569617615404240e+03
2.648797723029589633e+03
2.129479916293647875e+03
1.215448513062018492e+03
1.114948638434235590e+03
1.043065272676370114e+03
1.333724642366215221e+03
1.013993463848074725e+03
9.630572057703025166e+02
5.627012374150021969e+02
-1.804462981404224706e+02
-1.002554517307691299e+03
-1.683243784178946783e+02
1.335196303257487898e+03
2.537001549609584799e+03
3.262081383020848079e+03
2.801409781027577537e+03
1.508054480717240040e+03
8.409847455852475377e+02
5.853008609007379164e+02
3.508098168887015618e+02
5.480838694418876003e+02
1.052319810638910667e+03
1.400605632009227065e+03
2.721737348282470066e+02
-1.047243270682613002e+03
-1.045917055482845853e+03
6.620185682208493745e+02
1.069610727062561182e+03
2.717852137178720113e+02
6.385230508124194557e+02
1.794832827805467559e+03
2.108882989162435024e+03
2.290312950947815352e+03
1.927086136491163870e+03
6.302056842471569098e+02
1.166727712484517951e+03
2.423694376552937229e+03
2.384061400985566252e+03
2.154835647856952164e+03
1.285987063265438110e+03
2.533883435210277639e+02
1.680561948365156582e+02
-2.231125364801125386e+02
-7.741479141876117183e+02
-7.939987304752040700e+02
3.473676132180498826e+02
1.014015819337558810e+03
2.217916350336091455e+03
2.702055021202421358e+03
2.072405863111815961e+03
1.352985238750810140e+03
1.573748342074653465e+03
1.064658519034024266e+03
2.666709149297751082e+02
5.179267469274607549e+01
-1.169213585371244193e+02
5.056243031291411967e+02
1.421402771796931802e+03
1.515444531472773861e+03
1.433764004061760033e+03
1.285335541795904874e+03
3.851853674800769909e+02
-2.506975150466237494e+02
-7.383864280988416340e+02
-9.957441406402881512e+02
-2.068713088214920390e+03
-4.413270014156735670e+03
-6.974397492159889225e+03
-6.357058567081506226e+03
-6.216166042632220524e+03
-6.986663930787797653e+03
-7.036581021135037190e+03
-6.767924667038389998e+03
-4.719646074774013869e+03
-3.733697977744682248e+03
-2.427880095149838780e+03
1.678237107996864950e+02
1.600424774177517293e+03
1.899047253415676323e+03
1.292703235807764941e+03
2.834532306325514810e+02
-7.097081832445036298e+02
-1.234844499752482989e+03
-2.322940122427279675e+03
-3.799889954292085349e+03
-4.380576071063619565e+03
-4.543908388487844604e+03
-4.446826046237361879e+03
-4.729248332870114609e+03
-5.238086998099857738e+03
-4.819327650379836996e+03
-4.280849155211900325e+03
-4.177637693813310761e+03
-4.040618428517311713e+03
-4.202753740485804883e+03
-4.318921001087938748e+03
-3.677054133339318923e+03
-3.600091861025791331e+03
-3.476971004357665151e+03
-3.918568635287078450e+03
-4.592882818231943020e+03
-4.920925461690427255e+03
-4.691658980259300733e+03
-4.742058006957835460e+03
-5.089007349239796895e+03
-4.493446859915559799e+03
-3.229277335605231201e+03
-2.437382974884774285e+03
-1.933744316955484919e+03
-1.781252967394812686e+03
-5.957645837975361474e+02
8.068080381675955550e+02
1.267478062257833699e+03
1.534309673282413996e+03
3.094366605291420456e+03
4.305696296028492725e+03
5.178347043971927633e+03
5.830442728553151028e+03
6.516030332042869304e+03
6.620150362807915371e+03
6.589864651243013213e+03
6.579199263137485104e+03
5.915142227815906153e+03
5.974708979724707206e+03
6.950937981641333863e+03
8.134912517767555983e+03
8.819673572903684544e+03
9.376381452140243709e+03
1.038208167889912875e+04
1.041873526420627422e+04
1.035448373586211892e+04
1.046056992597932185e+04
9.976706774143993243e+03
9.222918818780106449e+03
8.155280512631632519e+03
7.622903843516432971e+03
6.946845230272052504e+03
7.343103903308981899e+03
5.903915818911541464e+03
5.816326486750349432e+03
5.005058099123908505e+03
1.565288804479855798e+03
-2.555999758162515263e+03
-2.969898657260605887e+03
-2.461426594752514120e+03
-1.567522851045186826e+03
-1.038108900779351643e+03
-1.051104382026079975e+03
-1.271500228812146588e+03
-1.670310069934943840e+03
-2.002421395771972811e+03
-2.167898914048952975e+03
-2.404786453124886521e+03
-2.970082586170560262e+03
-3.282842040523225023e+03
-1.376018921338385553e+03
1.279464268891918209e+03
3.541619457413019518e+03
3.708427419665420985e+03
-9.451413376920422706e+02
-5.216061570610763738e+03
-5.847334029277398258e+03
-5.948032273085655106e+03
-6.636255825855009789e+03
-6.628038302026094243e+03
-6.134355558104721240e+03
-5.871230953552936626e+03
-5.311663409675651565e+03
-5.477658951812050873e+03
-5.734219599049376484e+03
-5.666360494635634495e+03
-5.506120009789186952e+03
-3.200545199812259852e+03
-7.356502492154285164e+02
-3.361508720912025183e+03
-3.349075293087042155e+03
1.253633537584318219e+03
3.720627051973004654e+03
3.732868475784075599e+03
2.672281139717689712e+03
2.116765910611591153e+03
9.313326987682345361e+02
-1.617183499627451937e+01
-1.988410832928096568e+02
1.122980337332340213e+02
3.732226865025924099e+02
1.539676806804047544e+02
6.146635832211364203e+01
-2.003419614110735836e+02
-5.175613977621417234e+02
-1.312210055804501280e+03
-2.517282489852847903e+03
-3.321783543871053098e+03
-3.660936793382246833e+03
-3.695936814824460726e+03
-3.440762028765086143e+03
-3.453057922445596887e+03
-2.933833241065665334e+03
-2.858173276111233463e+03
-2.356189499100028115e+03
-2.092949740683177879e+03
-2.615498251569035347e+03
-3.363830777443977240e+03
-9.496666232808934183e+01
1.326981397650901272e+03
2.302894773177107254e+03
2.715543293545308643e+03
3.221192391943742678e+03
3.234796379892798086e+03
2.977097001376345816e+03
2.741806043949529339e+03
2.533193531174768395e+03
2.472529780251699776e+03
2.127922974496748338e+03
1.762336808478282819e+03
2.535176822203149186e+03
3.138229168868472243e+03
2.920642570410921053e+03
2.529417217633225391e+03
1.880286695349101819e+03
1.494427170054463204e+03
9.474811993148069860e+02
9.336478858528399769e+02
3.997281743601403718e+02
-7.251466433710092474e+01
-1.408085137251632659e+02
5.646516947349484781e+02
1.141557223908439028e+03
9.839539035469683768e+02
5.860345974821354957e+02
6.167794987717176127e+02
6.716593632344505522e+02
8.066440692170399416e+02
7.897929367797559053e+02
5.320553215368856854e+02
5.753848479568041512e+02
9.437791959457384792e+02
8.532250824657762678e+02
-4.313190973090792113e+02
-1.362886637034509704e+03
-1.636620860462084011e+03
-1.815668100506017254e+03
-1.792050613993847264e+03
-1.648805121968086041e+03
-1.615947613014620401e+03
-1.202470621646222753e+03
-5.443956493557595877e+02
-3.147929561529151670e+02
-6.846761089299938021e+02
-1.154148187801011090e+03
-2.423183080025633629e+01
1.538180241483948521e+03
2.010922380177446712e+03
1.908956720091842726e+03
1.795301378385856651e+03
1.967011128068668540e+03
2.194116295983170403e+03
3.395858596419815285e+02
-4.082638920718079135e+03
-5.504568032913097340e+03
-4.935228717712933758e+03
-5.296608123303802131e+03
-4.998777297666345476e+03
-1.027718443695473979e+03
1.822549225416815489e+03
4.700223098186073116e+02
-3.827227840990952245e+03
-3.904102515436819886e+03
-4.189772727595087417e+03
-4.666291860525225275e+03
-4.821691725790338751e+03
-5.251946404223725949e+03
-4.819932536924181477e+03
-4.164563127469681604e+03
-2.234872057970257174e+03
2.670982877857271660e+02
-2.412611448540482343e+03
-3.514055286159678417e+03
-2.760240243967278275e+03
1.353858318999963330e+03
2.833369150741194517e+03
2.792320564333664151e+03
2.545621527431801042e+03
2.511108126516589891e+03
2.687855803242110596e+03
3.243981892184184289e+03
3.189439937472440306e+03
3.609225883692103707e+03
4.433450785595742673e+03
4.050107556920178013e+03
3.641254491905709529e+03
3.497039559043852933e+03
3.411316174843339468e+03
3.472993630814600237e+03
4.014187170828829494e+03
4.368915689477327760e+03
3.910283166524353874e+03
3.729348036878486710e+03
3.161117219503286833e+03
2.091660793806233869e+03
1.449085342954780572e+03
9.733379729547532406e+02
1.416292003484127463e+03
1.623998544991679410e+03
1.641460808900553957e+03
1.914791593249573452e+03
2.486111866691556315e+03
2.769473516689383814e+03
2.722882922956903258e+03
2.426427496717671147e+03
2.122198998904657856e+03
1.981153708472282915e+03
2.410357541641731132e+03
2.068699600368458050e+03
1.712195661582287130e+03
1.512959092650627554e+03
1.175022234604722826e+03
1.145370107621827174e+03
7.481190070695564600e+02
-2.737458891585619654e+02
-6.272203460783227911e+02
-7.571002129735861672e+02
-1.060230336156435442e+03
-1.297498610924525792e+03
-1.636827269159976595e+03
-1.564388107888796185e+03
-9.650738591185470341e+02
-5.847594270282052094e+02
-1.066471143784897095e+03
-1.626109717722349387e+03
-2.668854584591338607e+03
-2.539475364121556595e+03
-2.303194679769209870e+03
-2.309177452199576237e+03
-2.036364916237508396e+03
-1.802720813889786314e+03
-9.221281080229387044e+02
-4.574916018153835466e+02
-9.447993363516455929e+02
-1.689068762732783171e+03
-2.183195370555566569e+03
-2.622091777000091952e+03
-2.967770675049167949e+03
-3.218225945358322861e+03
-3.093493263320884580e+03
-2.992449005993012634e+03
-2.913063374984482834e+03
-2.504469201788462215e+03
-2.290661941039569228e+03
-2.110558231667738255e+03
-1.717139064709115246e+03
-1.213383094257328366e+03
-1.151328306717339728e+03
-1.104112285087500595e+03
-1.215658802279544716e+03
-7.108713752674210582e+02
-3.385867163701885829e+02
-6.578728940825739073e+02
-6.138498011401392205e+02
-7.044936296467739112e+02
-1.046785926705694010e+03
-2.190667331314089097e+03
-2.789191565058972628e+03
-2.699518199806284883e+03
-3.296646170512941808e+03
-3.673533375674515810e+03
-3.161087075279698638e+03
-2.264368703107311376e+03
-1.896481976234186732e+03
-1.312382459810301270e+03
-6.020140955882800426e+02
-5.154864709595497061e+02
-5.247741230512635866e+02
2.110308248541995280e+00
1.811390524071245238e+02
5.282909158944936507e+02
9.436236052063403577e+02
1.797137754630871314e+03
2.348801071868623239e+03
2.100679001772922675e+03
1.812702331392323686e+03
1.277801145873139149e+03
2.159802524858803565e+02
3.221810726113930912e+01
1.964707810080153081e+02
1.877183834956628914e+02
3.110206782155436827e+02
1.191449235975872170e+03
1.980025521177838755e+03
1.882822567139325201e+03
1.663844648108310139e+03
1.607095975774663202e+03
1.387613608354565258e+03
6.242631778039290111e+02
7.918286862144343559e+02
1.010912215614777892e+03
1.179417528366966735e+03
2.564202995723152526e+03
3.293373698516762488e+03
2.575174889244822680e+03
1.705333010964742925e+03
7.978931640810131967e+02
3.457687112472751778e+02
3.866200210925073293e+02
3.708500859948949824e+02
4.293145408506200056e+02
1.639745262419095525e+03
2.270689260461522281e+03
2.613899146890666998e+03
3.000425630995142910e+03
2.240192450179944444e+03
1.924273583934340195e+03
1.939332161758946313e+03
2.039256133278881634e+03
2.015050905568466305e+03
1.758019606560301327e+03
1.925366278158534442e+03
2.472992998238377368e+03
3.206813684890987588e+03
3.038709463958046854e+03
2.231905366709727332e+03
1.634120670009200467e+03
1.183456051247926780e+03
1.106710788180129157e+03
1.081915418574074920e+03
1.272149963499236492e+03
1.500323463198061290e+03
1.744636488283896142e+03
1.545834852299921749e+03
1.287687948164264753e+03
1.084435162439858459e+03
1.183056046536616350e+03
1.196466828836557852e+03
1.571450109664605861e+03
1.952921596600658404e+03
2.142959490974342771e+03
1.870931397888228275e+03
2.356629300697783492e+03
2.309098137034187857e+03
1.805337383281649863e+03
1.274337523413215422e+03
4.630061774185421655e+02
3.452594802791410871e+02
3.950902461394192642e+02
5.564392448192129450e+02
2.092868626276402324e+02
-2.193097518879341976e+02
-1.622807892327844854e+02
8.984185463129548452e+02
-2.318857809220610733e+01
-3.534099795348392945e+03
-7.176303826720464713e+03
-6.754851562498262865e+03
-6.408774966882327135e+03
-5.772113043442236631e+03
-5.449875706054545844e+03
-5.486124450596132192e+03
-5.470818673395217957e+03
-5.090887011929534310e+03
-6.096333153186685195e+03
-6.754498289384537202e+03
-6.998209416672455518e+03
-7.496444334741730017e+03
-6.245199706001682898e+03
-4.070545924974328955e+03
-1.709473032793916900e+03
-3.950893952030365654e+03
-3.131751690778916782e+03
1.675013775086324813e+03
1.550427763902450579e+03
-3.197421072667166300e+03
-5.274509861442802503e+03
-5.523936370081374662e+03
-5.590727410691380101e+03
-5.502848724815900823e+03
-5.131267966321466702e+03
-4.200930616325021219e+03
-3.310849974165394997e+03
-2.895993330157763012e+03
-2.974399238402944320e+03
-3.545977695959434186e+03
-3.088677849003002393e+03
-5.605381634329806957e+02
-2.722651931133269954e+03
-4.208001990411624320e+03
4.045021645650946311e+02
2.481890039254167732e+03
2.858172999028537561e+03
2.864386157698520037e+03
2.614588351836610400e+03
2.518835248659050194e+03
2.681161274476336075e+03
2.763582822125804341e+03
3.063096988849807531e+03
3.576725099269666316e+03
3.860620025504906607e+03
3.604808118977451613e+03
3.525256490266839592e+03
3.868971914442244724e+03
3.819934603527573472e+03
3.205199907667366460e+03
2.769767845269034751e+03
2.324604069112239813e+03
1.789729881603358535e+03
1.750147202034482234e+03
1.724964649582852644e+03
2.037177308856321588e+03
2.808621713626497240e+03
2.397317295510487384e+03
1.245407868479488570e+03
2.209336337374577965e+02
8.047998731414540998e+02
2.107951394568231990e+03
2.706457247831645418e+03
2.741718170109737912e+03
2.205018958448525154e+03
2.103254203200752727e+03
2.366483208059648859e+03
2.286776421901556205e+03
1.893689959090499087e+03
1.480800897959109307e+03
5.285394939919805211e+02
-1.408683058622404474e+02
1.858232703453282113e+02
3.933785282823257745e+01
2.106735970834774605e+02
2.287769620626599121e+01
-1.290535149182364592e+02
1.139435941865535256e+02
4.179196300501279211e+02
6.515941225854029426e+02
5.668778735877909867e+02
8.988877797180026619e+02
9.000636385793119416e+02
1.116302341440293048e+03
1.552499231425555308e+03
2.032435367443666564e+03
2.303379279424163542e+03
2.442122779499433364e+03
2.218544786355538236e+03
1.638612601346678275e+03
9.183172639903143590e+02
2.946270969711302996e+02
2.695512827988236495e+02
8.210706990556961955e+02
1.029132877547014914e+03
1.167819359033188675e+03
1.864156408575749538e+03
2.247171777011857557e+03
2.143906843829908667e+03
2.026274146385924041e+03
1.496236409785307615e+03
1.031790832368539668e+03
3.959737276959612018e+02
1.657663261463259232e+02
4.618025930725789152e+01
7.042653993480832924e+02
8.659987685083668794e+02
2.633977011463610438e+02
-5.006492673078840312e+02
-1.029127673711176612e+03
-1.121069923354841649e+03
-1.266524533535883620e+03
-1.511575653004659443e+03
-1.245193317994348945e+03
-1.004333006926285179e+03
-3.759870390811114476e+02
-1.932241686491956330e+02
5.139058604775416370e+02
2.733575439918724328e+02
2.592020380365527785e+02
6.144170491553610418e+02
8.430176465998532649e+02
2.949692446907798171e+02
-2.358123461553618370e+02
-1.589349666494638541e+03
-3.808570639452841988e+03
-4.049529376913976648e+03
-3.726244352492541566e+03
-4.132752898923536122e+03
-4.990093008140700476e+03
-5.753262006381728497e+03
-6.055263664309482920e+03
-6.199250438562600721e+03
-6.518273913736996292e+03
-5.498276837450700441e+03
-4.847292895460399450e+03
-1.763232093617197961e+03
-7.212197330210486825e+02
-1.183627278116093606e+02
4.146572046232860771e+02
2.046685356416274715e+02
1.795989967848822175e+02
4.633259849617867872e+02
3.577906436379391835e+02
-8.095179447103102177e+01
-3.368390469450588967e+02
-5.359241910671395317e+02
-5.662674564964353294e+02
-4.329221600955917211e+02
-7.698537343458344822e+02
-1.041090641930296528e+02
5.812361695725996924e+02
3.371067875328924970e+02
1.534491796312557312e+02
5.362309031263191628e+02
1.196449654058677879e+03
1.845090862151855845e+03
1.975137158948119122e+03
9.066112726052980406e+02
-5.148541353512064944e+01
6.285612915155634539e+01
1.796546088977909449e+03
2.500552314859872240e+03
1.798920443413967405e+03
1.784591309245943876e+03
1.674582025715452801e+03
1.949930836189620095e+03
2.592712458482021702e+03
2.084827982861218061e+03
1.169203788654128630e+03
4.219386291688475126e+02
4.749958231888833780e+02
9.922651493776347706e+02
7.416981877852474554e+02
2.362983433325624105e+02
2.601034093001838983e+02
4.040725509614815678e+02
9.572499427441927082e+02
1.387668269118501485e+03
1.487316854792333970e+03
1.519222760490800056e+03
1.842381304273978003e+03
2.112772677611402742e+03
1.994294639352047852e+03
1.951973067161185327e+03
1.619866362254206706e+03
1.374985809223968090e+03
1.703357449676839678e+03
1.528023000524976624e+03
6.929068763306022447e+02
6.103694352700694026e+01
-8.455251208031173746e+02
-1.100783830913882184e+03
-9.228672313625016841e+02
-3.477889895036138910e+02
-2.247328246775446559e+01
-1.488128469840053185e+02
6.492058206812038179e+02
-5.963667475270329987e+02
-4.176399546086321607e+03
-2.155922926843963069e+03
4.450245178303441662e+02
8.634101716421748733e+02
-5.958552819111220060e+02
-6.627283158752268264e+02
-1.050072089544600658e+03
3.791831507047853052e+02
1.820065856281101333e+03
-1.329471865475871709e+03
1.835738067695272093e+02
-5.177334131462725964e+01
-4.426500356170175110e+03
-1.867686341705283212e+03
-1.869310916847501630e+03
-1.041354467504398372e+03
-1.358761659095779805e+03
-2.763941778707819594e+02
-8.052442664765411564e+02
-1.360278695558160962e+03
-1.493466061499305169e+03
9.822249635860846411e+02
1.215822380674763735e+03
-5.976911210530333847e+02
-5.173747510128599743e+02
-1.391218445857216011e+03
2.918969578038419286e+02
-6.769508999416110555e+02
4.832333055288034984e+02
-8.325819746002065358e+02
-1.344386036162007485e+03
-1.326094972074856969e+03
-2.546730325679244288e+03
-5.532850144005169568e+02
-1.304781114856770728e+03
-2.592155266350604052e+03
4.256372024513740939e+02
-1.598326952479473903e+03
-2.609057474852263113e+03
-9.415548934616340375e+02
-1.211833600917700323e+03
-2.698805776146411972e+03
-4.444359469015146828e+02
-9.871555965647938535e+01
1.822839717230042709e+02
6.486167614793080247e+02
1.987318931301642351e+03
3.118393148731718611e+03
3.542883292209997308e+03
3.597785430449840078e+03
3.035122226732265972e+03
1.891904243727963831e+03
1.209071245310466793e+03
7.336089092240832770e+02
9.158117233604946250e+01
-1.608233953148908029e+02
-1.167961344423449965e+01
7.199188650582411810e+02
1.360426645305924467e+03
1.515739196386841286e+03
1.884841037985862386e+03
1.841753306647939098e+03
1.482459428140272621e+03
1.468998256228075206e+03
1.562307383845205095e+03
1.165300526525664509e+03
5.791081653356400238e+02
9.057433808644907458e+02
1.428191091128430344e+03
1.620451192309708858e+03
9.564230770902188397e+02
-3.909729015993095231e+02
-1.372022625128989148e+03
-2.038149308459213898e+03
-2.251929941938347838e+03
-2.236003114287403150e+03
-1.506659108279091470e+03
-5.663808548821712066e+02
3.656846379512466569e+02
9.713860864299686000e+02
1.145741343192121576e+03
