-3.694089160450216241e+03
-2.845424736723196929e+03
-1.809052118325272886e+03
-1.503187258311821097e+03
-1.610001912076352255e+03
-1.508637199274264049e+03
-1.169243771380248972e+03
-9.929667116160892419e+02
-1.416947650569202779e+03
-1.467321815414950379e+03
-9.773749690736345883e+02
-3.961703441972319979e+02
-1.787623231657681799e+02
-8.823596469334470385e+02
-1.901084963242480171e+03
-2.687509521860232780e+03
-2.856403096085525704e+03
-3.228480760360085696e+03
-3.333515333123216351e+03
-3.115471267812888073e+03
-2.656874853038301808e+03
-1.724985189676302070e+03
-1.106448456421840774e+03
-5.570578716584763015e+02
-5.367442797699404622e+01
-7.738547250126552512e+01
-4.339088976395568409e+01
7.272218465756592423e+02
1.317937734239115798e+03
1.381077280187858150e+03
1.525371634179092098e+03
1.529665040431801572e+03
1.769909971171530287e+03
1.400904289701545849e+03
8.614414929111868560e+02
1.822535002269367794e+02
-4.814642053285191423e+02
-1.068840775727243226e+03
-1.012056190189960034e+03
-7.467094802461401741e+02
-1.109715754632799417e+03
-5.100704783263826130e+02
2.512946582719968660e+02
3.728768017124737071e+02
6.720708897977274319e+02
1.966467395032697823e+03
3.555210900982435760e+03
4.118987850674025140e+03
3.876666786036220856e+03
3.855263196619765949e+03
3.989715788540752328e+03
4.007916858492563279e+03
3.952817620297824305e+03
3.574379829710101149e+03
2.887572245802896305e+03
2.025342709990050935e+03
9.726338897267753509e+02
2.543850650835813951e+02
2.384261597183630386e+02
7.576573275212582530e+02
1.573118527082714763e+03
2.018288830043775590e+02
-2.566329745524952159e+03
-4.158340000788512043e+03
-4.003153769191990250e+03
-3.346657718730578836e+03
-3.234704987742056346e+03
-3.979365065176838016e+03
-4.002869646739252403e+03
-3.537154084105651236e+03
-3.646114481238636927e+03
-2.569727743807119168e+03
-1.166826955908316904e+03
-1.700376157604044920e+03
-2.007462937124881819e+03
1.185928835117257222e+03
1.302838898620635973e+03
-3.012595467596440812e+03
-4.173318340304825142e+03
-1.831398230735764173e+03
-4.074834305985904848e+03
-4.999520984508839319e+03
-4.460176822510970851e+03
-3.712640960843459652e+03
-3.458766091352638341e+03
-3.599348290474425539e+03
-2.838573899006845750e+03
-2.760640288347133264e+03
-2.857544448356299654e+03
-2.659051572689536442e+03
-2.245806806211864568e+03
-1.724682306929288188e+03
-1.675601724117590720e+03
1.645199328665602252e+02
3.050775637225569426e+03
3.379218044807731076e+03
3.267872000361042410e+03
2.588838555172244469e+03
2.489251982999272514e+03
2.063263883806152080e+03
2.433046583948020270e+03
2.916738006533082171e+03
3.055271330181259600e+03
3.496568177026232661e+03
3.493677447131333338e+03
3.499883346427576726e+03
3.543537973772031819e+03
3.747769682609708070e+03
3.849583970834357388e+03
3.615055999497718858e+03
3.136377098851502524e+03
3.398554700967119516e+03
4.017793132290405083e+03
3.196283815505990788e+03
2.240054235244577740e+03
1.493208377423129605e+03
1.157835041448771335e+03
9.120144926100412022e+02
7.489071208991842923e+02
8.584604518003301337e+02
1.102681972563639647e+03
1.392851071421809593e+03
1.902008154810874885e+03
2.235158331062890284e+03
1.849385617321616792e+03
1.673924480869795616e+03
1.906988898590624785e+03
2.414907887104364363e+03
2.648906375910061342e+03
2.660852299018506528e+03
2.452617320941265461e+03
2.453087862090388626e+03
2.305161649576650234e+03
1.748227648972411316e+03
1.639771564610235828e+03
7.129301801223624580e+02
-1.857246065460673492e+02
-6.949379922576090394e+02
-8.356412862175525333e+02
-9.098546902594359835e+02
-6.974713166982246548e+02
-2.673067579255800865e+02
-2.412136147932344272e+02
-2.085445122218398524e+02
2.926025789830541726e+02
7.244708302000721005e+02
6.431888267061041233e+02
6.466893851485600635e+02
3.100109908662732892e+02
-2.837592771708168584e+02
-6.835786712795750191e+02
-9.344786470367051834e+02
-1.034324409639531495e+03
-7.840284274500547781e+02
-9.728124810279259691e+02
-1.205769275683483784e+03
-1.493818368831703992e+03
-1.739032006914050726e+03
-1.637541756218282899e+03
-7.342888539707782911e+02
1.778288180874401405e+02
8.477783840521940419e+02
1.038566089788802628e+03
1.043168216969599825e+03
9.796183355788494964e+02
9.329143676440702393e+02
6.959934454844083120e+02
7.894226818724638406e+01
-2.017873733989661389e+01
-2.634427808013085723e+02
-5.980153329231118278e+02
-4.080084465518806951e+02
-4.295981389864366520e+02
1.349493831850308254e+02
9.824647274139358615e+02
6.799439220715615875e+02
1.704441019391209124e+02
1.499680469192931582e+02
-1.535612982718527917e+02
-2.282863927140161877e+02
-1.381924986247308311e+02
5.936297146320565616e+02
1.332056440342560336e+03
1.428042039832075488e+03
1.284690249749281747e+03
1.340953040000712008e+03
1.464713208240993936e+03
1.287837999064314090e+03
9.252912266230964633e+02
4.502557620659305115e+01
-1.960996203551332655e+03
-4.900820123922970197e+03
-6.792488748618561658e+03
-7.697988427053875057e+03
-8.115383410901309617e+03
-8.651774089983502563e+03
-8.328253958914025134e+03
-6.585903461430532843e+03
-4.797772102616507254e+03
-3.598882523428497734e+03
-3.158209846453477894e+03
-1.038820613250956058e+03
1.125284052720819091e+03
1.894107141617804245e+03
1.104632119825331301e+03
8.228683445253335549e+02
8.048467509582112598e+02
9.506009670414847506e+02
1.447143731605807034e+03
2.573393210777345303e+03
2.823399124417449002e+03
2.928238505247524699e+03
2.992948267022117307e+03
2.546508053812821800e+03
1.830877059887178348e+03
7.800460500450664085e+02
-1.029828803604355016e+02
-6.512354994691738739e+02
-9.987427379819380349e+02
-1.121497054279333497e+03
-1.365571109658415025e+03
-1.429943444890537876e+03
-8.976367316160766450e+02
1.734611934423718793e+01
6.640223133781117895e+02
1.068354665243813770e+03
1.335290095621917544e+03
1.051873597373568373e+03
2.760744340341216230e+02
-4.071385502852239142e+02
-1.028703017732352691e+03
-1.231570068379438453e+03
-1.035739518711006895e+03
-1.291285466466275238e+03
-1.849224931516363540e+03
-2.323568578175259972e+03
-2.362268760131455565e+03
-2.083382887094718626e+03
-1.305963049778209324e+03
-6.520673454824378723e+02
-2.368073177174408528e+01
7.442621403182264430e+02
1.372783772937945741e+03
1.699905154406398879e+03
1.754655736707338974e+03
1.521037662827109443e+03
1.140031466053367240e+03
1.437648754414131190e+03
8.779165188246573734e+02
1.041750316843387736e+03
1.419115942999727395e+03
9.250677387267774066e+02
5.495784355140073103e+02
1.906268206813550705e+02
-2.026265875139407626e+02
-1.132543322375709316e+01
8.753867297911432388e+01
-2.970263328511899772e+02
-1.730822222846895215e+02
-3.316137702320827998e+02
-6.555515403215949846e+02
-4.188537249796657989e+02
3.095023444901726180e+02
9.605592534710367545e+02
1.671312076873972046e+03
1.221894832327370978e+03
-1.912654516813287273e+03
-3.002318239280439229e+03
-1.952127858049863562e+03
3.738795798413093507e+02
5.787654780411407955e+02
-3.513998353968717652e+02
7.524294725381068929e+02
-1.350778796723307551e+03
-1.452947463298547973e+03
-1.207091655129559740e+03
-1.684251781073485745e+03
-2.803406588166872552e+03
-4.085966910440667448e+02
-2.227765922003350624e+03
-1.674880481341878522e+03
-3.198855166792476439e+02
-3.036681455523579984e+02
-4.012230920451291354e+02
-2.722613521538979967e+03
-1.713801965543217420e+03
-2.315722890368118442e+03
-3.247347333297547266e+03
-2.397700490366903523e+03
-8.108180071295421385e+02
-3.142650681150872515e+03
-2.262094135362948691e+03
-4.331098782556719016e+02
-2.776630805743042174e+02
1.265250390126682078e+03
-2.515376049674509886e+03
-3.742547372213359267e+03
-2.326258443978459582e+03
-1.780588035374952142e+03
-3.934547192542731864e+03
-2.850025514324967844e+03
-2.742003001505623615e+03
-1.595073125272484731e+02
-1.244197839178862530e+01
-9.371421205413064115e+01
1.268692900750906574e+03
1.850740554567282743e+03
1.523444492279406631e+03
1.734830561183686996e+03
2.549841313227520459e+03
3.365461637164687545e+03
4.426725865759723092e+03
5.358696565306590855e+03
6.454433918518298924e+03
6.067892156529726890e+03
4.689018716836128078e+03
3.333807035688589167e+03
2.455229690634479539e+03
1.435422465055554540e+03
1.248476317774751124e+03
1.343459026083943172e+03
1.275384678507057743e+03
1.890276272963888459e+03
3.127201479095694594e+03
3.280201509855809945e+03
3.018188176607960941e+03
3.183064801068588622e+03
2.545917969608308340e+03
2.526607781153520591e+03
2.560050377524054056e+03
2.358322191822836430e+03
2.015410784743784006e+03
1.707050322992163046e+03
1.611651435507855467e+03
1.330355802530353458e+03
5.097330099627012032e+02
-7.545889003079499844e+02
-1.291293488131060712e+03
-1.314260809760220354e+03
-1.732608887529189587e+03
-1.508390135746030410e+03
-1.405587829755179996e+02
-1.110712033377837393e+01
-2.681076470279832620e+02
-9.125272325839891892e+02
-2.031310523881570589e+03
-1.892521388855839177e+03
-1.237204836747935360e+03
-1.145424637349129782e+01
1.249706477433636110e+03
2.090228800360094738e+03
2.391909725273525964e+03
2.759756271688137531e+03
3.028668899731136662e+03
2.542581108902395044e+03
1.970392491001553481e+03
1.176124822766018497e+03
1.896678645203776910e+02
-4.570367687964763377e+02
-4.630078278205870674e+02
-5.293102869665312937e+02
-3.589952167104864884e+02
-2.690582884295549775e+02
-2.524784223073766043e+02
-2.562703099064675598e+02
-2.064193610326646535e+02
-7.479118428841179593e+02
-1.080795593873746384e+03
-6.511344272702773424e+02
-6.450447524672373447e+02
-4.984586631015880016e+02
5.006286692666718636e+02
1.281185093246565430e+03
1.653185348636378649e+03
1.735599419029776982e+03
1.099424042867722392e+03
3.745869997403570437e+02
5.320400324587564000e+02
9.537714968216968145e+02
9.226811465347145713e+02
-7.072500774558004650e+02
-2.842003154545487632e+03
-5.732571270591012762e+03
-4.840971564834343553e+03
-3.762512219161003486e+02
1.039625687888400307e+03
-3.933408541755297279e+02
-3.308228658710697346e+03
-4.444097124362747309e+03
-4.795896218629563009e+03
-4.823610741374095596e+03
-3.110275127588361556e+03
-3.950771012943216192e+03
-4.391140329163034039e+03
-5.055587216431228626e+03
-5.783979767463994904e+03
-6.281225188406142479e+03
-6.546452241571904779e+03
-4.567677961883383432e+03
-3.532929018135208480e+03
-6.103193496194890031e+03
-5.691517847387191068e+03
-1.951856105118423557e+03
1.602835719410319371e+03
3.107574663413610324e+03
3.541418901304066367e+03
3.493405432028681844e+03
3.545528557487322814e+03
3.765777322948697929e+03
4.337137932451644701e+03
4.551564683441451962e+03
4.581124191308876107e+03
4.304858397716900981e+03
3.861769646483575798e+03
2.632874217909469735e+03
1.561125358822473572e+03
1.135480687490928631e+03
8.589201513060750131e+02
3.844682229579855175e+02
3.811630811121523834e+02
6.520380323358490386e+02
6.331100097461542191e+02
7.914641879275511656e+02
1.519195759941646656e+03
1.909353373127637951e+03
1.470974214975243740e+03
7.991189797902334249e+02
1.538499939756668766e+02
4.415086000885961681e+01
3.250524455997122573e+02
5.514723702996603834e+02
5.484258266417008372e+02
1.147061319536403971e+03
1.517442017213473036e+03
1.485531206657800340e+03
9.543587191159181202e+02
1.068967242403190312e+03
5.263560318157037727e+02
-6.924704803120960150e+02
-2.072524167611112716e+03
-1.863760615829887456e+03
-1.086061686331572218e+03
-5.003586500837866424e+02
-6.206002058746418015e+02
-6.017004469481465776e+02
-6.196090750199751938e+02
-4.762010437338007023e+02
-7.762838725420027686e+02
-5.857250966040074900e+02
-6.572459324376656475e+00
4.831419422581063259e+02
7.744111949511383273e+02
1.335209240419992057e+03
1.691508159785033058e+03
1.499296716757043214e+03
1.087916994242967576e+03
7.362551754380771172e+02
3.962342508643657197e+02
-9.228341383267540721e+01
-5.873681550793068027e+02
-1.163909838820448385e+03
-1.584714626164473657e+03
-1.401772287392321232e+03
-9.250544049252773675e+02
-1.754901865690761724e+02
-7.707398508876701726e+01
-1.238518130680488269e+02
6.531180822696609312e+01
7.964050499220176107e+02
1.480408299359212378e+03
1.800391954699805183e+03
1.631435630029750428e+03
1.322634107741996104e+03
1.325966538806803783e+03
9.174143319790176747e+02
2.430185934148446449e+02
-2.652249385576136547e+02
-1.103305172514550122e+03
-1.599211834950182720e+03
-1.633011869807560970e+03
-1.371730305042457076e+03
-1.174326486870268809e+03
-1.015750627872513746e+03
-8.669739975725130989e+02
-9.089143425108090923e+02
-1.344485859565433884e+03
-1.356672489384772916e+03
-8.494772117094948953e+02
-4.549131153207786724e+02
-7.310151414090568096e+02
-9.637985645479868708e+02
-7.442193071515727070e+02
8.673458127808403617e+01
3.509968432491673411e+02
-6.846908832328560379e+01
-9.907400068547561887e+02
-1.654838257264940012e+03
-2.154819554738336592e+03
-2.275652170710086011e+03
-2.116382414388659981e+03
-1.665047666063089537e+03
-1.148644333206996407e+03
-9.111207890975416603e+02
-3.024062658902200269e+02
1.180479462315071260e+03
1.907493135395741092e+03
2.217559024793744356e+03
2.248925664851593410e+03
2.025464985890725984e+03
1.721074651110625382e+03
2.099701718537440684e+03
1.871338624084036837e+03
1.839913984459718449e+03
1.740389424824590606e+03
1.071760484257059943e+03
6.739656321286544198e+02
2.689561265373217793e+02
-3.812647134789386882e+02
-9.667914012191608890e+02
-1.085769664168770305e+03
-1.765328784704041936e+03
-1.750198626706118375e+03
-1.170374131663119215e+03
1.761492762189752170e+02
1.371357242647648036e+03
1.719204012226470695e+03
1.578450557507863550e+03
1.441007086937330996e+03
1.566176878904709383e+03
1.452791109689533414e+03
1.766725052974286427e+03
1.823012970018583246e+03
1.321681398294527071e+03
9.914848153040500165e+02
3.366182496931756418e+02
-2.023211926986683693e+02
-7.070928586609393278e+02
-8.538924520940546472e+02
-3.177235807406499362e+02
1.222738312123512827e+02
3.309383266091937799e+02
7.595678401936859245e+02
1.384904785392388703e+03
2.367076014681649667e+03
2.759167003389780348e+03
2.681796673370478857e+03
2.223012448341312393e+03
2.478253719063513472e+03
2.689056400237511298e+03
2.962211128207513411e+03
2.961845420820813615e+03
3.223690280604130294e+03
3.492221139071519246e+03
2.900389535919018272e+03
1.832627941833810155e+03
3.940582889047692561e+02
-7.289581960649979919e+02
-1.909814252311323798e+03
-2.751689273164650785e+03
-1.924650010222182573e+03
-5.984518049727740845e+02
2.456817885720154209e+02
7.506040728333297238e+02
1.623431642205568778e+03
2.839167776765912095e+03
3.310752062990051854e+03
3.109139979129654876e+03
2.699314756231677165e+03
2.533237803600483858e+03
2.597870638452641742e+03
2.043090986819620184e+03
1.178976103626350550e+03
5.996032455286289178e+02
-5.903002965295998905e+01
-1.544968806246955637e+03
-4.396187335889047063e+03
-6.423737569762884959e+03
-7.052694256173353097e+03
-6.803054461858815557e+03
-5.938887431847169864e+03
-5.212257232696621941e+03
-4.755075415212062580e+03
-4.834292544031913167e+03
-4.117959146615004101e+03
-3.576918030299326347e+03
-3.178197202071613447e+03
-3.430786719976189943e+03
-3.600663724698420538e+03
-3.062827580310613484e+03
9.177464271200038866e+02
2.738937854150486601e+03
1.866795932632794120e+03
-2.185727355361515833e+02
-3.180109026165493106e+03
-3.886859310429709240e+03
-4.573855199425480350e+03
-5.449049992595932054e+03
-5.964445914930975960e+03
-6.589163726003557713e+03
-6.966116586485260996e+03
-7.240305435817914258e+03
-6.585677107819033154e+03
-5.909108561488333180e+03
-4.923559590344395474e+03
-4.310929062425818302e+03
-3.867317875007222028e+03
-1.187817985542428687e+03
1.706674165750686143e+03
3.620235662878026233e+03
4.672832485890457974e+03
4.803472039837677585e+03
4.560174177903087184e+03
4.637025066912267903e+03
4.542103636532599921e+03
4.341414876182300759e+03
4.019946588585496556e+03
3.589703952620747259e+03
2.331738667816538964e+03
1.258072770964649635e+03
7.008128086775053589e+02
4.499430347560699488e+02
7.315261865372026477e+02
1.355712285599613551e+03
1.532577442960338885e+03
2.099078800160067658e+03
2.114146968236859720e+03
1.894881375225478450e+03
1.695359138114307143e+03
1.378577223069990850e+03
1.333505396725129231e+03
1.271141613192872683e+03
1.593611457005797774e+03
1.662047266771734712e+03
1.646548126821307960e+03
1.976028447744064351e+03
1.668409850499551794e+03
1.265667364561085378e+03
5.218770082463832978e+02
1.283468865364435487e+02
1.433675387438324833e+02
1.788128086663169540e+02
8.224652196701186995e+02
1.698181793636941848e+03
1.647975560220640091e+03
1.140340200122881924e+03
1.236411257510600535e+03
1.202335466559576616e+03
1.242208381341066570e+03
2.112877894630214541e+03
2.541331142191769686e+03
4.573946295608575952e+02
1.421909427258229641e+02
1.254021597682411539e+03
1.238996524827981375e+03
1.387859601977401326e+03
8.401222564737990979e+02
3.450322335495710604e+02
-3.660437129714790103e+02
-5.763474354053723800e+02
-7.880870395035589127e+02
-7.982254858598840883e+02
-4.826294639843179652e+02
-6.537159066479463831e+01
3.506694747548026498e+02
6.754861631024818962e+02
8.730255024395287364e+02
7.202505902383892362e+02
8.322280450694685214e+02
1.288955350586570603e+03
1.567550404193264967e+03
1.917888313491863300e+03
1.823006539395056052e+03
1.891985111572044389e+03
1.690861269905249856e+03
1.445828512747225204e+03
9.381051279761360320e+02
2.275574803948979365e+02
-9.172025191314038466e+02
-1.551296683794003002e+03
-1.655657558968040121e+03
-2.079354320029500741e+03
-2.046418227959075693e+03
-1.786753742768584743e+03
-1.190213235448153000e+03
-5.507555955113060691e+02
3.755763463945512370e+01
-1.513399048052145588e+02
-1.404815742970556869e+02
3.081139004085775923e+02
9.373593830864066376e+02
1.165314420518791394e+03
9.919755816231037215e+02
1.060368729783763456e+03
7.793962395998956936e+02
7.820949255992397866e+02
2.674557842657855531e+02
-9.485324427246625874e+02
-1.671950314768291037e+03
-1.994898985228003312e+03
-2.171398461854287689e+03
-2.107447076195969203e+03
-2.199109606920614624e+03
-1.872379710824085805e+03
-9.392949718421942862e+02
-1.718289728559815899e+02
4.094382060489122921e+01
2.295833147339691749e+01
-2.588048571316503512e+02
-1.805341104071640984e+03
-3.790729777357454623e+03
-5.121023632194049242e+03
-1.728214891627230827e+03
2.697781428853606940e+02
6.080205662670953188e+02
8.365107155488947228e+02
2.923485099839164150e+02
-4.624019270695432624e+02
-8.927554440659237116e+02
-1.391703626489055068e+03
-1.865304736539555734e+03
-1.719675205208677880e+03
-1.426842289336011845e+03
-1.226791102064580400e+03
-2.225245229558057076e+02
3.508788951709477715e+02
3.563385714468143419e+02
3.427296906059366961e+02
6.191394582442520687e+02
1.354679642650391315e+03
1.558256629971782331e+03
1.395798544356015555e+03
1.589214133762453912e+03
1.688616644866982369e+03
1.530271835883410631e+03
1.398174217803705687e+03
7.710110534961266922e+02
3.153790823901750429e+01
-6.073285418308312273e+02
-1.018652182740394210e+03
-1.369504400209588312e+03
-1.412991174802155456e+03
-1.072114570012524609e+03
-6.208543815515358801e+02
-2.892700911283203027e+02
2.505567981846693044e+02
8.676383927940808007e+02
9.150391204309742079e+02
1.180697088951495743e+03
1.694525067695109783e+03
1.886414027713287169e+03
2.101313972920482229e+03
2.103155630506895704e+03
1.989912525157330947e+03
1.335561601048269040e+03
1.490104219455354951e+03
1.235443390130155422e+03
3.374746262755866724e+02
-8.368498214021118429e+02
-1.753569682061407775e+03
-1.939734905373789388e+03
-1.461422819974508911e+03
-2.240760654053463895e+03
-3.323725193789037348e+03
-4.252676795355628201e+02
7.696533818855947402e+02
1.182136807816413238e+03
1.234171599530695403e+03
1.448727603379777747e+03
1.747910424114915031e+03
1.959651367963538860e+03
2.038938716780240156e+03
2.264866450474885823e+03
2.010437784841242319e+03
1.981667349374570676e+03
1.708595609468670091e+03
4.462770688475812904e+02
-2.460304171448686247e+03
-1.447040400132864534e+03
-8.119264465127516814e+02
-3.002014726897971741e+03
-3.787370258891196499e+03
-2.442976531834958678e+03
-1.648671365823681754e+03
-3.405359202195174930e+03
-2.025961390047414625e+03
2.566324895248849884e+02
-1.830455842478277418e+03
-1.436189844123220610e+03
5.455448275025789826e+02
-7.111168858281831717e+02
2.268924057397945830e+02
4.036730042430081653e+02
1.082888217880634301e+02
4.387619206531910976e+01
1.802489395389543915e+03
1.370122855421563372e+03
-1.057145033815769239e+03
-2.080233137346155218e+03
-2.937123632763523801e+03
-3.321765468297453481e+03
-2.525178814910101210e+03
-4.446271288373002790e+03
-4.400920019322339613e+03
-1.841021777716109000e+03
-1.262558292062226201e+03
-1.473422339034405695e+03
-8.725168461128970421e+02
-1.618741993529324418e+03
-1.439097856649479354e+03
8.524609007198251902e+02
-8.879614902723139949e+02
-1.475242187341086492e+03
3.197233756548195629e+02
9.799861903306480144e+02
-1.204385475837006425e+03
-1.257346808986937049e+03
4.029745766924010013e+02
-5.164298133915851849e+02
-1.573502244097857556e+03
-1.402128047570560739e+03
-1.737298257687170690e+03
-2.085082081540221679e+03
-1.987365364265450353e+03
-1.524035476103177189e+03
-6.099734663238632493e+02
4.578525770606343599e+02
8.054443832198402333e+02
1.047924256805316190e+03
1.323389306047606624e+03
1.473765443818449967e+03
1.417050757661020270e+03
1.465288572066780262e+03
1.712745980314483859e+03
1.398552702274243529e+03
9.836575745543592575e+02
3.950323172571104919e+02
-2.473961895371940329e+02
-7.716347054839799284e+02
-1.206671578141497321e+03
-2.060449525679579892e+03
-1.882148016796527600e+03
-1.511791267024854278e+03
-8.943639819256196688e+02
-1.387592284077278748e+02
5.050313827397690147e+02
1.534027078649081204e+03
1.143942560427480430e+03
9.405944422885038421e+02
1.295035599313743660e+03
1.623541982702435462e+03
1.739238268787556763e+03
1.724939211606102162e+03
1.654636155634673059e+03
2.003372822755246489e+03
1.972075357607529213e+03
1.735637656581508054e+03
6.409626757911232744e+02
-9.148690023445569750e+02
-2.292019529595143013e+03
-2.567680460445780227e+03
-1.102929568726814068e+03
-1.446527744867329091e+02
-2.561829833087942347e+02
5.270696939825961636e+02
1.788209244671504166e+03
2.643318280484210845e+03
3.378501540785428460e+03
3.245503534493736879e+03
3.596240104146336307e+03
4.262531083159210539e+03
4.215251568394219248e+03
3.614347860836313885e+03
3.035739496168442201e+03
2.443347923254794750e+03
1.749134951541578857e+03
1.820036676384415387e+03
1.051945426777460625e+03
3.877608149333751157e+02
1.234323882274667994e+03
2.132463705793176814e+03
2.204090985392350831e+03
1.590079046761735071e+03
1.260350254756034246e+03
1.572866674217576474e+03
2.506559508363977329e+03
2.708362686247219699e+03
2.053168675459022779e+03
2.195906680573893027e+03
2.833446081750184021e+03
4.238700512123789849e+03
5.165543746606819695e+03
5.046846013443745505e+03
3.499547506655926099e+03
-5.643064971974695965e+01
-1.860152085406686183e+03
-2.108746623356555574e+03
-7.883565401725074935e+02
2.119934865593219456e+03
6.500030845008137703e+02
-4.904298398377139165e+03
-7.765039614130566406e+03
-8.608255105041665956e+03
-7.390025560500589563e+03
-4.572422443613633732e+03
-1.354509472824230215e+03
-5.934583116916601284e+02
-2.318246421297153120e+03
-3.579663727330766505e+03
-1.427921779067157331e+03
2.742768706555357767e+03
4.244410882030141693e+03
1.540906304757659200e+03
7.792365280978568762e+02
5.593776833828495683e+02
-4.516655685737092085e+02
-6.259568695130481046e+02
3.464404996251069520e+02
1.749384438478077072e+03
1.325833528959047499e+03
1.848711703302997876e+03
2.328004408166357280e+03
2.216653134820816376e+03
1.877660711268905061e+03
1.971059196151113383e+03
1.734854417953589291e+03
2.657048938444320356e+03
1.603661459956628960e+03
-4.643239258527528932e+02
-2.221933903544084842e+03
-3.509119084758230201e+03
-2.300840427383312090e+03
2.158856252490672432e+03
6.514033106703167505e+03
6.898757481082804588e+03
5.420084909172463995e+03
4.845069287959669055e+03
3.998670408109886921e+03
2.354946975459195983e+03
8.089373899907753867e+02
6.956961497930458336e+02
1.162188933882650417e+03
1.561423287908485463e+03
1.797493438444671938e+03
1.865594253684367231e+03
1.701792809313612679e+03
1.249105673687157605e+03
1.703590538770093190e+03
2.126380829547795656e+03
2.711595061775622071e+03
3.041311002253526112e+03
3.544662633765290593e+03
3.390671322012453857e+03
2.832485857816715452e+03
2.972241460605543580e+03
2.881994789160539312e+03
2.879861847502180808e+03
2.589954203630146822e+03
1.833387154788685393e+03
1.338269574367128826e+03
7.835849438835098226e+02
3.623353917925429641e+02
-2.924228245704499614e+02
-1.096320652210308026e+03
-1.928114893193084299e+03
-2.614591074673926414e+03
-3.811431447907740221e+03
-5.826393619071961439e+03
-8.538310716062058418e+03
-1.081836561267677098e+04
-1.249549792113743388e+04
-1.442742038032845267e+04
-1.539821592950950617e+04
-1.550489142436287875e+04
-1.574712609218104990e+04
-1.552858879159977187e+04
-1.505631312354260081e+04
-1.533017677397456282e+04
-1.519504701818393187e+04
-1.502581065976890022e+04
-1.461136171696675592e+04
-1.454165547074808819e+04
-1.448055638854892459e+04
-1.569590186363404973e+04
-1.587456685613036097e+04
-1.461438521034763107e+04
-1.420725102878003236e+04
-1.403894967032430941e+04
-1.532031232495480981e+04
-1.540322041736827669e+04
-1.117252980865850805e+04
-5.897122120167391586e+03
-2.994897020984139544e+03
-1.892699450712098951e+03
-8.234131438147732069e+02
1.111114646681606075e+02
7.679783301157206097e+02
5.682847970989425903e+02
5.392005286802033197e+02
7.278166334877803365e+02
9.561505409136709659e+02
1.152261328920953929e+03
2.012196901491525978e+03
3.740986809775329220e+03
5.456793731724147619e+03
7.325714812039307617e+03
9.411859953138531637e+03
1.129745631909175609e+04
1.230153165832315062e+04
1.280709566765704767e+04
1.354126186520901865e+04
1.488012810034018366e+04
1.586963707946533941e+04
1.626184687832036616e+04
1.679281019389570793e+04
1.738956597568486177e+04
1.746317094168533731e+04
1.717962688542635078e+04
1.642093994266829395e+04
1.536422440125066532e+04
1.446253914182179324e+04
1.366552151598157434e+04
1.376323701442697711e+04
1.351876871504749033e+04
1.348415995422712695e+04
1.422742321581160104e+04
1.423857020605089383e+04
1.382154569637059285e+04
1.370437723153214756e+04
1.352602862893792008e+04
1.312648787738740066e+04
1.247671139379864144e+04
1.200657950574420101e+04
1.124001731941890830e+04
1.068742269279059110e+04
1.032959304440474443e+04
9.380199317586737379e+03
7.865415271680455589e+03
5.805320024737392487e+03
4.184327901296293930e+03
2.313589538677241762e+03
3.182749435791652672e+02
-1.070080064503636549e+03
-2.108651913677366338e+03
-3.187962569742643609e+03
-3.962557761251203374e+03
-4.530665614475999064e+03
-5.069044690684588204e+03
-5.693855827112402039e+03
-6.510357031472532981e+03
-6.589434883944331887e+03
-6.499229771200631149e+03
-6.552031690131708274e+03
-6.367969499179615013e+03
-6.050018855864004763e+03
-5.985459878589583241e+03
-5.730121039472920529e+03
-6.022316783331330043e+03
-6.500446563276093912e+03
-6.800192045545978544e+03
-7.189933186645032947e+03
-7.643813979821183239e+03
-7.636225158768004803e+03
-7.048098777832805354e+03
-6.072386084682283581e+03
-5.442391416648504674e+03
-4.832106674432991895e+03
-4.490938017189577295e+03
-3.965926476973447734e+03
-3.454030568417145332e+03
-2.941601782267211092e+03
-2.532662167871312249e+03
-2.075318946699045227e+03
-2.244640336062927418e+03
-2.470106783485668075e+03
-2.905718000012734592e+03
-2.719679007834189179e+03
-2.451177038494047792e+03
-3.136069465909178689e+03
-3.648639675197899578e+03
-4.075052211817938769e+03
-3.867511086818720742e+03
-3.563267000522657781e+03
-3.488507656411070457e+03
-2.930238965466193349e+03
-1.856599001314710904e+03
-1.919714401932784995e+03
-2.743689434244671247e+03
-4.854604923363139278e+03
-6.245594383453468254e+03
-6.242784879804556113e+03
-6.044190182571825972e+03
-5.451872403757159191e+03
-5.040901430560142217e+03
-4.635445807229612001e+03
-4.136648472360107007e+03
-3.224662871883926982e+03
-3.659501590561706507e+03
-4.537292584059131514e+03
-5.384150468842052760e+03
-5.503244645097069224e+03
-5.328653477321725404e+03
-3.719453986181276377e+03
-9.167654175760567341e+02
-1.269512121920031177e+03
-3.564758373933991606e+03
-3.942642087595877001e+03
-3.934232124130531702e+03
-4.131555936341854249e+03
-4.154603556681690861e+03
-3.386381115693727224e+03
-2.612965791883784277e+03
-2.757373832832648532e+03
-3.483602837359333989e+03
-2.404608612724332033e+03
-1.407426113974713189e+03
-1.808030530380254049e+03
-1.930515622770581103e+03
3.929579961036137092e+02
-5.196299794335667457e+02
-3.688163442530094017e+03
-4.138764094584259510e+03
-2.847512172465275853e+03
9.316403983235226178e+02
2.323741082386884500e+03
3.617896863922912416e+03
4.192170722684626526e+03
4.133665427844720398e+03
4.365450680426537474e+03
4.554505034609316681e+03
4.721835042009231074e+03
4.514464163023723813e+03
4.533405081565343608e+03
4.715665779902159557e+03
5.126335167077741971e+03
5.375476250330133553e+03
5.164060877491464453e+03
4.641098541840612597e+03
4.116715647634510788e+03
3.208040777012913622e+03
2.631129328690854891e+03
2.291014727995896919e+03
2.129676708300549308e+03
2.061244704634735626e+03
2.364909952167913616e+03
2.786658189579607551e+03
3.299574926127570507e+03
3.481731946317752318e+03
3.707178247158517024e+03
3.840006588890277726e+03
4.073381098032187765e+03
4.305766077882133686e+03
4.344337969145996794e+03
4.113052622584589699e+03
4.000919835443033662e+03
4.183058434400739316e+03
4.089725473337850417e+03
3.296992115846564957e+03
2.411779021503532476e+03
1.933418098205454726e+03
1.312829821993543192e+03
8.099393435718008050e+02
-1.702621423973351114e+02
-3.505350183710627903e+02
4.174636073968284791e+02
9.707743116958505425e+02
1.316363119900558786e+03
1.618106810576299267e+03
1.653967264045515094e+03
1.411598166507551696e+03
1.446070169000118312e+03
1.886362159097323683e+03
2.672601693377155243e+03
3.370843711338539833e+03
3.004030609785274009e+03
2.908242683422127811e+03
2.400781975614095700e+03
2.101816541103674354e+03
1.241107078355233170e+03
4.146249337854491159e+02
-3.305232752373482299e+02
-7.272730856279555383e+02
-5.965796953078354363e+02
-1.785212038349993975e+02
3.131806406021824500e+02
2.771407664392136283e+01
4.521542748521199542e+02
1.073613199430009672e+03
8.489695930592631612e+02
7.599895290733823003e+02
8.636241230951762873e+02
6.241811174396926845e+02
9.588725932387399098e+02
7.726921469088591721e+02
3.657225308967812225e+02
2.230980315812191179e+02
4.408577414292505523e+02
-3.806650616820027011e+01
-1.155700971447995926e+03
-2.005067056728875968e+03
-2.045133222549050970e+03
