-3.284816598782546180e+02
-3.574214766829428527e+02
-6.172567015608797192e+02
-5.850320124933051602e+02
-5.567711108345174580e+02
-3.935024505036041660e+02
-5.242651319594151573e+02
-7.020691274397661346e+02
-2.121940181015384496e+03
-4.018877739304712577e+03
-7.147954156774160765e+03
-7.581201826115530821e+03
-6.984694267688990294e+03
-2.688409178471948508e+03
-9.683731035387972952e+02
-3.537689196491322491e+03
-2.810373126789669641e+03
-3.326276001520564932e+03
-1.090581082286566470e+03
2.567383262515712161e+01
4.144450109587701832e+02
2.146992570170532986e+02
8.943949240284463542e+01
5.696074792237412794e+02
6.281813453767116471e+02
4.801481224606811224e+02
5.384315998596626969e+02
5.430198143071498862e+02
4.608759149264985240e+02
2.059192540695630100e+02
2.271443065088823801e+02
3.025035852372149066e+02
4.789731742349676438e+02
4.195459731364086338e+02
4.423977947517375355e+02
4.973951922447135416e+02
4.604611812685032532e+02
4.945004793224221658e+02
4.054589994227538341e+02
7.011668324302552264e+02
6.488367170578835612e+02
6.804607357930386797e+02
3.707446674255338621e+02
2.068807941972556819e+02
5.129976120425994850e+02
5.188392489726207941e+02
7.332376961183169897e+02
9.485652625073250874e+02
8.376382776996117627e+02
5.172653720356954636e+02
7.553481541725054740e+02
6.632112789914110635e+02
5.765338722896002537e+02
8.725311226662321360e+02
8.851762959299596787e+02
6.082257038112720693e+02
3.477626490139812745e+02
7.307691077527508696e+02
5.403272806335040741e+02
4.483082667428989225e+02
6.747293295485832232e+02
7.638049888381081018e+02
7.600040076539880829e+02
7.666589081381215465e+02
6.909401783360240188e+02
8.154442429919450888e+02
1.054210343161765195e+03
8.315007199299016065e+02
3.529661135741454814e+02
-1.240389816893142267e+02
-6.086294543406315825e+02
2.110254497482370795e+01
6.840220195660563149e+02
7.422693303602368360e+02
6.718574282974688003e+02
6.597123984866323099e+02
5.978647147778949602e+02
6.433329602141511714e+02
4.181206376173547596e+02
6.502477926617966659e+02
8.337528142928373427e+02
5.546257207323836838e+02
-1.276293586267138608e+03
-3.422689795499842603e+03
-2.033445872807371870e+03
-1.467794007546383227e+03
-3.166990696371041736e+02
-3.332678784050257264e+02
-1.284529724131002467e+03
9.545408294751513267e+02
1.330012662214953480e+03
5.809423204004004901e+02
-3.084727626303710622e+03
-2.476001309079459588e+03
-1.416835354038161995e+03
1.024798258299586223e+03
9.018879718128696368e+02
7.834481421848231548e+02
2.575365674747426965e+02
-2.364856304290379740e+03
-2.134706588430555712e+03
6.340168599286567996e+02
8.222764006092490945e+02
7.701314677099632036e+02
-2.446416493302646813e+03
-3.258338014224860217e+03
-3.365642425272406854e+03
-1.491310594342088962e+03
1.668487496764051414e+01
-1.696653768941854651e+03
-2.069308501842072928e+03
3.247384107796919466e+02
2.275167519854349223e+02
-1.419961105238876598e+03
-1.305711357909029857e+03
-1.775679117864164255e+03
-1.177857687897526830e+03
-8.242716838978660689e+02
-2.340887607844467766e+03
-6.396627914522988476e+02
1.237414800051643851e+03
-9.776465696952659528e+02
-6.398252401308664048e+02
6.828490547215119477e+02
1.387425107629293507e+03
1.463945913820676196e+03
1.590417480266958819e+03
1.495853323864860158e+03
1.250256481817505801e+03
1.133627859198757733e+03
1.436966012918830984e+03
1.031279490934833575e+03
1.051526468233632613e+03
1.399768225681253853e+03
1.282002598969835844e+03
1.139239043104455959e+03
9.714491428275634917e+02
1.127643573063622625e+03
9.818966852857575986e+02
1.041322973086666252e+03
1.105980631888168773e+03
1.073986921341103653e+03
9.211418594691112958e+02
-4.998160474414347476e+01
-8.453815126746003443e+02
5.370789883352686047e+02
8.730678732353391069e+02
1.193418142575245383e+03
1.187900127723139349e+03
8.206711352790490537e+02
1.006695786419748742e+03
9.970297141664366336e+02
8.007730599058510279e+02
8.558451777085540471e+02
5.642371133502084604e+02
7.429659824290354209e+02
1.063974845744078266e+03
7.469187084470753462e+02
7.259004355516451596e+02
5.743611080922044039e+02
4.159547461859739315e+02
4.186328572217690862e+02
6.966074814354465161e+02
9.839724751157837090e+02
1.037746143118700957e+03
1.180891868457578539e+03
1.069369087413895613e+03
1.055936114753261563e+03
1.136433151795454933e+03
1.162910286728392975e+03
1.084325136811187349e+03
9.714508882057652954e+02
1.090440013082258247e+03
1.005154991419371072e+03
9.055394839994346512e+02
8.687464813356451714e+02
5.977961437222202221e+02
6.336077509814832638e+02
7.911707887979258658e+02
9.886863485717375397e+02
8.854036093148391728e+02
7.041348778424930970e+02
5.735279657378953289e+02
4.543607943562327023e+02
6.727488288235774689e+02
5.377781575372035832e+02
7.212539584517884350e+02
5.451073920788770693e+02
6.221851397615463384e+02
3.914598131103335845e+02
4.899918049323117657e+02
5.857915019225354172e+02
7.797977889322106648e+02
7.449784232009499192e+02
9.142970892439115005e+02
9.327907017675552197e+02
5.155253576734214676e+02
7.714980362457140473e+02
7.856951484327838671e+02
1.100584289707472436e+02
-1.880402976518695823e+03
-5.072723648558031528e+03
-6.263926394944995081e+03
-6.299968253059359085e+03
-5.764890520891344750e+03
-5.815660773899958258e+03
-4.877336876034485613e+03
-1.386909299833558862e+03
-1.780295520794462846e+03
-8.524255114053590887e+02
-3.074803627940852948e+02
1.445545257938958912e+03
-1.532558360881392900e+02
-3.867908074779222261e+03
-4.497427773122666622e+03
-5.248841394041831336e+03
-4.314188735636707861e+03
-4.400280170517317856e+03
-4.407128701205186189e+03
-4.952731250650886977e+03
-2.780176295075295911e+03
-2.008361898625229060e+03
-1.066074731728670258e+03
7.255755963515653093e+02
1.909512907460104998e+03
1.648717969837031660e+03
1.650138630634977517e+03
1.738780340596516226e+03
1.738698091569501685e+03
1.844843424415438449e+03
1.942335737693387273e+03
1.630315642014993955e+03
1.611751309398847752e+03
1.604031111898523250e+03
1.630015628940477654e+03
1.608594889238817586e+03
1.705784895534733550e+03
1.317575835699977915e+03
1.005192411583810440e+03
1.130558342663180383e+03
1.220571066791103931e+03
1.161353259190081189e+03
9.279645727797108066e+02
1.177218167139063553e+03
1.258407096829664169e+03
1.119339555924951583e+03
1.073199805428493846e+03
9.601923102899573905e+02
6.021605400120805598e+02
6.082425992698500750e+02
6.339707959217539610e+02
6.223777379399094798e+02
6.327472515690593582e+02
6.330390961926210593e+02
7.377767659333840129e+02
3.372118831493539233e+02
1.112927332574728894e+02
3.370164864928242991e+02
5.585616604633387396e+02
3.236691530835224171e+02
1.337150655833744679e+02
4.087914842637417223e+01
-1.914306909412605933e+02
-2.595213108845833858e+02
-7.500931134416804014e+01
2.149218901649049087e+02
2.023706992341088267e+02
3.306324981435121231e+02
-1.816977664123827196e+02
-4.713889250062781855e+01
-6.125946696720547635e+01
-9.099782654551188443e+02
-2.045798278150228043e+03
-5.368258187423333538e+02
6.987735834883478958e+01
-6.360950521338376973e+01
-3.321801817041355775e+02
-5.110757195381507358e+02
-4.691514502469711942e+02
-6.024042895704408238e+02
-5.779425586178761023e+02
-3.187013591141155189e+02
-2.183841179321526909e+02
-3.217443158598651820e+01
-1.115441344746014174e+01
-3.463244186773336537e+02
-4.675305910173926804e+02
-4.456506450142999256e+02
-5.065915101080353224e+02
-4.961724279097757062e+02
-4.332341056937467556e+02
-3.177024422686365028e+02
-2.137269579588790691e+02
-5.122924838922307345e+02
-5.364407523586843354e+02
-6.625004991080012360e+02
-6.295356046390930942e+02
-6.725084532104980326e+02
-3.314770778166119385e+02
-5.102879559568617083e+02
-4.366755011396091390e+02
-3.115407612545467373e+02
-1.377558741104451485e+02
-4.012503174400519015e+02
-6.092260848084002873e+02
-5.529359082470220983e+02
-2.935296779488039647e+02
-1.280757312507426775e+02
-3.726060189411000465e+02
-4.249745016900362202e+02
-3.030213913900277589e+02
-3.146670481112067250e+02
-4.579646441091646238e+02
-2.367670436581614695e+02
-5.398105043881885194e+02
-8.281257397799191722e+02
-7.491452535957171222e+02
-6.229578607875860143e+02
-6.663549597716346398e+02
-4.743776957284653122e+02
-2.562401206364655195e+02
-2.911545323138362846e+02
-3.609540304143072831e+02
-5.315828633045903189e+02
-1.312137608697259338e+03
-4.567819810954918012e+02
-2.264053511236665202e+02
-5.597106799416549450e+01
-1.446320527509933243e+02
-2.033780141157835715e+02
-1.502472244698231520e+02
-8.529708049252010937e+01
-1.526597142931841233e+02
-6.044311055873669147e+01
-1.405201411071558653e+02
-2.167411829236883420e+02
1.039923566141848426e+02
-3.032560822379781484e+02
-1.790610049552694818e+03
-5.682892960942733680e+02
5.883710568835320487e+01
3.813815862085601793e+02
2.213531525618955698e+02
4.702846194699289413e+02
1.009046805998592163e+03
7.209373936365190048e+02
7.975370911747279479e+02
1.479972179286253777e+03
1.528253458078541371e+03
1.348295534162361491e+03
1.136431314980900424e+03
1.284609725334223413e+03
1.462645820409528369e+03
1.302922009028460479e+03
1.286287681339868641e+03
1.168481717952785857e+03
1.318030783030223574e+03
1.636299963989716616e+03
1.338880522178994624e+03
1.411669064488564345e+03
1.459031921649363539e+03
1.877377188132857555e+03
1.971318564872905199e+03
1.908666771539990805e+03
1.731537511559892664e+03
1.733674114301369173e+03
1.944254314130049806e+03
1.972165278043260287e+03
2.008931127932063873e+03
2.103775014697911502e+03
2.085754154187787208e+03
2.197499479749543752e+03
2.293455621321960734e+03
2.079542232575937305e+03
1.936930944736737729e+03
2.091941359529047986e+03
2.163282455761860092e+03
1.866464611324203588e+03
1.982397398013619750e+03
1.671039755527226589e+03
1.636366718100780417e+03
1.815281055751128179e+03
2.054748436081940781e+03
2.153603687196881765e+03
2.681796610185730515e+03
3.120361611825593627e+03
3.149257985183342953e+03
3.036449024513344284e+03
2.725114276700118353e+03
2.865163191727154299e+03
2.955446348039203713e+03
3.047965571817620912e+03
2.813626224422034284e+03
2.691489947091263730e+03
2.747635718000906763e+03
2.876203102502533056e+03
1.849240743906006173e+03
2.078843450762576140e+03
2.444836765898786780e+03
1.909826320556602468e+03
-3.592109369781161377e+02
-4.078942041989087102e+03
-3.903622909280362364e+03
-4.282156867286537818e+03
-6.902477498351650866e+03
-7.244563588480824365e+03
-8.099512312228350311e+03
-8.108341157396695962e+03
-7.280020975575277589e+03
-6.802530247641428105e+03
-6.407860251016171787e+03
-5.534952616339555789e+03
-5.020769583888930356e+03
-6.015346310741995694e+03
-7.780601471769216914e+03
-7.224547468504231801e+03
-8.803178117576027944e+03
-1.177947280001011495e+04
-1.166337992263402884e+04
-1.012988043141975686e+04
-8.125984597411341383e+03
-5.726681751254613118e+03
-2.545956704057191473e+03
-1.876716922652348558e+03
-2.859933110607695198e+03
-3.617571657043846244e+03
-4.624583428271653247e+03
-5.454947946448665789e+03
-3.723597276518265517e+03
-4.439538305133128233e+03
-6.645702564151041770e+03
-6.886031660944676332e+03
-6.791483403933674708e+03
-7.740000478074303828e+03
-9.226557632393081803e+03
-7.674106092745581918e+03
-1.754595029346934098e+03
3.288044427936893499e+03
4.997851004622407345e+03
4.297880982352910905e+03
5.367173019631945863e+03
8.556753082394547164e+03
1.003271002927947484e+04
1.078405681608154555e+04
9.751889423754728341e+03
8.661260359197769503e+03
8.512253071127399380e+03
8.649852327094426073e+03
8.254157534513740757e+03
7.090187512512740796e+03
5.874003317031691040e+03
5.255696598844489927e+03
5.411244125004724992e+03
5.478698401818620368e+03
5.634016393226437685e+03
5.553449103160314735e+03
5.413284305374822907e+03
4.941775510367485367e+03
4.747005716521246541e+03
5.074853168342899153e+03
4.895292073361876646e+03
4.907378232133266465e+03
4.270206981848773466e+03
3.603728297837195896e+03
3.258724562706646793e+03
2.917549593708575230e+03
2.839103369193175240e+03
2.698480380011063517e+03
3.001746465033176264e+03
2.882012174107986084e+03
2.648389148632364595e+03
2.009861625508664929e+03
4.465231037960479625e+02
5.483316902494165106e+02
3.614083231882303267e+02
4.447485678668028868e+02
-9.185598979043628560e+02
-1.458778538834393430e+03
1.306220473898876890e+03
2.624534189123626675e+03
2.944243749560182550e+03
2.861128678415927425e+03
1.817305964583556488e+03
4.706785461714801500e+02
-9.327227727211029560e+02
-3.188865129967445228e+03
-5.031753574762450626e+03
-5.691346061974381882e+03
-7.461573745444562519e+03
-4.378448438446930595e+03
-2.742976401165465631e+03
-2.915131548312072027e+03
-3.247886730432016975e+03
-3.991253755648300739e+03
-2.094175552765522752e+03
-1.221643376350553808e+03
-1.763742458488974989e+03
-1.622492846624747244e+03
-6.428160907327670657e+02
-2.335668461304225730e+03
-1.126111819397245426e+03
-2.746137624124605281e+03
-2.604739618045550742e+03
-1.889488957313122910e+02
3.772528421008191231e+02
2.911902649570729864e+03
-1.079048400591418385e+03
-5.812588736753215017e+03
-8.846724454371598767e+03
-1.409853970871196725e+04
-1.367204052622956442e+04
-1.030124699176885952e+04
-6.891092950663547526e+03
-3.018593473732397342e+03
4.020214918907372521e+03
8.583321247759493417e+03
5.150675423794953531e+03
2.881237817206586442e+03
5.675946779871730541e+03
3.973746152096389324e+03
6.866656527080278465e+03
5.795613480600406547e+03
4.356579320939919853e+03
4.235610166327844126e+03
2.176431599642603487e+02
2.890638916958452228e+03
2.536491154050072055e+03
7.791259756436598991e+02
3.145026586097292238e+02
1.197884805781081923e+03
-4.100034765685360298e+02
1.655720229437636590e+03
4.710096147459178610e+03
4.093078444623709402e+03
4.366611800386994219e+03
4.397663322751570377e+03
3.183191501086472272e+03
1.752145758603354125e+03
3.625489671386987993e+03
3.187198060884773440e+03
9.672074905572254693e+02
-2.432497967135260296e+03
-5.237970116582133414e+03
-7.211287039309238025e+03
-8.739501096601330573e+03
-8.304625775986871304e+03
-6.015712801892123025e+03
-2.190834500675344771e+03
3.289453797738906360e+02
3.475580326030675224e+03
6.824048045065362203e+03
5.988311448012053916e+03
4.257352408923873554e+03
2.024119594647663234e+03
-1.828466325189888039e+03
-5.198419989600924964e+03
-5.749730623720422955e+03
-4.610505001393828934e+03
-1.668780136707164502e+03
3.393418390296508733e+03
7.032091562657685245e+03
7.681182792738498392e+03
6.032651453704009327e+03
3.541485175918081950e+03
-5.033643563059648045e+02
-3.609880516137925042e+03
-4.798114604946459622e+03
-5.415126070366675776e+03
-7.334915480688719981e+03
-7.661469562006160231e+03
-3.330849450803258151e+03
1.372959134038435650e+03
1.365941481051139135e+03
6.510433746372049200e+02
2.942244234829966445e+03
5.506563713613656546e+03
6.008961459145482877e+03
3.751425222986461904e+03
3.864939684842144288e+03
5.391498728440792547e+03
5.814114484214878757e+03
3.950777215895081554e+03
3.439515147689420246e+03
3.601305408897746929e+03
3.313144418231912823e+03
3.799043461916408432e+03
3.766966306622504817e+03
3.226899186374446344e+03
1.130962194959973885e+03
-2.762893451531633673e+03
-5.340704495023008349e+03
-6.333409331787288465e+03
-5.137016648955473102e+03
-2.101548595436461255e+03
4.305455819677914064e+01
-1.931109113350477855e+03
-2.924113805934321590e+03
-5.379004129613134864e+03
-8.484868401398740389e+03
-1.793852595158793338e+04
-1.800193968889220560e+04
-1.435302250205781820e+04
-1.134765104867053924e+04
-6.686897948076076318e+03
-1.135883979729422890e+03
1.530411810375324876e+03
3.550820949267109654e+02
-3.848403376367959936e+02
-1.198330839751629128e+03
1.561613541893412048e+03
3.673038227998530147e+03
2.782971466226261327e+03
7.338450521020130509e+03
7.641511811380322797e+03
6.212143441084827828e+03
1.109448647402481583e+03
4.034190655275276640e+02
2.158066273608381380e+03
1.675432461870897214e+03
-2.884261515901786765e+02
2.203536815576479967e+03
2.524380553955915730e+03
2.604133340339447841e+03
3.034806845203954708e+03
8.033968649584450077e+02
-5.940271155067733844e+02
-2.919419055777683752e+03
-8.949719251428243297e+03
-1.032390250414903494e+04
-1.145197481879323823e+04
-9.928880155167225894e+03
-4.945575726792158093e+03
1.604953796029865998e+03
4.292763759866362307e+03
2.337912698805119362e+03
2.465368861301790730e+03
4.263220878158862433e+03
5.362528919958487677e+03
6.265281567544884638e+03
5.648496324683012062e+03
4.388227476183551516e+03
3.535457253827070872e+03
2.391190788114185125e+03
1.313482522952922182e+03
2.152370952676543311e+03
2.735929531376415071e+03
2.095135810991181188e+03
1.132022325249344249e+03
-1.282396921193474100e+03
-3.323073069400405529e+03
-4.211001026554091368e+03
-3.446174783314242177e+03
-1.320610333261340429e+03
3.060723901530928288e+03
6.268758003683281459e+03
4.620662453530218954e+03
1.158607215629029724e+03
1.612747791673805978e+03
1.088315849692982283e+03
9.321750974591363956e+02
1.802527621417742694e+03
2.909188095921809236e+03
2.401675660194138345e+03
2.025269769018998886e+03
1.671144986274124221e+03
1.154235309101344228e+03
7.195706999257694179e+02
3.940688094669257566e+02
8.386650926012296168e+02
8.973951653123991719e+02
1.178475051206703711e+03
1.361875283320904146e+03
1.202142594898075231e+03
9.056779997307646681e+02
1.081615500850438593e+03
1.565737774434287985e+03
1.730929392849042415e+03
1.451046057048686862e+03
9.809605779882688239e+02
9.607544260459927727e+02
9.501217705187872298e+02
1.019264409399085253e+03
1.237303277550175153e+03
1.122232220067799517e+03
1.317010636270739951e+03
1.125460680456464161e+03
1.028927076916003898e+03
1.074230024043136837e+03
1.144209076499378170e+03
1.086687083394170259e+03
1.007717027374903410e+03
1.086334404967896717e+03
1.316251926991553546e+03
1.565012047566285446e+03
1.580529158558285872e+03
1.686950057580923158e+03
1.606399620991879829e+03
1.512719530498551876e+03
1.524645416739822849e+03
1.310250528639595359e+03
1.234525324650860739e+03
1.379594553482833362e+03
1.612442485473765601e+03
1.231946801564987936e+03
1.412053769824223536e+03
1.256805345394858250e+03
8.892496031659131859e+02
1.190375583147597581e+03
2.591231607016640623e+02
-1.581611406144509829e+03
-4.722862435767844545e+03
-6.210641608094901130e+03
-5.659975338305328478e+03
-3.965913305574651531e+03
-3.524435021524031981e+03
-3.902572907107226911e+03
-4.401408074402203056e+03
-4.247931702928985032e+03
-3.982201776185226663e+03
-3.834198819153845307e+03
-3.977973704437045853e+03
-3.658380361600810829e+03
-3.841525604857693907e+03
-3.608500050456487770e+03
-1.284330681457837954e+03
-1.129038041169885901e+03
-3.166659579412974836e+03
-3.782184942161870822e+03
-4.143600845668273905e+03
-3.835836232123742320e+03
-3.240019845021348374e+03
-2.977150489349488453e+03
-2.539256029641845544e+03
-2.937269631513313470e+03
-3.193238486793733045e+03
-2.083433406935644143e+03
1.536201238608933863e+03
2.350692448121846155e+03
3.254055826883223290e+03
2.915389114469888682e+03
2.724765893671526555e+03
2.575197512722771535e+03
2.165736999534628012e+03
2.017421045720457187e+03
2.103162100295712662e+03
2.117050237990355072e+03
1.863672874625149916e+03
1.797107020438864765e+03
1.918489683604298989e+03
1.934828759253424323e+03
2.108167494500843986e+03
2.382314224098805880e+03
1.918309611280068111e+03
9.942478414255547250e+02
7.880943515800763635e+02
9.488000010599740790e+02
8.535942020312105569e+02
7.882392304328396904e+02
6.319643421143359774e+02
1.676623492865874994e+02
-1.258374350829753183e+02
-1.484105782113680618e+02
-3.471963818841860530e+02
-1.936730020200760976e+02
1.133378888851893009e+02
-4.472209656934062423e+02
-9.980745787435242846e+02
-1.582599495404836489e+03
-1.680043792804939812e+03
-1.590461884680180447e+03
-1.136945775931729486e+03
-2.648031450038639605e+02
7.021387476484553858e+00
1.901293279797845628e+02
3.347229010840523244e+01
-7.483114609253855178e+02
-8.395954568211509468e+02
-1.110688932651092728e+03
-1.322271738271652566e+03
-5.532550619429988501e+02
2.363610413205242651e+02
4.438282218110600184e+02
4.007547899692678470e+02
-3.185704515120262954e+02
-2.364034069874081979e+03
-1.163677001834761768e+03
3.442578711614556397e+01
-2.365086376977671989e+02
-1.466098153475816162e+02
-2.908374160113989433e+02
-6.221298088127725805e+02
-6.626054322828828163e+02
-8.972674312866706714e+02
-1.135968357648890560e+03
-1.020628516886005059e+03
-7.184789937051680226e+02
-4.663477075521619213e+02
1.249953772245885801e+02
3.307127536369192740e+02
2.808717243273385975e+02
2.494985812794665492e+02
5.635858272463542562e+02
9.350291287886441296e+02
1.069697763570186908e+03
1.032419467802088320e+03
9.502679017261976924e+02
6.451548649393577080e+02
5.810378874834111684e+02
6.962512374159068713e+02
8.539079255448808681e+02
3.830986431174086988e+02
6.140460950433059679e+02
1.061821560258277714e+03
8.882606355856826212e+02
7.372236706023422812e+02
7.795713694763837793e+02
8.320606081885713365e+02
5.397178557991003345e+02
3.067446794695721906e+02
5.523739450183658164e+02
5.457430721730208916e+02
7.130421848253970438e+02
7.442633810099633820e+02
4.933632400573632140e+02
3.763154889460384425e+02
5.802463675150713698e+02
6.880188731795019521e+02
7.182835565597480354e+02
7.419050556171378048e+02
6.171553825996960541e+02
4.691245643007032982e+02
5.945718416861089963e+02
6.424384510108309314e+02
7.818479542615267519e+02
6.160308538930044051e+02
3.717864223872056186e+02
1.750315225031838509e+02
-1.002184948679011313e+03
-1.756679406184664742e+02
3.351757374693794134e+01
2.472942592716325976e+02
3.876862425624994444e+02
4.618562739446717913e+00
-6.368618892215786218e+02
2.472898662671422585e+02
4.171959239204240930e+02
1.549749718543843642e+02
3.796595199300435297e+02
3.551856997085790795e+02
2.993303845882384735e+02
4.694518451925029723e+01
-5.930425998489123458e+02
3.096637340783940431e+02
1.569807836485855148e+02
-1.848984141036737356e+03
-2.644124882566984070e+03
-2.994828380793083397e+03
-2.076746660225745472e+03
-3.472806287934801048e+02
8.375395698951981558e+02
1.016451677683498815e+03
5.332913025767178397e+02
5.681441303711270621e+02
5.662520627022149711e+02
8.865938540967883910e+02
9.741686676066385644e+02
9.046564916243576135e+02
8.900227943863715154e+02
7.964494780768592364e+02
1.027474291379192891e+03
9.113422411401888894e+02
1.068188830651301032e+03
1.021329317685654019e+03
5.934779868234339801e+02
6.223682217259405434e+02
6.541337121020798122e+02
6.599126078218379234e+02
8.263320997008352151e+02
1.093516543611081715e+03
1.339456731217315792e+03
8.751000659011486960e+02
7.686159404427760364e+02
8.479909524998579400e+02
1.169297223277814510e+03
1.582911150764662352e+03
1.508515188461717798e+03
1.332062349417062023e+03
1.233307895814072253e+03
1.150902897630789994e+03
1.281590103996060634e+03
1.349532028843695571e+03
9.140268419831686515e+02
6.420088002733108397e+02
9.593196779262051450e+02
9.989207993607109302e+02
9.808062500937278401e+02
1.199070297426486604e+03
1.370753481292033712e+03
1.284833156385281882e+03
1.158351994184047498e+03
9.793424110082499965e+02
1.146632037452924123e+03
1.149205004590832914e+03
1.251120766373715924e+03
1.276466905484121753e+03
1.306368746732716545e+03
1.184837591618965689e+03
1.016794382583523543e+03
3.931100230732905629e+02
-1.688387855926911698e+03
-4.373923232954805826e+03
-5.362542260474421710e+03
-5.445746755635213049e+03
-5.898408992670977568e+03
-5.824927290850542704e+03
-3.935174616892488757e+03
7.690304277244546256e+02
1.090675171436040046e+03
-3.431378127923527245e+03
-5.949102934003837618e+03
-5.779510093505318764e+03
-5.399582503225567052e+03
-4.594270388735082634e+03
-4.630566706159266687e+03
-4.773474881769237982e+03
-4.500046477594092721e+03
-2.594267095081859679e+03
-1.651132042920694175e+03
-4.408621376841671008e+03
-4.428708951788929880e+03
-4.492379078969131115e+03
-4.345632932088047710e+03
-3.630521925450364961e+03
-3.389974646770466279e+03
-3.462920153832996675e+03
-2.243782421240458405e+02
-2.453321951460645323e+03
-3.936721991157591674e+03
-3.687585982119075652e+03
-3.588948722790230022e+03
-3.691711825022421181e+03
-2.904897795284696258e+03
1.051540414346910893e+03
1.915619750290710044e+03
3.126356334972532750e+03
3.037742084556298323e+03
2.982844911331234016e+03
3.071668228294340224e+03
3.085204422957028783e+03
3.130452318312542047e+03
3.183440568570933920e+03
3.185206826811229803e+03
2.970775123454474397e+03
2.996164992366437218e+03
2.751398923362977257e+03
2.779485910090942070e+03
2.689468603796744446e+03
2.826367979727052443e+03
2.889179301293552726e+03
2.567905492828680053e+03
2.191641043836346853e+03
2.173343077099199036e+03
2.243034713640648533e+03
2.257785052429617281e+03
2.309588209837402701e+03
2.175532897782207783e+03
1.932731162021176488e+03
2.078348139411248212e+03
2.109334812674368095e+03
1.796550940837748158e+03
1.693884356736581822e+03
1.767443687144659862e+03
1.747293077191069187e+03
1.742481402608450026e+03
1.514951606358368963e+03
1.094656002216812112e+03
-1.925208289418459984e+01
1.319220909978963164e+03
1.790944125694307104e+03
1.705803613351263266e+03
1.482168524807394078e+03
1.801156585858833978e+03
1.567566413268571068e+03
1.581532916671657631e+03
1.534845556039153962e+03
1.454635457406624482e+03
1.460837236178081412e+03
1.450297467310195088e+03
1.614280925329203910e+03
1.238005088480237191e+03
9.776383888913699138e+02
1.025608445061964176e+03
1.087838399589985329e+03
8.585146657750065060e+02
5.298565737377971345e+02
4.185510423180367638e+02
7.877367141199164280e+02
1.085343838661710834e+03
8.483811175216263791e+02
1.062858787469316894e+03
1.153791899690105765e+03
1.076159880840513324e+03
7.599762826270948608e+02
6.102761453141076800e+02
6.230697336625014486e+02
5.123028813572503850e+02
3.729768639879052898e+02
5.531010774963715448e+02
5.876768700839960502e+02
3.787526994728993373e+02
2.313911262584746851e+02
3.375377395408336838e+02
5.561719160757365898e+02
4.462933243951437134e+02
2.139357771765928931e+02
-4.991109271699649241e+01
-1.112418627454703568e+02
-2.550289001043777262e+02
-2.630793754917427663e+01
-2.106953435082080617e+01
1.666602363992469407e+02
8.288153827324261158e+01
-6.351485626873197177e+00
-1.130276402757192358e+02
-1.871338016004638689e+02
-2.787110189827986915e+02
-4.298071159157269108e+02
-2.374504464641431980e+02
-6.786862439358437769e+02
-1.859470333744032814e+03
-4.133829287191993899e+03
-7.052735934543862641e+03
-7.138143188674165685e+03
-6.916093389282033968e+03
-6.751605636882755789e+03
-6.610675725790064462e+03
-5.725388969886633276e+03
-6.534785467009926833e+03
-6.452849556051291984e+03
-5.774577174005044981e+03
-5.719968400398818630e+03
-5.666844987878502252e+03
-5.651503021814223757e+03
-5.957787805551180099e+03
-4.530606595997381191e+03
-7.070554674979314314e+02
7.867838416778554347e+02
1.418931201015143188e+03
1.434344262998557042e+03
1.498045568993976531e+03
1.595063090707737274e+03
1.668315593259874277e+03
1.361770940880201351e+03
1.411439754684591207e+03
1.190260858642189760e+03
1.192238788828910401e+03
1.401421146104289846e+03
1.156748905358657566e+03
1.021180844727408839e+03
1.099714633520074585e+03
9.843289008037563690e+02
1.004031935163707317e+03
9.098230639515654730e+02
9.647308359708875969e+02
1.124730968328851759e+03
1.171783154065871486e+03
1.005868533887747731e+03
9.400398961321230900e+02
1.052231873426836728e+03
1.139400510408907394e+03
9.705922823528545678e+02
1.139801624816059984e+03
1.166011240156119129e+03
1.000199972317773700e+03
6.853762177863878833e+02
6.365436477352776592e+02
7.436481773158812985e+02
6.887294450692338614e+02
3.117083631246237019e+02
5.936088256756230521e+02
8.484425347005520734e+02
1.086176308488628365e+03
8.138073108103004643e+02
1.227324607031436926e+03
1.528707614318507467e+03
1.187957466492459389e+03
1.108074699023186213e+03
1.112066776505891085e+03
1.273883275797824808e+03
1.378565630127324766e+03
1.467071169877725879e+03
1.023406804779601316e+03
1.114607190099339505e+03
1.012667616463723220e+03
9.586060684897753390e+02
1.188207357853677195e+03
1.152605468562661372e+03
1.029802443858482320e+03
7.989983656165588854e+02
7.940504437555887307e+02
9.249328025933721165e+02
8.745440627344702307e+02
-2.220878227301559207e+02
-4.089791259319765686e+02
-5.016195935545094642e+01
-4.353915438759360512e+01
8.288433512556487130e+02
9.479676713875577434e+02
1.076879327206354674e+03
1.005414407539460285e+03
6.336349121711608632e+02
4.946483821412975317e+02
5.864539109813990763e+02
9.000873846853189661e+02
7.025179655524225382e+02
7.677112951891796229e+02
5.195389772612683146e+02
7.880231656492361481e+02
7.482199416746889256e+02
4.760924197899905153e+02
4.156030540750689966e+02
4.116900563725375264e+02
4.914126048569051477e+02
4.767747175525492480e+02
2.647402971952936923e+02
3.483234665644739607e+02
2.805239626193185813e+02
3.753487182682937942e+02
2.987607987909883605e+02
5.307847260864415375e+02
2.704587769499754017e+02
-9.127367662710436491e+01
-2.173990586448533975e+02
-3.109466506473610821e+02
-2.979129163736606642e+02
-2.793064542518462758e+02
-2.041305404297282280e+02
-5.943583817335911590e+02
-5.450204676573296183e+02
-6.911227538048764245e+02
-4.706557601670246527e+02
-2.416775443443715972e+02
-3.111439011543041602e+02
-4.870498827705225153e+02
-5.033874434570624317e+02
-4.151636745392979151e+02
-6.333699392494310132e+02
-1.471028353443619153e+03
-1.160087505978333866e+03
-6.345619247937361251e+02
-6.595023031812893350e+02
-4.968917943711712724e+02
-4.087173817695577895e+02
-5.429845869341660318e+02
-7.337298422235476210e+02
-8.239066097807485676e+02
-5.605177316699287076e+02
-4.415502499489986121e+02
-4.570258167507686267e+02
-8.909321342143899756e+02
-6.613136931756098420e+02
-5.801205435743690941e+02
-4.373523954863877066e+02
-4.180052237633418599e+02
-3.020693301951454259e+02
-5.964821061348195599e+02
-6.421167242843363283e+02
-1.561856420676020662e+03
-7.577935774166967349e+02
-7.079806714829496741e+02
-2.509543080702249881e+03
-4.155512776908279193e+03
-3.353751265084656097e+03
-1.270536668408381502e+03
-9.059065932649413355e+01
-5.783492945525403606e+00
-1.279869494731953807e+02
-2.184857314003885165e+02
-2.711483975602603635e+01
1.617148522637948247e+02
2.465791728652401105e+02
3.693128925660126924e+02
2.326291458917663704e+02
2.767182427866951571e+02
4.203125244026161909e+02
4.260252245987236961e+02
2.513997893131792978e+02
3.356421056048958462e+02
-6.836205126250975184e+01
-2.757825279051902712e+01
3.150642819257956830e+02
-1.016738998637550964e+02
-4.574946163621513762e+01
2.181896495305878432e+02
2.949595556870488053e+02
-1.686419656677290959e+02
4.366074737793287142e+01
7.764046971649069917e+01
9.067812830822207104e+01
1.353211942935167258e+02
