-7.538595724343398388e+02
-7.910994064397483498e+02
-2.869097894755188349e+02
-2.129117300959021719e+01
8.717597111379143371e+02
9.733220828595564171e+02
5.194380800193425785e+02
1.902154700879700613e+03
1.605514148762324339e+03
1.053438959720658204e+03
1.017988397347517321e+03
5.441713329530742840e+02
4.008900992935214731e+02
1.960406221273833296e+02
9.956915770851215086e+01
-8.348290005720404849e+01
-1.991089926256706804e+02
-1.017171193221982861e+01
-1.624657235774459139e+02
-6.499709482219511756e+02
-7.140752425848478424e+02
-4.197998407168759627e+02
4.985355298340362395e+01
1.707569965060861534e+02
7.812284285035233324e+02
1.288146858069513655e+03
7.775184279175114170e+02
1.343015128383328602e+03
1.453402856488962925e+03
1.083859653192975657e+03
1.025510150957497444e+03
8.445847023345032767e+02
4.695798845718084067e+02
3.184310021293730131e+01
9.396038541899271124e+00
-1.387183882633935070e+02
-1.588356506777222990e+02
-4.188382595233681513e+02
-7.424359600920814728e+02
-4.308509180971852857e+02
-1.302344442164791189e+02
2.035861419084823254e+01
3.959378911602419180e+02
1.224489267822664488e+03
1.316878979216521429e+03
1.615108661465908654e+03
2.224945744506565006e+03
2.085656291868207973e+03
1.885167172244057838e+03
1.638361101305064267e+03
1.422372415929122781e+03
1.466023896065836425e+03
1.138278567070686904e+03
1.131886961274247824e+03
1.238459650001557293e+03
1.255032295847219757e+03
1.074252033555196249e+03
1.091621597133963405e+03
5.891115371564918632e+02
3.325159625251833972e+02
4.110788192315488914e+02
7.287804605160292795e+02
1.211336784441318514e+03
1.480706312188484617e+03
1.848904011159379252e+03
2.015093755452755204e+03
2.506315642241921978e+03
3.179502711153368637e+03
3.087526784394239257e+03
2.548459013920359212e+03
2.253392110161194978e+03
2.100229528865515476e+03
1.821827476266519170e+03
1.426119113586290268e+03
1.311100559003604303e+03
1.027881954018631859e+03
1.029456679177686738e+03
9.707831511875285742e+02
6.998134877077822011e+02
3.745039474648232840e+02
-5.381017194366895637e+02
-2.383075803535165051e+03
-4.158447423620647896e+03
-8.532202013533025820e+03
-8.898271009063613747e+03
-7.898680681158090010e+03
-6.915300705619618384e+03
-6.845100912343340497e+03
-6.850113374930222562e+03
-6.670284252749959705e+03
-4.453658350043690916e+03
-5.447398292270768252e+03
-6.589444507766838797e+03
-6.820413652609450764e+03
-6.894653067013865439e+03
-5.200932715290690794e+03
9.447261771716122212e+02
-1.935779443212459000e+03
-5.485436997875995985e+03
-3.439185953123514537e+03
-7.046038741766262319e+03
-7.599033352168668898e+03
-6.646121263174849446e+03
-6.533301845396216549e+02
2.972370952587408738e+03
2.760668318172849354e+02
1.467818044316636588e+03
3.815684794686686928e+03
4.120764885900968693e+03
3.564059148385265871e+03
3.452590160159795232e+03
3.339348377218606856e+03
3.134338136052145728e+03
2.957571900054443631e+03
2.562069560618528158e+03
2.406924427191052473e+03
2.531137019117492855e+03
2.032812467323966530e+03
1.368960345625657055e+03
1.028586222259110400e+03
9.346998952296053176e+02
1.214332237016932822e+03
1.799513488468629021e+03
1.963289704103069425e+03
1.957785078049928643e+03
2.238012145465232607e+03
2.758062867256724530e+03
3.114971255699275844e+03
3.127837632482509434e+03
2.487721198357392041e+03
2.028542511426096326e+03
1.842384150962483318e+03
1.807458029992783850e+03
1.480800072743020792e+03
1.249320621487288463e+03
8.970256163534104417e+02
6.940269454999240679e+02
3.164269195155872580e+02
2.571294254935618255e+02
6.423205358886039562e+01
4.676572507170908466e+01
1.327591433899734739e+02
2.692451698095883330e+02
5.892440166407161541e+02
9.357986078440994788e+02
1.394939907873171023e+03
1.831774544075182348e+03
1.928433412595691607e+03
1.665949246488363315e+03
1.319242817989854757e+03
7.965168215049149012e+02
8.378875081477420963e+02
6.995845587758753936e+02
4.136641300842391615e+02
-2.308197821080276526e+02
-7.268781064683599880e+02
-2.837039284254182121e+02
-1.976600678997848490e+03
-4.825209513364873601e+03
-3.089510544997763191e+03
-2.263830261927838819e+03
-1.440762317032914325e+03
-1.551643210367959227e+03
-8.253819227169987016e+02
-4.396413975887357424e+02
-3.043608518242415073e+01
4.751451011947267489e+02
1.258183546065357405e+03
9.617153994445142189e+02
4.197208179786836126e+02
3.830894120324571190e+02
3.397380951087134804e+02
4.475931549017295197e+01
-1.887831391156046834e+02
-3.739895979784922133e+02
-5.278225491314033206e+02
-3.661994755861288695e+02
-6.131043538020971937e+02
-7.945884812998476718e+02
-1.233731233169813549e+03
-1.619509461258550346e+03
-1.626868727424993494e+03
-1.314821073409533710e+03
-7.904078048799708540e+02
-3.356543073345967514e+02
4.649924524081591670e+01
6.760744511563584638e+02
7.140509183115466385e+02
4.874197381333491421e+02
7.081777498041295758e+02
4.073023791174391022e+02
1.377829944528190822e+02
1.655555038053799066e+01
-2.314179235742001026e+02
-6.771238480708647103e+02
-7.705717229646628539e+02
-7.668309797563464372e+02
-4.939284993211030610e+02
-7.548487549622974484e+02
-1.217639728295017221e+03
-1.178394020488269007e+03
-9.150705867446562252e+02
-8.797130107024983090e+02
-8.314389536129033331e+02
-2.512382518813065531e+02
2.519025283132532138e+02
8.660287547492256408e+02
1.478094305851015861e+03
2.039017142270000704e+03
1.796781223148984736e+03
1.454414006045617953e+03
1.208850179627600710e+03
7.793765626660120915e+01
-3.043993703503012398e+02
-1.232082195015520938e+02
-1.074365017616789686e+02
-2.221081515254580552e+02
-4.003770064126833290e+02
-1.662344018121314775e+03
-1.674928071155200996e+03
-9.750047955214972717e+02
-9.197623013614462479e+02
-2.183607766746286529e+02
2.111311307296110229e+01
5.066718612412085463e+02
1.218328551812314345e+03
1.428117953260687500e+03
1.444973644151420331e+03
1.183805355843156349e+03
1.050568117304040243e+03
4.931612394735581688e+02
4.605685036676895265e+02
7.497143242663900082e+02
1.765458808771995791e+02
-7.789785592320266687e+02
-7.588824032840152540e+02
-7.924191140363143404e+01
4.549136042797236428e+02
-3.824451177686606229e+02
-9.523887891942025590e+02
-6.899993274228229438e+02
1.536492772421449899e+02
3.785202990924368578e+02
5.635389755607535562e+02
6.707356970283010469e+02
1.474208041104631093e+03
2.211827854577549715e+03
2.651558303503661136e+03
2.659368415469091360e+03
1.839255165886181885e+03
1.063176880197665923e+03
7.290798918276715312e+02
8.589344616449341174e+02
6.827045642069933820e+02
7.543458223275781620e+02
1.038828285584275591e+03
1.043073476629923107e+03
1.207044167746159474e+03
4.427576834950843363e+02
-6.088740815107346407e+02
-1.605835218061632759e+03
-1.975203935183594467e+03
-2.130016493512383022e+03
-1.944210201933433837e+03
-8.688573460708154244e+02
-1.838582286970961377e+02
8.137630042394828251e+02
2.439944517645822543e+03
3.494733333198081709e+03
3.337076926425330839e+03
2.764948527657203613e+03
2.357345340026224676e+03
1.920263124413873129e+03
1.375645384368218856e+03
8.934777583207670659e+02
1.028720079500768861e+03
8.594026038792554800e+02
1.985545786708228491e+02
-6.578242376213855778e+02
-1.189764191065094565e+03
-1.525229270939245907e+03
-1.047250906501275722e+03
5.040303180434012802e+02
1.670651730345539590e+03
2.817973369861370884e+03
3.736983498311414223e+03
1.938565709390910797e+03
3.717323630007765018e+02
-5.309414727142762786e+03
-6.840932577817197853e+03
-6.686802313880310976e+03
-6.658029523807711485e+03
-6.582633996286874208e+03
-6.080662210148745544e+03
-6.056024927825723353e+03
-4.944712457072019788e+03
-5.495675729470383885e+03
-6.525930921876070897e+03
-6.413472413609828436e+03
-6.508330710298700069e+03
-7.386465761111298889e+03
-4.793754497130176787e+03
2.278708791637195574e+01
-1.180884397432569358e+03
-4.040674768660824611e+03
-4.555498655211680671e+03
-3.511276347210375206e+03
-3.785967854497263033e+03
-1.011530581803813789e+03
4.674057031765055399e+03
2.443832535953626120e+03
-1.955187923516366936e+03
1.925988205911382011e+03
2.736363988777156464e+03
2.717939938743194489e+03
1.228728164687906457e+02
1.508201822349598842e+03
3.587881051295460111e+03
2.476939497368548928e+03
1.156390540561403668e+03
-2.987094976562871125e+02
1.657014337612046404e+02
1.485663248556410736e+03
2.349191490320152297e+03
1.729293077724636078e+03
2.053104725024304116e+03
3.704688050102312900e+03
4.776109252068792557e+03
4.699398348379329946e+03
3.418623668196955805e+03
2.496811516855512764e+03
2.892985005473137335e+03
2.836197421819316787e+03
3.083399988925382786e+03
3.125632216303593395e+03
2.804938272051233071e+03
2.842385336053756873e+03
1.947093360268326251e+03
1.009049942524477160e+03
4.162897905715449838e+02
6.291298183378326030e+02
3.197484072921074016e+02
5.280680638692090270e+02
9.629943253397560738e+02
1.469708030239231448e+03
2.637280638617414297e+03
3.146750017310746898e+03
1.849927025830709681e+03
-8.769699142004925534e+02
-1.678803125807344713e+03
-1.545585150129481008e+03
7.536213133521340524e+02
1.399663290355335675e+03
5.402654616753482060e+02
5.692980799032570758e+02
6.962823708466129347e+02
1.148653333708928812e+03
1.040036709397976892e+03
1.037544129955202834e+03
4.700963228691130666e+02
3.242261141178454764e+00
4.043102395814683092e+01
6.895578215613264206e+01
-3.469944835540568420e+02
3.108275583672244693e+02
9.213052664356711148e+02
1.497860991687396108e+03
2.044301885473230186e+03
2.437627985789169088e+03
2.161964263459873109e+03
1.681112075679508507e+03
1.036103912698516297e+03
7.109476406036428671e+02
8.725721556149103435e+02
8.100436378711369798e+02
7.534033421518425939e+02
5.936058459659386699e+02
3.016247394122276546e+02
-2.105934658644178228e+02
-6.450053351401626287e+02
-2.035293100830068624e+02
-3.801885908382777188e+02
-3.200678545799519270e+02
-6.922304232274717606e+02
-5.686570083558339093e+02
3.147351675540704150e+02
-7.089971020959873158e+02
-1.818890681746763221e+03
-9.999409390359585359e+02
3.468417801533108218e+02
9.204686461147387035e+02
5.008937295058526615e+02
5.141079035575885428e+02
9.230711185839070367e+02
7.378279425380941348e+01
9.181275281746339445e+00
1.002640552527654023e+02
6.201684493734371983e+01
9.945023143910114527e+01
2.735832740257396267e+02
1.453719514109379247e+02
-4.642232051807405924e+02
-5.822286542032320540e+02
9.236571335560633145e+01
3.365097755653990816e+02
-3.617735734129414595e+02
-2.374405910385055449e+03
-6.739395272036432289e+03
-8.743775975873393691e+03
-9.117587799976705355e+03
-8.254923062587777167e+03
-4.982886855467826535e+03
-6.811110851967740132e+01
-9.867145975776289788e+02
-3.594493922840202686e+03
-2.283577221900101904e+03
-3.426287911271810572e+03
-8.635883117746559492e+02
-3.189524776045961062e+03
-5.406029806254391588e+03
-3.525173221178209587e+03
-1.709936687281393006e+03
-1.119347939082160565e+03
3.285517070437169878e+02
1.951702344244630467e+03
3.649199149576938908e+03
4.112084128383368807e+03
3.251288760784422720e+03
3.010817593909139305e+03
3.265676809366187626e+03
2.513878965619222981e+03
1.534396450053343187e+03
1.699179573680693238e+03
2.080170254164461767e+03
1.894383702932169399e+03
8.438027102367443604e+02
2.514475023609749087e+02
2.713205692931567796e+02
4.143803052909718190e+02
4.826327556756829154e+02
2.090503029691366521e+02
1.826418947689170125e+02
6.833774252715302282e+02
8.482362073611028563e+02
8.382535218452395611e+02
8.834533282645381860e+02
1.066841329567909042e+03
1.426440342194385266e+03
1.600265484836964561e+03
1.388303038744550577e+03
1.540549229246102641e+03
1.543035363244917335e+03
1.120716998346131049e+03
2.735771816208427367e+02
-2.304093061479366895e+02
-4.402078156702834804e+02
-1.053781792830724044e+03
-7.142120815239052263e+02
-6.204763505904104477e+02
-1.310568337752703428e+03
-1.711445340135596552e+03
-1.653151196239852197e+03
-1.492721620711995911e+03
-9.321372775634391701e+02
-6.564182823636864441e+02
-3.045626778428092507e+02
3.495274010246760099e+02
1.456865764547012077e+03
1.526499794151713331e+03
1.124496760388992698e+03
4.118034747334446593e+02
4.073549228318500468e+02
4.872537630882595749e+02
-5.025527976648333492e+02
-2.539244297231784913e+03
-3.334674868136462010e+03
-1.482568627696537078e+03
-1.750625945633060780e+02
-1.292575391551913242e+02
-8.531659840202590885e+02
-1.226736453708488625e+03
-1.517039188576634388e+03
-9.151023085052531769e+02
-4.288960324900721162e+02
-1.573814230522336004e+02
2.115106621488733367e+02
5.557317381557165845e+02
6.253556782420364470e+02
4.593820437158463506e+02
9.067945085178993168e+02
1.154643303247003360e+03
7.989732328048132786e+02
5.227059207149818576e+02
6.087754243380235266e+02
6.961417365197160052e+02
8.228921307999250985e+02
8.805061776815205121e+01
-4.014496487555299495e+02
-5.426771858897312768e+02
-1.064576882498076884e+03
-1.548130916352686427e+03
-8.083340282449067900e+02
-6.772305985683626659e+02
-6.088235990160720803e+02
-6.761211359218560801e+02
-5.841316727184338333e+02
-1.497489894323393287e+02
-2.392116457991005873e+01
4.973308811895292365e+02
8.719338732454002638e+02
9.098951125929761474e+02
8.532010729448033999e+02
5.388065908373524735e+02
1.107180544549231911e+02
9.866519352838571066e+00
-3.457096972590330211e+02
-3.689669404422171510e+02
-3.198748861115004161e+02
-1.241469725527130549e+03
-1.923799709465997921e+03
-1.366866018575722137e+03
-6.957836621142429294e+02
-3.805323717566674873e+02
-1.731671292470781225e+02
4.011851662238602785e+02
8.345628247031161209e+02
1.039052980669844146e+03
1.485674168086633017e+03
1.988440048921512698e+03
1.947299387877768595e+03
2.130249183574963808e+03
1.450296287215455322e+03
5.663566056713449370e+02
2.644236789085785517e+02
3.054495325147298672e+02
1.944574260847319636e+02
2.134203509561041301e+02
3.663212857818882071e+02
-1.575984443941766131e+03
-4.878778241578203961e+03
-2.787894136384624289e+03
-8.508601392865483604e+02
-8.440661454622985502e+02
-5.753981073165950875e+02
8.751376912727772606e+02
1.375783436056793335e+03
1.863283936071101380e+03
2.564901650764869373e+03
2.743263585227946805e+03
2.120313232365337626e+03
2.002353232902921945e+03
1.502922583095106802e+03
1.965163098041899730e+03
2.050064394770955005e+03
1.763829135092907336e+03
8.810778328918875104e+02
6.076916271423795024e+02
9.250120591772358694e+02
9.416757138883431253e+02
3.445924423234299638e+02
-3.239928023347135309e+02
-5.640339990700697399e+02
-3.397966105092651787e+02
-1.944218936076330451e+01
7.683771122204085486e+02
1.106082960978668325e+03
1.881773549661659899e+03
2.736571560875051546e+03
3.113164359845596664e+03
2.847657380249970174e+03
2.155018088779132540e+03
2.335380124990731929e+03
2.752232379265851250e+03
2.406075356303259014e+03
2.144653385160315793e+03
1.730240612845479291e+03
1.299811211613470050e+03
1.267411672139038956e+03
1.057900041683928521e+03
8.771943380330665150e+02
5.123111377274399274e+02
6.443596114483316342e+02
4.942591471637209111e+02
8.138776591705873216e+02
1.158206372653521385e+03
1.805375322417815141e+03
2.207511748573872865e+03
2.736612825639549555e+03
3.388539258533442990e+03
3.238314364029488388e+03
2.991928845465464747e+03
2.476439116086028207e+03
2.096846125286567712e+03
1.972103358188778202e+03
-3.997270390441272525e+02
-3.977646773844596737e+03
-8.406678584969922667e+03
-8.160862861879500088e+03
-7.816123476938372733e+03
-8.971460495572706350e+03
-9.176894696278215633e+03
-8.937439837323747270e+03
-8.281178980179185601e+03
-7.956042649869510569e+03
-8.239733194888605794e+03
-7.477215185114420819e+03
-6.208759297856327066e+03
-5.700090416505987378e+03
-5.350226480320289738e+03
-2.975269203296854357e+03
2.797900572384585757e+03
1.223242128662403047e+03
-3.217264032930881513e+03
-6.737651273386413777e+03
-7.030870505447080177e+03
-7.012899831540608830e+03
-7.023678588701221088e+03
-1.874184949942736012e+03
1.840594636798361989e+03
-1.241305038583906708e+03
1.141773671605775462e+02
-1.957998126519926473e+03
4.082058891541113894e+02
9.177996247786513777e+02
1.438794401424639091e+03
3.730217845074240358e+03
3.692170698217152221e+03
3.744730569572642707e+03
4.098944321230675087e+03
3.815869839648894413e+03
3.655479611274673061e+03
3.706806490498527182e+03
3.353872390157091104e+03
2.765723010355831320e+03
1.717372001516693899e+03
1.532862177094080835e+03
2.191236517346069832e+03
2.610457886685863286e+03
2.361587750446185510e+03
1.590665242323620987e+03
9.107418788590721306e+02
1.006841972031764953e+03
1.231947474188173373e+03
1.141236793143824116e+03
1.441759655353765311e+03
1.967447018230245476e+03
2.587230073452331908e+03
2.914182583447146953e+03
3.164462692446525125e+03
3.183041253978022723e+03
3.115889956496954710e+03
2.629172223915920313e+03
1.981857372630703139e+03
1.313937117521325717e+03
9.474232145081713270e+02
1.063328450718451450e+03
1.065681350028442239e+03
8.395048062569175045e+02
6.269181910198146852e+02
8.298936221119838592e+02
2.592535777066071887e+02
-3.697175292774704189e+02
-2.803298544861280384e+00
2.416730402458850335e+02
8.560416432241013354e+02
1.078678922590474485e+03
-3.913383343075379495e-01
-3.296492838162152111e+03
-1.933730124955135125e+03
-6.231962316540139000e+02
1.681869879948027119e+03
1.023157645073282538e+03
7.530639389662409258e+02
5.601926236233282452e+02
1.151575038733911924e+02
-1.988105273521695153e+02
-3.586832440191782325e+02
-3.027442455956476124e+02
-2.850658866622545702e+02
-4.245345126113540459e+02
-7.902092821723214229e+02
-8.511314057696173450e+02
-5.483684737497488868e+02
-5.048227205501643766e+02
-2.343896211207084264e+02
3.087149148205986293e+01
7.140067657232862075e+02
1.349079942343803850e+03
1.586079001158868550e+03
1.554975791205473797e+03
1.403740015379835768e+03
1.101393494850608249e+03
7.470025748093030415e+02
3.815109387613015883e+02
-2.201433428281185058e+02
-3.970035003503101052e+02
-5.730766233390188518e+02
-5.223420673254375970e+02
-7.918290009585522284e+02
-9.575895272016512081e+02
-1.191578524817762855e+03
-1.446802210751496887e+03
-1.160254461611957367e+03
-1.047995279096467584e+03
-7.190307426501361761e+02
-3.753461058100972991e+02
-1.819447973385382511e+02
2.011613765457504712e+02
3.650025725545478394e+02
4.205663970651476689e+02
4.598586960328860869e+02
3.918469399046876447e+02
4.774726360305177195e+02
-1.232723450122749824e+02
-3.095114557477209019e+02
-7.242459575742728930e+02
-6.604661370063731738e+02
-5.801975238760287539e+02
-9.995163425469659160e+02
-1.044446736422049753e+03
-1.310035351581518626e+03
-1.612282197554531649e+03
-1.547209523718211585e+03
-1.578868890971833707e+03
-1.012408985020144087e+03
-6.177108524705007540e+02
-3.617669356341646676e+02
-4.715741859582659004e+02
6.468188584922140763e+02
1.064390881649397215e+03
-1.262801845811507292e+03
-3.711721357550866742e+03
-1.684522641083013696e+03
-2.442633002357679572e+02
-5.780679879147980955e+02
-4.311167800187168950e+02
4.181100975262912556e+01
-7.916331315307606076e+01
-3.041565711681194557e+02
-6.920096919794460746e+02
-9.091910874772019042e+02
-6.234750654281614288e+02
-9.738659673397717143e+02
-1.017603895475158538e+03
-6.454979622003543227e+02
-6.237198343600616113e+01
3.442568498258935392e+02
8.178942222696937279e+02
1.224341211166741914e+03
1.622463205413120932e+03
1.548989003048007135e+03
1.106179161637021025e+03
9.730215148382443431e+02
7.256959777170403640e+02
2.341500482199488715e+02
-1.342329530621323386e+02
-3.247543045596472098e+02
-5.266827861735765737e+02
-4.881584771236785514e+02
-3.011316591585113542e+02
-3.153575853262618125e+02
-8.592958728908265584e+02
-1.036859566262999124e+03
-6.421100737275849042e+02
-2.857155395047513124e+01
2.745557029727946770e+02
5.160207986905586495e+02
1.010728260053642771e+03
1.409592661970611516e+03
1.880945243591976805e+03
1.830875142445748224e+03
1.328293528821528753e+03
8.795180979685536613e+02
6.762181085932733140e+02
5.872097110007782703e+02
1.333564772570447019e+02
1.400465456546244241e+02
-1.128404228204882145e+02
-9.748333838383521766e+01
-4.687228911030526746e+01
-5.089590382471584462e+02
-5.718007798974285834e+02
-4.013903582752406578e+02
-2.626674318270920594e+02
4.053213199868492325e+02
6.145688631631306862e+02
8.431785644432080744e+02
1.446107446347223686e+03
1.947432700077674781e+03
2.463204166870541485e+03
2.056401981553428413e+03
1.747007431697041056e+03
1.447987428733432807e+03
1.250340614665860585e+03
1.619983925594089271e+02
-3.538670899931027179e+03
-5.623567717510238253e+03
-7.212203511745354945e+02
2.655224254186192070e+02
3.067850471738194074e+02
3.655328613011672019e+02
-1.450333346525252637e+03
-3.528726781260352709e+03
-2.156545398448817537e+02
-1.116120197196267782e+03
-2.637082334105018617e+03
8.625814724819119874e+02
-1.442095510610534802e+03
-4.981097565096346784e+02
-8.304863198670411748e+02
1.371831233113781991e+03
2.388657457394814685e+02
-2.804333032567765258e+03
-2.348774468395349686e+03
-2.467508665254766129e+03
1.264998367628802072e+02
1.130317730335040324e+03
9.769862999607046277e+02
-5.764707620724240087e+02
-2.740065328246372701e+03
-1.452770232482691199e+03
-4.103603327065646226e+03
-1.155519280467757198e+03
-3.811520651006571370e+03
-3.286110508529299636e+02
7.202458555573408603e+02
-9.348708713849138121e+02
-1.695865077957685799e+03
1.431277780951251543e+03
2.771535113982033181e+03
2.311953266733236887e+03
2.473596905370504373e+03
1.907429810166920561e+03
1.491536243064811742e+03
1.109910247322071882e+03
8.395194723732990951e+02
6.984155856805519988e+02
5.975944646715289537e+02
4.371126498719686992e+02
2.049907563877677035e+02
-4.068047827695008891e+02
-4.022154486094676145e+02
-7.326631201059693410e+01
4.190758477299614810e+02
4.568110555725922381e+02
3.869338388785532743e+02
5.265409996100016770e+02
1.326661355510571411e+03
1.887280961826348630e+03
2.252565277501309083e+03
2.386573901986668261e+03
2.140383250425585629e+03
1.568979059443362985e+03
1.001475250673174628e+03
6.587923353860414863e+02
6.610591627760145457e+02
5.674643096452629152e+02
2.999540466611932743e+02
-4.545258421174947898e+02
-1.131986385006436876e+03
-4.644310551120663177e+01
-6.068506558032343037e+02
-3.912275359006830058e+03
-3.437741812703396135e+03
-4.961933384494454913e+02
9.136544745282192537e+01
5.597957563250803332e+02
1.162096624303326053e+03
1.486416385328603155e+03
1.558652172433068927e+03
1.451762569503142231e+03
1.394807674540868220e+03
1.122957851267398837e+03
6.821432821927712666e+02
4.440243778224676703e+02
2.578348195759681971e+02
-4.846930678334003773e+01
-1.784923608109952795e+02
-7.953226993055413629e+01
-9.597997118614017609e+01
-2.648869930321977790e+02
-5.742981361817444395e+02
-7.153844171794791009e+02
-5.840212515444959536e+02
-5.632082007977935518e+02
5.901028961441036813e+01
5.176623963809317956e+02
8.777664492452061040e+02
1.178298767490886121e+03
1.613290777877329447e+03
1.680761327475692951e+03
1.546719770599087951e+03
1.475075534687760410e+03
1.362782264737531932e+03
9.727809007792981220e+02
8.140377200287026653e+02
3.385708772331184377e+02
1.253944488118172984e+02
1.204570283658774059e+02
4.872146423668771575e+01
-2.148238686696867887e+02
1.227844587470980571e+02
8.536998546999370774e+00
-1.246058167740854117e+02
4.453269878348850170e+02
7.243197146438900518e+02
7.273689156962599327e+02
1.180502761015899750e+03
1.639742489641844486e+03
1.869098615934540248e+03
1.779565452792019414e+03
1.524073311953604389e+03
1.393577143087235299e+03
8.170655430611748216e+02
7.695148706879054998e+02
3.638981509546885036e+02
-2.179864361565116269e+03
-2.028771248294405950e+03
-1.587933897944274122e+02
-4.795010948335581816e+03
-9.990439752397182019e+03
-9.787121991764384802e+03
-7.967020405215791470e+03
-9.174163272607174804e+03
-9.170383270069702121e+03
-7.690722324871964702e+03
-8.763937334936359775e+02
7.045300505292170783e+02
-2.032799031100174034e+03
3.695699662545287083e+02
2.120621264030779457e+03
2.103343629879605032e+03
1.835731315458057225e+03
1.883754235066749970e+03
1.296359293670667284e+03
1.102506976340611118e+03
1.209167243665031947e+03
1.349331050698664967e+03
1.065009644207380688e+03
9.921769900590854832e+02
8.118018166364614672e+02
2.119138137118041811e+02
6.674766800391143988e+02
9.684672105344061492e+02
6.758634243653793874e+02
1.110625354883738510e+03
1.617778813772591093e+03
2.052366576056788745e+03
2.510429588466036876e+03
2.667950325942698782e+03
2.710933714606800095e+03
2.444417570837110361e+03
2.099340737830723810e+03
1.701720272748741536e+03
1.172508054027029630e+03
5.806946863335075477e+02
3.882376394732424956e+02
7.215772481055810772e+01
3.449534585180695956e+01
-4.847824075346581481e+02
-7.346929212444274526e+02
-7.362145398151103564e+02
-9.913170499018024202e+02
-8.300169840768477343e+02
-5.134634889607548303e+01
5.137453906659148970e+02
9.592802959003531669e+02
1.572244427180896082e+03
2.077672270575484163e+03
2.383587835012346659e+03
2.381058357586786315e+03
2.520060919046689378e+03
2.236627211412550878e+03
2.049725995594441429e+03
1.554347324037571298e+03
1.104520123720348238e+03
8.001946917002122746e+02
6.034287391797403188e+02
6.012561498892285954e+02
7.365759579218351973e+02
-1.024599790671332613e+02
-6.283675727190667004e+01
-1.066096302816814614e+02
-2.557591959770960557e+02
-6.723920610283552435e+01
3.698609871751911555e+02
8.055884505961533932e+02
6.831655743414554536e+02
-3.493372888046942535e+02
1.087001569317078747e+03
1.387063805608267330e+03
-1.732036835476419583e+03
-3.138324825239794791e+03
-2.565836889929053541e+03
-3.181513902384049288e+03
-1.773521828290174369e+02
-2.789357408116353326e+03
-2.624529228531961053e+03
-1.913864484190507255e+03
-4.122285905756682041e+03
-4.104788730149608455e+03
-1.439404996460431903e+03
-4.556124439671119035e+03
-9.479156892497348963e+02
4.122482887444288622e+02
5.063624476263228189e+02
-2.691584062197703133e+03
-2.690519488639210977e+03
-2.521356760880802085e+03
-4.540688132032695989e+02
1.837395411638708310e+03
-3.729973233424385853e+03
-9.311787310304155199e+02
-1.124221144687093556e+03
-1.761076604542683526e+03
-2.199770482697912485e+03
1.026654372471575925e+03
-1.516764888540026504e+03
-3.166959012723341857e+03
-5.591916834196241325e+03
-1.833685154886440614e+03
8.037404349755867088e+02
6.463875089262205620e+02
-1.161734926399467213e+03
-4.790641213336230976e+03
-4.895341917443061902e+03
-3.893829983425780483e+03
-3.548053043118859023e+03
1.309074718204248029e+03
3.150604687175763047e+03
3.001497481085800246e+03
-3.962471818323452908e+02
1.001390205461180244e+03
2.494392385493898473e+03
2.147741958421623622e+03
1.602382978499561432e+03
1.561263834428121072e+03
1.185539138383846648e+03
7.561972562776307996e+02
8.681599969375396313e+02
6.294603157788567387e+02
3.340652100039565084e+02
8.179747823741587354e+02
9.751740547539201316e+02
1.126615984295635371e+03
1.456343283621277806e+03
1.946331463124433185e+03
2.523663081275812146e+03
2.453341750328886974e+03
2.319347162363448660e+03
1.136599138075857354e+03
2.180081456995095323e+03
2.475339422363237645e+03
8.963948692746618008e+02
1.321447564209940992e+03
1.577948695520101410e+03
1.517657267290790060e+03
1.354405636208196029e+03
1.373542929333438678e+03
1.157228024906415385e+03
9.626884941115152969e+02
5.525443224462436547e+02
5.280580075445881221e+02
1.140267177324089971e+03
1.139800997961654957e+03
1.549896405148760095e+03
2.244065905368337553e+03
2.702078129926039310e+03
2.845323482702533965e+03
3.096114460629327823e+03
3.042920463013071640e+03
2.873081797966561680e+03
2.508001983974680115e+03
2.030154960761720986e+03
1.773205477417366865e+03
1.452133956924307086e+03
1.282470405829375068e+03
1.149688915184069629e+03
9.399302145074055943e+02
9.352495679713744039e+02
8.406802675051527558e+02
5.085769625843491326e+02
1.364678047262598000e+02
5.028241116878478323e+01
6.989464602109089810e+02
1.195982426368629831e+03
1.289533106606512092e+03
2.008959429517450189e+03
1.774257650893107439e+03
2.219297056400676865e+03
2.758997667372605974e+03
2.410356625077446097e+03
2.367396461076777086e+03
1.632070267756958856e+03
1.728348436478129543e+03
1.517216003953023346e+03
1.001595579310516769e+03
1.017506546818926267e+03
8.609037688657144827e+02
7.217603746292356846e+02
5.260634768825077572e+02
2.098553177461979260e+02
8.416387498833287850e+01
-1.170941221111189350e+02
-1.298028240512302318e+03
-6.446281159837258201e+02
1.047104183294185759e+03
1.181175469185254769e+03
-1.359332995104946804e+03
-5.372385969492777804e+03
-7.208004023296522973e+03
-7.657220528716950867e+03
-7.458054432247280602e+03
-7.241537628522069099e+03
-7.358686942165948494e+03
-7.157503091507316640e+03
-7.443723313860662529e+03
-7.915697561375490295e+03
-8.298311835521164539e+03
-8.323264331895874420e+03
-8.167836690890972022e+03
-8.121255036372076574e+03
-7.392341388571665448e+03
-1.315140431876201774e+03
9.863605362996662507e+02
-1.716773610777271642e+03
-5.945533074827569180e+03
-7.357954588638554014e+03
-6.272029572881245258e+03
-5.813619522730572498e+03
-3.394633380720474634e+03
3.050837111063424800e+03
3.229748829061292781e+03
-4.629166776672165042e+02
1.239877090187266731e+03
3.025109305678101919e+03
3.099758625521741124e+03
2.918834382989561163e+03
2.833357168902271496e+03
2.437343015337875840e+03
2.245833555160405467e+03
1.963885162260074821e+03
1.510464965453752257e+03
1.490623197903336404e+03
1.575363365829004579e+03
1.882684307722938229e+03
2.403591056619580286e+03
2.713119218715119132e+03
2.869328624049741393e+03
3.727217735391477618e+03
4.164840654162027931e+03
3.802260344225324388e+03
3.155451452850817986e+03
2.723460418051721717e+03
2.528315074854011527e+03
2.248020609629324099e+03
1.693546756774790083e+03
1.236949758512640528e+03
1.210223329453182714e+03
1.193417252457745008e+03
8.665523994950685847e+02
5.215948941594101598e+02
1.055843187684781128e+02
1.836006581077647013e+02
3.436351326257467917e+02
6.676977019039816241e+02
1.107840643483132681e+03
1.173098322282139179e+03
1.446536670577536142e+03
1.861185503669089258e+03
2.096049069767485889e+03
2.295313512686001104e+03
2.195068255276900345e+03
1.478478977850414822e+03
1.061556180151611215e+03
7.704626092172088647e+02
4.343663347252018525e+02
2.437847613304390677e+02
5.299430437754281229e+02
-8.462663945629819864e+02
-3.087550551634454678e+03
-1.260884677338947540e+03
-1.395228343289795475e+03
-6.669633793229201046e+02
-3.643910380958031965e+02
-1.272208642610363398e+02
2.278045743109194348e+02
3.953584977240190597e+02
8.206156626023374656e+02
1.289575606485679600e+03
1.599229653213051506e+03
1.630595958422991316e+03
1.263696912597155006e+03
5.395644356377238182e+02
2.621571518137949965e+02
1.734565277317566654e+02
-4.616239726660366500e+02
-3.649888926722495626e+02
-5.376153522723512879e+02
-3.305774201538812349e+02
