-3.077297696527149583e+03
-1.325695851651568773e+03
-3.177325398286370728e+02
-3.246428775176037561e+03
-3.194805770941048195e+03
-2.308874551312624135e+03
-1.678545994721188436e+03
-1.409813062760518733e+03
3.233250488303597194e+02
-9.091740400054018210e+02
1.573853336426659325e+03
1.754484646351360652e+03
-7.753166492614896015e+02
1.026462113480098878e+03
-9.212818161765750347e+01
-5.541280115601115313e+02
-8.853367959445452584e+01
-1.666369444870156485e+03
-1.881651897552454784e+03
-1.127342923120486148e+03
-9.195031694432663016e+02
-3.417117364495651145e+03
-1.720201969678508704e+03
-3.827803071640606504e+03
-1.494901803795133219e+03
-1.683429645497560614e+03
-2.811357423888860922e+03
-2.081670378698445802e+03
3.086901187861296307e+02
1.366756176751988733e+03
1.682542182930617400e+03
2.369116094264940330e+03
3.065531012266799280e+03
3.319809254623057768e+03
3.615931646365748293e+03
3.035926931118438006e+03
1.827749464173148226e+03
4.483656259303286333e+02
-8.431861703827117935e+02
-4.769057646644754414e+02
-6.378361017934266783e+02
-1.038006712254386002e+03
-9.594478329796020262e+02
-1.291092861329722382e+03
-1.291949290813688549e+03
-9.576027289096906543e+02
4.229268528727889134e+02
1.269599479397339110e+03
1.997409989877564840e+03
2.506413801363171842e+03
2.836716938317826134e+03
3.035235495191664540e+03
2.611051274970777285e+03
2.018158546887191505e+03
1.844591783458480677e+03
1.689318730443763570e+03
1.368351238358545061e+03
6.706601214499709158e+02
2.141590539922958669e+02
2.037243855161630961e+02
-2.327686472697612885e+02
-8.289699664579138698e+02
-7.229545142090337322e+02
-7.617522738359650702e+02
3.757873149699018001e+01
2.780355493267084057e+02
2.617145841854737114e+02
4.805042165633365698e+02
-2.775046108076310247e+02
-6.320542435395600123e+00
1.385093637904988100e+03
2.430762914788308080e+03
3.335770362053170629e+03
3.017140458113443856e+03
2.590590305232376977e+03
2.219000070424716796e+03
1.289504661787291980e+03
4.223031578487480715e+02
-3.397509526877757935e+02
-8.269137733682728140e+02
-1.272093364307599586e+03
-1.646357425178665608e+03
-1.320801042656112486e+03
-1.081370161316146323e+03
-8.350535321035606557e+02
-3.738800854488845289e+02
-2.783423434656950946e+01
8.351047989827877700e+02
1.083957457620290370e+03
1.675693135030104258e+03
2.466366454214647092e+03
2.815017011807503422e+03
2.699580142434021582e+03
2.814115808965647830e+03
2.164627508982216114e+03
1.662144174399004214e+03
1.126653296253176222e+03
9.430455162344344444e+02
5.192017619120960035e+02
-2.788524414121190489e+02
-7.450617839139017633e+02
-1.054458173424839742e+03
-6.830510046432929130e+02
-1.074845084757062978e+03
-1.069869661064767342e+03
-9.861370466864418631e+02
-5.456217072135430044e+02
-9.230293341692959075e+01
7.848633885675250212e+02
2.008802426082509101e+03
2.274501036779573951e+03
1.939114035231135858e+03
1.314638799714296511e+03
-1.531860089567926025e+03
-5.008399067425056273e+03
-5.992003927296581423e+03
-6.114707913729741449e+03
-5.612606525575988599e+03
-5.451682719730695680e+03
-6.111869906138492297e+03
-6.038359647573955044e+03
-5.571892248657874006e+03
-5.651645875202023490e+03
-7.398428036886058180e+03
-7.280352399247809444e+03
-6.597537397436897663e+03
-5.635002210688071500e+03
-3.008685115003474039e+03
7.474164323324964698e+02
1.917328161306654465e+03
2.942024057541219463e+03
3.474586687622829686e+03
3.531040434635835481e+03
3.763435535989800883e+03
3.943835239181428278e+03
3.345230282630777765e+03
2.711630935661574767e+03
2.337995639226385265e+03
1.772273091586034980e+03
9.184810797510899647e+02
2.535437699647289094e+02
1.393721525350495085e+02
-7.706245980126399786e+01
-2.966781144426582273e+02
-2.534067697452130119e+02
-1.692669561587887586e+02
1.507126990281086591e+02
7.796663074039394132e+02
1.233580966083442718e+03
1.714463585109365340e+03
1.941333035131159932e+03
2.090312558617083141e+03
2.206436819426928196e+03
2.557635944906720852e+03
2.921016754114902596e+03
2.638624578712387120e+03
2.180353740328235745e+03
1.928132590811878117e+03
1.224037045660557396e+03
7.120600491221912307e+02
6.245789102395698400e+00
7.752483811052351825e+01
-8.813553254691927918e+01
-5.916870384272823458e+02
-7.031517650767962095e+02
-4.545030698996220053e+02
-1.937029512188797753e+02
6.043216884179246335e+02
1.595566467559749526e+03
2.453988778560774790e+03
2.720571166767107115e+03
2.834480701012948430e+03
2.500805897135296163e+03
2.809549475985631943e+03
3.176803423699199811e+03
2.980670913306315470e+03
2.216166069831073401e+03
1.698141614201785842e+03
1.218364358902013237e+03
3.070587166758894071e+01
-7.202601837644323268e+02
-6.757666368073463445e+02
-4.749128672115382415e+02
-1.189708200977077468e+03
-3.554992845024776670e+03
-1.633814702131722925e+03
-2.522781004144649728e+02
1.196761827554917232e+02
1.710885693956942930e+02
-1.551033767004268384e+03
-3.216491976677330058e+02
-1.687592835828405214e+03
-2.266820636224106693e+03
-2.638195940447846866e+01
6.769996410327617298e+01
1.894375868247573862e+03
-1.164087111038649454e+02
-3.931748564280962910e+03
-1.143601181336052605e+03
-1.410858593368921220e+03
-2.516400145393770799e+03
-3.537314698499802944e+03
-5.824734117169236924e+03
-6.007692116942979737e+03
-4.294015459093749087e+03
-2.025736562201683910e+03
-2.850905690239828800e+03
-2.189498698693509596e+03
9.477898751913743425e+00
1.353981100026413515e+03
-4.030213685099780037e+02
1.167578308319350526e+03
-1.801458750153364008e+02
9.817527158575109070e+02
6.281863773375365554e+02
2.630229286772661908e+03
1.927919738585490222e+03
-6.897913754274134135e+02
-1.236924023893283447e+03
-1.588517334364383032e+03
-2.444637259312988590e+03
-7.323380063164274816e+02
-3.298567123396527677e+03
-6.028339354068137254e+03
-3.241655986484967343e+03
-1.406535691407953209e+03
-2.670956020522499784e+03
1.690166550864688588e+02
4.683341066118551907e+02
-1.256999355272417688e+03
-8.228575017782989107e+02
1.374790932107705885e+03
2.577033569041547253e+03
2.741810658986205908e+03
2.764134442031024264e+03
2.579040778616760690e+03
2.280434480942505161e+03
1.654199597184365757e+03
1.149306513525639730e+03
5.648098577321095490e+02
5.568422021791946719e+01
-2.612081668785907596e+02
-4.820042881168652684e+02
-3.897284807003458127e+02
-5.493096659825597499e+02
-3.377162340300233154e+02
1.361207433418182973e+02
2.214295020739767494e+01
6.141114605629408061e+02
1.218453174435501296e+03
2.165997694398254225e+03
2.781596798353982649e+03
2.712659345205541285e+03
2.459826978722940112e+03
2.430218503879637410e+03
2.569816980588857405e+03
1.959604051524501983e+03
1.669339933854224228e+03
1.767980407440751605e+03
1.498669723059904754e+03
9.644136829554496444e+02
4.559621012340043080e+02
3.233501471249755355e+02
2.624766370382337755e+02
4.548867513923428163e+01
-5.780367993117164360e+02
4.614077781559767999e+01
7.909569903920951219e+02
1.405372503409784713e+03
2.006617764224652319e+03
2.912408720304155395e+03
3.099015867108076236e+03
3.165408223363794150e+03
3.388460831251930358e+03
3.572296530281116247e+03
3.553748373423401517e+03
3.143686935387453104e+03
2.906147373463032181e+03
2.243259989399581627e+03
1.260595869204319570e+03
4.437985602062468047e+02
3.513331361287768573e+02
1.802924404190078178e+02
-1.603220309336938953e+02
-9.871528587774641039e+01
-5.306775735045534503e+01
2.067298083621411990e+02
5.577498274702793424e+02
1.328903324306250624e+03
2.096138888098792449e+03
2.399430594783866582e+03
3.038669769864948194e+03
3.341282399432458533e+03
3.331287749320101739e+03
3.457698405244405876e+03
3.217536858153665889e+03
2.983570489055648977e+03
2.467815020464109239e+03
7.652911775880817231e+02
-1.489184582054882412e+03
-4.647663842209834002e+03
-6.130168472709307935e+03
-6.421662107403087248e+03
-6.537219700894336711e+03
-6.700789074915882338e+03
-6.588269280999411421e+03
-6.033635110627019458e+03
-5.949009721972069201e+03
-4.989395392873874698e+03
-4.601705463761171814e+03
-3.442881405032083876e+03
-3.085840949359580918e+03
-2.258545443004843037e+03
-1.295882017905739076e+03
-2.038019356856462139e+02
9.216806030859464727e+02
-2.027491725604999601e+03
-3.578319526915974166e+03
-4.196926691961057259e+03
-4.189416959797340496e+03
-4.787752436345474052e+03
-5.199963000663928142e+03
-4.503929274703865303e+03
-5.377635015964775448e+03
-5.326105672130302082e+03
-5.372271698653062231e+03
-5.160208774931258631e+03
-4.905986472081216561e+03
-3.979570368733109717e+03
-1.220954221804741337e+03
8.159601446518230432e+02
-1.505718770401061420e+03
-1.869936946167365477e+03
2.376390136939490731e+03
4.246353471672709020e+03
3.752001082355739527e+03
4.093433427902582935e+03
3.876789055957158780e+03
2.748784106614742541e+03
2.091963059507921116e+03
1.699425731322472984e+03
1.225297035043402275e+03
6.306848024082454458e+02
3.637701674089726680e+02
4.707467490584020311e+02
8.459151768971535148e+02
1.284285061004149384e+03
1.937813248623876916e+03
2.167289503849950506e+03
2.413478570790730828e+03
2.769326008066173927e+03
3.161934242464320050e+03
3.565336364854550993e+03
3.708556384208195595e+03
3.633819190078910651e+03
3.301249365946636772e+03
2.844802249828833737e+03
2.320671296160896873e+03
1.852919663303732023e+03
1.351231084979003754e+03
8.136500847772263114e+02
4.122347964291791413e+02
-7.604439519961411520e+01
-2.222987412310615127e+02
-6.057142246230978344e+01
-3.469893883367633975e+02
-4.984099279373465379e+02
8.450931266636456485e+01
4.697293890735950868e+02
1.514201384743514609e+03
2.387265130063295601e+03
2.755149771761005923e+03
2.663736619071508358e+03
2.184013817833989833e+03
2.069019253340822615e+03
2.156796242609920682e+03
-9.174532353583889517e+02
-8.807863136288088981e+02
-2.160141020459907850e+03
-1.072657852343589639e+03
-3.244371735632167315e+02
-4.775742097695810457e+02
-8.080245707183647710e+02
-1.021750516041980632e+03
-1.101727147948735819e+03
-8.709355767096651562e+02
-7.705826160444515835e+02
-4.749179838145007011e+02
-1.929469267838523763e+02
6.744676581704048886e+02
1.400266747967476931e+03
1.537457853452772042e+03
1.962253599116640316e+03
2.291828250204333926e+03
2.332086285023552136e+03
2.451965345079460349e+03
2.347617153818619045e+03
1.516070165056562701e+03
6.232784495941640444e+02
2.130667566397929420e+02
-1.696684962999688651e+02
-5.709057974568079317e+02
-1.358600080637786732e+03
-1.300725847067929180e+03
-1.580283541394617032e+03
-1.710220961841635244e+03
-1.609551956115007215e+03
-1.335259017051972478e+03
-6.872990369587647592e+02
-3.995595904925427817e+02
3.891438066280624639e+02
9.576580013942373171e+02
7.706450806893823255e+02
1.064121888067472582e+03
1.755199659070762436e+03
1.906020249060215519e+03
1.654691484841747979e+03
1.125211407540055234e+03
5.273724103501136824e+02
-1.277522858408192405e+02
-7.671818481068720530e+02
-1.287956501910653969e+03
-1.739209871313018539e+03
-1.584946722352583265e+03
-1.743205092272756701e+03
-1.863074054584343457e+03
-1.766595554676324127e+03
-1.472688916527505853e+03
-1.236275795755693025e+03
-7.863111488042999326e+02
-1.858731499371854454e+02
3.408425174214539055e+01
-1.713433078739705877e+02
-1.395160125450514897e+03
-4.146320982431723678e+03
-5.108638886774441744e+03
-7.051547673967262426e+02
1.018572820093864522e+02
-2.277830396873360428e+02
-1.182126996380012315e+03
-1.371972243613249248e+03
-1.583109314273808877e+03
-2.055936124380134970e+03
-2.172506715817355598e+03
-2.559833385424623430e+03
-2.796005536359847611e+03
-2.866780361913176876e+03
-2.144252754638905571e+03
-1.362433020365303037e+03
-3.482890022337447249e+02
4.360237864045759011e+02
7.066594581379298461e+02
8.314827727893674592e+02
8.678401271038563891e+02
4.337625875625071217e+02
1.497129431759198042e+02
7.670039286749311032e+02
9.215844546056580384e+02
4.014007779716814639e+02
1.485637006200448980e+02
-1.871074900751744963e+02
-9.387988988479776253e+02
-9.865221130813456512e+02
-4.520628078701986965e+02
-3.046519204651945074e+02
-6.414020455965603560e+02
-8.062400604814801000e+02
-6.838947639634147890e+02
4.613459157210884882e+02
1.584681998040780627e+03
2.062936583337314005e+03
2.624314234093609684e+03
3.368630773930667601e+03
3.266099623884618723e+03
3.017794486694660009e+03
3.071596021900293636e+03
2.539444174423178538e+03
1.621349081312318958e+03
8.210849036326611667e+02
-9.303633105994762786e+01
-6.999301099560542525e+02
-9.571344979859104569e+02
-1.237618479306573363e+03
-1.528203287732093486e+03
-1.495226615192452755e+03
-1.942484331924929847e+03
-2.363779270869841184e+03
-2.400262664803150528e+03
-2.134047157254114609e+03
-1.944126080337396616e+03
-1.460417077410029151e+03
1.010898556895553924e+02
1.619355143472683949e+03
2.342373887618150547e+03
2.633187079502155939e+03
2.772748191999179198e+03
2.835086803057538873e+03
2.846257129311456083e+03
1.951202629320996493e+03
7.738965308669266960e+02
2.172645100436581060e+02
-4.347192137210256533e+02
-9.561271186633887282e+02
-1.520985166052642171e+03
-4.561274996610747621e+03
-4.722950027782511825e+03
-2.254032975423207972e+03
-4.083516495674787166e+03
-1.428275076784967496e+03
-2.428207123766293535e+03
-1.266363613842194809e+03
-1.161819638656597135e+03
1.560441282468004147e+03
-4.045697394790592512e+02
1.481000739193889046e+02
2.943409327359039253e+03
2.232280617899130903e+03
9.907442622950239866e+02
1.390818658457694255e+03
7.375556564354831153e+02
2.166874478610172446e+03
1.327121918248064674e+02
-1.940920023176472114e+03
-7.871230032452400565e+02
-1.782830801914870108e+03
-2.828105454172308328e+03
-3.201105398131391667e+03
-2.629891545231761938e+03
-1.512381439464622190e+03
-5.124638344389844633e+02
4.178812175671179716e+02
7.946574289834953788e+02
9.088078640580101819e+02
1.429320602038854759e+03
9.041795754708143704e+02
-1.095565026442514409e+03
1.701140997089066104e+03
2.901263006762026635e+03
3.586679933942974003e+03
3.538495462445981047e+03
2.831627175121471282e+03
1.918011420747732018e+03
1.596665937849111742e+03
1.842549326186988765e+03
1.647620471191942670e+03
1.057826473084738836e+03
-2.788609008218039662e+02
-3.347391262753096271e+03
-1.965772542529464545e+03
-7.509713433891888599e+02
5.610255609858634216e+02
2.444264545836070738e+03
3.377737191057178279e+03
4.404426440784602164e+03
5.839361831101752614e+03
5.641671357260892364e+03
4.241415470332657605e+03
2.531693060030813740e+03
1.360383984172367491e+03
2.432720354598724555e+02
-6.934246593940166576e+02
-3.207165932738275274e+02
4.533031127244671552e+02
-4.773209147710433626e+02
-1.856566601741529439e+03
-3.209559162094099520e+03
-4.564248086965815673e+03
-4.871601322653471470e+03
-4.867676918296863732e+03
-3.600534311826427711e+03
-1.960078922352134668e+03
-6.636797782945750157e+01
1.867569930343763644e+03
3.699249302888667899e+03
3.791279332964232708e+03
2.981645506837319772e+03
2.186434345890373606e+03
1.624625698075066566e+03
1.992261725881457551e+03
2.255172564993959895e+03
2.317448376776859732e+03
2.005043103713428991e+03
1.360949884192626087e+03
7.891712436523732777e+02
2.566971109228165915e+02
-5.045180273793772585e+02
-1.680575173051520096e+03
-2.178428378235042146e+03
-2.428594919154824311e+03
-2.693521617101340325e+03
-2.244435917356476693e+03
-1.420895469877628784e+03
9.309332115037577751e+02
5.640986785869573396e+03
7.247252380510422881e+03
3.106758235902893830e+03
-1.148513943989700692e+03
-5.129539938032291502e+03
-8.772274440901052003e+03
-1.128775886612586146e+04
-1.138204199364804845e+04
-8.054115305261588219e+03
-3.491012699487841019e+03
1.851270659706578044e+03
4.991746295429768907e+03
4.744499379707043772e+03
3.519568682305895891e+03
2.105979485551498328e+03
3.647845783432269400e+02
-2.139949782744994536e+03
-2.183158120942404366e+03
-1.164812861560351394e+03
-1.506893619922643211e+03
7.236159384677132493e+02
4.276722112025981914e+03
4.691487985462846154e+03
4.690957065915481508e+03
5.637174119403242912e+03
6.233173225932359856e+03
5.553964758598553999e+03
3.873541991999997208e+03
1.679173670385222579e+02
-2.184896784774000480e+03
-1.431867878451163278e+03
-2.102031693191929207e+03
-4.551346980568440813e+03
-6.172841734147653369e+03
-6.938461707391528762e+03
-7.833087951135077674e+03
-8.667598200931461179e+03
-8.724910279310310216e+03
-8.750031290749009713e+03
-7.097938423102709748e+03
-5.291264646625191745e+03
-1.709192914633221562e+03
1.174339250666881043e+02
-1.354561924735549383e+03
-2.941153162505183900e+03
-3.735258650836351080e+03
-3.793887467167194245e+03
-1.188003006729103390e+03
4.628365472694849814e+03
6.806274529767052627e+03
6.010785940986469541e+03
4.456900373394205417e+03
3.885639687099114326e+03
2.392996194410821772e+03
4.340571779415764126e+02
-6.409271383583120496e+01
1.517593448534048548e+03
2.211178727273944787e+03
1.744704876749375444e+03
2.767229257674738619e+03
4.462818038697339034e+03
6.491576352148816113e+03
6.377541022090897059e+03
4.636712379718301236e+03
2.970123885670514028e+03
1.533833981144742665e+03
3.698512796998096519e+02
-6.608659738303913400e+02
-1.279267876499045542e+03
-2.130323908884573939e+03
-3.181012127039314237e+03
-3.962339655531946391e+03
-3.327335470422399794e+03
5.790886617660663660e+02
3.562944173502502508e+03
1.774250135955904170e+03
-5.678696537502072488e+02
-1.795408724939822150e+03
-1.910358927558041387e+03
-3.626262159659880240e+02
1.305815963451736707e+03
1.315021892106133691e+03
2.247036412685693449e+03
2.823888513758684439e+03
3.489575190327063865e+03
2.975083582295650103e+03
2.487409500897106682e+03
2.228514930840110537e+03
1.221423636684058238e+03
-4.419005778033067031e+02
-1.798435247562425957e+03
-2.406177699135967941e+03
-2.964225082143881536e+03
-3.997577168367984086e+03
-4.380154939078757707e+03
-3.972746502670605878e+03
-4.186269246500532972e+03
-3.575653873892511911e+03
3.330532093131506599e+01
3.249533806144078881e+03
3.809806049698276638e+03
2.911206525049735319e+03
1.426591300521765334e+03
1.578049563134120035e+03
2.741560716777091329e+03
3.488007703796219630e+03
3.795362535605221638e+03
3.362602865493305671e+03
1.403712330395544768e+03
3.726688793548728427e+02
1.172420218784210647e+03
-7.251818010562176369e+02
-1.895131358973377019e+03
-2.011498816305769196e+03
-1.797298311014403680e+03
-1.037480879909804571e+03
8.329651932515608905e+02
9.870577389852121541e+02
9.227905244453040723e+02
2.573161628943209507e+03
3.037083995635940482e+03
2.873485964175670233e+03
2.601394816223539692e+03
1.889797400496329601e+03
8.896579871078999986e+02
9.059292929987908565e+02
9.884968180148697456e+02
-4.126921785761904857e+02
-1.493657157920149757e+03
-2.083507763748634716e+03
-2.305261575543413983e+03
-2.890938918267860117e+03
-3.866682197740867196e+03
-4.751606220937663238e+03
-4.362689702205461799e+03
-3.486954704525996931e+03
-1.971450469866916364e+03
-1.474135353430265695e+03
-5.290794457769681003e+02
7.566548360411326257e+01
4.301152401702095744e+02
8.202839403943331718e+02
1.074101769526737144e+03
1.859593649037247360e+03
1.489671631316156891e+03
1.271224723458221888e+03
3.292108391800560980e+02
-7.664584690280966015e+02
-1.476912423640676252e+03
-1.901166966345763740e+03
-2.271214983747905080e+03
-1.864154460968727108e+03
-1.752112264877203415e+03
-1.271991706500127066e+03
-5.338418358095550502e+02
-3.198853513263248374e+02
-2.151719298499516526e+02
1.152495126665527181e+02
-6.665798415632558260e+01
-1.193874914539137677e+01
8.993925567378798860e+02
1.471351164422492729e+03
1.981977287579220047e+03
2.024314479732701102e+03
1.532274210793762450e+03
3.816779521391993057e+02
-9.797342890638552717e+02
-3.004182993612091195e+03
-3.981258047562431329e+03
-5.322805080206901948e+03
-6.274239664982213981e+03
-5.753541243687700444e+03
-4.227770835509095377e+03
-3.194946146652130210e+03
-2.676219342337836224e+03
-1.465729301557060808e+03
-5.695135239099872706e+02
2.327289331350119426e+02
1.196560103998567001e+03
9.760303023270796530e+02
8.321566249328257072e+02
9.150923857156174108e+02
2.261715810850602793e+03
3.021003189271773863e+03
3.010920187337291281e+03
2.725395673600460213e+03
2.456506918320372279e+03
3.588126498739657109e+03
4.361366131296531421e+03
3.350328409079440917e+03
1.854816828440309337e+03
5.905059752137826763e+02
6.055647477529506659e+02
1.259831827024871473e+03
2.303316170735915421e+03
2.737283218856938220e+03
2.738570531801872221e+03
2.733266353524461920e+03
2.976361633083007291e+03
3.618821319068097637e+03
4.012346930982689628e+03
3.587733034458253769e+03
4.601348699592464072e+03
4.596103051819665779e+03
4.236298482919120943e+03
4.193799092737034698e+03
3.980514534360572725e+03
3.447349413173807534e+03
2.769343548238735366e+03
1.828540651701275692e+03
1.093014106834819358e+03
6.509433452176109540e+02
4.169777259883089755e+02
7.612983995442186824e+01
5.724194198136960949e+02
7.327939889748862470e+02
7.013061723069582740e+02
7.349379509337551326e+02
1.048723837591140409e+03
1.205803029873500918e+03
1.118310618732773492e+03
5.753396132729276360e+02
-2.104068663641259718e+03
-2.108917806588449366e+03
-2.256270552263843456e+03
-3.410195564623966220e+03
-3.545630563029339100e+03
-3.750446407585378893e+03
-4.625597191697660492e+03
-5.408087378110401005e+03
-4.778828427267181723e+03
-5.470748163938247671e+03
-6.505755047825424299e+03
-6.016962562827868169e+03
-5.768391144950175658e+03
-5.507140366130117400e+03
-2.533154430141007197e+03
-3.512436960349662968e+03
-4.248821245254204769e+03
-3.290094611974785039e+03
-3.117167865349813383e+03
-2.196114740205593080e+03
-2.180981442621039150e+03
-2.658703526785061058e+03
-3.028174848825139634e+03
-3.738358560529296938e+03
-4.332208796501005054e+03
-5.178664219441085152e+03
-6.062658281307275502e+03
-6.123114991318745524e+03
-5.733971549743653668e+03
-3.265220638322995455e+03
-4.934862680624542918e+03
-4.709863946641687107e+03
1.737704455409848094e+02
1.405053290811806164e+03
2.857982588541002769e+03
3.781411064094185349e+03
3.989611799160022201e+03
4.099047573650740560e+03
4.577883817715479381e+03
5.475250202941487260e+03
5.554210840805657426e+03
4.995834212271988690e+03
4.599992999458412669e+03
3.744304033438526858e+03
2.653559859714609502e+03
1.546658729127575953e+03
7.157430724938486719e+02
-1.882852619724288701e+01
-7.219101022655585211e+02
-1.058508849920965986e+03
-7.576146278744345182e+02
9.838569038413870205e-01
7.632451975940790589e+02
1.300107338500356718e+03
1.574718542227222770e+03
1.387871377829792664e+03
1.574412276156347389e+03
1.852555917344235013e+03
2.252440689050608853e+03
2.864141329590129772e+03
3.149658494155195513e+03
3.286023543515144411e+03
3.565278808170085540e+03
3.128820854487243651e+03
2.672819457593497191e+03
1.987982939221118386e+03
1.136368620515790781e+03
7.916774706271171169e+01
-9.346648399622959005e+02
-1.443105669635299137e+03
-1.351125105082635855e+03
-1.122710804353946514e+03
-1.176782857197555131e+03
-1.260370327673593238e+03
-6.097433207336637224e+02
8.616677254751640191e+01
1.063373607393087923e+03
1.857949708188693648e+03
2.643943407398686304e+03
3.378491395113210274e+03
3.381539808916867514e+03
3.438059562758318862e+03
2.644798834470255315e+03
2.280388029619656663e+03
2.067195527861248593e+03
1.527252150563236910e+03
6.553983382641858952e+02
-3.193880848272898447e+02
-8.029823977722495556e+02
-1.319386654931893645e+03
-1.477782070144344743e+03
-1.343289883200558506e+03
-1.422795717169766931e+03
-1.153268200284205022e+03
-6.638238300468348143e+02
-2.353182698913331805e+01
4.654901548715276931e+02
9.253131578856995247e+02
1.407142858054719227e+03
2.252023449234175132e+03
2.363882332990507166e+03
2.277690791696334600e+03
2.015458019151583585e+03
1.778201706330471097e+03
1.606915207268775703e+03
1.094525301530769411e+03
1.309532105796237431e+02
-5.279933304628927999e+02
-9.116839347830486986e+02
-1.608124497470760161e+03
-1.921019020917474791e+03
-2.079292837392743877e+03
-1.961976451897502784e+03
-1.303125816601193719e+03
-9.049264216345862906e+02
-3.754897856860789034e+02
3.992088689230824343e+02
1.280052478332839200e+03
1.932128788308350295e+03
2.306378001208624937e+03
2.443795304968789878e+03
2.513345162934711425e+03
2.415035062701270363e+03
1.588847939034348883e+03
9.398045944232295597e+02
2.818682024129447541e+02
-2.131081672759085450e+03
-5.056119843567286807e+03
-7.505175860209293205e+03
-8.012306636128826540e+03
-8.062711511108674131e+03
-8.594424881673799973e+03
-8.675542946935920554e+03
-8.419357814001572478e+03
-4.713902924909164540e+03
-1.946031910098024809e+03
-1.639652637432455776e+03
-7.366528248382196580e+02
9.757817684723881939e+02
1.558409618010420900e+03
1.697351564206814828e+03
2.094753948693751227e+03
2.234503369624811057e+03
2.447659194480860606e+03
2.397112275730112742e+03
1.470692751816273130e+03
9.775427232218582958e+02
1.726010915216135970e+02
-7.322505926117610215e+02
-1.266058435400070948e+03
-1.531908103511271975e+03
-1.310945175209058334e+03
-1.316040025361110565e+03
-8.621332162047251586e+02
-2.141637877060325224e+01
6.818991586827468154e+01
2.457122077878161690e+02
9.851469697288318912e+02
1.773564856347994919e+03
2.021003549542210749e+03
1.924382919673820652e+03
2.366710560737896230e+03
2.934080785087762251e+03
2.099413996598223093e+03
1.519707712049827705e+03
1.444953353639306670e+03
1.277128269546939009e+03
3.472753085032194349e+02
-3.826249698858960642e+02
-7.407264902149551062e+02
-8.580526784588665805e+02
-5.976176058698719089e+02
-8.332798487326450640e+02
-8.951072148289141523e+02
-7.861805316856541594e+02
-3.834468252359112057e+02
-2.838555327689184651e+02
5.746156802906712073e+02
1.284919833586784534e+03
1.627180384985780165e+03
2.142397944420828026e+03
2.216653079000361686e+03
1.550002517387688158e+03
6.444546749171473721e+02
2.819765231624012927e+02
-4.524674894211329956e+02
-2.094901460844087978e+03
-2.021292554558255233e+03
-1.411624788456959550e+03
-1.565917746998594112e+03
-1.299158440387221162e+03
-1.479323648260633263e+03
-1.845389592989933135e+03
-2.338243180485546418e+03
-2.515845199958269404e+03
-1.835265222220909891e+03
-7.954112106314977382e+02
1.310771950459440404e+03
3.961342779339121989e+03
5.260406152576952081e+03
3.859069638842438962e+03
-6.856562338607135416e+02
-3.204570571450358329e+03
-6.477271401955187002e+02
6.429252520135022451e+02
-1.507612002557858432e+03
7.765292972678297474e+02
2.202395469341886951e+02
4.276000909489900437e+02
-1.735295737414966652e+03
-1.047530108438420484e+03
-3.840342825472324080e+02
-2.740781490755017330e+03
-1.423715691880435088e+03
-2.653730356685428433e+03
-2.394797773094452623e+03
-1.607874357725790333e+03
-1.708007169616475721e+03
6.339145197118817805e+02
-9.980531225113902565e+02
-2.218870287242685663e+03
-1.701476694417380259e+03
-1.423959713882701635e+03
4.807263030215837034e+02
1.001729366549251267e+03
-1.649834447462128310e+03
-1.384899386590234599e+03
-2.943573189704238757e+03
-4.371945698403772440e+03
-2.518014385795088401e+03
-2.529740973193691843e+03
-4.860140135938447088e+02
1.015135027998295641e+03
5.367073592569165612e+02
1.288797040424373563e+03
-1.893568062948551642e+03
-8.202701481065042799e+02
-1.483362067012064699e+03
1.269243833345989970e+03
2.368598568918040201e+03
2.958704395841195947e+03
2.940636742629416403e+03
2.966428740221283533e+03
3.010076731669153560e+03
2.918617030033734409e+03
2.698113356978747561e+03
1.982547674891649649e+03
1.303842162255456060e+03
1.034020390303667909e+03
8.380460543619846021e+02
4.469521737680504430e+02
-2.102458961596906590e+02
-3.254368280291387094e+01
2.160274400995360793e+02
5.404592883873001483e+02
1.130742428994525199e+03
2.312057878630217147e+03
3.130811466263876810e+03
2.775819732953272705e+03
2.315098909480837847e+03
2.848688911945464952e+03
3.025525746302851530e+03
2.611618669312428210e+03
1.153058239091275027e+03
-3.341525844313310358e+02
-7.492102228283014256e+02
-1.331018981445749887e+02
1.151966325456891695e+02
4.665713051265283866e+02
-2.888176110839273747e+02
-4.190798197865315160e+02
-8.207581440550253546e+02
-1.247439265704211039e+03
-4.780712255862604820e+02
9.422152938225107164e+02
1.092472548804413918e+03
9.695990970671327887e+02
1.053721081297033834e+03
1.859853747579959418e+03
2.289864906642494589e+03
2.303700066822554163e+03
2.429439766965883337e+03
2.758140161911994710e+03
3.156735033400754219e+03
3.144162312049855700e+03
3.078446965185511544e+03
2.474028582860150436e+03
1.403084504919673009e+03
8.664911515383639085e+01
-1.524554188759919271e+03
-2.138254467637321341e+03
-2.079850264702062304e+03
-1.351456263324783777e+03
-1.335040583318394056e+03
-1.025588145158610814e+03
-3.471857788627954733e+02
5.415850436865601125e+01
1.335421504205509791e+03
2.934622156028241534e+03
3.221779068991599161e+03
2.578921424819050117e+03
2.038038339798364859e+03
1.560049361726060397e+03
2.129949653601427144e+03
3.038710007567280627e+03
2.875286713379164667e+03
1.351553236343464050e+03
3.824450650065775790e+02
3.888778794832678614e+02
3.007544460365786563e+02
3.790463750889978769e+02
1.317679695392903341e+02
-5.930816791252943858e+02
-1.915522407303590171e+03
-2.553536904965321810e+03
-1.581175419878083858e+03
-9.935298055323265771e+02
-1.749592109174217512e+03
-4.111349442906961485e+03
-4.939821417059579289e+03
-3.296995967873527661e+03
-2.520837557284140530e+03
-2.636331409022481239e+03
-2.799503121005239791e+03
-3.631388960072712052e+03
-3.996932479928415432e+03
-4.658233745889313468e+03
-5.727404038432517154e+03
-5.347506934653150893e+03
-5.398615878230915769e+03
-7.406491678361206141e+03
-8.421305295742926319e+03
-6.790130130169817676e+03
-4.889039967585727027e+03
-5.519002663292413672e+03
-4.960011377322037333e+03
-4.485095846722396345e+03
-3.548198857522120306e+03
-2.538297749065245171e+03
-1.644279482205587101e+03
2.073824593208670194e+03
4.259002210408463725e+03
3.646306671079995340e+03
3.489761440785354807e+03
3.947398505036151164e+03
3.674157368810759181e+03
2.195041635048933131e+03
1.298021692199831705e+03
1.418083981618286543e+03
1.022252448434061876e+03
8.815070569449293316e+02
1.173794385082737335e+03
1.080139943011092328e+03
1.525929821763935763e+02
1.642045834076438950e+02
7.599487763159789893e+02
6.468419818600186773e+02
4.129619160962335513e+02
5.103542095694128875e+02
1.597064083341965443e+03
2.928112591829468329e+03
3.595513384316378961e+03
3.894375231863192766e+03
3.629779471423805262e+03
2.855716623866171176e+03
2.311189554623796084e+03
1.220247618234648826e+03
1.958514153843125598e+02
-2.739837678329848814e+02
-4.430008263265563073e+01
2.449066456173765687e+02
2.017098181766721439e+02
-5.469241736747662799e+02
-1.458972174727745596e+03
-9.413156300524251492e+02
-2.729457423129857148e+02
-2.178620232055548058e+02
-1.970053940629252338e+02
6.957183508113248536e+02
1.167385284048133599e+03
1.556096432391629833e+03
2.054887441753440726e+03
2.141794592436825951e+03
1.688990561542624391e+03
2.016501122993881381e+03
