2.015265538287396112e+03
1.351447161734664860e+03
1.219750778388145363e+03
1.282494908267420669e+03
1.138571368076868112e+03
1.365824183231812867e+03
1.474274273991520886e+03
1.572056370629175035e+03
1.875187220675679100e+03
1.759669488312069461e+03
1.434475981262203504e+03
1.449572488451614618e+03
1.365006331868114330e+03
1.063043781193697441e+03
8.232720666717448239e+02
8.271827851202359625e+02
6.641300689850743311e+02
6.221507794376710763e+02
9.600155446720247028e+02
1.133709973351737972e+03
9.693128909165193363e+02
5.907497690216916908e+02
6.420548154983213180e+02
4.332290784779972910e+02
5.862452741971629848e+02
7.630822227968353673e+02
1.084777692216651303e+03
1.232317021375180047e+03
1.534684025339503478e+03
1.382797173707381944e+03
1.038626795789954258e+03
1.089195258518289393e+03
1.077487866282837786e+03
9.394988819325662917e+02
9.412666683410457154e+02
7.167379606045939227e+02
7.178802497230457220e+02
5.446635827751747456e+02
6.040640351791506646e+02
3.800301109730743860e+02
3.696055294256097454e+02
3.147920492447295828e+02
1.125317714773677409e+02
2.647666730411534672e+02
3.544846000184552963e+02
2.796922251108215960e+02
3.653357279869279637e+02
3.184123340137631430e+02
-2.009636200034490017e+01
-9.622410158273375202e+01
1.550365972761065905e+02
-1.683198057152995943e+02
-2.903212388412794667e+02
-1.047020069214960813e+03
-7.964693864324648302e+02
-1.557694855130995848e+03
-3.940774442130608350e+03
-8.394296276912607937e+03
-9.673515897644112556e+03
-9.295525879493317916e+03
-9.135384164209121082e+03
-8.898080929665180520e+03
-8.971624359932742664e+03
-9.194032491376596226e+03
-8.549252688269187274e+03
-5.472344195591932476e+03
-3.472375746975397306e+03
-2.093542699182317790e+02
7.957531446684016601e+02
1.131948077333110632e+03
9.082227175191429751e+02
7.794966903826576754e+02
6.647967085788106942e+02
6.580712703072315435e+02
5.253207624050554614e+02
5.596281409829701943e+02
7.259839954225200245e+02
1.025314879797264894e+03
1.056601916164073373e+03
6.048904259282137446e+02
7.261698474060742683e+02
8.454044536459502979e+02
6.445837551809308934e+02
3.897203091519330656e+02
2.529146739142369142e+02
1.711012976453694989e+01
-1.107083268670325111e+02
6.241405835875053043e+01
5.015126642862083486e+02
8.546149959911883798e+02
5.717136501696815003e+02
8.767833926749063949e+02
8.908645620667715548e+02
3.629950186794736169e+02
3.615948387685531173e+01
-5.622824382552995104e+00
-2.583999704453105437e+02
-2.281335274744440653e+02
4.817526046296532627e+01
1.755313462209723241e+02
-2.640313939992442442e+02
-6.795137499000790058e+02
-4.278639279850031585e+02
-1.891190887286544182e+02
-7.285931867237347426e+00
-2.736096981359070313e+01
-1.482937157178031100e+02
-4.079825263878145734e+02
1.125224007464589562e+02
4.302130415288990548e+02
3.960783001638921519e+02
1.261266473314948655e+02
1.765030397340668173e+02
1.723349723351590512e+02
1.497391059311816548e+02
1.656797529888388567e+02
-1.825113383870399275e+02
-3.982570536181212333e+02
-5.600536858718065787e+02
-5.486283549756288949e+02
-1.469695448277754167e+03
-4.410970608820626353e+02
4.858370875100091553e+02
6.440713686671604137e+02
3.046002048951286838e+02
-4.154381588701741634e+01
2.096989111909487917e+02
2.929892415993207777e+01
-4.970050025251083525e+01
1.647599566569509477e+02
4.265974645327970904e+01
3.569692645297649278e+02
3.387874387092382449e+02
5.714585577418063167e+01
3.450366519971469756e+02
5.934020349692251557e+02
4.482451527670251039e+02
2.446094829854014847e+02
2.834839670403964647e+02
1.468525718642242737e+02
-3.082462305248058669e+02
-1.548087058301133823e+02
-3.508623568841188671e+02
-1.394867653930053848e+02
4.303082451489093501e+02
6.765802569505234487e+02
6.293364962453063072e+02
6.895697855176994153e+02
4.712995344311017334e+02
4.015187535718780509e+02
1.902511677154344341e+02
4.534176114867256047e+02
4.869965257091589024e+02
2.719912689216321837e+02
3.043939511529488300e+02
4.592188632106726232e+02
3.274106504000212112e+02
2.769958703418085975e+02
2.269985360868207920e+02
1.114042052113893106e+02
3.071787461801451968e+02
5.463136781454064703e+02
2.037196447842324574e+02
5.053743895277805791e+02
6.682298829871787120e+02
6.662076401169048268e+02
1.773703645347161455e+02
2.686575814389378820e+02
4.160819953617002511e+02
7.776059109990292200e+02
7.911287529752908085e+02
4.876514481929731346e+02
7.071973097136793740e+02
9.247290233087486513e+02
1.034258270708039390e+03
6.376847870226077930e+02
8.589509469921335949e+02
8.830557888391314236e+02
6.119146032789975607e+02
8.185507094588166410e+02
6.659129689439562299e+02
6.699634862724601589e+02
4.596055955521463829e+02
-5.112090231394480497e+02
6.040695910735185237e+01
3.276993529269864212e+02
4.290042420133873406e+02
-1.648204689878772626e+02
2.193998204665240337e+01
1.086320849134616537e+03
1.266212296766587997e+03
1.343777378392383753e+03
1.007894355184634151e+03
1.219140191967763485e+03
1.587926433108959827e+03
1.221484042752771529e+03
7.279081670078862771e+02
6.943547522554578109e+02
6.601276301801354975e+02
8.841172522216145353e+02
8.063930358753679002e+02
8.902633954701514085e+02
6.841487820020173558e+02
6.101817202664506112e+02
1.012186843413936344e+03
7.828055478360296320e+02
6.723896834373774709e+02
8.734293902000791832e+02
1.068923313962887732e+03
1.179945036043909340e+03
1.342765723877354503e+03
1.266355545814743664e+03
1.202640817847433027e+03
1.391587018414136082e+03
1.184989375279629485e+03
1.439860745679472302e+03
1.102157322045946785e+03
8.937098970760262091e+02
9.177073286907863121e+02
8.042346514203138668e+02
9.176884918836511815e+02
1.096924663744266581e+03
1.583406645223501073e+03
1.650200631692361640e+03
1.866175295797339231e+03
1.958254161996818084e+03
1.927446225422987027e+03
1.838750828483518490e+03
1.425171499236418640e+03
1.303650229560018033e+03
1.371224542189479507e+03
1.697977525752476595e+03
1.930857556134506240e+03
1.690858770591378970e+03
1.130085046186355981e+02
-2.443617153314704410e+03
-6.821074111968454417e+03
-8.330419623754240092e+03
-7.903620969239637816e+03
-7.703602862333935263e+03
-7.500408338456347337e+03
-7.324004643559514989e+03
-7.003332791437378546e+03
-6.800335563894118422e+03
-6.663958599827998114e+03
-5.874213151190549979e+03
-1.942079870867823956e+03
2.211513918089940034e+03
2.471721175758160825e+03
-1.701458655124454026e+03
-6.040082863687428471e+03
-6.062125047343986807e+03
-4.917464193206512391e+03
-1.503027050159553937e+03
-4.390907181724904149e+03
-6.049187414194138000e+03
-5.965781835988140301e+03
-5.765655949887432143e+03
-3.923742449142866462e+03
3.403527210624479693e+01
-5.752570128949957962e+02
-3.379569485486113081e+03
-5.503932551457373847e+03
-5.057280965006490987e+03
-4.836567436987588735e+03
-4.459723658403093395e+03
-4.184627806209418850e+03
-4.103199883855099870e+03
-3.194255313440807186e+03
1.438363082110367714e+03
1.223720267808843573e+03
-2.575195171205496536e+03
1.741657398907964307e+03
3.616441121897676567e+03
4.156154358589189542e+03
3.823725753771480868e+03
4.097010857419283639e+03
3.786973149469067266e+03
3.545581433867798751e+03
3.483877515836722068e+03
3.616993410779194164e+03
3.404977683229181821e+03
3.519931268393796927e+03
4.019959198972508148e+03
4.601139837227781754e+03
4.272412999982787369e+03
3.755825089876418588e+03
3.438510873257935600e+03
3.082463379643323151e+03
2.876715962363102335e+03
3.296368757453836679e+03
3.261626704816951587e+03
2.970678048062845846e+03
2.773477289996774289e+03
2.237989210615207867e+03
1.182185426838504782e+03
1.556111973994838308e+03
2.671837652935816550e+03
3.064476260567352256e+03
2.648042545003499072e+03
2.565540312869041372e+03
2.481853250399492481e+03
2.079020148115233496e+03
1.874052063746542899e+03
1.595134060227726422e+03
1.328644221584161414e+03
1.713557995089294536e+03
1.918863918278906340e+03
2.304637732512100683e+03
2.033946112998423359e+03
1.350205268473744127e+03
4.663255117017256453e+02
-2.595099856802149588e+03
-7.552078984226769762e+02
9.785497877684488230e+02
1.148307374424639193e+03
7.821881085237272373e+02
5.673605327824440110e+02
1.537375540068538839e+02
1.423450505853580808e+02
9.452141647931150601e+02
1.248741746348288871e+03
1.036748910111967916e+03
5.747105827183705742e+02
4.376035095173502896e+02
8.100715658974044118e+02
1.322214534380220130e+03
9.729752818385328510e+02
8.025543964742656726e+02
3.295834581623102508e+02
-1.547603327142995795e+02
1.586238580297344924e+02
4.586307439672483497e+02
2.661176535015263767e+02
-8.891684947803156547e+01
-3.314541320521896068e+02
-4.155213230674643796e+02
-5.041490442222669799e+02
-1.066263994717948208e+03
-1.565877942208084050e+03
-1.044008268532163356e+03
-7.276192606049961569e+02
-4.746274946493972493e+02
-8.292246425233165610e+02
-1.125402893438865704e+03
-8.256731331540321435e+02
-8.178349203500885096e+02
-1.304953014796249818e+03
-1.285319871808429070e+03
-1.017111609660977138e+03
-8.794390540960657745e+02
-4.844763935508672716e+02
-6.493499086773600766e+02
-6.400162031193204939e+02
-7.565304690170478352e+02
-9.149898709977019280e+02
-8.044123823202021413e+02
-9.968084072103216613e+02
-8.300620573429191609e+02
-7.161888264779183828e+02
-6.603075086325998200e+02
-1.099516630523603226e+03
-1.231802328796186202e+03
-5.231264876249412055e+02
-3.105733600671314889e+02
-1.313624279779684514e+02
-3.605485362353768437e+02
-9.091570374310235820e+02
-1.362223907436488844e+03
-2.200772207191854704e+03
-4.637746050748244670e+03
-6.541204498342323859e+03
-3.103249700679757552e+03
-2.738833055780520226e+03
-3.424020033626939949e+03
-5.257854095748961299e+03
-3.637460786060969895e+03
3.215745938260372441e+02
1.336931336289376532e+03
7.303381754254380667e+02
2.967921162369710828e+02
8.946206876990373758e+01
-1.816202644767878098e+02
-5.956184206319043142e+02
-9.125546034103388138e+02
-7.215128970245133360e+02
-8.905843100083136505e+02
-1.569770538119992352e+03
-1.362177831360174196e+03
-6.638241491548818658e+02
-2.087137378099676255e+02
-4.998896776265609105e+02
-8.473732916567756774e+02
-6.321269250789135867e+02
-5.441738577885549830e+02
-3.125415075226650856e+02
1.637645497364748906e+02
6.866811785373007524e+02
1.059109407979771959e+03
5.670631998428162888e+02
-4.754783421297431545e+01
-4.447293056853888515e+02
-3.674439164216779545e+02
-2.270094397169693679e+01
1.814464958440899238e+02
2.609770740949848573e+02
6.518812238605434004e+02
7.291778965411401714e+02
3.938823049833713412e+02
1.810204122189516909e+02
8.259092852716638333e+01
-6.545638942873293331e+01
-5.241721817155455483e+02
-6.185804094474473231e+02
-1.926799776919810370e+02
1.915233356949363213e+02
6.590236205942147762e+02
1.183802897298066910e+03
1.166834730099436229e+03
1.354152574164392036e+03
1.284725209788310167e+03
9.485601379717101054e+02
1.409698531491075755e+03
1.312148083801754638e+03
1.256849521136580051e+03
1.328808842185905860e+03
1.182982183962787303e+03
1.047403038744588002e+03
7.271258950105850545e+02
6.061460845006986347e+02
9.874762639224906025e+02
1.266083420798261386e+03
1.238011293825984467e+03
1.402169123375707159e+03
1.283590514391692295e+03
1.366321366201614183e+03
1.076319519153346391e+03
1.094570292514655193e+03
9.380686465336291349e+02
-2.021273941937502912e+02
-3.008946986005841609e+03
-3.126476610179929594e+03
1.733217188701958378e+02
6.114324701216910398e+02
-2.426060258341378812e+03
-2.050196556671343842e+03
-2.673026151264883993e+03
-8.534704172395215664e+02
7.784900339139303469e+02
-2.316101755848792436e+03
8.987068637686375041e+02
1.829921009115353172e+03
1.883631047992443200e+03
2.027847383013160879e+03
5.595502262452647528e+02
-1.089215411002591964e+03
9.695560029419483499e+02
-4.397130404328399891e+03
-4.458291512935266837e+03
-1.285912036698364318e+03
1.465022524832495719e+03
1.607492331172217519e+03
6.205568792125693562e+02
-2.094807848405920140e+03
1.199392560221960366e+03
2.278154560115595814e+03
2.721475996090913213e+03
-2.925903910430762380e+02
5.119836484858419112e+02
2.160180955765179533e+03
1.918999580275724156e+03
1.580501463902801333e+03
1.220659884419868376e+03
-1.643478560575134225e+03
-1.714904471951788082e+03
4.483226629142554316e+02
2.513000251697152692e+02
-2.805985282099068627e+03
-1.827551427626769964e+03
2.359208085880233696e+01
4.544915495079296761e+02
4.191069408873325983e+02
2.275019371269632131e+02
1.946887102756942056e+02
5.207058483231261334e+02
5.435983137456121312e+02
1.923800900233420634e+02
3.610570210730995200e+02
-1.203755845283893535e+02
-2.309177541853546813e+02
-1.735597646945596182e+02
9.208475757588920487e+02
1.345345245796456993e+03
6.891365079201966637e+02
2.601578650837583950e+02
2.134940146149198199e+02
-7.458007857909273071e+02
-1.810677431458961337e+03
-2.533148394518500936e+03
-2.816291784391172314e+03
-3.010013697172835236e+03
-3.499323467966229146e+03
-3.824269426829306667e+03
-3.851167395184613270e+03
-3.271828094367632730e+03
-3.068105951262895360e+03
-2.227992684685886616e+03
-1.792722994501353014e+03
-4.111999352830655425e+02
1.809643636547387814e+03
2.690525209525753780e+03
1.821118685387584492e+03
1.723125365589123021e+03
1.274234252249865222e+03
2.656827809157558704e+02
-9.067066032927588992e+01
-5.410055598165935464e+01
-2.211831745794786741e+02
-1.168838328549262314e+03
-2.266078186689963786e+03
-3.744033617423374835e+03
-5.153658934580550522e+03
-6.456955315697111473e+03
-8.116996876955346124e+03
-8.055874417286935568e+03
-6.631752938263335636e+03
-4.974685788005185714e+03
-3.836453406012225059e+03
-2.339238850737956000e+03
9.917932281312657778e+02
4.621714147844915715e+03
8.009201783073574916e+03
9.423506494035722426e+03
9.593430650318128755e+03
8.276132551068452813e+03
6.865810673440517348e+03
5.889154284319651197e+03
4.965085348044020975e+03
4.547492732226861335e+03
5.013648933173043588e+03
5.868416772635587222e+03
5.558643424657157084e+03
4.561332810664503086e+03
4.178491620233848153e+03
3.206129579441244914e+03
1.584192550270331822e+03
-3.363250651696670257e+00
3.142267194388271605e+02
2.448327412461766471e+03
4.034745162857922878e+03
4.629785827935163979e+03
4.527281971926964616e+03
4.026169851964691134e+03
3.914331481997260653e+03
4.718656290199791329e+03
5.121185597876667089e+03
5.465949121309124166e+03
3.531900425899696529e+03
7.710408663359503407e+02
-3.113644398666812322e+03
-6.232142463452133597e+03
-5.740488183031987319e+03
-5.851683050537321833e+03
-6.369825741933007521e+03
-7.186891414870450717e+03
-7.672909854199900110e+03
-3.547863816358374606e+03
1.101238179237676832e+03
-5.385100944255448212e+02
-7.473892626403528993e+03
-1.224235554629377475e+04
-1.409205859583804886e+04
-1.327950656802770209e+04
-1.022685442567423888e+04
-7.671153182160092001e+03
-4.520421306771179843e+03
-3.418112677239976165e+02
-2.890454715937100445e+03
-5.613911879364698507e+03
-2.720304006441527235e+03
2.870294976968703850e+03
2.874848382304725874e+03
3.755295523207662882e+03
3.415676600464528292e+03
6.015060342204369590e+03
3.973412731397465450e+03
4.105760911262266745e+03
5.693161029680141837e+03
6.500543113371441905e+03
5.767923141838764423e+03
5.176314661260724279e+03
4.596695586048763289e+03
3.006098335051761751e+03
1.285502241989546064e+03
3.669256117479069985e+02
-1.171585200243879171e+03
-3.343970546541749627e+03
-5.343277886264813787e+03
-6.650514563946304406e+03
-1.088565802428680036e+04
-1.570957967805210865e+04
-1.413130922733008811e+04
-8.826914016601274852e+03
-3.275357766586292200e+03
6.924241150231837310e+02
3.401398311378457493e+03
5.059550375485189761e+03
5.243940613724221294e+03
4.405557040024582420e+03
4.197495272612638473e+03
3.942753612055850226e+03
3.052318290999538476e+03
2.069267397236845227e+03
4.885808800070084885e+02
6.023734570923622869e+02
1.839617513307799072e+03
2.344331946389808309e+03
2.143569958239427706e+03
2.488401844898195577e+03
3.985806721589954122e+03
5.110716092873220077e+03
4.916215133741841782e+03
4.396363461137685590e+03
3.629225005926996801e+03
2.421845489596711104e+03
1.479289059406404931e+03
1.655640559122554123e+03
1.619132526311530228e+03
7.337285218863272576e+02
4.549611303978417709e+02
-1.877120900856495780e+02
-1.045299609020060871e+03
-3.237592596643682555e+03
-5.649383971395465096e+02
1.046374967790694654e+03
-7.437679054241451126e+01
-1.702802977815321583e+03
-1.344040471501842831e+03
6.107194076015989737e+01
7.286499670112140166e+02
1.366697287262893951e+03
1.610398527966299980e+03
1.511496841050689454e+03
1.546021984855676919e+03
1.100073325947812918e+03
4.496689266611562061e+02
-2.922198678917480379e+02
-7.385660672422437756e+02
-1.115268632364166933e+03
-1.017281611129529665e+03
-8.976200460714455858e+02
-4.462656499156086625e+02
2.808163098568859937e+02
2.666227347034182458e+02
-1.447999140424128086e+02
-4.824193657350851936e+02
-1.407165870522169598e+03
-1.803981955749855160e+03
-1.678858834769955365e+03
-1.639801776223677280e+03
-1.944761820538433312e+03
-2.716718728680589720e+03
-3.471660601676655915e+03
-4.135556946743558001e+03
-3.994371040684671698e+03
-3.433090689944775932e+03
-2.833668951418806500e+03
-2.348083725453727766e+03
-2.116291935211620512e+03
-2.331255219349515755e+03
-2.380984997325631866e+03
-2.413491733542478414e+03
-2.526764740355949925e+03
-2.467817133975419438e+03
-2.580652297720053866e+03
-2.849214846190991466e+03
-2.872515461737019450e+03
-2.843501763585556091e+03
-2.338153255198493298e+03
-2.188507215482532047e+03
-2.261527153306068612e+03
-2.178200469538591278e+03
-2.421538721423202787e+03
-2.629525488542898529e+03
-2.560124405901684895e+03
-2.016336508477592133e+03
-1.131150775167998290e+03
-6.236405689620493149e+02
-3.079044267505918953e+01
-1.357385131512813459e+01
2.100115089736121092e+02
6.879894754030652848e+02
1.105315496951607429e+03
8.959291795571562034e+02
5.648449777659432129e+02
5.620071800204051442e+02
3.924443922028927432e+02
4.425293399378507502e+02
6.741803927716736098e+02
4.271302933761290319e+02
2.825224607698654609e+02
1.396540087752528621e+02
2.112530519864280052e+02
4.213944403241055170e+02
6.778714975146065171e+02
9.046370276518647415e+02
8.790393100892234770e+02
9.538458364429062613e+02
1.302018929211004661e+03
1.391267787353862559e+03
1.423558778854806178e+03
1.879996506276620266e+03
2.643300690534088062e+03
3.151199813271931362e+03
3.516757135231978282e+03
3.633805640790612870e+03
3.877584425341207407e+03
4.267882043582538245e+03
4.727168512756480595e+03
4.828506498734351226e+03
5.026077425961114386e+03
5.060393880791652009e+03
4.796651606275210725e+03
5.107586655716326277e+03
5.443087301024233057e+03
5.397245304544965620e+03
5.398001731045568704e+03
5.639486731157673603e+03
5.882629275345609130e+03
5.983403739501790369e+03
6.114018335030382332e+03
5.440400049990290427e+03
5.627291462643444902e+03
5.743304858765075551e+03
5.552044803637975747e+03
5.423310354609518981e+03
5.347681096003310813e+03
4.677061254808379999e+03
4.455314685789016039e+03
4.020668084835036552e+03
3.748991355401058627e+03
3.422329774929447012e+03
3.276623386336260864e+03
3.207067256409569382e+03
3.234461416946439840e+03
3.079655303892805023e+03
2.311597249267641928e+03
1.542244145889538459e+03
-7.605626479568260265e+02
-4.042794466188800016e+03
-6.978408420342308091e+03
-7.602469163241187744e+03
-7.889019525245958903e+03
-7.570982313153352152e+03
-7.401381455032839767e+03
-8.171242960103269070e+03
-7.907615236879839358e+03
-7.782575841487210710e+03
-7.484111034285601818e+03
-7.472332876045807097e+03
-3.211375210944713217e+03
6.560116770355417657e+02
1.186398096553454593e+02
-5.516388438419130580e+03
-7.081976032086685336e+03
-6.572277060223887929e+03
-6.740621059092384712e+03
-4.110960909353500938e+03
-4.299069320535665611e+03
-7.279066586125477443e+03
-7.364909680050421230e+03
-7.262572878034823589e+03
-7.769128035759530576e+03
-6.809602897264187959e+03
-7.308971492290274909e+03
-7.969191734977084707e+03
-7.900235101735255739e+03
-7.114995907841404005e+03
-5.643452798778030228e+03
-4.626622696390168130e+03
-4.584445131549043253e+03
-5.632017176364578518e+03
-2.418496082899313024e+03
3.540556947252997020e+02
-3.223329775816540860e+03
-6.286916738571684391e+02
2.213832768129228043e+03
2.531643136478187444e+02
7.012542428474172311e+02
-6.817388266548204001e+02
-5.477313410060520482e+02
2.844387175833712263e+03
3.131755147949340881e+03
2.901389503197930480e+03
8.583258387799251068e+02
2.902523499734410052e+03
4.394915798559503855e+03
4.665509074801560018e+03
4.397419580132484953e+03
4.132762008087855065e+03
4.367509908166349305e+03
4.060759822198430811e+03
3.435657487676323854e+03
2.112845045507236250e+02
1.255509230575959691e+03
-2.927570690538595954e+02
2.556522292798567378e+03
3.609401866171135680e+03
3.527028293881785430e+03
3.549473597284756579e+03
3.350716342783496202e+03
3.416718029320507412e+03
3.315526228113643811e+03
3.108231816826083559e+03
3.130150789394014737e+03
2.790416160888934883e+03
2.962233875413494388e+03
2.794703905129582836e+03
2.762455894893445475e+03
2.296521138734749456e+03
2.196981354841509528e+03
2.169178378661427359e+03
1.883240307103891610e+03
9.848899831939626210e+02
9.458982431932522559e+02
1.199772820433754760e+03
6.020314488784363220e+02
-1.927239037089889962e+03
7.618309909033421263e+02
1.486053469190921760e+03
1.919234856017998482e+03
2.038402918753377890e+03
4.745252155341802336e+02
-2.342480119253830253e+03
1.791205451436499629e+02
1.173918633486351837e+03
1.063439969792995726e+03
7.268828651961397327e+02
6.483425617948451247e+01
1.248303406460461815e+02
2.689433305053145773e+02
8.190639651233229301e+01
-2.169058463677100406e+02
4.338908135692893353e+01
2.057061615897521278e+02
6.851047081060568189e+02
8.997283017807427541e+02
5.086052311219511921e+02
4.297749597057590449e+02
5.134354000177484778e+01
-3.216312845600579635e+02
-9.021712254415084544e+02
-1.016191806354974460e+03
-8.516111246668409649e+02
-1.035346456675872560e+03
-1.126418763857290742e+03
-2.695009203707944039e+02
1.545530940495146979e+02
1.642271422977027555e+02
1.761097473864604126e+02
2.420709732083235508e+02
7.216825783143443118e+01
-3.235843729687341579e+02
-3.431516996425037860e+02
-4.934682806080481896e+02
-2.234457258662035031e+02
-7.208332920767669805e+01
-6.053486890839976695e+02
-6.141962191177126442e+02
-1.013642665189996819e+03
-6.036515575227764430e+02
-4.853405811696500223e+02
-4.978318102940880863e+02
-2.071050343159643887e+02
1.358547689920088999e+02
8.502270882967569321e+01
-4.057046945074527002e+02
-6.983944350919331328e+02
-6.729904281089255846e+02
-6.784254353822872190e+02
-1.009691534199957573e+03
-1.054829595981694638e+03
-1.021851573585864912e+03
-3.948712580020502969e+02
-6.699093069727107377e+02
-2.071902878648554633e+03
-6.139094478268020794e+02
-6.319658877031855582e+02
2.009327036715624502e+02
-4.340014163380711807e+02
-2.529167275518649603e+03
-4.397665251475758851e+03
-3.463340708049267960e+03
-4.842142754643396074e+03
-4.702283917843009476e+03
-3.561904709172649746e+03
-2.888050253273859198e+03
1.432752668113388097e+02
2.950605262463374743e+02
-3.375345577920612783e+01
-2.612099438284155326e+02
1.116605243523264619e+02
3.338542538316628452e+02
3.773547347030468586e+02
5.571499149831754494e+02
7.791544661962824421e+02
9.522708914120619283e+02
8.334527577695662330e+02
8.976397971152981654e+02
8.207093372924168762e+02
1.114689016730218782e+03
1.445593728627021619e+03
1.411351682989512028e+03
1.435954372024014674e+03
1.236336757393038397e+03
9.494092820219580062e+02
1.236135750305973943e+03
1.405503680010530616e+03
1.287501294195620858e+03
1.612087471046366545e+03
1.898233746255523329e+03
1.559800869104412413e+03
1.507690467625896645e+03
1.502836182868704100e+03
1.707262916036367187e+03
1.776927985246259595e+03
1.737841281502288439e+03
1.901922689423641259e+03
2.084124936861861897e+03
2.101390633902392892e+03
2.051690932486854763e+03
2.034011166774387448e+03
1.902365445550084360e+03
2.032665595849018018e+03
1.958802501236161334e+03
2.087730260750182879e+03
2.064463261465074993e+03
2.119952247510193047e+03
2.062151784367476466e+03
1.877093778008832260e+03
2.070756997372875503e+03
1.973038797580431719e+03
2.138936345633177098e+03
1.873384606754828383e+03
1.739348741828274115e+03
1.658792986912830429e+03
1.863773027314388855e+03
2.218260770218558264e+03
2.320219037087519609e+03
1.187647757691640436e+03
3.405568923333594284e+02
-1.700990010304842144e+03
-5.157069094153527658e+03
-6.543744403968097686e+03
-6.764025291117654888e+03
-6.425914477499919485e+03
-6.420348286911478681e+03
-6.226175600405851583e+03
-6.253492165428213411e+03
-6.123397019089785317e+03
-5.753789260874053070e+03
-5.384717756055696555e+03
-5.120170545098604634e+03
-6.041414604781861044e+02
3.091404223292756342e+03
3.135480820585017227e+03
3.240095901288873392e+03
3.293250439799067863e+03
-1.031084977396445083e+03
-5.928925630202644243e+03
-5.207233321851833352e+03
-9.949690543037504540e+02
-2.076098471278372926e+03
-5.717640959989753355e+03
-5.611565681457179380e+03
-5.514832240278401514e+03
-4.773396023786871410e+03
-3.505234702537868998e+03
-3.173138890405280108e+02
-3.457769439503084641e+01
-5.156032627568720272e+03
-5.879655974332789810e+03
-5.822365780188859389e+03
-5.255165209373413745e+03
-5.233036879570317979e+03
-5.169940279712659503e+03
-4.820851694120521643e+03
-2.090700572059988644e+03
1.162637709637614989e+03
-2.138883430679620233e+03
-6.651945557714942652e+02
3.252780675962894747e+03
4.232073429748758826e+03
3.458693601242905515e+03
5.967642082751499402e+02
6.293301426507515544e+02
-4.945790362902207562e+02
-2.289225395635111511e+02
-4.716486781993495470e+02
2.214280871218152697e+03
3.930887094074606011e+03
3.752175165881646990e+03
3.695209983257102067e+03
3.763120700204200148e+03
3.453936208846892441e+03
3.497846180679844565e+03
3.457008834935361392e+03
3.078481804489636033e+03
2.841214945471551800e+03
2.980157715174894747e+03
2.878183485807989655e+03
2.976363042545082862e+03
3.225713824909810683e+03
2.905508177230773981e+03
2.703826099718238311e+03
1.284736340704328086e+03
-1.848781064293496911e+03
-1.078139015868704973e+03
-2.821331936691438386e+03
-2.363999682987291635e+03
-2.995313955140092048e+02
1.769092943214319803e+03
1.372290386955109170e+03
7.159677263914378500e+02
1.413571971303052351e+03
1.467598048081419620e+03
1.855472498377256670e+03
2.026109814710874161e+03
1.862537045758334898e+03
1.757028399995177551e+03
1.840298995023156976e+03
1.572201141748765622e+03
1.211429081201434656e+03
1.511273216960523996e+03
1.883811934261068018e+03
1.846017136682502041e+03
1.837914949866593588e+03
2.125535851539447776e+03
1.943896833946561401e+03
1.461687070248327245e+03
1.038913512426555599e+03
5.880717676634853888e+02
6.398426573772452457e+02
7.131801301834229889e+02
5.980086577774221723e+02
9.262356564811973385e+02
1.033894045457270749e+03
5.308628063016635679e+02
9.938406343268756018e+02
1.567010006602256908e+03
2.187423610661291605e+03
2.338227120657607429e+03
2.120062053869408373e+03
2.101874834051154266e+03
2.040766515554666739e+03
2.150804140883763466e+03
1.869937133590754001e+03
1.504073445779404892e+03
1.488228151603984543e+03
1.670447592108898561e+03
1.399953314173682429e+03
1.622405121406912258e+03
1.789955558687623579e+03
1.379232767011124224e+03
1.641326123650514774e+03
1.843306586985350350e+03
1.482185187594383024e+03
9.279976988373977065e+02
-6.133858913172705485e+01
-6.689096370696795475e+02
-3.677074795988627329e+02
-3.827739340796150600e+02
-3.481058013859247922e+02
3.342582082871228977e+02
-1.140690828944705572e+03
-3.881985098493461919e+03
-7.475596257440402042e+03
-8.325608564123160249e+03
-8.030036954614429305e+03
-6.552837631368403891e+03
-6.763059410684100840e+03
-7.004726235738029573e+03
-7.742646827130733072e+03
-7.337076791423786744e+03
-6.962560740390684259e+03
-6.896549768651449085e+03
-7.044063471031696281e+03
-7.086121686065327594e+03
-6.617686341410463683e+03
-5.477699335267693641e+03
-1.176003013662912736e+03
-3.131070026997746027e+03
-6.697882942547556922e+03
-4.521361733389812798e+03
9.195338014316423596e+02
1.815800277976036796e+03
2.283358535731395023e+03
2.237247881774311281e+03
2.038485777090129886e+03
1.846028571855112432e+03
1.883813718700936761e+03
1.895849514110475639e+03
1.906124172200498379e+03
1.951641637662672110e+03
2.108419469182209014e+03
2.093424287714772618e+03
2.012693275475903420e+03
1.879225995173178035e+03
1.671095430539728795e+03
1.154222194425532280e+03
1.144592538650000506e+03
1.030260944864475960e+03
1.468291655836981136e+03
2.164526832320623726e+03
2.388953461759961101e+03
2.028646494035484920e+03
1.658660769482143905e+03
1.716970814430680548e+03
1.620604892076113629e+03
1.522567427295592324e+03
1.004873366978936588e+03
4.345462400159726712e+02
3.635281853315215699e+02
7.468687833914634666e+02
1.163623399062289309e+03
1.246811846400966715e+03
1.028501857210630760e+03
9.716230528812802731e+02
8.531774613274145622e+02
6.971983007989491625e+02
2.427035804534470458e+02
2.427280208005251723e+02
6.462989329470483426e+02
4.904829312012286096e+02
9.027441631110522735e+01
4.486815360349299908e+02
9.456471775684944987e+02
6.011560569292165610e+02
3.995488377324226690e+02
9.301412257285389273e+01
-3.514679716309111086e+02
-6.178498714934360123e+02
-7.740762925385355402e+02
-1.545351215055376997e+03
-2.400578610032149754e+03
-1.798540757955559457e+03
-6.430449311838776794e+02
-5.803038908193587986e+02
-6.632083152063644320e+02
-3.859904291586311160e+02
-4.184797779660081574e+02
-3.997668874088930124e+02
-9.088652877823597009e+02
-8.007420055243080697e+02
-4.746033784669502325e+02
-6.151907703707541941e+02
-6.083961882789444644e+02
-9.752449763403143379e+02
-1.211798469991577122e+03
-1.374997323722145438e+03
-8.898068799190933760e+02
-8.391753558886352948e+02
-9.800799511284192249e+02
-1.059496195589998479e+03
-8.533053616823019638e+02
-1.174498716381171562e+03
-1.206095100275778123e+03
-8.281461679382075545e+02
-7.046580354277264178e+02
-8.135522320253471662e+02
-7.857879278439236259e+02
-7.913042299726266720e+02
-6.890584260399045888e+02
-4.631060483645949262e+02
-3.334442745410337920e+02
-2.759722678057644316e+02
-2.469273941676510375e+01
-2.066176315618882029e+02
-6.166868050385166953e+02
-1.238925978572937765e+03
-9.923261770849442200e+02
-8.468223756394012298e+02
-3.964148675406726738e+02
-2.300908436361819724e+02
-1.028308936499726656e+02
-3.136183135782578688e+02
-2.534412295332732583e+02
-4.230911516507325842e+01
7.468047108642734884e+02
1.238937915864860315e+03
8.411103107248397919e+02
7.662947421194166964e+02
1.042387775506376329e+03
8.775759554055117633e+02
5.988316766479372291e+02
7.119968083411072257e+02
9.022364664118711062e+02
2.926888254192902536e+02
4.342617345249154255e+02
5.778563693269071564e+02
