-4.067041509245414545e+03
-4.272602931460946820e+03
-3.610176710868938699e+03
-3.133645268562800538e+03
-2.779982448361992283e+03
-2.863173231140143798e+03
-4.171582481440994457e+02
1.287086021968876594e+03
-1.773402603236762388e+03
-5.507622168946157217e+03
-5.997588151499317974e+03
-5.800238662179400308e+03
-5.746614031339616304e+03
-3.093674713611433162e+03
-6.403112791023531827e+02
-1.067551302214413226e+03
-1.318364841955913107e+03
-1.859684442785154260e+03
-2.351438032654694780e+03
-2.260637532273935904e+03
-1.721268726564411281e+03
-1.286333947490676110e+03
-9.749131622377769872e+02
-3.769155149970254115e+02
2.406773476353446313e+03
3.551162062331600282e+03
2.880345697880575699e+03
1.713408615374984265e+03
3.472306908111937105e+02
-4.561885776625415474e+02
1.818824362543066542e+01
-2.175243870594397038e+02
-8.833109219607529212e+02
-1.802242129753166182e+02
2.061803765489061789e+03
4.540884103001048061e+03
6.407996778083296704e+03
6.480190757162500631e+03
6.721447456141545445e+03
6.679761133402072119e+03
5.312147681841031044e+03
3.671640258318711858e+03
2.068200952714698360e+03
1.784894082354468992e+03
1.885847412715511609e+03
6.720740629182323573e+02
-4.964784489065971798e+02
-4.947645586936012592e+02
-6.577907483580009966e+02
-1.145582775711186059e+03
-1.128024980249814234e+03
-4.918741511015850847e+02
-4.509598097601317477e+02
-5.083261324713676004e+02
-2.588930856326781509e+02
-4.797123294921177035e+02
-8.447316365445260544e+02
-7.851337297584891530e+02
1.018778234573918269e+02
6.836502778746346394e+02
4.836329537627815398e+02
3.735066014579541616e+02
9.183642973015518862e+01
-2.314168047787077739e+03
-1.786257091539149314e+03
-4.824418085906170290e+02
-3.780732730681160092e+01
-1.409552325882355717e+03
-1.698679684953455080e+03
-1.588950961187337271e+03
-1.123220933370497050e+03
-1.182608965189967421e+03
-1.000155797172138477e+03
-6.997913775216725298e+02
-9.857125182243524364e+01
-2.760996613179816705e+01
5.152402461989702260e+02
7.867582369167412253e+02
1.186869612804370263e+03
1.027627067739552785e+03
8.631209339393182063e+02
6.023348690265635241e+02
3.212257097769629013e+02
4.667069875670237025e+02
8.848690024839713715e+02
1.759818722660838148e+03
1.666510672932615535e+03
1.087890859871574094e+03
5.950274442575342846e+02
3.598990821686124377e+02
3.324493656946278861e+02
1.696181578763214191e+02
-1.886710863178821000e+02
-2.833926464206348683e+01
3.206653209909381417e+02
1.146320315697832712e+03
2.249598936164957649e+03
2.566544151191666515e+03
2.108137525479859505e+03
1.840318601181852728e+03
1.135077245170779406e+03
7.836205446613132608e+01
-6.128123363296127764e+02
-6.393989432116990201e+02
-4.954073845471672257e+02
-1.678042817660162598e+02
-5.915837037801394445e+02
-1.821811797100868716e+03
-2.427539328297239081e+03
-2.041823977967718747e+03
-2.028651578828917309e+03
-2.839996031459919323e+03
-2.659005384956637045e+03
-2.314743312994613461e+03
-1.829038237036617375e+03
-1.204882917978106661e+03
-4.343846831914788709e+02
-4.953985019071775753e+01
3.466286850565155078e+02
1.172040274084321936e+03
1.770702188916249270e+03
1.155502012091684492e+03
1.715672588828730625e+02
-1.542116095906229702e+03
-2.795568091907915459e+03
-2.415813214824564966e+03
-7.958411077423786537e+02
2.947327504293328730e+03
3.863698447546966690e+03
2.874184549410113505e+03
1.767713134078720941e+03
1.545277032371258429e+03
1.872824735659979297e+03
1.176300024517688826e+03
4.806996579663586999e+02
1.559979043231418530e+02
-2.478042788116868564e+02
-9.886927213716671758e+02
-8.817217970036402903e+02
3.210596465670635098e+02
1.260643977150567480e+03
2.183964213380658748e+03
3.134012003030956748e+03
3.397824314539779607e+03
2.980425088992109067e+03
2.179776297760604848e+03
1.814880421318365507e+03
1.784701628217892448e+03
1.455155438242781429e+03
5.871938806847493879e+02
9.779242363171097452e+01
-5.900239786919230767e+01
1.286994211911006687e+02
4.079367922290954880e+02
1.117732110589121248e+03
1.733098254336427544e+03
1.870058569833005777e+03
1.623574439682501179e+03
1.075605928023371689e+03
8.021831797549079965e+02
2.582600770283010547e+02
-1.171987736112784404e+02
-4.471285315731124683e+02
-6.884960350221529097e+02
-4.983071453807913826e+02
-8.705669407597926011e+02
-1.188270006229247656e+03
-8.923684469526629073e+02
-1.067897744359816215e+03
-1.417818159274171649e+03
-2.208175834866171044e+03
-2.523020199617661547e+03
-2.333384201237261095e+03
-1.926354862551158249e+03
-1.149997785569732287e+03
-7.711566146020213637e+02
-4.089012196332208049e+01
6.657404803211944682e+02
6.987806214542800944e+02
1.333234856127668991e+03
1.751280031781129082e+03
1.381857632095034887e+03
8.029032322683432312e+02
3.884726240032732676e+02
1.175133582343164846e+02
1.130328003692622474e+02
-1.557886732693627664e+03
-3.096183074106807453e+03
-1.264889411382319850e+03
-1.788589889355659750e+02
-6.200778526471442547e+02
-2.210537175567092163e+03
-2.431344866262257256e+03
-5.355533647299764652e+02
-1.425054948926297584e+03
1.502388782569167915e+02
9.484613552764327551e+02
1.141632094360373912e+03
7.878646231233460639e+02
-1.565852329552296396e+03
-2.251580494422701577e+03
1.020691990499104463e+03
-5.220229288257733060e+02
4.344093506328257490e+02
-4.689103332335644154e+02
3.411025712439144399e+02
-4.385910035458975358e+02
6.569763093086534127e+02
-1.305177174617633227e+03
-2.742973270788489117e+03
-2.109428679424231177e+03
7.205131221767045417e+02
1.728926829101575549e+03
1.892879599995946819e+03
1.154479113882801045e+02
-5.731483459930237245e+01
-3.255339243202586772e+02
1.094064716340239329e+03
-2.743918078942121497e+02
-9.671006683683209530e+02
-1.253064948720187203e+03
-2.862325329494646667e+03
-8.599144551076979042e+02
-2.179727453844313459e+03
-9.715863896922265894e+02
-2.291400168459820179e+03
-2.173177774760898046e+03
-3.448568787869285188e+02
-1.351329364431349632e+03
8.741220571719752286e+01
-9.626686725057270451e+02
-9.426949536140921282e+02
2.922832542781077905e+02
8.324687585550138920e+02
1.564218536721719147e+03
2.050395252607037492e+03
1.802998370898209032e+03
1.425072577389407115e+03
1.199586010997046969e+03
1.348503430847829350e+03
1.246085013751684301e+03
6.723479742178304832e+02
2.590662373374344156e+02
3.049921408188094460e+02
7.621832277643432008e+02
1.078811435051850140e+03
9.299126163922024944e+02
3.866145685874589049e+02
2.699615904685105079e+02
4.985016862166341411e+01
2.022328079542518253e+01
8.751797903710818218e+02
1.402735864004309406e+03
7.680076051570016489e+02
5.001047986811050237e+02
9.080280199233370695e+02
1.382795708330773778e+03
1.465501520138351225e+03
1.029212039796464978e+03
8.199771270463589872e+02
5.668013531146954165e+02
2.676062832590118319e+02
-4.572117582153546778e+01
-2.493573315038216549e+02
-3.651638358456505671e+02
-1.805543593562508136e+02
-8.575942894598513533e+01
-1.363388042178438013e+02
-1.407685081772995694e+01
-1.388662735137697553e+02
-4.857329225109658069e+02
-7.927866578148045846e+02
-8.951555142045782532e+02
-1.996615857289278324e+02
-2.011873308858262419e+02
-3.728066824587889982e+02
3.773760573720193179e+02
1.336303936935600404e+03
1.099994016681891708e+03
7.504273929336426363e+02
1.028554341390480431e+03
8.901388437613672977e+02
5.123901139162492200e+02
8.363506257933858024e+02
4.578370039263213584e+02
-1.371984873385686683e+02
-3.987852183621628228e+02
1.489918048203939520e+02
8.531287269979353596e+02
6.506120211562374607e+02
7.873491565177870370e+02
1.665154485027185956e+03
2.107892891624975164e+03
2.206508314875080487e+03
2.070127850666399354e+03
2.321757881657807502e+03
2.136330240736415362e+03
2.298861545566201585e+03
2.279398062914609000e+03
1.763989005088984186e+03
1.943598801495712678e+03
2.146171378165202896e+03
1.475769720845051097e+03
7.703232217849669041e+02
-3.973769048988410191e+02
-2.473455492446730659e+03
-4.614016279320416288e+03
-4.571049086714068835e+03
-4.451504881168151769e+03
-4.189330973087836355e+03
-3.857737935684822787e+03
-3.293920022704610801e+03
-2.685569206100472456e+03
-2.567731377494466415e+03
-2.694538783154888733e+03
-1.448079208994799956e+03
2.102659934199861254e+03
3.520677404586498142e+03
-3.360807946733639824e+02
-2.509736643354524404e+03
-2.036244141188800540e+03
-8.329647167184888303e+02
1.299393914586676715e+02
-1.607618413038846484e+03
-2.901600460967378240e+03
-2.722033075856250889e+03
-2.735893147505136312e+03
-3.029345315745315474e+03
-3.068758094497957700e+03
-2.794338747346065702e+03
-2.550226628973380230e+03
-5.485690252297624738e+02
2.570514171513403653e+03
2.912994040635717283e+03
2.582874552322841737e+03
2.739072140576451147e+03
3.105513179125652186e+03
3.390081610135837309e+03
2.946662872223002978e+03
1.638151920010868253e+03
7.114708133410605342e+02
6.625281750157339502e+02
7.892204471360925027e+02
6.145132070089206309e+02
8.953965133301180686e+02
8.487942143233261731e+02
1.001664365271693669e+03
1.193876848230046562e+03
6.064043600675048538e+02
1.362676673031823498e+02
7.737253211155878319e+01
-3.003087715674777769e+02
-9.508388490762638412e+02
-6.252753393538474711e+02
-5.145691324035348089e+02
-4.866836222309456730e+02
-2.255882247242956282e+02
-4.622098461211439258e+01
-3.455450516059843267e+02
-4.956206492763325286e+02
-8.684839261271200712e+02
-9.721705701207000629e+02
-6.967134666921925827e+02
-5.591076784478174204e+02
-8.332549872132126438e+02
-1.314183285644509397e+03
-1.217976893891474219e+03
-6.075779483298989589e+02
-1.079881834971812168e+03
-2.181967811733868075e+03
-2.147872444607615307e+03
-1.112589859794552012e+03
-1.111013380088807025e+03
-1.365984058961423671e+03
-1.244473291225474441e+03
-1.478405245607651750e+03
-1.879757953715790791e+03
-3.645396101816445480e+03
-3.420156818124778056e+03
-2.818981953763058755e+03
-2.283722393965995707e+03
-1.937310859711177955e+03
-2.103730223851980099e+03
-2.442056039826493816e+03
-2.197463055080348113e+03
-1.968504921447368361e+03
-1.904010678540317258e+03
-2.202065102368653697e+03
-2.025685147266771537e+03
-1.397858774565451085e+03
-1.186410738172166702e+03
-1.327276315263468632e+03
-1.255379820922300723e+03
-8.556598835548010129e+02
-5.720618143909979381e+02
-5.505370462785552945e+02
-5.590392537565063549e+02
-8.235504427554830045e+02
-1.140984119082036386e+03
-1.149262317505534611e+03
-1.260269668198153340e+03
-1.701862794138097797e+03
-1.922917009979770228e+03
-1.523360893101022157e+03
-1.361210169055928873e+03
-1.199446248439653345e+03
-1.248923176791068727e+03
-1.027613986079153165e+03
-1.369447347146322272e+03
-1.367403311737742570e+03
-1.438451347146587068e+03
-1.261552008370374551e+03
-9.156715194794589934e+02
-5.916917159465608620e+02
-6.485649126233826109e+02
-3.002464677048643580e+02
2.252458762260786784e+02
1.106050670699924154e+01
3.728905656631540921e+01
-5.037455970887590340e+00
2.407764650515926519e+01
2.076462088799368644e+02
2.937374568970243445e+02
5.233894293875696349e+02
5.455663657786341219e+02
1.174351489661352389e+03
1.183715629296820225e+03
9.117265483076301962e+02
5.674136868258455024e+02
1.817128030371567604e+02
-4.453940367003078791e+02
6.950803384544718710e+02
1.554072953708855266e+03
1.130520136569256010e+03
-6.986328445770443523e+02
-1.735332298577198117e+03
5.004314323053043267e+02
1.537667391480186325e+03
1.985419313393169432e+03
2.476713392458354065e+03
1.992575817520302508e+03
1.105888620138689930e+03
6.255246324411330079e+02
1.196375242435789374e+02
-4.858131815200504775e+02
-2.081023516228971459e+02
3.697443255059764056e+02
1.356748149029685010e+03
1.230038290881087505e+03
5.754032277391595471e+02
3.016095835600808641e+02
-1.981594933574373556e+02
2.858037921233981820e+02
3.624039349848850975e+02
8.056172940493011083e+02
1.217415515523491194e+03
1.454914422445054470e+03
9.959420377449342823e+02
1.970524204207394234e+02
-4.524171229573426558e+02
-8.037305382870766834e+02
-4.478135438767204732e+02
-2.188847969222245524e+02
1.510633560791718537e+02
4.017990501807078658e+02
6.294361469898022960e+02
1.108841528063701617e+03
1.088722881608033958e+03
1.016804923229275573e+03
1.025129094362844171e+03
1.381667003726214034e+03
1.210457389971366638e+03
-1.083735554446567676e+03
-1.700032787754596029e+03
-3.726757618202730669e+02
6.874590981134339245e+02
2.252234151616036343e+03
3.709527241695398970e+03
3.173425629756949093e+03
2.707574467502256084e+03
3.019109740937205970e+03
3.245742681733042446e+03
2.777577872369349734e+03
2.076419171835343604e+03
2.169979511825227291e+03
2.989345740818377180e+03
3.613245987340389092e+03
3.991818622456161393e+03
3.282926249599592211e+03
2.523368204799409341e+03
3.764063780905874410e+03
4.546947905950674794e+03
5.310030191862859283e+03
4.681272098432044913e+03
3.396629311094911372e+03
2.496053314065147333e+03
3.177425755498887156e+03
3.971678430582416240e+03
4.834843398007485121e+03
5.051936152459472396e+03
5.220919131089533039e+03
6.618691579806111804e+03
7.128185099111400632e+03
7.317360891646423624e+03
7.282239407494690568e+03
7.030796663591498145e+03
6.051976125978362688e+03
5.875756063910249395e+03
5.006120619238906329e+03
3.971045351361861776e+03
1.739569629325790856e+03
-6.372894933362990741e+02
-1.787512940798098043e+03
-3.144106376124775124e+03
-3.556068974966064161e+03
-2.373280742141967949e+03
-8.617331595831337836e+02
-9.338130509173144844e+01
-1.228145952566768756e+03
-2.030949703131771003e+03
-1.229710249962434773e+03
2.854654334303477299e+03
3.070223551658208180e+03
-1.683942393601234016e+03
-3.772797609996697702e+03
-4.858292348006927568e+03
-3.056332154428822378e+03
-1.572727233609835366e+03
-4.317387481632476920e+03
-4.923231230591561143e+03
-4.166177923249290870e+03
-4.080117060507734095e+03
-4.578964344644879930e+03
-5.114641221300621510e+03
-5.168010941736686618e+03
-5.160830770592520821e+03
-5.012006308459526736e+03
-4.856438665997005046e+03
-2.406934161056231005e+03
-1.343115316665559931e+02
-2.305018945337228615e+02
-1.138258481351569799e+03
-1.873378342607604509e+03
-2.081682211180787363e+03
-2.587116823405898685e+03
-3.456539273170054003e+03
-3.737685106235283911e+03
-3.981436663086553835e+03
-4.657603080898228654e+03
-5.769032160912227482e+03
-6.468542263791855476e+03
-6.395969370398630417e+03
-6.945180396843783456e+03
-8.482892046500990546e+03
-9.885938936358705178e+03
-1.072916338510027526e+04
-1.039030839423850557e+04
-9.609273597233624969e+03
-8.561868601655491148e+03
-7.740771551484969677e+03
-7.751572163823856499e+03
-8.972972800102270412e+03
-1.171563325729873577e+04
-1.377434660451903619e+04
-1.406615333373102476e+04
-1.338783361242773935e+04
-1.486618112063446279e+04
-1.841906185253950389e+04
-1.816529161693069909e+04
-1.789867624670457371e+04
-1.818195220996382704e+04
-1.785991774107242236e+04
-1.647947934351181902e+04
-1.462354065106080998e+04
-1.200607175835018279e+04
-9.687605726715028140e+03
-7.841073197965042709e+03
-6.665394048840840696e+03
-5.322326978561346550e+03
-4.534708555557786894e+03
-4.137147855810915644e+03
-1.956459454230659048e+03
2.740392068412146727e+03
8.033576467175997095e+03
1.007026110300482469e+04
1.109753494336710537e+04
1.172150016919832160e+04
1.196426809823059193e+04
1.110381597447572858e+04
1.127427309775080357e+04
1.243100685732145575e+04
1.400195205108347727e+04
1.539009191876111981e+04
1.645149843253058134e+04
1.697330088892735148e+04
1.698172114511581822e+04
1.727392200136341125e+04
1.763792819461149338e+04
1.820678282294293967e+04
1.831351396201595708e+04
1.848327689763033413e+04
1.832108405420836789e+04
1.845097023944071771e+04
1.763294169050017808e+04
1.667499008411584873e+04
1.608319024408833502e+04
1.509356686639071268e+04
1.425009627301420005e+04
1.346288245944893606e+04
1.265398912692392332e+04
1.203936016242569349e+04
1.121698698023096586e+04
1.101277759457406501e+04
1.127765385795238944e+04
1.172659433418212029e+04
1.177364243548728700e+04
1.211873904393919474e+04
1.237790043140919624e+04
1.259312723952089982e+04
1.210326891983742644e+04
1.173226021594001395e+04
1.123011029086345661e+04
1.034675821432885095e+04
9.545094020776718025e+03
8.790916901016356860e+03
7.448199761011582268e+03
5.137964759463417067e+03
2.152966561476914649e+03
-2.459778115361592370e+02
-1.114896376358356292e+03
-2.621910603288934908e+03
-3.912137374801778151e+03
-5.218699008216035509e+03
-5.640770869759120615e+03
-5.897360055171477143e+03
-6.787742254807672907e+03
-7.767058695847211311e+03
-8.767435420555197197e+03
-8.890977189864306638e+03
-9.287852656559796742e+03
-1.002219914835792588e+04
-7.850217628623048768e+03
-5.643059287573714755e+03
-5.424879661009623305e+03
-5.531862584052782040e+03
-5.814248419694266886e+03
-5.809249140397804695e+03
-6.051033640801258116e+03
-5.975778779333467355e+03
-6.178701244725623837e+03
-7.210000490744598210e+03
-7.976842181293020985e+03
-7.859406193117330986e+03
-8.457870451276170570e+03
-8.744375829530275951e+03
-8.707182351768422450e+03
-8.618517023962496751e+03
-8.245533561451778951e+03
-7.583410995279807139e+03
-6.360342666767779519e+03
-5.672540248336733384e+03
-5.880186905630528599e+03
-5.753463009075062473e+03
-5.898514350182834278e+03
-5.662640324792634601e+03
-5.551093608589669202e+03
-5.648041779377594139e+03
-5.393587312672741973e+03
-5.296946963782392231e+03
-4.661323487360451509e+03
-4.357933517805769043e+03
-4.508963628986251933e+03
-5.484576080751535301e+03
-5.670971473439157307e+03
-5.141257269204792465e+03
-4.641640425017295456e+03
-4.576284885463297542e+03
-4.336361068023341431e+03
-4.142004001885055914e+03
-3.790350504339195140e+03
-3.534559507367053357e+03
-2.823759297387891820e+03
-2.892159467436154046e+03
-2.891824692769590001e+03
-2.256902688567715813e+03
-1.946571324902359493e+03
-1.544900646383453477e+03
-6.359728712632105498e+02
-6.491780776690529819e+02
-9.756798733883737214e+02
-1.921377085522923608e+03
-2.887011939774812163e+03
-3.033731281292905351e+03
-2.962700853092378566e+03
-2.858092023674380471e+03
-2.403184934792217518e+03
-1.009070545271354376e+03
-4.417612160435292026e+02
-8.302621828527410344e+02
-6.946895310454950732e+02
-8.540379070830248338e+02
-5.523286230112466910e+02
-2.586951390541852902e+02
-4.872693423662403802e+02
2.778843991029208951e+02
2.848166087627549814e+02
4.165501383708192975e+02
1.168991034812481075e+03
1.733134486883361660e+03
1.522857905513734067e+03
1.385175473572791589e+03
1.197008121556672904e+03
1.056350907875125586e+03
9.362042165955278961e+02
3.126039158726693472e+02
4.135775200895312196e+02
6.561005218631578373e+02
1.199210657657022239e+03
1.920918704114958928e+03
2.470234571866541501e+03
3.310155641929611647e+03
3.812731572641884668e+03
3.990033796983120737e+03
3.589087632655048765e+03
3.486877836532402398e+03
3.888470331157060173e+03
4.633909800852557964e+03
5.146203654944953087e+03
5.338411210394813679e+03
5.093772390620802071e+03
4.788269231046763707e+03
4.476867572443608879e+03
3.954624986439159329e+03
3.236484523249996528e+03
3.224430971715140004e+03
3.611618657773472933e+03
3.830131091623899010e+03
4.142038834511598907e+03
4.560482318555160418e+03
5.052603768254573879e+03
5.064509613944002012e+03
4.547224817196385629e+03
4.015738980920179529e+03
3.813118725945304050e+03
3.805423742753889655e+03
3.592764141144397399e+03
2.720250349499187450e+03
2.109854956077273528e+03
2.383628952603291964e+03
2.337620098837847308e+03
2.306039459160517254e+03
2.514070711728837978e+03
2.286865996078687203e+03
1.476442230503424298e+03
9.678256371545371621e+02
1.232003339748102690e+03
2.104148268454177014e+03
2.856371860127695072e+03
3.277583515329778038e+03
3.175825029818287931e+03
3.156206463298986364e+03
3.472885506634299418e+03
3.118842399263895004e+03
2.687013741633531026e+03
3.130683081734472125e+03
3.202272157431193591e+03
2.467598496120309392e+03
1.914842025822789083e+03
2.067164148657956957e+03
2.105616463518611909e+03
1.432257594297971991e+03
1.229219178827568840e+03
7.242419545636519160e+02
5.777739768671291687e-01
-5.977415408917979676e+02
-1.112430254365939163e+03
-1.367759942647188609e+03
-1.363778953079895473e+03
-8.305392617070132246e+02
-3.848077903745181061e+02
-4.392262965492213880e+02
-7.960331352826265174e+02
-1.460017580903371254e+03
-1.233200234155471662e+03
-1.119669550801220566e+03
-1.122023052080839534e+03
-5.284309667256475223e+02
-4.941997567377439964e+02
-1.175059665859928600e+03
-1.576017915274222560e+03
-1.475867432161953047e+03
-9.928351042118835039e+02
-1.224915025317573054e+03
-1.454948655663987665e+03
-1.514049485148013900e+03
-1.491317190082704428e+03
-1.930984190027391833e+03
-2.015738918588058823e+03
-1.920438913647508571e+03
-1.337104227266111366e+03
-1.307754463161155400e+03
-1.329371892233894187e+03
-1.005903095555425239e+03
-1.101467003566529456e+03
-7.309577808668865373e+01
5.011999476746796631e+02
8.694255413931407475e+02
7.115965677975540302e+02
1.166466364948069412e+02
1.856500494144831919e+02
2.377395191013008571e+02
-4.570408151128855252e+02
-1.144699098269600881e+03
-2.764304009270533243e+03
-4.958913917804637094e+03
-7.146648545015439595e+03
-7.205654195064736086e+03
-6.723916193532308171e+03
-5.613388308790689734e+03
-4.804889702432452395e+03
-5.116398506289557190e+03
-5.102029851481553123e+03
-4.740864605048004705e+03
-5.034810192211281901e+03
-5.190722073415222440e+03
-5.176960865136334178e+03
-4.576525046281977666e+03
-3.923464221864642241e+03
-2.733724499534715051e+03
8.667305497252053783e+02
1.574643063232227405e+03
2.728395916303646800e+02
-2.019813468639642451e+03
-3.630323123517717704e+03
-3.621457233333472232e+03
-3.657406375444748846e+03
-3.614221633573692088e+03
-3.166931004604801274e+03
-2.864689730513513950e+03
-2.420712104597466805e+03
-1.930176793012210283e+03
-1.856908297116245194e+03
-1.905859976384708489e+03
-2.263052860488578972e+03
-2.619460595659807041e+03
-9.609865649900649487e+02
2.184230420006765598e+03
2.849126493810202646e+03
2.390597099686970068e+03
1.646668588000113687e+03
1.137343385877435821e+03
1.517674638608514670e+03
1.874725792604702747e+03
1.617508790585304496e+03
1.690087011895209116e+03
1.413397684777479526e+03
2.088502403646707990e+03
2.881481577397343699e+03
3.375389390305905181e+03
3.741224639843677778e+03
3.672111224299073911e+03
3.305154985070053499e+03
2.835326880925657861e+03
2.028653054744924020e+03
1.940171378680463249e+03
2.252931546445202002e+03
2.962971443132969853e+03
3.740306087529316756e+03
3.576042659418316816e+03
2.869177627746673807e+03
2.042718011146234176e+03
1.565644106587365059e+03
7.890170318242496705e+02
3.888232969429482750e+02
9.150948130383437729e+02
7.298947721490685581e+02
4.103319345187973681e+02
7.064817282740855262e+02
1.001402436622698360e+03
1.621184592187578119e+03
1.500872491780587779e+03
1.143512481271478919e+03
1.552222303744385272e+03
1.197148095894945982e+03
1.017471078017736204e+03
1.083231590657858760e+03
8.562383379942307329e+02
1.136596258495620532e+03
1.230461836276292161e+03
5.019903422838563074e+02
-3.517684976098296943e+02
-1.320852380461866005e+03
-1.892233790282401515e+03
-2.130822217715031911e+03
-1.748551278019081792e+03
-1.929487267824252513e+03
-2.039647215915143079e+03
-2.016903544871983058e+03
-1.640462073531813985e+03
-1.020130230360569840e+03
-7.638777985742686951e+02
-7.967866177583858871e+02
-6.367920012768496463e+02
-5.519042928418409701e+02
-6.981657094725106845e+02
-1.080659079522164120e+03
-1.280351876052081934e+03
-1.203129337854762980e+03
-1.185011170062318342e+03
-9.769954736958142121e+02
-2.609997117445824983e+02
-4.460325495942598195e+02
-8.531527545127191843e+02
-9.053263236622451586e+02
-1.197551769306348660e+03
-1.397912403628968377e+03
-1.165499470438304343e+03
-8.842513916535397129e+02
-2.700355150247849565e+02
1.007163920590228258e+03
1.429312538406743215e+03
4.053371234606626672e+02
-2.587484742357948448e+02
4.407713972037248595e+01
2.858498061586489598e+02
5.995262396325314285e+02
5.710181872774223848e+02
2.929778154077576957e+01
4.737003100022965896e+01
1.133832913986184465e+01
9.813505626344405641e+01
-1.193073359720411588e+02
-4.729460189382745057e+02
-9.887554008738227367e+02
-1.114802580035590381e+03
-1.094095543475526483e+03
-9.786850299140261313e+02
-7.545373472473003176e+02
-6.507238160872121853e+02
-3.017256791538920169e+01
2.301557960791511448e+02
-2.968333107351150488e+02
-2.960690525712560657e+02
-1.205976528825870275e+02
-1.795571084133517161e+03
-4.748010546377844548e+03
-6.927903201191743392e+03
-6.407213844377327405e+03
-5.972896382546450695e+03
-2.506085594003525330e+03
-5.782053040959333146e+01
-1.810706229874406858e+02
-2.808390151182138084e+02
-5.751986148096831357e+02
-6.362206860514069149e+02
-1.167924829352081133e+03
-1.021121814539560546e+03
-5.528638258327214317e+02
-1.372517498766451070e+02
-3.262540987173661620e+02
-1.438436185064923620e+02
2.898840342658165810e+02
1.001982854081248774e+03
1.312430089227627150e+03
1.683095771343399065e+03
1.834846207088108713e+03
2.146661571330021616e+03
2.105572691442556788e+03
2.227587051509383400e+03
2.378688295849748556e+03
2.295874941574274089e+03
1.978167108926343190e+03
1.059499216861596324e+03
4.588459056606668582e+02
4.381548910456409658e+02
2.293792546755404658e+02
-1.584959707177417272e+02
-3.604823268164758474e+02
3.647638125380641583e+01
8.333276819304209084e+02
6.000889901173502494e+02
6.097139574253668570e+02
7.321239695101760390e+02
7.792862233540749912e+02
4.162328024616644484e+02
-8.706359702560975222e+01
-3.115881487347664915e+02
4.137501288848514491e+02
1.407977043785496789e+03
1.945046599262564769e+03
1.818980964031152553e+03
8.047480759455340831e+02
-3.677342437977953864e+02
-1.027508750421300647e+03
-9.015675335112176754e+02
-5.689360860115759806e+02
-1.206141801057867156e+02
5.314223169768027901e+02
1.065226379089727288e+03
1.589846251459074210e+03
1.860223877722945190e+03
1.360345224577294175e+03
8.732564246241973933e+02
1.012984255771332869e+03
5.215130868298998621e+02
-4.252547800531125972e+02
-1.356298997003906379e+03
-2.140526903835650501e+03
-2.037971700743479460e+03
-1.091662447059706665e+03
-3.324895422877937676e+02
-4.145140176338765059e+02
2.511918619823233314e+02
1.576546651632659405e+03
2.436518366025496562e+03
2.273118141415078753e+03
2.264394648971094284e+03
3.204368640637468161e+03
2.713976759263218810e+03
-1.009588773793008386e+03
-2.033230668195937596e+03
8.238989682365975113e+02
3.087567006906957090e+02
-5.976105160647605317e+02
-1.247172247263396912e+03
-1.403976398160657482e+03
-2.273053841003824800e+03
-1.515340997885636625e+03
-3.259802622781322953e+03
-1.843426076034324296e+03
-8.361558286314404995e+02
1.697952189747974217e+03
3.508509290711168092e+02
-9.604690763454035505e+02
4.160284620873609924e+02
1.207305041868926082e+03
5.103621043289719523e+02
-2.469733739664811310e+03
-3.093928767744594097e+03
-1.273212981986481736e+03
-5.376634421389790077e+02
8.947867833792622605e+02
1.824131773387992098e+03
-2.396628134538164545e+02
1.123956171312975414e+02
-5.516568093983115659e+02
1.206132364285004314e+03
4.007241826750370706e+02
-6.739004116438999290e+02
3.113128278636563095e+02
-1.486356257917877315e+02
7.212662395892676841e+02
-1.153976651029454160e+03
-1.461309812193840116e+03
-8.987754779331297641e+02
-5.383510690590566128e+02
1.139296379199810900e+02
8.181067957061225115e+02
1.975199712515033298e+03
2.336216406069496315e+03
2.433192210465474091e+03
1.925977820513143342e+03
7.525937750329211440e+02
-1.479257190821104189e+02
-1.296568251077905870e+03
-2.257240981338406073e+03
-2.760992834901580409e+03
-2.793867697254443101e+03
-2.364791970448288794e+03
-1.222735040437501993e+03
4.183109162937264500e+02
1.724420400090635894e+03
1.648669002169758642e+03
1.299067927094167544e+03
3.156146891737047326e+02
-2.647908878504041468e+02
-2.411640168439842569e+02
1.825702808249575924e+02
1.146375750583042645e+03
1.609295624355449490e+03
1.656392334757959588e+03
7.366555993179256348e+02
1.301267388562872043e+02
-1.566372790047048511e+03
-1.823867216491269573e+03
3.057148175091343774e+02
7.462150053488165895e+02
7.347153054194227479e+02
-4.587952988948040343e+02
-1.673441980970922486e+03
1.929806601943560622e+02
6.885208382404399572e+02
5.512247753060369178e+02
-4.688732943335669745e+01
-4.428418002648697893e+02
1.032031130730652180e+01
3.075527206117278638e+02
7.478296546781888310e+02
1.365131454039674509e+03
1.665482516758776910e+03
2.134935241961120937e+03
2.787510765604542485e+03
2.622174183023139904e+03
2.730767676213556570e+03
2.114195361500133004e+03
1.798418588405363835e+03
1.237695252575935683e+03
6.939002191023422483e+02
1.609277063010962081e+02
-2.672501600291010391e+02
-1.461335514449680417e+01
-5.741820872942960250e+02
-1.187921629498888706e+03
-1.076892326487295350e+03
-9.271292803771036688e+02
-8.536364294198336893e+02
-5.724171104644146908e+02
4.675847183030181213e+02
1.112459882498651496e+03
1.168210588018353519e+03
1.209824572891399384e+03
1.327247494550319288e+03
1.276420820949454992e+03
9.343293838465534691e+02
1.103968294637804547e+03
1.309367119083571652e+03
1.704561123133484443e+03
1.712579376858380328e+03
1.692416705550282586e+03
1.309156636992807307e+03
7.008127141742429558e+02
2.762921503054591312e+02
-1.203628438531913218e+02
-1.201102538730727218e+02
-1.480002647329474712e+02
-1.000908152839032823e+02
-1.463887502028752010e+02
-2.997935854894728323e+02
-3.443003573124858008e+02
-4.879742004868076606e+02
-1.327097049745710251e+02
2.544051156691546396e+02
-1.315670859814289543e+03
-3.405847731722449225e+03
-4.486161598310348381e+03
-4.493618994283917345e+03
-3.475148657401752189e+03
-3.060752624728577757e+03
-3.442399903216188704e+03
-3.394077179095097563e+03
-3.059799608407058713e+03
-3.131634669747349108e+03
-4.221527192570327315e+03
-4.652486643827021908e+03
-5.023478413777795140e+03
-2.269563976268992974e+03
-4.588027172074766327e+02
4.984526970285629943e+01
1.149420382011428501e+03
2.482919591118961307e+03
3.064358328098589936e+03
2.742752923246868704e+03
2.285142256847027511e+03
2.079538011109209037e+03
1.401938743690335741e+03
1.334381883036872068e+03
1.454833449777871238e+03
1.611197118439184123e+03
1.200520619431227260e+03
1.181860367088591374e+03
1.526214226533934152e+03
1.193583528416986610e+03
3.089623501950554783e+02
-2.906015852652892590e+02
-9.308951681059889438e+01
7.593813164240652895e+02
1.053705434086439482e+03
8.299764282136934526e+02
6.893345261154678383e+02
6.327784070840062896e+02
1.581300675261737069e+03
2.128956393798698173e+03
2.363699189445760567e+03
2.122587238507346683e+03
1.494636599818584955e+03
1.207857593109773916e+03
7.002077688397217798e+02
5.962653772801255059e+01
1.301864812882528213e+02
3.439820537493399684e+02
4.308105906920926031e+01
-2.805687875324169340e+02
-1.012018278240441987e+03
-1.304280210538132678e+03
-1.887345799159449371e+03
-2.198180277089310493e+03
-1.759858458593814248e+03
-1.560325437564917820e+03
-2.705178125424349105e+02
1.164501163117317901e+03
