1.317117619615969943e+03
2.474346661319113537e+03
2.560071186862113791e+03
2.783280334307326939e+03
1.969195558566308648e+02
-2.493020412857057181e+03
-1.955105490602760909e+01
2.522373826874452789e+03
1.905773267778676882e+03
1.104697762296383189e+03
-4.418967085162095714e+02
-2.771231563271374512e+02
3.971134599161542837e+02
5.288921967656023782e+01
2.751442444898653434e+02
8.849359460443271246e+02
1.474312746102842084e+03
2.027293342051453010e+03
2.310855893953783834e+03
2.333037774862138576e+03
2.766796109877694107e+03
3.166130808169983993e+03
3.630108513182085971e+03
3.954861407536299794e+03
3.477575826727289495e+03
3.217487825613161476e+03
2.703286410353565770e+03
3.147256197531283419e+02
1.291740667345321754e+03
1.393595836281790525e+03
2.403985599214341278e+02
-5.928776571474894581e+02
3.514485962417724636e+02
3.974817994519644344e+02
7.617977825744404754e+02
9.576077726566184083e+02
1.198011663579003653e+03
1.488396979733517355e+03
1.694017196022757389e+03
1.968542442670017635e+03
2.120404974891679558e+03
2.095890450367639005e+03
2.078291413080310122e+03
2.471948250010606898e+03
2.792452241301549293e+03
3.103258056830748046e+03
2.732538669616818879e+03
2.421250675936958032e+03
2.170421000559213098e+03
1.975901801603197327e+03
1.317249466565338253e+03
3.460179853940828707e+02
1.299355464720755720e+02
2.386809224892183465e+02
5.078725732248545910e+02
9.297971247116674931e+02
1.473421381907954355e+03
1.978727603073908085e+03
1.739540808169435650e+03
1.871761145077688070e+03
2.648390550696679384e+03
3.101433427108187971e+03
3.177958235215581681e+03
3.423960765332604296e+03
3.127370266315161189e+03
2.871272699910101892e+03
2.941695433779832456e+03
2.476694196371199268e+03
2.064199349779506974e+03
1.537917529538047120e+03
1.054627353208319164e+03
5.744331706409401477e+02
4.963532828916418111e+02
1.674109375777624962e+02
-2.547372945856412940e+01
1.925665197470208909e+02
4.766296745884437200e+02
1.237670984814117446e+03
1.677587016045279597e+03
1.795439945982310519e+03
2.355281505794323948e+03
2.059189025577116809e+03
-4.947921205397610152e+02
-4.707676705884462535e+03
-8.269544032775691448e+03
-8.150597224562529846e+03
-8.384994176532556594e+03
-8.499675552343302115e+03
-7.995541464586365692e+03
-8.531592032291877331e+03
-9.121737253633820728e+03
-8.275997494039791491e+03
-9.134621193349563328e+03
-9.991254524642976321e+03
-1.026956238919578391e+04
-9.565067461184398780e+03
-8.844805333585542030e+03
-4.015775407996930880e+03
-3.460002783897982681e+03
-7.327507644668280591e+03
-7.468415711489706155e+03
-7.141747865466947587e+03
-6.721450099094748111e+03
-6.354416064322345846e+03
-1.543526171756403073e+03
3.210222034032462489e+03
7.064485076609817327e+01
2.299713658782580751e+03
4.171528342115567284e+03
4.244214504267141820e+03
3.619519350885077984e+03
3.337398749365213462e+03
3.066987222229658073e+03
2.792296172081864370e+03
2.621450416897488594e+03
2.703594884092905886e+03
2.933582199247325207e+03
3.141377614511048705e+03
3.527034093042842869e+03
3.809638901074978094e+03
3.583256636243060257e+03
3.372012740641019718e+03
3.302866463493871379e+03
2.741786205547211921e+03
2.005721595791060508e+03
1.253697828332556355e+03
7.188459025610877688e+02
5.722089233686800753e+02
3.288212513036052655e+02
-1.152325093570780155e+02
-1.588630903040807141e+02
5.398868791341089945e+02
1.477958914761657070e+03
1.140399722330147824e+03
1.112612383894964552e+02
-2.144456214837096866e+02
1.293631639155097730e+02
3.077469667645090681e+02
3.158087620369522597e+02
4.796587057226723800e+02
4.292288691484860124e+02
4.885607090663662007e+02
1.036715584852317079e+03
1.961761446014475496e+03
3.097743433831649327e+03
3.534866498477601453e+03
3.047285237466793660e+03
2.164204145889423216e+03
1.219370473834991344e+03
-1.350676173946935705e+02
-1.851914362899913158e+03
-3.146069764948719239e+03
-2.882456808011513203e+03
-1.475128395921466108e+03
-5.100228103319150819e+02
-8.421673017635682754e+02
-2.039879329684589720e+03
3.081002347376357875e+02
9.557278310265943446e+02
1.043094527859624122e+03
1.124896520892007402e+03
1.558426093366306759e+03
1.535664692420570645e+03
1.635648826508670481e+03
1.561400582969794868e+03
1.196004378043998031e+03
1.580516691306031362e+03
1.556953463283731253e+03
7.273703341877434241e+02
-6.742517078698538171e+02
-1.615924920845637644e+03
-1.930609594057431877e+03
-1.624302805449960488e+03
-8.689641518351808145e+02
-4.235557522809209559e+02
4.396227544677709886e+01
4.545911212519723676e+02
3.483182432711096226e+02
1.981825272878677424e+02
2.522622604222698328e+02
4.855844257970550757e+02
4.392731536723308068e+02
3.923847975193799584e+02
1.004855191260300785e+03
1.520693666054438609e+03
1.336882436364668365e+03
8.024474982170811472e+02
2.854732476565978914e+02
1.499292473626599929e+02
-5.372163801261758636e+02
-1.125944654023020576e+03
-1.208257315366043031e+03
-1.055121414646047469e+03
-9.666239461528446100e+02
-9.028141503292978314e+02
-6.286549181992021431e+02
-4.521004536913939660e+02
-2.062171075292829983e+02
3.659990053144720150e+02
8.175853286210738133e+02
1.223567014021746672e+03
1.103893262507760255e+03
1.042537137895236128e+03
1.157577715719579828e+03
1.121936936880258827e+03
7.265582703982620387e+02
2.554879501984559056e+02
-3.032445418765575482e+02
-1.279668418003539273e+03
-9.488294059327067771e+02
-6.787712427569362035e+02
-1.135492202441810605e+03
-1.762056254694637346e+03
-1.863713904210595047e+03
-1.548362071783031297e+03
-1.196085859358587413e+03
-1.060872516040048140e+03
-8.987567581265559511e+02
-7.627791845476216395e+02
-1.208989921683613147e+03
-3.193352362230012204e+03
-3.764717992193824102e+03
-7.613991057419483468e+02
2.519484882908068073e+02
7.771258680328595574e+02
1.080025716545337218e+03
1.243188556971666003e+03
1.374284583423703452e+03
1.799378504855511892e+03
1.249925901082255223e+03
3.613836430932830126e+02
-7.626007649954540568e+01
-2.520032598625018494e+01
-6.709207374673949289e+02
-1.145128029779408507e+03
-1.494162090149754704e+03
-1.217740762232215275e+03
-9.901198991813884049e+02
-8.007016006257675826e+02
-5.679410794177919115e+02
-1.195173675820755761e+03
-1.441929326918829020e+03
-1.311674307160933040e+03
-8.836348936085389596e+02
9.146101777362858911e+02
2.897791572607487524e+03
3.704602651341712772e+03
3.054424887007713096e+03
2.596903557780051415e+03
2.012897074018545709e+03
5.906230277601789567e+02
-4.128527799433363157e+02
-2.460087268779964234e+02
-2.172034813167747984e+02
-2.338128759189888797e+02
4.711127190810073557e+02
7.455080579514393548e+02
1.746658429176940899e+03
3.344000448941666946e+03
4.821875872516059644e+03
5.130498278138945352e+03
4.813002628446530252e+03
4.411719365748104792e+03
3.910230921126331395e+03
3.636209969935542631e+03
3.942823570266907609e+03
3.681981470927840746e+03
1.787780649229145183e+03
1.086113546632923772e+03
9.668958197506099168e+02
3.511216748363890616e+01
-4.693514726690557382e+02
-4.485779050471338110e+02
2.837903769620516670e+01
6.615089032911911318e+02
1.381798548199218430e+03
1.295220207838587612e+03
1.075754600842051786e+03
1.691390354643348928e+03
1.870121604387919660e+03
1.861970379104127915e+03
1.816984733552480293e+03
1.585158254365886023e+03
-3.416125532926213850e+02
-3.483297191064347771e+03
-2.759737910973690759e+03
-1.672853814015574699e+03
5.713838683178782958e+02
-1.921611991387047169e+02
1.343350651286177708e+03
-2.853902820517043438e+03
-5.183012395964841744e+03
-6.338974811105970730e+03
-8.977988151828052423e+02
-2.797501315581356266e+03
-6.586058060702041985e+03
8.675591556200117793e+02
2.037419968853365162e+03
-4.444423207163021289e+03
-7.248918303319801453e+03
-3.207094594922616579e+03
-5.194906317250349275e+03
-4.913312151440788512e+03
-4.442208357890599473e+03
-2.466573186559181522e+03
-1.806360747248290863e+03
-6.671524505363739991e+03
-3.770987276334780745e+03
-2.700672404471507889e+03
1.861438725453007919e+03
2.617319452050508517e+03
2.235044419805005418e+03
-1.106328059203310204e+03
-4.817479514809592160e+02
1.002797962642003199e+03
9.443999266792415028e+02
-2.899229281544901937e+02
-1.038137021959501226e+03
-1.298119296754982088e+03
-1.529785611256197626e+03
-2.322085564181603786e+03
-2.270835899183191032e+03
-1.346973234375656148e+03
1.000546924851679478e+03
3.685804879741577224e+03
3.568906419108340287e+03
1.122937597307141687e+03
1.869514526805184573e+02
2.170459110522480159e+02
6.692963260257097318e+02
3.517553956627579055e+02
-1.430525705811872513e+03
-1.285491341042325985e+03
-1.255061870916759744e+03
-2.611237162785902910e+03
-3.277933092228335681e+03
-3.478059391472571861e+03
-2.713483614661073716e+03
-7.730476785683283651e+02
1.637509715143048197e+03
3.822364119926498915e+03
3.993555853707835013e+03
1.884867633887684633e+03
3.347545963013459414e+02
-2.026480886779730781e+02
-5.432894381483210964e+02
7.039858663854929546e+02
2.167373160422883757e+03
-2.432965589216058788e+02
3.510850463862838069e+02
-2.544321168339125961e+03
-1.065482584925797710e+03
-3.934342640003548013e+02
6.368470216433959195e+02
1.948030661525555161e+03
3.146501241493374891e+03
2.612946356389375069e+03
1.393737956518448755e+03
5.587234101163013520e+02
7.002938642729142202e+02
2.289522193216943833e+03
4.322243081990647624e+03
4.111658710871517542e+03
2.891571721632586559e+03
2.819721497806812749e+03
4.515493708503688140e+03
3.550949701167474814e+03
1.731040057954728354e+03
6.606556335628564511e+02
-9.031642655743066825e+02
-1.130400689017599461e+03
4.969505449474518741e+02
6.919158353968051642e+02
-5.750294325824315678e+01
-4.682937156306500697e+02
-5.234511598931771914e+02
3.400321258722637481e+02
2.052210421603771465e+03
3.209136755178297790e+03
3.711779054255597202e+03
3.005214925830509856e+03
1.844495678191814250e+03
1.109600452789788960e+03
5.925142974995333134e+02
1.471688735501903125e+02
4.685893675140066534e+02
1.523781531390098962e+03
1.870704467656841871e+03
1.232259220187239180e+03
9.313756440888408861e+02
3.881430547550841652e+02
-5.073973651037019863e+02
-9.273174939682139666e+02
-9.007254399428812803e+02
-3.386760108074746540e+02
1.321795047232476009e+03
1.718666702809510980e+03
1.553949493904813608e+03
1.826593232081695987e+03
2.096490181204553210e+03
2.160556099162914052e+03
2.192725259389057555e+03
5.929990853507235897e+02
-2.441624748544982594e+03
-6.850192245102175548e+03
-9.811737949475304049e+03
-9.706240452422753151e+03
-9.612724850518423409e+03
-8.948256281510266490e+03
-9.512979485059842773e+03
-9.667099216894464917e+03
-6.847776708652504567e+03
-1.892193479054601767e+03
3.911183063325793796e+01
-3.484327209016656525e+03
-3.602214533579551698e+02
-7.669123083910343439e+02
1.207439437239274866e+03
1.690578503734704100e+03
1.997705416264758696e+03
2.150004444571987278e+03
2.354407129032501871e+03
2.439622836987167830e+03
2.763481062108350216e+03
2.795925803081023332e+03
2.568936902482825190e+03
2.608493784438737748e+03
2.628493951744712831e+03
2.182791103147894773e+03
2.042254347407422756e+03
2.029723651992569103e+03
1.910158233867177387e+03
1.576457504579309898e+03
9.415014834608705314e+02
6.942123081042441299e+02
2.445091856826461481e+02
1.832927694435588819e+02
1.069476258073132840e+03
2.123051578526968569e+03
2.258940305264286053e+03
2.779018539557229815e+03
2.402229958457364319e+03
2.314534125842757476e+03
2.862854487633239387e+03
3.039119483751605003e+03
2.700221461585431825e+03
2.204141856347629528e+03
2.242815154845613051e+03
2.858158027644924914e+03
2.811045130469247397e+03
2.303385997255633811e+03
1.956139836436094129e+03
1.943208640340229067e+03
1.776505073640828186e+03
1.587957978053085753e+03
1.594477295304177005e+03
2.086011246078051045e+03
2.341517781894593099e+03
2.199008656678168791e+03
2.861432961695565155e+03
3.016737507363625809e+03
2.718897696640511185e+03
2.649895639003059841e+03
2.837698707993885819e+03
3.456275668942623724e+03
3.869623924914447343e+03
3.606608688123297725e+03
3.706184873714587411e+03
3.468364208671081087e+03
3.073142404887135854e+03
3.577461177680975652e+03
2.790245703873132243e+03
2.447449460102745434e+03
2.207061302156042075e+03
1.837087622850315711e+03
1.252371216254544379e+03
-3.528572407529919133e+02
-2.970428906053822175e+03
-7.775513623489382553e+03
-8.573419750445867976e+03
-8.378044117404633653e+03
-8.478330447268868738e+03
-7.791263392256848419e+03
-7.474825503179632506e+03
-8.120022423029658057e+03
-8.008920875919013270e+03
-7.425412957122072839e+03
-5.887436782184549884e+03
-5.475007916272967122e+03
-5.898149526950152904e+03
-5.878766644589763018e+03
-5.301846160852845969e+03
-1.137399880197841185e+03
-4.590439464907917682e+03
-8.272957652760791461e+03
-8.377940316804459144e+03
-7.826377409795533822e+03
-7.707145059415752257e+03
-6.766178135656177801e+03
-6.308455325732378697e+03
-6.366920890688443251e+03
-6.403659351281373347e+03
-6.279705390382537189e+03
-6.026964308786175934e+03
-5.089288921496846342e+03
-5.117617236190409130e+03
-2.705929906063901399e+03
8.299329497872195134e+02
-3.888026412059714403e+03
-5.917806025350062555e+03
-6.616327849547661572e+03
-6.330588958342877959e+03
-6.216601721419251589e+03
-6.044273659932729970e+03
-3.902611504133229573e+03
3.597308574199455052e+03
2.643533216719659777e+03
5.002308556316625641e+02
2.366549045884112275e+03
5.227547278901954087e+03
5.636306629442635312e+03
5.951929500745268342e+03
5.229433516923449133e+03
5.119902599785845268e+03
5.742495454913129834e+03
6.598349749860177326e+03
6.920392790755292481e+03
6.816782126675521795e+03
6.530547057741133358e+03
5.985668598166746051e+03
5.681156185293681119e+03
5.298021869781909118e+03
4.487290086984333357e+03
4.005084722021827019e+03
3.573459692642303253e+03
3.369410093076058274e+03
3.592005688779985576e+03
3.816325274217066180e+03
4.292437639800199577e+03
3.080279215987769931e+03
-5.779591519861535289e+02
6.843765431233770187e+02
2.690016727669892134e+03
4.112018930172383989e+03
3.982094890708484854e+03
3.443346571942375704e+03
4.392910448129428005e+03
4.586987147317869130e+03
4.616906331857896475e+03
4.444214331053146452e+03
3.867635537609718085e+03
3.173758184062018699e+03
2.518770066218988177e+03
2.255969925682581561e+03
2.105647064871068778e+03
2.249090544311487520e+03
2.066740725632274916e+03
2.026967821444994115e+03
2.132915182507701957e+03
2.441862544752803387e+03
2.531226128533236988e+03
2.684185916277726847e+03
2.916251106568101022e+03
3.018583073658705416e+03
2.975553190775920484e+03
3.159363800685323440e+03
2.611698844687183737e+03
2.465970248114922470e+03
2.610920573051993415e+03
2.990574671485086583e+03
2.932044929871337445e+03
2.482340664049922452e+03
1.670443617679874933e+03
1.039301563231602358e+03
8.719102931302917341e+02
5.382264145385041729e+02
6.126203663593638993e+01
4.670441376230222090e+02
8.295105735324457328e+02
1.229612785311258449e+03
1.172202442205410762e+03
1.489226122588106364e+03
1.794820759524290224e+03
1.761226936849719323e+03
1.905326861159866894e+03
2.464013032049883805e+03
2.495221650160631725e+03
2.240006255406809032e+03
2.071438503329035029e+03
2.039348649041590079e+03
1.555747940646900815e+03
8.207252999413120733e+02
-2.617583894840630023e+02
-2.827848303337764833e+02
-1.005019959251925172e+02
-2.049982840335611058e+02
-1.838394006901027069e+03
-4.936756702051799039e+03
-9.602975711140477870e+03
-1.050382344908529558e+04
-1.072032946793790506e+04
-1.058956806051058084e+04
-1.041854107729166390e+04
-8.606418709085352020e+03
-8.091389193504431205e+03
-8.794109342427500451e+03
-8.576487534919660902e+03
-8.274521792730587549e+03
-8.133583295427373741e+03
-8.278692893074981839e+03
-8.682939092214382981e+03
-8.513384866905371382e+03
-4.573091763285057823e+03
-5.856961406276946946e+03
-9.998943044995474338e+03
-1.015206639032559542e+04
-9.958446728024760887e+03
-6.962158338336485940e+03
6.467115762320638623e+02
-1.843682458768173319e+03
-3.517270538707328797e+03
-3.671352159386733547e+02
2.317576852385128404e+03
3.695033740242771273e+03
3.674351228697405531e+03
3.740479795579541133e+03
3.637442694859737912e+03
3.270135247030899791e+03
3.147378366639182332e+03
2.954215744913259186e+03
2.676703710993780078e+03
2.475846141978600372e+03
2.125603443489450910e+03
1.746885868720610233e+03
1.877595206366629554e+03
1.621701890739927421e+03
1.742240453990769311e+03
2.272324228571451386e+03
2.470042469661240830e+03
2.668425706792452274e+03
2.410497520210989023e+03
2.469217572471320636e+03
2.529550766940887115e+03
2.666450100733436557e+03
2.650966921937204006e+03
2.467226360470334384e+03
2.555183803517832530e+03
2.697871833549152598e+03
2.891325779070351473e+03
2.825490422519153981e+03
2.360352143967599659e+03
1.630834178539297682e+03
1.177820170896606442e+03
1.149416621078522894e+03
1.166692659448002587e+03
9.516344890786231190e+02
8.122563577916665736e+02
9.685393484617077320e+02
1.407456050319554606e+03
1.682092026501939017e+03
1.538922581054598822e+03
1.371363204914368680e+03
1.564446622428483806e+03
1.514958784891141477e+03
1.509964831769820648e+03
2.029335105826778545e+03
2.305205320014248173e+03
1.202608542884395320e+03
-3.246718542249539496e+03
-2.366986294960606301e+03
-2.769604217927857007e+03
6.010874886056328705e+02
5.477178583062355983e+02
-7.243535375974558974e+02
-4.521325283231936737e+03
-5.816048026270051196e+03
-3.465657618150353755e+03
-4.261145863341637892e+02
4.762502746296903666e+01
2.425889555209903392e+02
4.978052465420427097e+02
7.293277502648892323e+02
9.982137142879606699e+02
1.291482131724200144e+03
1.339145416639580617e+03
1.484282995436847386e+03
1.288857798935371875e+03
1.556854389963086533e+03
1.877326937976364434e+03
1.877305857619390736e+03
1.457816535189097067e+03
8.978754650936726875e+02
1.785075060646912846e+02
-5.483157185023167131e+02
-6.786479748851467093e+02
-8.075162524987482584e+02
-7.608056249731752132e+02
-2.855471091569699524e+02
1.533695581272740185e+02
2.399507026194704906e+02
3.021758796597430887e+02
2.641008170834310249e+02
2.978012328757802152e+02
3.942942757183478761e+02
8.555751549333614321e+02
9.525844637214568138e+02
7.483439709100576920e+02
8.939335932207393398e+02
9.213672764006432772e+02
5.866223958734641428e+02
1.756997203826029761e+02
-2.924109236586576230e+02
-7.887329531814989423e+02
-1.154322598554923843e+03
-1.228140589484473594e+03
-1.280146056556272924e+03
-1.197409745173601777e+03
-9.198994393144341757e+02
-6.375798140548914716e+02
-3.344252261461522835e+02
-4.945543342293606059e+01
1.523124532316282682e+02
3.829045482003619441e+02
5.603682219085496854e+02
5.876718062117724912e+02
6.548277467354234886e+02
7.977713795860740902e+02
7.795402468811990957e+02
5.631430801473555903e+02
2.514213235708589309e+02
2.875699396103838694e+02
-1.749460358926687150e+03
-1.523621734634893528e+03
-7.177571732273424914e+02
-8.119039948406347094e+02
-9.148177207389312571e+02
-1.155809466490692330e+03
-9.669555905348047418e+02
-6.652305362045767652e+02
-1.817189351275168576e+02
2.616016347698978279e+02
1.288159531813522278e+02
2.308441115672897865e+02
4.586170811525995532e+02
6.040164138036141139e+02
6.880533868223677700e+02
1.015778954965950334e+03
1.343104470955702709e+03
1.267944918174139502e+03
1.331939638310675946e+03
1.138642522678976320e+03
6.781240880679813472e+02
-1.318875126305266292e+02
-9.104946058721656073e+02
-1.191742128422714359e+03
-1.387720515148481581e+03
-9.763955222109223087e+02
-3.877710493702746817e+02
1.012675690968868913e+01
3.232752088066337706e+02
5.526717210518189631e+02
1.103222482885299996e+03
1.070988519165846810e+03
1.381718833454024889e+03
1.182248554996966504e+03
1.413210842902687773e+03
1.970398063894344432e+03
1.906694362497529482e+03
1.779033704095518488e+03
1.821374278715951050e+03
1.979640296405559411e+03
1.291659230879421330e+03
5.398969509660173571e+02
7.987668225172656378e+01
2.869499625274575294e+01
-2.839906712428717128e+02
-6.683081791606098250e+02
-4.339408045984372393e+02
-1.180115412592749067e+02
-3.347509144241045220e+01
-7.023408457598986843e+02
5.353496198690671690e+02
7.265812893788703377e+02
1.333361760099350249e+03
1.967678149267670051e+03
2.195562827213952914e+03
2.394016422431360752e+03
2.346012184082456770e+03
2.120550968011546502e+03
2.000639927110217286e+03
1.623293678496135044e+03
1.269501126593512481e+03
6.532060439822917033e+02
2.737584152861956710e+01
-6.120144489534633294e+02
-3.431145805202159863e+03
-7.349537803024149980e+03
-5.717038876293077010e+03
-4.228148884515363534e+03
-1.434816219681409621e+03
-8.889282513196201307e+02
-2.561491346437011543e+03
-5.954634598638418765e+02
-2.684928510883427407e+03
5.916088927755872362e+01
-2.785197601298471909e+03
-2.832990580775042872e+03
-2.609195493086253009e+03
-3.056773586305270783e+03
-9.607019313455496103e+02
-3.060024741522263980e+02
-5.220727638903624211e+03
-2.668893924503920061e+03
-9.244649952162014870e+02
-3.467436551735056582e+03
-5.688576754128447419e+02
-5.358748709010792481e+03
-7.091040456267578520e+03
-3.171729457410247051e+03
-2.880821487087517198e+03
-3.320261639669867691e+03
-2.535011260390298048e+03
-1.435080743537955186e+03
2.416624618854156324e+03
2.294077979124693684e+03
-1.525738160875516087e+03
-7.178349235658890848e+02
1.781797231479289621e+03
3.237213607692134246e+03
2.867463386622857342e+03
2.666514446217581735e+03
2.280348406421634536e+03
2.043966884293174871e+03
1.483399691556946209e+03
8.595777435338666237e+02
6.635052299688856010e+02
5.392115107065902748e+02
9.306951408904770915e+02
8.219528323085962711e+02
1.376018157769996833e+03
1.815962908117968254e+03
2.036762148999867350e+03
2.220361112461216635e+03
2.680847006401958879e+03
2.648268164311185956e+03
2.395589353290611143e+03
2.472813439659073083e+03
2.448937052588707502e+03
2.699998055867695257e+03
2.614000083424746663e+03
1.905731549669800188e+03
1.834121688458524204e+03
1.546378548462886329e+03
9.769361989683682168e+02
2.619470715511017147e+02
1.256163588120174808e+02
-4.528187818177697466e+01
-1.488406864992628300e+02
1.599802746100276920e+02
3.902135407124508788e+02
-1.065402990913727990e+03
-2.131839131363291017e+03
1.382084235173108254e+03
2.006338196451170916e+03
2.545899678737137037e+03
2.735980641724205270e+03
2.730334679438583407e+03
2.841595468392370094e+03
2.681015432007573509e+03
2.370319204059683670e+03
1.987826757091511354e+03
1.502821055650275639e+03
4.970583916201533725e+02
3.134037250387044651e+02
1.166858826883732689e+02
8.883207153395406408e+01
-5.898073672892844854e+01
-1.212258361786650624e+02
1.231269878102204274e+02
1.740955848813107991e+02
7.355826718208907096e+02
1.350596146837969627e+03
1.723147928069178988e+03
2.121242171759467965e+03
2.523886404429573304e+03
2.490053862681427290e+03
2.256723066657283653e+03
2.359864848798637468e+03
2.371461965869307733e+03
2.347545640847174127e+03
2.317067420942049466e+03
1.691968225475841791e+03
9.112842234336318370e+02
1.449698203775648153e+02
-3.610722272094437244e+02
-3.998440729020483104e+02
-8.333082181619754181e+01
-3.845093173533652475e+02
-4.993995986955362696e+02
-3.760088497574353141e+02
-1.633509433072957791e+02
6.666065999837638856e+02
1.205872152268008904e+03
1.849449392612641759e+03
2.447297690145022898e+03
2.612411490811889053e+03
2.927794114867217559e+03
2.742471765446945028e+03
2.193462549499045963e+03
1.696735791130295411e+03
1.222269150906445248e+03
6.620399408241794390e+02
-5.493247406317792780e+01
-1.755703818508316090e+03
-4.729288088976937615e+03
-9.821723152921134897e+03
-1.217399299729859194e+04
-1.219606181530443973e+04
-1.156192547200321860e+04
-1.114958468389948212e+04
-9.963971729981507451e+03
-9.895124270908307153e+03
-9.526037008045543189e+03
-8.515720780894118434e+03
-7.587126080746568732e+03
-6.179626128023403908e+03
1.624355936707303727e+03
-8.525127375524061790e+01
-5.256932027900907087e+02
2.462264402657295363e+02
9.626140388353528579e+02
2.431729616209117921e+03
1.917411674237242096e+03
1.381394817948669015e+03
1.099560003224209595e+03
6.970861064172739816e+02
5.690093650996211636e+02
5.603143796575654960e+02
7.120474479210378149e+02
1.118221758442680994e+03
1.472893056949140146e+03
2.173134194344144362e+03
2.472966350645419425e+03
2.441431589689175325e+03
2.747546373696389310e+03
2.978315909999212636e+03
2.867772836941498554e+03
2.997970119618464651e+03
2.924967359889997169e+03
2.516808573505833465e+03
2.147516845270249632e+03
1.495075687214869276e+03
1.208491889342314380e+03
6.578076410401968133e+02
3.049543994458906582e+02
-4.803512976130220835e+01
-2.491271827924363151e+02
-2.382417543045209811e+02
5.567256420893157554e+01
1.766441273140714827e+02
6.187419127733422783e+02
9.029951155442088293e+02
7.544294671202671907e+02
9.771277751720324432e+02
1.394110859629815877e+03
1.817439821137032368e+03
2.078152419606478816e+03
2.106260752681118902e+03
1.925828142526076363e+03
1.435894219360163561e+03
1.171489334332954513e+03
9.506236498699799995e+02
5.913046388083730562e+02
1.175524646436758474e+02
-5.356102071972029535e+02
-8.041708077175209155e+02
-1.126106443914532974e+03
-1.163380835686061573e+03
-8.779652228077368363e+02
-5.208256922111280574e+02
-7.492372542034480887e+01
3.547747457573993302e+02
-2.305055602736443063e+02
7.191683761256200569e+02
6.758109187688179418e+02
-1.256593966419850403e+03
-7.189883129492576472e+02
-8.353027822719266169e+02
-4.994422713558767555e+02
9.495303492925595492e+02
7.034960643136998897e+02
6.179505493750373262e+02
-3.444161549021524849e+01
-6.386673697312061222e+02
-1.040734297569491673e+03
-1.481665126956670065e+03
-1.653463438645100496e+03
-1.426147681238586074e+03
-1.155627486402164550e+03
-7.958853826676623839e+02
-2.728854343348199336e+02
-3.562569660482424183e+01
4.579393759566568178e+02
6.407921650989165983e+02
7.639274396263516564e+02
8.434021677142395674e+02
8.791893630579830869e+02
1.033276187647340976e+03
1.194687372299114031e+03
1.166478687480733015e+03
5.186549328437884014e+02
-1.138670313537613197e+02
-3.410640153841617348e+02
-8.019854088747899823e+02
-1.357672147295203331e+03
-1.803177512836980441e+03
-1.805492686311527450e+03
-1.822638667362373781e+03
-1.517660337484320053e+03
-1.273507361918100514e+03
-8.262146433923559243e+02
-1.977290279131669877e+02
-1.111110575974361936e+01
2.360406682444555315e+01
5.534798725670128761e+02
8.764992582187736616e+02
6.675982337232060218e+02
8.297236666374411698e+02
1.107922022883725958e+03
7.681897336942118955e+02
1.835022838484510999e+02
-8.142324531313888656e+02
-1.911040822130227980e+03
-7.789405641710476402e+02
-9.400356119268296879e+02
-1.569383093819454189e+03
-1.795025443456213907e+03
-1.641946121152683645e+03
-1.044305220272953875e+03
-4.750379468359185466e+02
-2.792552090497759423e+02
2.779282346067951721e+02
6.753615939917763171e+02
1.026463375325745346e+03
1.377216243085032147e+03
1.335542572417475185e+03
1.743288977089139280e+03
2.089440609902424512e+03
1.927197103237965393e+03
1.770155650979559368e+03
1.294570834915946762e+03
-1.602447980262176998e+03
-3.367389630039289727e+02
-1.276267226394159238e+01
-1.694755416507800874e+03
-1.792721166248733880e+03
-4.490174702088732488e+02
-4.403705759058033209e+02
-4.449839366046681448e+02
1.143198645612640973e+01
5.318099514185566932e+02
9.327745814139599361e+02
1.307723884354355732e+03
1.457302517150206540e+03
1.802787288612851853e+03
2.338864879546500561e+03
2.934969501001375647e+03
2.913447391098388380e+03
2.886016313765671384e+03
2.907847890563309647e+03
3.027503798063291924e+03
2.527669937675233996e+03
1.754606599255070705e+03
1.453123250694941817e+03
1.087022986378768564e+03
5.309187589511462875e+02
3.694336759000922825e+02
4.192308356248533414e+02
4.570288586223203424e+02
8.553660615804559484e+02
1.183200854242191099e+03
1.539953438220614089e+03
2.046829786590617914e+03
2.250325017468617716e+03
2.667033874795153224e+03
3.198247090704942366e+03
3.283242427291947024e+03
3.421913732731708478e+03
3.251102388843138669e+03
3.077699808325328831e+03
2.733633203963749111e+03
2.312056245217870128e+03
2.251852053918404181e+03
1.570941817258655874e+03
9.972628503470488113e+02
7.178242559646155314e+02
9.575117005772759740e+02
1.017306393653262376e+03
7.672059973617671176e+02
1.115251027134352398e+03
1.828438968028359341e+03
2.190803186768461728e+03
2.762402635595283300e+03
2.799241223462340258e+03
2.883355990207888681e+03
2.331741717159251039e+03
-5.005881150848182983e+02
-5.032589624231303787e+03
-8.254310360802544892e+03
-8.136761788491635343e+03
-8.198961276631600413e+03
-8.256847821581521202e+03
-8.174467674200019246e+03
-8.786785882666214093e+03
-8.546758382418736801e+03
-7.590498091981299694e+03
-7.950923815012331033e+03
-9.030791990968315076e+03
-9.133275695573407575e+03
-8.611659567461414554e+03
-7.983524495018213202e+03
-4.006941066407046947e+03
-2.631930568577211488e+03
-6.461466602858423357e+03
-6.910484274953587374e+03
-6.427900373333877724e+03
-6.501591066353308634e+03
-6.337537202570146292e+03
-5.569656381344698275e+03
-5.918754553596540063e+03
-4.945858825376404639e+03
2.422000336752634666e+03
4.052870675679392207e+03
-2.533189464831787632e+02
6.254130194552660669e+02
2.641013610233380859e+03
3.186539205705784752e+03
2.850071732089040324e+03
2.930665295602538208e+03
3.132377370602732753e+03
3.368335403409293576e+03
3.727592123962643655e+03
3.992224988495329399e+03
3.981289865259700036e+03
3.971787861464011257e+03
4.410831895861610064e+03
4.368520985127890526e+03
4.232884927163486282e+03
4.369000910036008463e+03
4.522952253284405742e+03
4.086769711989474217e+03
3.434447940576444580e+03
3.073073475718855661e+03
2.606682696726217273e+03
2.223406637428768590e+03
1.814304759975935895e+03
1.359397551897230869e+03
1.244732531564602823e+03
1.140298160244771907e+03
1.495146874223921714e+03
1.585316097829258297e+03
1.852801723952614793e+03
2.085678658536010516e+03
2.344012876480268915e+03
2.565956839175717960e+03
2.639569142832342550e+03
2.914942942937530916e+03
3.075233806130824178e+03
3.350448356232723654e+03
2.984606351718063252e+03
2.697668667094151715e+03
2.216766699999271623e+03
1.765320609392848382e+03
1.245587771338582343e+03
5.353443885811470864e+02
-1.823754603176257305e+01
-4.806324273137931868e+01
-6.711755209703056835e+02
-8.095353721295722380e+02
-1.416101845076678046e+03
-3.315219752213536594e+03
-1.341752619937832606e+03
4.474394784115070252e+02
2.091616700762833432e+02
9.382506188225027017e+02
1.207868738134312025e+03
1.364861814636550207e+03
1.577408913623743047e+03
1.417316608645549650e+03
1.481750956729559675e+03
1.233738100762582462e+03
9.202999475852286650e+02
5.855105389875576520e+02
-2.045417196038812335e+02
-7.869098770077293921e+02
-1.537671464680256577e+03
-1.903873802139143208e+03
-1.877516440227958583e+03
-1.745507033566452947e+03
-1.719868067560388681e+03
