-2.917469220590364785e+03
-1.872723479345417218e+03
-3.158671385030972445e+01
-2.878042486770466894e+03
1.709302162583003053e+02
1.281309942032391291e+03
-1.638668015115393075e+02
-2.953605094910065873e+03
-1.323890966873276511e+03
-2.018770861548123321e+03
1.611835193717147604e+03
2.279949484516812390e+03
2.094528501370517006e+03
2.841543303891475716e+03
2.459027462025718705e+03
1.610972319965617771e+03
1.268297965035147854e+03
1.128975063559621503e+03
1.390034787226243679e+03
1.243699096724209539e+03
9.001009997913299685e+02
8.828779088861886066e+02
9.181121511568514961e+02
9.783874527871780629e+02
8.008514342109286872e+02
8.886747738701786830e+02
8.547318564721421126e+02
9.690718739618358768e+02
-5.304770688431333383e+02
7.619606183061304137e+02
1.398671254839212452e+03
7.214399525457217806e+02
1.979268559722168675e+03
2.264856898984764939e+03
2.152655914528277208e+03
2.124049064963689489e+03
2.004522350611737693e+03
1.714232154467496002e+03
1.645194838845600998e+03
1.254305805155497865e+03
1.014690483125321975e+03
9.122537945310156147e+02
1.145029340719452648e+03
1.304894043476431307e+03
1.129016302192627563e+03
1.021731234603746998e+03
1.014457287691729221e+03
1.152227277232325605e+03
1.203002193440808242e+03
1.337631696974160604e+03
1.800651233111359488e+03
2.253534461670137716e+03
2.597124430435279010e+03
2.843443928395251078e+03
2.886562399872959304e+03
2.787688700947684993e+03
2.202619347411213766e+03
1.754521208394493669e+03
1.582817845532411866e+03
1.501606114975941637e+03
1.458277270459395140e+03
1.001295121844008463e+03
9.975218442197924560e+02
9.071598153690496247e+02
7.181502475964762198e+02
5.543868069151131976e+02
5.168346212422819690e+02
7.264949944823295027e+02
9.473540535860676073e+02
1.238395535801966616e+03
1.709658887915051309e+03
2.124135914848176071e+03
2.590779523679771955e+03
2.760607611673518477e+03
2.812608347780755594e+03
2.419674423118793129e+03
1.939760518189402546e+03
1.516948829977444348e+03
1.599208765216571692e+03
1.109513242148419295e+03
3.798669745742403165e+02
3.942053363882500321e+02
2.636011823406545318e+02
-6.159218781957167721e+02
-2.270483926430004431e+03
-6.179125758885545110e+03
-9.694875942390659475e+03
-8.734684641474044838e+03
-8.212529406203480903e+03
-7.455470636578281301e+03
-7.373461478762139450e+03
-7.311497477785560477e+03
-6.326553830269848731e+03
-5.302628167882430716e+03
-5.637642064358639800e+03
-6.525462690779301738e+03
-6.579048038591417935e+03
-6.715471885864976684e+03
-6.052984369287069967e+03
-1.544688579196372658e+01
-5.347887969995724688e+02
-3.477112618217113322e+03
-3.909428554391259240e+03
-7.374727711970418568e+03
-7.646989580541168834e+03
-7.288129249342609910e+03
-2.472141768869883435e+03
1.886941814051005167e+03
-4.098991036250880029e+02
-5.336969013133580120e+02
1.651541790711048407e+03
2.896064623599108018e+03
3.850946487870337478e+03
4.600134321833689683e+03
4.727667200729742035e+03
4.242554979872460535e+03
3.182874103337224369e+03
2.523668092029013678e+03
2.046863348692698764e+03
1.886437233696007297e+03
2.295313496671127268e+03
2.163584869437604539e+03
2.160353305351115068e+03
1.945654960596048795e+03
1.703594880170220222e+03
1.251143871593085578e+03
1.302203083736642384e+03
1.487852176742381516e+03
1.750298603421398184e+03
2.225536167986384498e+03
2.280504419944493293e+03
2.233271282232721205e+03
2.514960707940653720e+03
2.954537232436955946e+03
2.745078891868537994e+03
2.620730853374147046e+03
2.147480765663395232e+03
1.630228719345918080e+03
1.082037208978371837e+03
5.679809193670120067e+02
6.081074334994447099e+02
9.454368242173949284e+02
7.590444934875880563e+02
3.198931364986116250e+02
-1.710001385048567215e+02
-5.075783488146095124e+02
-8.927288330220509351e+02
-8.094451736930050174e+02
-1.007340465774666001e+02
5.335605287111162625e+02
6.218000427928366207e+02
1.160072836878865246e+03
1.537773148423026669e+03
2.063182360816676464e+03
2.733879086979330168e+03
2.148740915236985529e+03
7.781482425848135165e+01
-2.374937129001777521e+03
-3.945735748226899204e+02
3.110336280140854797e+02
1.362568523761350150e+02
1.211394773128660063e+02
3.004004770731010581e+02
1.386213187393108228e+02
-1.632043584746900251e+02
-7.430878092949963047e+02
-8.180013033096222443e+02
-5.429548864370663068e+02
3.095720603706562546e+00
4.416769477898984064e+01
3.262414547311615252e+02
8.137616431968920949e+01
-2.443744228259989484e+02
3.490810395361025371e+02
1.395759181956789234e+03
1.571666288380304877e+03
1.029756146170685497e+03
-2.970160827384881372e+02
-9.925512752368666725e+02
-2.099809886292009651e+03
-3.137834801410298951e+03
-2.686656553812238144e+03
-2.362255571491927185e+03
-2.369563728839253145e+03
-1.160571263044075295e+03
-4.783357932827828449e+02
-8.777178049072551858e+02
-1.644709912716945610e+03
-2.229449690347050819e+03
-1.588011984841130243e+03
-6.174106671092720262e+02
-7.460597016738819320e+01
7.164006179706619832e+02
1.070649858892633119e+03
7.511397484181685513e+02
1.564886559612889414e+03
2.109899353468256322e+03
1.740171814092999057e+03
8.826120594813171465e+02
3.921991124206507493e+02
-2.770994148612006143e+02
-2.133430098782125128e+02
-4.105086948789016787e+02
-6.786341734886019594e+02
-9.457019462878763534e+02
-8.547743114502012531e+02
-6.697625929020914555e+02
-5.666982831436195056e+02
-4.306585479025931136e+02
-2.556915233179435631e+02
-9.490031117020296847e+01
-2.262801922282625355e+02
2.132554378869105562e+02
1.517693215154542031e+03
1.830070693975768791e+03
1.484242406007427235e+03
9.062182789868124928e+02
5.349049349264186048e+02
3.312928790729609432e+02
-3.146502500360447243e+02
-1.535087868220279915e+03
-8.608526846654623341e+02
-1.106794015661248977e+03
-1.752090403880607255e+03
-1.274646286020471280e+03
-1.254920634767700221e+03
-7.498273876030744987e+02
-3.815461247762814878e+02
1.652816355628397105e+02
1.682743093720138745e+02
2.576982976028077701e+02
7.214002323395984604e+02
8.683373817682441995e+02
7.923952315282385825e+02
8.866519704643164914e+02
6.047254951189245276e+02
6.397575474419599004e+02
1.210771443671353381e+03
1.391975740881962338e+03
1.156959222378455934e+03
2.058373895722048417e+02
-1.205870899786564223e+02
4.868077454700804765e+02
6.798554151989189904e+02
3.593146586974980323e+02
-2.803494252065161163e+02
-1.144890286101014141e+02
3.669765320944669043e+02
4.488734853163975913e+02
3.964478203334361410e+02
-2.538808158317964683e+02
-7.872227356194319015e+00
8.908873638512797015e+02
7.456937807944611905e+02
1.632603926258386082e+03
2.407838761653566053e+03
2.367569981058034955e+03
1.793515307298863718e+03
1.190543777780771961e+03
7.275270635118563405e+02
1.377950666862805917e+02
-4.121604979027978857e+02
-7.712552348660638017e+02
-9.193104136208055479e+02
-1.110217828498394965e+03
-1.467314516632836785e+03
-7.693748239833106481e+02
6.102282876913491236e+02
1.409605968388399333e+03
1.615745866918244019e+03
2.015584649201868615e+03
2.669214779421669391e+03
2.628706775942655440e+03
2.210041716247259046e+03
2.432162092442133599e+03
3.439006776235378766e+03
3.277607800975529699e+03
2.845944488352487497e+03
2.575974583449144120e+03
2.321695374815666582e+03
1.770059537428883687e+03
6.690780130137285369e+02
2.297671137129657950e+02
9.161156375555555087e+02
2.032983700694822119e+03
1.172533322659148780e+03
-4.451274562399224237e+02
1.171837495851581707e+03
9.626692356415956056e+02
-3.899623742065950410e+03
-7.346004414022134370e+03
-6.450628827441702924e+03
-6.251495088882937125e+03
-5.902609029146540706e+03
-5.995933621239327294e+03
-5.976449265558234401e+03
-5.942116059373299322e+03
-7.210957072834111386e+03
-6.977976264411890043e+03
-5.826221667884045928e+03
-1.341671641423723486e+03
-3.323281738733269776e+03
-5.929017795093824134e+03
-6.188875069868588071e+03
-1.814868460257954439e+03
1.939051531065294057e+03
-1.848057875371624277e+03
-1.953261883051048699e+03
-4.963509643166911701e+03
-7.263719479785683689e+03
-7.034936990349425287e+03
-6.141106591978292272e+03
-2.300157086874462493e+03
3.380001654663567933e+03
2.314387264977001905e+03
-3.596546739699870443e+01
2.977910821317307636e+03
2.936027802969844743e+03
2.231499846247212190e+03
2.167278575582156918e+03
2.227371237725996252e+03
1.943827546023382183e+03
1.476685907159371936e+03
1.761964138292046300e+03
1.769653326114750598e+03
1.562813594819740501e+03
2.012488261475004037e+03
2.600698804489895338e+03
2.520489194667245101e+03
3.138847165932023017e+03
3.916796965877734237e+03
3.595406893707861400e+03
2.737769901868562556e+03
2.729948536011885608e+03
2.840999265692141762e+03
2.830900125323319571e+03
2.738708248775318225e+03
2.096484005837821314e+03
2.450189777499123011e+03
3.170867315735026750e+03
3.090584618240932286e+03
2.361340381422065093e+03
1.500430246743888347e+03
1.446752166390582488e+03
1.548298713173988290e+03
1.022360683569476237e+03
3.979067600690436848e+02
2.203584610837978985e+01
-7.001874478747465673e+02
-1.835936896470253259e+03
-3.327247137060728164e+03
-1.147958013317874702e+03
1.235060084459820700e+03
2.078746107266041690e+03
1.264146269403671113e+03
1.653218136772565003e+03
2.934632809252191691e+03
2.962010211531343884e+03
2.542855068576072881e+03
1.685233150244727540e+03
1.040261040768796647e+03
1.452825034562486962e+03
1.764148971021745638e+03
1.354945306221495684e+03
8.504905855300769417e+02
-2.961932155337780728e+02
-2.131605338190598559e+03
-1.496542122510996478e+03
-2.589989317134970292e+02
1.459957236156449198e+02
4.943304861858365484e+02
4.131175877907730865e+02
1.230399845558310972e+03
2.903230583241714612e+03
3.495588025055818434e+03
3.310490730427110975e+03
2.166905039504096749e+03
1.438786879139465782e+03
8.701613875386617565e+02
3.460040897389465044e+02
5.853301214797746752e+02
4.391211388303090644e+02
-1.091612787797104602e+03
-2.207837279992988442e+03
-9.935726799795279476e+02
-1.784303748786049582e+01
-2.806740916981029841e+02
-2.940160258528584905e+02
4.421323804016743679e+02
-2.352448313342893016e+02
-3.101979342244540589e+02
1.060312076587639922e+03
2.189319915618199502e+03
1.701856484960423813e+03
1.234905688657144083e+03
1.226523736406598118e+03
1.099694823199571147e+03
1.129373930112324842e+03
1.333539020364798489e+03
7.441682473149498946e+02
-1.970761936371144429e+01
-5.071261788654855991e+02
-3.340814319994662469e+02
-3.495593127052908926e+02
-2.576579227602879655e+03
-6.077215697305388858e+03
-9.011489422254660894e+03
-3.683337485149354961e+03
-1.639824779110063673e+03
-7.974965047922846679e+03
-9.061794832764091552e+03
-8.217341870557611401e+03
-7.192534244990293701e+03
-6.397123079160963243e+03
-6.307021376837282332e+03
-1.916587223275214171e+02
1.457138536298619783e+03
-3.165654898859378136e+03
-1.689103626300262704e+03
-5.252384510500123724e+02
1.053935115487383655e+03
1.359411471132513725e+03
1.496246532067926182e+03
1.273391761816092412e+03
1.339820478832684103e+03
1.333495341194749244e+03
8.884728216009058315e+02
5.036964236721432826e+02
4.032362652570933506e+02
9.431184052036250023e+02
1.252243096061480173e+03
1.336570151495065375e+03
1.131151646950235090e+03
4.860802074124939622e+02
4.794280880064985126e+02
1.018150376879525879e+03
1.084283882733474002e+03
3.188414134381497433e+02
-3.663110490469194360e+02
-6.371678890775285709e+02
-7.527474312704523527e+02
-1.370164201932446076e+03
-5.840611958330562459e+01
1.700601722769604521e+03
2.162916447784671163e+03
1.905563016531129279e+03
1.518476457946589107e+03
1.060632604798524426e+03
5.510507621098408890e+02
4.416962887726292024e+02
5.675612245967114404e+02
9.207133919875502670e+02
1.562094943181477902e+03
2.335712802201231170e+03
2.154637463318396840e+03
2.154935931488972983e+03
2.007572103619527297e+03
1.438602207615350608e+03
9.289704222555508295e+02
1.706695736688586464e+02
-4.733012994028972003e+02
-1.404951172814476877e+03
-1.051305552206290031e+03
-1.653157956009177951e+02
1.730290648118302101e+02
1.557386465313641395e+02
-6.201979692705666594e+02
-1.464764134438142037e+03
-1.046948574949905606e+03
-7.717553420061767611e+02
-5.002173727367721767e+02
4.968583366182510730e+01
6.130027319983211100e+02
5.087993572938982538e+02
9.720725556475218809e+02
1.196806200340395208e+03
-3.219329074993129893e+02
-1.391694943692761228e+02
3.959889251319296477e+02
-5.921985914208665918e+02
-1.223838900872038039e+03
-1.269074033708879142e+03
-1.292864467625262478e+03
-1.238216343933751432e+03
-1.192081966426273539e+03
-9.064776745671103981e+02
-7.704301819526810959e+02
-9.108819743290771385e+02
-6.898505642724531981e+02
-1.003449088427695273e+02
-8.235323585306977634e+01
2.171080263163718485e+02
3.931234220705088092e+02
5.726616811574119765e+02
9.086515124417591096e+02
8.611670716546213953e+02
7.962402127549116813e+02
3.729183862471510906e+02
1.451389973580014896e+02
2.818949661959240238e+00
-9.540322911354777489e+02
-9.634039026154976000e+02
-1.552711055583432085e+02
-1.387073851292400661e+02
-2.477464941608210722e+02
-3.202896204183136888e+02
-2.193805196462092226e+02
-3.089351749718449014e+02
-3.880321448347557975e+02
-4.127303325123950799e+02
-1.399807392453312218e+02
1.731137645732407577e+02
4.975507680455456807e+02
8.033772006183040730e+02
9.886487528096439519e+02
1.155385789922366030e+03
1.155562184345275455e+03
8.881493716586289793e+02
5.991453915977538145e+02
2.565226829605738317e+02
-4.097871642533814338e+02
-9.928134937688046193e+02
-6.035381295884676547e+02
1.319364207268760936e+02
2.705479379502264692e+02
-3.777176824595775315e+02
-7.618229915995358397e+02
-9.237823404593108307e+02
-6.166839256404020944e+02
9.151209882485505887e+01
5.009001410593481864e+02
7.713623440277722239e+02
1.291807180951787132e+03
1.492285598803742687e+03
1.563821224817721713e+03
1.777389336791654387e+03
1.476961607797901479e+03
1.012531895533438274e+03
9.761642218013225829e+02
6.457810487960069850e+02
-1.684775833590930688e+03
-4.438661445036397708e+03
-3.315836150198289943e+03
-4.835285698543937542e+03
-4.886872323678765497e+03
-2.645137916966883040e+03
-1.983072646805821648e+02
1.042948592194371429e+02
4.457802054595806567e+02
5.083914163918677218e+02
6.960056801956909567e+02
1.235823042801104521e+03
1.884601754974667529e+03
2.252671586819546974e+03
2.556567036042132258e+03
2.411385427411714318e+03
2.265998348889589124e+03
2.075987612676676690e+03
2.087830359101983049e+03
1.975563443423157423e+03
1.484985700523550577e+03
1.179808991131929588e+03
1.413186480182063406e+03
8.671433586051989550e+02
6.642301725414324665e+02
1.218662699658373185e+03
8.466611672997299820e+02
5.841746988639089295e+02
7.021538641960307814e+02
1.098402623009103991e+03
1.446937494100681761e+03
2.211607629894016554e+03
2.361361143176599398e+03
2.320089231065636795e+03
2.971017583317814115e+03
3.119027063605204148e+03
2.865970503959601501e+03
2.671878315163543448e+03
2.514733599405310088e+03
2.236515860997096297e+03
1.595157628411314363e+03
1.262578935875566458e+03
1.157796279290751727e+03
1.186755971982691563e+03
1.465452315643646216e+03
1.358942593224049006e+03
8.471441539322523795e+02
5.980046859281665093e+02
5.936324099652737232e+02
7.940855190058505286e+02
1.341270339352962310e+03
1.790175120211009698e+03
2.039803600420659222e+03
2.346195590566147530e+03
2.496403715296632072e+03
2.693348659043176667e+03
2.515990064505448572e+03
5.703920241435811249e+02
-1.438409110140898747e+03
-6.641373558566247993e+03
-9.163570223026643362e+03
-8.825044043348656487e+03
-8.777720626117818028e+03
-8.286591971453633960e+03
-7.059688996886034147e+03
-7.162774029487859480e+03
-7.804872169432400369e+03
-8.072939225131067360e+03
-7.655271980936174259e+03
-7.505822786157016708e+03
-7.040495902676836522e+03
-6.333207852891454422e+03
-3.331018465315275989e+03
2.804042278627035557e+03
-6.288383250236415023e+01
-6.407563047030598682e+02
-3.934537401067655537e+03
-6.976164808313371395e+03
-7.056706088026583529e+03
-5.665169646866909716e+03
9.525034366556342320e+02
2.413334930293751768e+03
-1.058579258440083322e+03
2.878784659393968468e+02
1.435535556322600996e+03
2.403402121289098886e+03
1.937562593307352017e+03
2.312059672909300843e+03
2.585991096788043251e+03
2.762302035424799215e+03
2.812949045020243375e+03
3.150988393986350729e+03
3.335555588113352769e+03
3.603808673102763350e+03
3.740754553550710170e+03
3.688421280539539566e+03
3.579841924055670461e+03
3.084994205594226514e+03
2.265977469158622625e+03
2.256959616667347291e+03
2.171914254080556475e+03
1.902707727741213375e+03
1.571355603871402764e+03
1.518950743110334997e+03
1.401551391248633081e+03
1.481158450205471581e+03
1.189908770037098066e+03
7.338395431045595387e+02
7.618815555425366028e+02
8.310769790093543179e+02
5.575874065437476474e+02
9.204053098460951787e+02
1.132558775587525815e+03
1.414134266098930539e+03
1.967160900749302073e+03
1.901671420346993727e+03
2.007759175338249179e+03
1.515476304905365623e+03
1.144861199934515753e+03
8.368100671878447656e+02
7.762275750153261242e+02
5.693013397362012711e+02
2.415829577476395684e+02
3.512191044878589992e+02
2.677048125141218975e+02
2.758053736834757430e+01
-4.082180813493765754e+02
-9.371213953169626620e+02
-1.903763727211325204e+03
-1.503190944009285204e+03
-7.133671472003245526e+02
-8.881034701295280911e+02
5.153606065048575147e+02
1.156040930753195425e+03
1.311018418258996007e+03
1.425017194708489569e+03
1.218317270042815380e+03
7.457960152934668940e+02
6.114127554096232871e+02
3.051590237457725721e+02
4.508971634236458215e+01
-3.178442525330722788e+02
-3.646304554086628968e+02
-8.612107984600995678e+02
-1.005576781228204709e+03
-9.267245776984663053e+02
-1.144717292269945119e+03
-1.205508791380442517e+03
-1.296039006955773630e+03
-8.972915673281714817e+02
-4.662050526371938872e+02
-1.138504925996617914e+02
1.837168082912346847e+02
5.625475702971822329e+02
7.497385511183615563e+02
1.097266386870543329e+03
9.871255855673445012e+02
7.643253457298799276e+02
3.518835508256269691e+02
-2.764006693925954323e+02
-8.566243974534455674e+02
-1.249732308044032607e+03
-1.318690819546733792e+03
-1.166521291305125260e+03
-9.801609018626046463e+02
-8.066164627773864595e+02
-1.082928300834429592e+03
-1.275123813694182445e+03
-1.074225978359421333e+03
-8.933173774163159351e+02
-7.284054954146828322e+02
-3.584606350325197468e+02
-2.785233017664072008e+02
1.934361733523046212e+02
6.554373746096372315e+02
7.524730608652566843e+02
6.325346985597232106e+02
1.805802394510784552e+02
-4.884271163870998862e+02
-5.846285916576308637e+02
-6.980507162488837594e+02
-7.327291637293288886e+02
-9.547044648601189465e+02
-1.073934797936316272e+03
-1.509460997718299041e+03
-1.551386640139258134e+03
-9.547545448986687688e+02
-8.975674752832177319e+02
-9.989069005757648938e+02
-6.887821818720994997e+02
-3.581717225371243671e+02
-1.741911507307428906e+02
3.090828490916500755e+02
-4.713421912777237139e+02
-1.076215827159739092e+03
8.853764994765464280e+02
1.186372057733881320e+03
6.734930603022258992e+02
6.858133364353659545e+01
-2.438239562185154909e+02
-4.218828856180237352e+01
2.524361153170462444e+02
-3.705012673583815399e+02
-2.855544046556442481e+02
1.700844230048243944e+01
-5.241665679036908898e+01
-2.696854735929659910e+02
-6.488698821439785434e+02
-3.993845821404290177e+02
-2.471472096317718581e+02
-4.248431897633949461e+02
8.114693573882297528e+01
7.085916055288253119e+02
1.222600433216163083e+03
1.507408560781897449e+03
1.795466579610092367e+03
1.993130779829628182e+03
1.845628830243976836e+03
1.560634306322315524e+03
1.019982529428030716e+03
3.449698267875647844e+02
6.241951115364547604e+02
2.679256454407504293e+02
3.401229701041075941e+02
3.413009322973630901e+02
5.047376330432241502e+02
4.704919058914142624e+02
3.253553650402968742e+02
3.496152544311478323e+02
3.769442972096700828e+02
6.670808234946830453e+02
1.289381368544243514e+03
1.886736505930017756e+03
2.127889777462472921e+03
2.495182666708135912e+03
2.873783063023663999e+03
2.760379461186111712e+03
2.326835557996373154e+03
2.014128946157559312e+03
1.620555710996760581e+03
1.553899742659185449e+03
1.185060441873224590e+03
9.910703698354153630e+02
1.106906322522141863e+03
6.735319353736977064e+02
2.619220036816409447e+02
8.930445595036476334e+02
9.649220059796474516e+02
1.086568297676643624e+03
1.076947361949225979e+03
1.313055443376710855e+03
1.644922429737430093e+03
1.917504720771492657e+03
2.047873374799061139e+03
2.625076672000603139e+03
3.116041295579187590e+03
3.116676657401213561e+03
1.959293799624257190e+03
-8.477025979472392692e+02
-5.209728371564267945e+03
-4.807777999959758745e+03
9.428859884729168925e+02
-6.544690060771404205e+02
-6.795010691266662434e+03
-8.152735482826213229e+03
-6.588619072984524792e+03
-5.726611950166860879e+03
-1.706752202561601734e+03
5.049961115155662128e+02
-6.076364509408815138e+03
-8.022808773788594408e+03
-7.148353075684693977e+03
-6.236915086106170747e+03
-6.147422286700413679e+03
-5.650852774093695189e+03
-5.486167737168048916e+03
-5.578304914021089644e+03
-3.593222270315282003e+03
2.188071250631934618e+03
1.814543322421165612e+03
-1.267732410933999063e+03
-5.515750442847869635e+03
-7.402543942696049271e+03
-7.640014034840089153e+03
-7.371125372132072698e+03
-5.444886280084997452e+03
1.231728635780869126e+03
9.807558423231704410e+02
-1.777830687318011996e+03
-3.809062131474472039e+02
2.028603777861360641e+03
2.841683864515851383e+03
2.654362530246494771e+03
3.305739934602559515e+03
3.768829217427909043e+03
4.029676750609291503e+03
4.487376893357967674e+03
3.888968699564361486e+03
3.321441804565406528e+03
2.805806982322596014e+03
2.571099485614967307e+03
2.604335591662427760e+03
2.475561072130491539e+03
2.072807424398668445e+03
2.074107920819195897e+03
2.245533473170023626e+03
2.022112154159207421e+03
1.785848544551947043e+03
1.465762301939962072e+03
1.565910497198153280e+03
1.753293850077774550e+03
1.935948912015418955e+03
2.154934636473687533e+03
2.537304659348576024e+03
2.661240998824813232e+03
2.964696112308694865e+03
3.066990212792764851e+03
2.641110539154339222e+03
2.300193217759608615e+03
1.567264278364287748e+03
1.494031584863221838e+02
1.097283108007532974e+03
1.037024068651963717e+03
6.317879397753116564e+02
-1.453707435428763972e+02
2.584562332951534245e+02
6.713122942931697708e+02
2.682830541375846565e+02
-1.107098102092246563e+02
-7.682315912461008622e+01
4.888490691706697362e+02
9.058780660042946238e+02
9.525045102506049943e+02
1.589347878481814178e+03
2.232272647382271771e+03
2.558334628128294753e+03
2.616444751653431013e+03
2.358377722868304318e+03
2.033560860358348918e+03
1.680757375658134379e+03
8.975853470216936785e+02
5.564026620844332456e+02
1.810121312130535216e+02
-1.175992153714998665e+02
-1.949294469397798935e+01
-7.464692702986610584e+01
3.995130338157834160e+01
-4.326966109944663117e+02
-4.486050988818597602e+02
-1.476239301321512620e+01
2.688139366004723456e+02
4.640986125394754822e+02
5.170864988293582201e+02
5.137567466115048092e+02
9.681649548454654450e+02
1.616374332256739763e+03
1.573345559731529420e+03
1.669036191188028624e+03
1.506453035761969204e+03
7.635852916123035357e+02
3.073447434397359643e+02
9.773480431499028498e+01
-3.752977546284874393e+02
-4.697515284062496335e+02
-3.646349088688469919e+02
-1.159596469648046764e+02
2.182693652767081858e+02
-1.939522647014443351e+02
-4.706793298332650011e+02
-3.159272838486552359e+02
-1.197179743303666157e+02
2.618902056316790095e+02
5.819141014111852428e+02
7.893351572946959323e+02
1.196178491763698275e+03
3.534391574512142711e+02
-2.901898361711668258e+03
-7.822887782827863703e+03
-8.977552866980026010e+03
-9.179936658900562179e+03
-7.555082358388509419e+03
-5.930026626542259010e+02
-3.237759789528239708e+03
-8.579353125683668623e+03
-8.371848561341979803e+03
-8.713213600024564585e+03
-9.030400896742743498e+03
-7.727546697548848897e+03
-2.068618172212864465e+03
1.224211862865812236e+03
-1.295007701557450218e+03
-2.429275595149824767e+03
-1.663329205596737026e+01
1.931922498335616410e+03
2.433440724148511890e+03
2.595902728487001696e+03
2.972252664233135874e+03
2.843471639073166443e+03
2.599526843227178688e+03
2.398371219366248624e+03
2.054017867416997888e+03
1.782393546300729440e+03
1.180475237938803275e+03
8.362268123892315543e+02
9.856167548813672283e+02
9.966708244783994814e+02
1.232360096427314147e+03
1.094622383474165190e+03
7.944780855943108691e+02
7.059174961297660502e+02
9.819037245680152637e+02
9.154429000216553050e+02
1.152472891268668718e+03
1.816002399726843805e+03
2.381057894394252799e+03
2.619675331039509274e+03
2.636864462349157293e+03
2.490641367105434711e+03
2.177910328136196767e+03
1.399678062495687755e+03
1.314932451394093960e+03
1.125611302162272978e+03
8.966662341412036312e+02
7.311592729369241397e+02
7.900722611390068550e+02
4.203969911301337561e+02
4.981677620928752503e+02
3.433470214459934482e+02
4.990351456951876230e+01
2.558560251581192233e+02
5.792197548409757246e+02
1.178987382195738746e+03
1.760129893684257240e+03
2.242685045772077501e+03
2.207700737172073786e+03
1.933238611901144623e+03
2.465257902353512236e+03
2.675628016834587470e+03
2.487303275803112683e+03
2.375349740439186917e+03
1.821418471992468540e+03
1.487398019239077030e+03
8.955385818223007846e+02
7.012347554095201758e+02
2.288412615332998143e+02
2.009852115149898566e+02
3.296456939242276007e+02
4.184168752362001698e+01
-1.091462204942078642e+03
-4.122147115527707683e+03
-2.067173721430380738e+03
4.194417329099946983e+02
1.485565612425575409e+03
-4.857385567106877033e+02
-4.246353493504256221e+03
-5.792258473788380115e+02
-2.015370505452379575e+03
-4.079761631306443633e+03
7.866025231825470883e+02
-5.912009370503716355e+02
-6.104244124856233611e+03
-6.452589481625154804e+03
-3.684264039240211332e+03
-1.153156522164560783e+03
-3.063229237447462765e+03
-3.857507783986190589e+03
3.670282930350902006e+02
1.054412783517411754e+03
-1.324372161419749546e+03
-2.307337575897785428e+03
-7.046130246295540189e+01
-4.647707190432158313e+03
-4.804121426892491399e+03
-2.255658163847921060e+03
-2.328234413680588659e+03
-3.310825361296603205e+03
-5.133760002178636341e+02
-2.492810767966800540e+03
-6.402191011785043884e+02
1.871455979708967106e+03
-1.815831457841853307e+03
-2.089061268819170891e+03
-1.114262008573520234e+03
-2.147417959157495261e+03
1.286464311214858299e+03
1.416405799145975834e+03
-1.844527116444012108e+03
-5.392653799384980857e+02
-9.985601939246110703e+01
-3.185277217923565786e+03
-2.220490790628172363e+03
1.688473646500434143e+03
2.295574390599729668e+03
8.158386645924937284e+02
-1.288637291337933220e+03
1.675109676775620528e+03
3.136078235224769742e+03
3.213359458399007963e+03
3.011978838519764849e+03
2.735876338058676083e+03
2.174935067499754950e+03
1.776308484351396828e+03
1.519242718644349679e+03
1.435489855044431124e+03
1.546951231879156694e+03
1.615625546896803598e+03
1.417447467771736001e+03
1.499497456614103612e+03
1.151818559173650328e+03
1.108370820139522266e+03
1.407122402529623287e+03
1.058013490228700221e+03
-1.226004994608728111e+03
-2.425088801045442324e+03
6.231930481889999101e+02
2.553243010487653009e+03
1.943428281484039644e+03
-1.411621996845341982e+03
9.963882686441916121e+02
2.428845268887671409e+03
2.102029654162417046e+03
1.958393998709897005e+03
2.004118961711824113e+03
1.421938680868263191e+03
1.430551974194898094e+03
1.484315239069145946e+03
1.440427879901032384e+03
8.281314330033809483e+02
3.941407584194179208e+02
4.794451190931506517e+02
4.222913733859064109e+02
7.253910925240929828e+02
1.472830712434404404e+03
2.125242772257317938e+03
2.515674529929273376e+03
2.728958656471959785e+03
2.717183479002243530e+03
2.622415133253272415e+03
2.481973092206425008e+03
2.259949399819527571e+03
2.049754429413023900e+03
1.586681915136832004e+03
1.264438298387117811e+03
9.368650246206046859e+02
2.540354359719385684e+02
1.091301326664483327e+02
2.786275358354112086e+02
6.155775417289471534e+02
4.683008623025789348e+02
7.267342197847456191e+02
7.027203224965491017e+02
7.922627420619778604e+02
1.548334938336478444e+03
2.008901682724036846e+03
2.126079001609772604e+03
2.101911459817486502e+03
2.205398955170859153e+03
2.388521058399699086e+03
2.362212438400144038e+03
1.710458954751158899e+03
1.019272213776219473e+03
8.925895815706888925e+02
8.933349606621180783e+02
9.635416817035591066e+02
8.752373663247466311e+02
9.754457056618609840e+02
7.641144352055772515e+02
4.202235062015239464e+02
4.567900011829511868e+02
3.827598872447734948e+02
1.461068933631859466e+02
-2.000119548495926438e+03
-5.275991668572949493e+03
-8.245453069596031128e+03
-7.539410171658911167e+03
-6.890890833766058677e+03
-4.631960760998430487e+03
-5.751505063217904535e+03
-7.125416431681685026e+03
-7.575632779933258462e+03
-7.367242755537107769e+03
-7.927296834986747854e+03
-8.508876952180213266e+03
-7.799043044670910604e+03
-7.815734353825219841e+03
-7.179807444473574833e+03
-2.965288908252249712e+03
9.107742270401191718e+02
-3.341648344759430529e+03
-3.586589206097637998e+03
-6.719014005204584464e+03
-7.148876792614493752e+03
-7.224159553553626210e+03
-3.501853982983819606e+03
2.901051786710972010e+03
1.721577470634174915e+03
-2.522104984147858602e+02
2.628806516170913255e+03
3.601613969615670158e+03
3.141162441341203703e+03
2.633473071665474890e+03
2.341559246735146644e+03
2.170413137656648814e+03
1.941033613060454627e+03
1.909468733752316666e+03
2.047722169366585149e+03
2.247744452388802983e+03
2.171575121682973531e+03
1.929314463127768477e+03
1.364034495092730594e+03
1.072742347935446332e+03
1.229307213311904889e+03
1.850746893759438763e+03
2.141185421764783314e+03
2.581637330590507190e+03
3.077155075309416588e+03
2.939748495016854577e+03
2.982525318595256067e+03
2.753576152014125455e+03
2.306929390835886807e+03
1.594509621367197042e+03
1.289252856652208720e+03
1.193143144192189311e+03
8.961713103526193436e+02
7.704356997902035573e+02
6.229588660370874322e+02
5.977180432636115484e+02
4.787535538128217354e+02
2.760536603999016734e+02
2.856536490856590831e+02
2.726091719015433341e+02
5.498479242302042849e+02
1.019375446569264227e+03
1.444397080783052388e+03
1.825600000063673860e+03
1.858806632019012795e+03
2.131968406856832189e+03
2.485000661929389025e+03
2.199684029998600181e+03
1.915514452375685778e+03
7.211348658397265581e+02
-6.855249292724565748e+02
6.981429491492278316e+01
6.516592871839505108e+01
-7.850898194990281809e+01
-4.335032411194866881e+02
-3.645971800226022310e+02
-3.289792370589187271e+02
-5.438873827798480534e+02
-8.059904273221565063e+02
-4.834795490204006683e+02
3.076078396062516731e+02
5.983234876677648799e+02
1.015601666530672219e+03
1.210435617519120115e+03
1.416888915953526975e+03
1.622995049539198817e+03
1.454739330242484584e+03
1.474148123979408865e+03
9.243166755369915109e+02
