1.128494927531223311e+03
1.931810837899454327e+03
2.250801601446642962e+03
2.165408356299013576e+03
2.970738002052954926e+03
3.836903917435552103e+03
4.033927948363551877e+03
3.772802808258191817e+03
4.205602966405373081e+03
4.625440054331695137e+03
3.805375452521730949e+03
2.801348788504200002e+03
1.788368890080990695e+03
1.305503770399656787e+03
7.908526201412754517e+02
4.793365045233416026e+02
5.800119085519484088e+02
4.890134123220901756e+02
2.807005642140244390e+02
3.348858463408697048e+02
4.154722955906131574e+02
6.026118246925894937e+02
1.056404762314780328e+03
1.463927778216907654e+03
2.099339280810111177e+03
2.957702718355230900e+03
2.821968867274835247e+03
2.453347237972083803e+03
2.336846736326774590e+02
7.678566728587862826e+02
2.866824225335487597e+01
1.500257015201686954e+03
1.705531142542306270e+03
1.118567488769037936e+03
6.808710921397346283e+02
5.290467261867456727e+02
-3.527760540420923121e+02
-1.107611503549261442e+03
-1.588667119476803691e+03
-1.661878127294466594e+03
-1.077394874456940897e+03
-6.203399423829241641e+02
-2.192737373104678227e+02
7.839816596712712915e+00
1.198903608996984985e+03
1.985965397580260969e+03
2.437982758014900355e+03
2.677888927923174833e+03
2.322792631732561858e+03
2.137856839886553644e+03
1.690039333388177738e+03
1.316165646685531328e+03
5.330194116059795988e+02
-2.964307914424634873e+02
-1.189048024914102371e+03
-1.373874117410394092e+03
-1.253887040213237242e+03
-1.519990365117645297e+03
-2.207102957515998241e+03
-2.751281546151289149e+03
-2.140639362555038588e+03
-1.533256376379808671e+03
-1.374156243514663629e+03
-1.167363962914356534e+03
-9.018072834398058149e+02
-3.074050341448840413e+02
-2.071714769571606212e+02
2.938552379818600002e+02
9.616488208882387880e+02
9.982356447120156417e+02
6.475995027837467433e+02
-6.336490086267310318e+01
-5.416337305463868006e+02
-7.352367704304139124e+02
-1.646231071230433827e+03
-2.708641926819896526e+03
-3.107391845029623255e+03
-3.303509186815352223e+03
-2.895145244416921287e+03
-2.327356952787429691e+03
-1.693162593015345010e+03
-9.615603705926930616e+02
-3.895871017541364267e+02
-1.182350250909113072e+02
-1.382468514566204703e+03
-3.272355348362388213e+03
-5.115923775490359731e+03
-4.507123467877115218e+03
-4.129979917554942404e+03
-3.179474887244338788e+03
1.113357176571389118e+03
2.920557853180193433e+03
2.544973144779505674e+03
2.083489488746188272e+03
1.861108490395243962e+03
9.261274679310790816e+02
9.311970379874699688e+01
-3.361142095982322076e+02
-4.223928234779521631e+02
-7.645770862984160203e+02
-1.432676746128731111e+03
-5.798688281361812642e+02
-3.963477052930555828e+02
-9.510197050886082479e+02
-1.239861540129280229e+03
-1.055866900981041908e+03
-1.179073344398840618e+03
-1.691437026934315327e+03
-2.428021165811506762e+03
-3.009800442558349005e+03
-1.662853114401390712e+03
5.207045503756578455e+02
1.964891976330100533e+03
2.166679069996419003e+03
1.412008765969438628e+03
5.007664122818212604e+02
-8.250647123710808728e+02
-1.347441703197629749e+03
-9.893873078452703567e+02
-4.669580988182538590e+02
9.497595131103015547e+02
2.206811234183351189e+03
3.220250355705130914e+03
4.284076141553166053e+03
5.218343094609179388e+03
5.431091328872507802e+03
5.526289991004131480e+03
4.723934741427538938e+03
4.049014767630090319e+03
2.923549219139133129e+03
2.474487656760344180e+03
2.140817396980088688e+03
1.307564239608085245e+03
4.977001691906213523e+02
-3.407736135007380653e+02
-8.539030978516724417e+02
-1.134745137476267473e+03
-1.312312887631311696e+03
-6.126067826555162128e+02
5.693622104515819728e+02
8.646170652569892354e+02
-1.138012689120749457e+02
2.614946239658236848e+01
1.608453773699332260e+03
2.106131778114751341e+03
2.148213523982737115e+03
2.591764092757061917e+03
2.606814133205627513e+03
1.725304518005683121e+03
1.404305873321030731e+03
1.441809064239380859e+03
1.314798924860373745e+03
1.009207354183224197e+03
5.660315408682635052e+02
3.414165839548414851e+02
-8.256949682297404252e+02
-4.499313383029527358e+03
-4.600350599048747426e+03
-4.442849371393910587e+03
-2.799919001115894844e+03
-3.161398463746868856e+03
2.767434911357842680e+02
7.049051183392508335e+01
-3.091084340786783741e+03
-8.229571379270117859e+02
-3.209851163757851396e+02
-7.501683403256256497e+02
2.049447634626052150e+03
8.149068585038786523e+02
1.726292436970586323e+03
-1.895404903238907536e+03
-4.271208323864275371e+03
-3.866039096304680243e+03
-3.926985150155102929e+03
-6.512009445136897739e+03
-6.406962036672844988e+03
-4.032936972800104286e+03
-4.899887816058130738e+03
-7.576745218385361113e+03
-5.129632467054210792e+03
-6.980551537405508498e+03
-5.635493184431320515e+03
-1.266424764205336942e+03
-5.012062583556207755e+02
-1.671755488053687941e+03
-9.990747427432939958e+02
3.698933938071140801e+02
1.640219925835594267e+03
1.089939904303934554e+03
2.414063557456162471e+03
8.995935261744000400e+02
7.535725582448810655e+02
2.433003368112413682e+03
1.541811848305093008e+03
-1.485021584568186654e+03
-1.508409299240591054e+03
-2.841262593954695603e+03
-4.839621844055262954e+03
-2.892468097435846630e+03
-1.294788322369178559e+03
1.314970301699936215e+02
1.273423286238139326e+03
1.262897177315032195e+03
1.915895045716713639e+03
3.381502302255874383e+03
5.242770173974139652e+03
6.375725521973193281e+03
6.007442613502058521e+03
4.720999011716964560e+03
3.600481185079358056e+03
3.306945413307502349e+03
4.009527309116965625e+03
4.798166180233996783e+03
3.964724225096670580e+03
3.592253507978932703e+03
2.787731499127264215e+03
2.398102051866182592e+03
2.417338023711450660e+03
1.222445839443014847e+03
-3.286533146575876003e+02
-1.059047983885541953e+03
3.251535064007642006e+01
1.026067105799511637e+03
8.675851417679840552e+02
9.101176812811731907e+02
2.006441032344114774e+03
3.053762275591808248e+03
4.060210923949770859e+03
4.265441664536767348e+03
3.696782375578918163e+03
3.564322392169992781e+03
2.765731684613795096e+03
3.941347360999724856e+02
-1.637463842028380441e+03
-3.396033112416792392e+03
-4.857730536015719736e+03
-5.648737055554634935e+03
-4.621051437769358927e+03
-4.449598594134929954e+03
-4.220280875587005539e+03
-4.272684254529725877e+03
-3.493372223707438934e+03
-1.250073998603213568e+02
2.306903504302345937e+03
2.798509141470134182e+03
3.090761386514433525e+03
4.185865962014760044e+03
4.021496678659049849e+03
3.544734915827707027e+03
4.570607351852439024e+03
5.325118799242623936e+03
3.743252016180598275e+03
1.839887987328721692e+03
7.360191145059542350e+02
4.165389702447135392e+02
5.239798546555396541e+01
-8.154148496500332612e+02
6.410457903147084835e+02
9.627206492183776163e+02
-3.336664586378525144e+01
1.498017095460947132e+02
1.312212005661414651e+03
2.121808572257851665e+03
1.819605699803381640e+03
1.596655751298207861e+03
2.039926336581979058e+03
2.729466933610121032e+03
2.593297966265247396e+03
1.937392991150412399e+03
1.761756268056402860e+03
2.395329791206041591e+03
1.675109602465527814e+03
-5.709636325366432175e+02
-3.596995186875482432e+03
-4.385972167707242079e+03
-5.344901931712889564e+03
-6.583851274589072091e+03
-7.845823980110332741e+03
-9.009789012995444864e+03
-9.364829789388451900e+03
-8.183936920150652440e+03
-6.147133225513865000e+03
-4.746472864697861951e+03
-5.888804267082100523e+02
2.981637715371282411e+03
3.067343817852226039e+03
6.107996151189030343e+01
-1.698120719882954972e+03
-1.975462371613428331e+03
-2.302877971166909447e+03
-7.903066886989230397e+02
-2.867813916471960056e+03
-4.066465805066934536e+03
-5.071224090707017240e+03
-4.816076240070163294e+03
-1.576113999445019999e+03
-2.645428570884102555e+03
-5.994043596092258667e+03
-4.593955924999248055e+03
-2.425201114779059026e+03
-1.463716740493522593e+03
-3.326078472895670188e+02
4.911559269735421367e+02
3.336280658358444384e+02
6.127928290024135549e+02
2.417723431689769768e+03
4.895431898502286458e+03
6.077946726864620359e+03
5.064250145499668179e+03
3.403375950034925154e+03
2.707388235359231658e+03
1.497394584293289199e+03
1.162960966472961957e+02
-7.520491193054596124e+02
7.036152138516386856e+01
1.493568791159780858e+03
2.286553154818098392e+03
2.242217327309680059e+03
1.471497252075183951e+03
1.584519561059915986e+02
-2.958355336884957296e+02
2.736404283267455071e+02
1.181832005264976260e+03
1.902787963380805195e+03
1.728493792667302614e+03
1.541896416792174705e+03
1.603029659156720754e+03
1.552949112512480497e+03
1.635708577613330363e+03
1.420310178594247418e+03
1.006740391061120363e+03
2.950791148884882773e+02
5.773122765686185858e+02
1.696379866530371146e+03
1.786295998363967328e+03
9.840119050439349166e+02
-1.105172650073951957e+02
-4.433223611887182756e+02
-8.815143868306856803e+02
-1.105123254424783454e+03
-4.150854850411996040e+02
-3.970341925556674028e+02
-5.568210681248347100e+02
-3.533682952122929919e+02
-3.538286929326174004e+02
2.629055597861935212e+02
7.957790589847820684e+02
1.813704365152934997e+03
1.083595929034094524e+03
2.942244216240210335e+02
-8.641151251178384882e+02
-4.351091924043289509e+02
-7.399724849378216049e+02
-2.629870351608524743e+03
-3.374837028085681595e+03
-2.258744137886022600e+03
-7.956274547277979536e+02
-1.085493112190379037e+02
-8.095944063987251411e+02
-6.806803593287087324e+02
-4.547037985197740113e+02
-2.097289648739470920e+02
-3.507727563670909490e+02
-3.774974268996380999e+01
2.144425961184775531e+02
1.631890257326855362e+03
3.014676888690808028e+03
3.703651841401627735e+03
4.183706915060299252e+03
4.034816481487072451e+03
3.785027031080916004e+03
3.011326632332558347e+03
1.789767040107911953e+03
1.163406901180021805e+03
6.011134466980446405e+02
-2.041468202820766749e+02
-1.323367437458445465e+03
-1.784677627736243267e+03
-1.926095210516650695e+03
-2.363557713811834219e+03
-2.446028488088759332e+03
-1.937528997272751212e+03
-1.120010899878586088e+03
-6.583903448244719812e+02
-1.236601655351443583e+02
6.691452018583188419e+02
7.351491251942908320e+02
5.284100289113672488e+02
1.151949948179928697e+03
1.420737091907952163e+03
1.439789582565184219e+03
9.911287266052221412e+02
-9.331015792573964518e+01
-7.425997756657864102e+02
-9.787209125023728120e+02
-1.557651105973353879e+03
-1.906455892649309817e+03
-2.280166105060827249e+03
-2.130705178380732377e+03
-2.122154066708188566e+03
-2.007608793702929461e+03
-1.278000344718084534e+03
-3.573961503108745319e+02
6.491570313152199105e+02
1.281885501853270398e+03
1.469917479189263986e+03
1.323082079511025540e+03
1.940336394006732689e+03
1.911726226172064798e+03
1.058261418806583151e+03
1.093017215144526745e+03
2.208776148420054994e+02
-5.313452197663667675e+02
-7.612347645876574234e+02
-1.216853083367010186e+03
-2.463104387498618507e+03
-2.889421743990396863e+03
-2.457545819137729268e+03
-2.624628647000065030e+03
-2.935542132006024985e+03
-3.079209067315871380e+03
-1.496094751119421062e+03
-3.811357016451505615e+02
-5.501938730748533146e+01
2.737702625689946672e+02
1.004676150306660929e+03
1.752563114507994896e+03
1.623559941935036932e+03
1.573979459564510535e+03
8.026481446022236241e+02
3.895690531841572692e+02
1.425666195961571248e+03
1.031983949878348312e+03
7.131690261735777767e+02
1.551575077678730395e+03
7.371592114183378044e+02
6.236902586342394272e+01
-7.972607949748498868e+02
-1.700295926416966950e+03
-1.720094200664331538e+03
-1.313936522706206688e+03
-1.332997204822556796e+03
-7.864517260063739741e+02
2.897876525653250610e+02
1.054821927849154235e+03
1.539630591613082061e+03
1.971167665997801123e+03
2.680559755185940503e+03
3.027847955437589917e+03
2.489913686351134857e+03
1.281733645842367878e+03
4.494432746815541577e+02
4.177272282492490376e+02
-1.170911872718190665e+02
-5.509788841250204996e+02
-7.033307722732698721e+02
4.576364720842693146e+01
1.269330392172138090e+03
1.101327494142955175e+03
-6.122632088018026053e+01
-6.663343158336365377e+02
-7.600006938749990013e+02
-3.783168534540745327e+02
4.269519678582032185e+01
4.701815177022630223e+02
1.635363233129613036e+03
2.355275393312726919e+03
2.814872964696073268e+03
2.981992575285757539e+03
2.660631471298487213e+03
2.542883565486054977e+03
2.328732923373008362e+03
1.804246383200018727e+03
1.054376765648979699e+03
4.000390274347241188e+02
-1.388691804321721975e+03
-4.642718549610272930e+03
-4.406089143017546121e+03
-4.381008879419209734e+03
-4.903465731599247192e+03
-4.757331555759581533e+03
-4.241555734742792993e+03
-1.723283956044048182e+03
-1.276391493803181447e+03
-3.918810597482784033e+03
-2.609565771975120697e+03
4.239421434934235577e+01
-1.350021665441457117e+03
-7.677356871791542972e+02
3.943723976617777680e+02
2.047401601203197060e+03
2.432437530987496302e+03
9.134302053882443033e+02
-7.646388761790848321e+02
-1.337977446877040165e+03
-1.859230464610347155e+01
-3.492532267090668483e+03
-4.582794813309814344e+03
-2.726411663878614945e+03
-5.499653506472058325e+03
-5.515447999010013518e+03
-4.925540143191927200e+03
-2.782846348059051707e+03
-1.016465378838424499e+03
-4.503491086833745953e+02
8.755831643702258589e+02
2.080258600426645444e+03
3.111637166270014859e+03
4.242975726905602642e+03
4.726434922171656581e+03
4.643983860297003048e+03
4.109497247984276328e+03
3.444902579786931256e+03
2.700148046428263115e+03
1.857989063885107498e+03
1.008605232545325180e+03
1.111236017910668217e+01
-8.755597113325461578e+01
-4.544103782478691755e+02
-1.077503804944451758e+03
-1.405736222034077400e+03
-1.244051361725442348e+03
5.846085449941918455e+01
8.198518735042252956e+02
1.191236459103107109e+03
1.691617945741330914e+03
2.147934100816577029e+03
2.783057313035450534e+03
3.134088293386727855e+03
2.770211884502183693e+03
2.557789496195877291e+03
2.275724087557899566e+03
1.476016422341172074e+03
6.967465654116422229e+02
5.619748080843670550e+02
-1.964088518231443743e+02
-7.334556012455882410e+02
-1.129328741561549577e+03
-1.757125157579430152e+03
-2.302815061233460710e+03
-3.274684490753094451e+03
-3.008675603830847649e+03
-1.901416160189774700e+03
-1.275555676494395129e+03
-6.356187483778026035e+02
1.712967649002113149e+02
1.335481491771869969e+03
2.086874401227407361e+03
2.515738094279261986e+03
2.832020734518971949e+03
3.517707550223648468e+03
3.372670506514061344e+03
2.404658145038657040e+03
1.801118816844663797e+03
1.229271451186954664e+03
1.604854395153090536e+02
-2.944027658934880947e+02
-1.015330100689076858e+03
-1.589407279263211194e+03
-1.681663563426234305e+03
-2.126926983913269851e+03
-2.291174204171302790e+03
-2.186587665155476770e+03
-2.005224494635012434e+03
-2.053045104855669251e+03
-2.246939332801660385e+03
-1.834778641532457186e+03
-1.862967093843847977e+01
1.568585038877640727e+03
1.916893053979539673e+03
1.978292588106655785e+03
2.063648646660335999e+03
1.891861855016311665e+03
1.590890178077219844e+03
4.407440722811004434e+02
-5.945325784796103790e+02
-6.297513878545379384e+02
-4.879418809211774146e+02
-5.463115486649904824e+02
-4.179356956244487264e+02
2.622409672118988411e+01
1.202660752476766248e+02
4.517343864495431660e+01
1.909828914007206890e+02
5.137057499666327658e+02
9.673214921109739635e+02
1.500837732763426857e+03
2.305262677175971021e+03
2.597686763264193814e+03
2.564035866818120667e+03
2.804221217021066877e+03
3.054344955614268656e+03
2.973430399112625764e+03
2.585557632841405393e+03
6.546094652808387764e+02
-2.419445439044140130e+03
-5.866581187587002205e+03
-7.034940923708668379e+03
-7.754504861341134529e+03
-8.238235532724966106e+03
-8.670162658167286281e+03
-7.927207771141429475e+03
-7.088380375515297601e+03
-2.809771987226183228e+03
-5.994574950431796196e+02
-3.583029194651454418e+03
-3.514505577658999300e+03
1.215101991301333555e+03
3.060692670561837531e+03
2.744324484275839950e+03
1.982070327282182234e+03
3.092835222854819222e+03
3.545467396892808210e+03
2.582952291163146128e+03
1.751317892890017220e+03
1.163638221941844449e+03
9.068217194808927388e+02
-3.161503521179404856e+02
-1.751244792960748555e+03
-2.828440210327160003e+03
-3.389758562634327518e+03
-3.422207225399047729e+03
-2.361906185465582894e+03
-9.708304513938617220e+02
6.510870025665089997e+02
1.997912716170198337e+03
3.176705243670935033e+03
3.274535227540272899e+03
3.669548511434863485e+03
4.184767561851261235e+03
3.498121896401552021e+03
3.064569023157623178e+03
2.886120741235757123e+03
2.027802528163291527e+03
8.175445422666005015e+02
1.643619597084436350e+02
1.542594819007296678e+02
-1.037561228413552925e+02
-4.677483772229818442e+02
1.242720188704929285e+02
-2.196983826642259885e+02
-1.330691625134483502e+03
-1.814717081702264295e+03
-1.099635835971162351e+03
1.306030219598858935e+02
4.859467699383802142e+02
9.864119157457184883e+02
1.679998835329904068e+03
1.821758779820793279e+03
1.113812677746610461e+03
5.661583791407897479e+02
1.320763259488006497e+03
2.227627907888430855e+03
2.211738121846273316e+03
1.812084336662667056e+03
1.316623439111622019e+03
1.236370381249110551e+03
1.280283762947702598e+03
-4.864792521313520268e+01
-1.890471770772005584e+03
-1.324206773606989145e+03
1.971687348710569552e+02
1.787501907898702598e+02
-3.547189249960678126e+01
2.404701045067068321e+02
5.616262003458422214e+02
1.921134160639968286e+03
2.239079079949406605e+03
-1.309481524283378349e+03
-3.279669805549016473e+03
-3.104524770306825303e+03
-1.013002097127943671e+03
-2.568036296350006523e+03
-2.729662102330607922e+03
-2.089511817866799106e+02
1.410138387589763170e+03
9.015424704966819718e+02
-3.698087521906355164e+02
-2.551102463468027054e+03
-1.693281983968139684e+03
-3.532296521390514499e+03
-3.666093907480159487e+03
-3.308705916403763695e+03
-6.458172416448430340e+03
-5.287415301011777046e+03
-3.279436515435229012e+03
-9.301452134402617276e+02
-2.114560537837156971e+03
-7.578894687976568889e+01
5.573024206435783299e+02
3.335684714075222018e+03
3.937253445018379807e+03
2.660127741335785686e+03
4.300279841325012967e+03
1.912709739328429578e+03
-1.929595816003544087e+03
5.142974932091702840e+02
-1.009696968875769358e+03
-3.394549064400021052e+03
-3.959305116185688803e+03
-2.796010043484534435e+03
-3.462687723363893838e+03
-2.633378967942797772e+03
-2.877035366556062399e+03
-1.158637934792109490e+03
1.776802048169263799e+03
2.540351037736838862e+03
2.617064015583779110e+03
1.182915797774515113e+03
2.526859118007017969e+03
3.647949374999143402e+03
3.962196307046413494e+03
3.335589524723401155e+03
3.295988847203216665e+03
2.794283734420915152e+03
1.349548942649951186e+03
3.468161793636546122e+02
2.829852860764486309e+02
-1.659772504618129574e+02
-1.461102792316025443e+03
-2.625401779995282141e+03
-2.215932454858090296e+03
-1.371688199955879099e+03
-2.246894574984733310e+02
4.001810471323528162e+01
6.434785984558990322e+02
9.127256371668121346e+02
1.341705203603346490e+03
2.183456233944183623e+03
2.852976743533092758e+03
2.857238827213043351e+03
2.369286578586827545e+03
2.317095934590232901e+03
2.114981804527295481e+03
9.377292383430310565e+02
-2.606200969589351075e+02
-1.192426851145206683e+03
-1.523298688174164681e+03
-2.816502031210006862e+03
-2.494486982883716337e+03
-9.238056497813049646e+02
-9.655774944547320615e+01
6.761842742909421986e+02
6.164719776434326377e+02
6.665369644899128616e+02
1.070187068856612456e+02
4.658260865942278883e+02
1.859175621784827172e+03
2.729950004460205491e+03
3.983246816506151390e+03
4.646078398836722045e+03
4.579284642744484700e+03
3.863750435035490682e+03
2.629074391150298197e+03
1.562767131064184923e+03
-3.013166228578329537e+02
-1.971854456855713806e+03
-2.311962956039988512e+03
-1.788803974218480334e+03
-1.598575708962867111e+03
-2.118212377484776425e+03
-2.233630476508935317e+03
-1.824856452470522754e+03
-2.108165055965314423e+03
-1.675336378516841705e+03
1.974818307998309024e+02
2.504563345767911414e+03
4.230944913089108013e+03
5.157537994833699486e+03
4.745308442979703614e+03
3.265290977405699323e+03
2.857559027513483670e+03
2.311087974907421085e+03
1.739885825201564103e+03
2.057856098923488389e+03
1.462020673815425653e+03
8.343933215782143407e+02
7.289214633322759482e+02
-7.246336160298903906e+01
-3.784329891467244522e+01
6.998216922602847490e+02
8.575463011262287409e+02
4.403628593343182160e+02
-1.121771618872800218e+03
-3.381868876364097559e+03
-5.951829234951000217e+03
-5.795545647962523617e+03
-5.153016744226413721e+03
-4.864222087028995702e+03
-4.038135629900192725e+03
-2.529707758388389266e+03
-2.476950185602214788e+03
-2.475772620427323545e+03
-3.000251467928345846e+03
-3.651403772302101515e+03
-4.290217313762261256e+03
-5.377739580813922657e+03
-5.508804022578645345e+03
-3.713515046843372147e+03
-2.589829209898256295e+02
-2.849170672565940549e+03
-6.310030427066149059e+03
-6.709554213563798839e+03
-5.875774100955671202e+03
-5.153645208345887113e+03
-4.477091992538706108e+03
-3.913077265994415939e+03
-3.706671706093517059e+03
-3.156791779949908232e+03
-3.973188858107877763e+02
3.212833127656688248e+03
3.864698991508963445e+03
3.840312277528576487e+03
3.936608039945582277e+03
3.034659640932107322e+03
1.452471579617742691e+03
9.769876384110539220e+02
1.290286650844264614e+03
1.135362133662914175e+03
1.566170454118705720e+03
1.816736879791169940e+03
1.300144230666367775e+03
1.410466174979174639e+03
1.363673594944768638e+03
1.620655635929154187e+03
1.837425795792515373e+03
2.421108119740355960e+03
3.213746250045422585e+03
3.901429191490517951e+03
3.873186517600087427e+03
3.219062140759051090e+03
2.127148420381437063e+03
2.623487357855148275e+03
3.636016613412812148e+03
3.169728247172952251e+03
2.143627260033287257e+03
1.473721946686670890e+03
1.162014369677380955e+03
4.865037784065053188e+02
4.602525997697254070e+02
5.092188380950834130e+02
4.674372008825264970e+02
1.999573216625549890e+02
-3.162106749007900248e+02
-1.301152416383945365e+02
1.313569142572581825e+02
3.702686057336525209e+02
1.223562176727160022e+03
1.577243635459767575e+03
2.639334401727538989e+03
3.000003652412065549e+03
2.823615393222513376e+03
3.180298022102410414e+03
2.703132442465013355e+03
1.750980631914937476e+03
8.688145264419769092e+02
-2.773924004029672119e+02
-8.066244700619996593e+02
-8.349152146225447950e+02
-2.162265283047987850e+03
-4.241153729463295349e+03
-2.933295809401038696e+03
-1.845197300177755778e+03
-1.348381652586718928e+03
-4.999596070884005030e+02
6.213221974674045214e+02
9.934306174424160645e+02
9.913663144257909607e+02
9.449850842291145909e+02
1.456329440269091947e+03
1.955557971089402372e+03
2.080692218489907191e+03
1.733705184626090613e+03
1.139522376673691497e+03
9.102185045794948337e+02
4.508461505418527508e+02
1.938996885902655976e+01
-7.032452425416063306e+02
-1.908090805120639743e+03
-2.827257220989642065e+03
-3.643805170817188809e+03
-3.928756171345994062e+03
-4.260123156740418381e+03
-3.979882304260656838e+03
-2.365946452687619512e+03
-8.853675677551588024e+02
2.868799583257901986e+02
9.739024533531463703e+02
1.460692588858637464e+03
1.731235573535111371e+03
1.487598354134391457e+03
1.594819544381401329e+03
1.298848216097439717e+03
1.266633246493988054e+03
9.511629192723129336e+02
8.544156964521100690e+02
3.682856751592905198e+02
-6.081444196728341467e+02
-1.637846405994288489e+03
-1.758902341147775132e+03
-1.631357944315902614e+03
-1.358309790526539473e+03
-1.163727324560754823e+03
-1.282639558336579285e+03
-1.417115839844855600e+03
-8.961265540812812560e+02
-1.275960078629367871e+02
6.294853295930703325e+02
1.014027285674280279e+03
1.345989512154211525e+03
1.423455610444845206e+03
1.384467714328887951e+03
1.349001577475081376e+03
7.629844099124220520e+02
5.953382188753300852e+02
7.509848404059179927e+01
-5.766614080877309334e+02
-1.382107508425250217e+03
-1.509431379444057029e+03
-2.300585230787140517e+03
-2.967557870943114722e+03
-3.863371212802790978e+03
-4.189106601978217441e+03
-2.558944465727604893e+03
-8.377446093089301939e+02
-5.731459227902300881e+02
-4.002903003851750441e+02
8.170764215763348659e+01
4.887507087683321174e+02
1.192072169251361629e+03
2.049474839902567965e+03
3.163694733572222049e+03
3.466765366499057563e+03
2.999877039524979864e+03
1.876035620388011239e+03
1.159306701768517996e+03
3.144964030693195127e+02
1.117882581362155463e+02
2.399119664258324036e+01
-4.150088408611652540e+02
-7.268807311441426009e+02
-1.076984449714639595e+03
-1.117474452796084734e+03
-1.184425165006733323e+03
-1.038592338031139889e+03
-3.791490061935949711e+02
9.401036193502935134e+01
6.497040918927738176e+02
1.322045920685100555e+03
1.821094266247063388e+03
2.140604620593354866e+03
2.174887700885115009e+03
2.270147259703659074e+03
1.812874735709742936e+03
1.386343012152997517e+03
1.031642562884873314e+03
9.156799721135187156e+02
4.832741676529878418e+02
-6.724474603362444896e+02
-1.245623769884818557e+03
-1.082197127854920836e+03
-1.156266398461515337e+03
-1.178005704639704163e+03
-1.281329311114931670e+03
-1.505177011070170010e+03
-1.533464508300166017e+03
-1.234346918194524505e+03
-5.377905296359234626e+02
6.613139033261082886e+02
1.502014804151450562e+03
2.038322164445069347e+03
2.635305705932572437e+03
2.776025815658413194e+03
2.100433659838669428e+03
1.461447574807022875e+03
1.010073851124772659e+03
6.864345127291463768e+02
-2.143452347435724619e+02
4.158478161017298191e+01
8.104821555160241076e+01
-4.349313475262906081e+02
-4.711490578039499724e+02
-3.825957197726957588e+02
-6.733643533839186830e+02
-4.095211530421458406e+02
-3.330897973896094300e+02
-8.641156113117598352e+02
-7.665009257787741035e+02
-2.428990679827497843e+03
-2.133649251682699287e+03
-1.094467460691443875e+03
9.666176314779133918e+02
-2.095421387151269755e+03
7.315339410733839713e+02
1.303543363314719045e+03
-1.550385347654513225e+03
-3.004184038090232320e+02
-3.778729928065090007e+03
-4.785307372010291147e+03
-2.945151114008924196e+03
-1.347017656006677726e+03
-2.209859471311369362e+03
-3.519588297713479278e+03
-8.104313980686125660e+02
4.741591974690664557e+01
4.600630249821001030e+02
7.334864538357935544e+02
-1.222377576916508986e+02
-4.260150184836265908e+02
2.416290523750741613e+03
1.167749693240192528e+03
1.142379744290147983e+03
6.442606095605493692e+02
1.254466219327709496e+03
6.709173322483347874e+02
-6.064637238274303854e+02
-9.516943712145786094e+02
-1.033811412533026214e+03
-2.267929098421134029e+02
-2.876657448386658871e+03
-2.843346170735159376e+03
-4.479882035395768071e+03
-3.018293839740096246e+03
-1.123644994250601258e+03
-5.409648882010226316e+02
-5.822229080012824625e+02
-3.952253895457989188e+02
6.152070022407327770e+02
1.337932928700129196e+03
1.985943681594686495e+03
2.310324895109886711e+03
2.712982495731446761e+03
3.026978091711319394e+03
2.878424866247834416e+03
2.225316351442298128e+03
1.691711749059695194e+03
1.253526284280230129e+03
5.736303831951418033e+02
3.780136379675217881e+02
-5.073409523277821904e+02
-1.574312012241266302e+03
-1.799713989830730043e+03
-1.482529084891442835e+03
-1.118909367462443697e+03
-6.598358035828135826e+02
-6.032323377133318445e+02
-1.810748764887668472e+02
6.285548236711359777e+02
1.997764646140946752e+03
2.543661834592342075e+03
2.858277852792375597e+03
2.857529666861672922e+03
1.893509222932362945e+03
2.198216358116076208e+03
2.180674321811060054e+03
1.503717135122874652e+03
6.570536614957579786e+02
2.298352562676308821e+02
-5.553744426261577161e+01
-4.694560611153989385e+02
-8.270594524475857270e+02
-6.820244369405654652e+02
-2.852944865351458361e+02
-5.740787461911269247e+02
-9.384906696768535994e+02
-1.133583775568433794e+03
-2.914079286958241823e+02
8.239569211110799642e+02
1.607752874622561876e+03
1.805039052880828194e+03
2.328569061161279024e+03
2.719283746945794519e+03
2.521189562184307761e+03
2.611233254961419334e+03
2.531300886736643406e+03
1.745347479679410753e+03
8.812839380656612320e+02
3.821786626892774734e+02
2.561329780544057826e+02
2.701793118675348992e+01
-3.301933539435306102e+02
-7.315378781958564787e+02
-9.560883352776853599e+02
-1.284904057550383868e+03
-7.620135863858323546e+02
-3.653921227572161570e+02
1.730475414734194715e+02
6.443777678475109951e+02
1.294708365720200163e+03
1.835856170983075117e+03
2.279630208404681980e+03
2.355127624634701078e+03
2.446481384919648917e+03
2.693635245727255551e+03
2.330495240411305986e+03
2.237099105171710107e+03
1.406427725508124922e+03
7.574141029467348289e+02
5.570156978645030676e+02
3.281683336094983474e+02
-5.352176601896002239e+02
-7.742087500837643574e+02
-8.597532175112559116e+02
-1.843820600571309797e+03
-3.320517104662837937e+03
-5.660844205446693195e+03
-7.015810923612395527e+03
-5.898343213746520632e+03
-4.963440843692126691e+03
-4.270087887317999957e+03
-3.746231332893466515e+03
-3.476863399008743272e+03
-3.636000082333841419e+03
-3.879580228206131778e+03
-3.466729985815717555e+03
-2.747604039319668573e+03
-4.323159872557373092e+03
-3.732210100417639296e+03
-1.917021491264115866e+03
-4.378702341765248093e+03
-3.273186045628387546e+03
-5.503844238271751692e+02
1.117446864605687153e+02
1.852958985922971351e+02
2.491039443622398437e+02
3.420202260205977609e+02
1.014987900009709961e+03
2.022095649437468637e+03
2.959384522032268251e+03
3.312894180284632967e+03
3.543738578924047033e+03
3.998934135891916412e+03
4.445514812422378782e+03
4.035437119446344241e+03
3.642701242361824825e+03
3.003322579314327413e+03
2.117265118126686048e+03
1.452477585802517297e+03
6.048928982974176733e+02
1.115459337712274959e+02
-2.266109831459910708e+02
-9.527708254679788524e+02
-1.173845744296109842e+03
-1.222706806407299155e+03
-1.186367068140150877e+03
-1.055818682556576277e+03
-7.189826994432337415e+02
-2.927235666251032740e+02
2.390863753288840243e+01
4.949364451985741198e+02
7.993151857281746970e+02
8.639929725357450252e+02
7.300126996081174866e+02
9.614958109695569419e+02
8.085463545375720287e+02
1.190620212211135964e+02
2.129470440915222866e+02
5.022919470370532480e+01
-2.220840132171596792e+02
-4.560748974875671706e+02
-1.131727785749822942e+03
-1.833984742659376025e+03
-2.445829837649848287e+03
-2.856252782990718970e+03
-2.937307282027629299e+03
-2.953926311000459464e+03
-2.406005747853207140e+03
-1.305550909156112766e+03
-1.934866116665112372e+02
8.682244134576674242e+02
1.546872942764770187e+03
1.501438783346187165e+03
1.789821735595699465e+03
2.636080905173264910e+03
2.674196689994605094e+03
2.233015939534087011e+03
1.903584346029978633e+03
2.062898498437732997e+03
1.545049624561220753e+03
-2.591499163669536188e+01
-6.371009992100532600e+02
-7.316219961462484207e+02
-1.663320624599735993e+03
-2.053046954015991105e+03
-1.126838027919077149e+03
-2.656160569528977931e+02
-3.954169477227773086e+02
-7.053400356376901073e+02
-7.213822786944858763e+02
7.956522761951080724e+01
3.476032184576997111e+02
3.898136533192905517e+02
1.176196507294418097e+03
1.970862582894944353e+03
2.154747897320291031e+03
1.616807158530682955e+03
1.662057709022024255e+03
1.376520810393997635e+03
4.632561267256762676e+02
-5.057090423717585281e+02
