-2.885026217992795864e+03
-2.478905176627448782e+03
-1.268236992165164338e+03
2.029434419168441764e+03
5.269297449016723476e+03
6.919104366772668982e+03
7.429664524079259536e+03
7.661116313964244000e+03
7.336473255899751166e+03
7.415723716115864590e+03
7.646163917867777855e+03
8.146889627083910455e+03
8.090960205194516675e+03
7.501444517889162853e+03
5.986613811964759407e+03
3.823694177152187876e+03
2.324599880465409569e+03
1.070050500488244325e+03
4.458273193501921128e+02
9.989889515197527317e+02
1.487475551197360119e+03
1.436694372444419741e+03
9.657896737527561299e+02
-4.611804260800208795e+02
-2.904138066455896933e+03
-8.800850861084400094e+02
9.293347337454526951e+02
7.991875905327343617e+02
1.404185615089529620e+03
3.991110728176784960e+03
6.485388270526688757e+03
6.503275720000239744e+03
5.160673208788157353e+03
3.517505021955323173e+03
2.194853928038508457e+03
1.704201275218664932e+03
1.266468695535162851e+03
1.907682607231199427e+03
2.610148765444623223e+03
3.504075669929224205e+03
3.054621852168713303e+03
2.121566273589532102e+03
2.090674310780314045e+03
2.516813083664001624e+03
3.023835477742695730e+03
3.828727159662591021e+03
4.174549650685457891e+03
3.491361753950479397e+03
3.545208572446589642e+03
3.763074535778093832e+03
3.758908705402212490e+03
3.815685709050937476e+03
2.593462064189523517e+03
1.242333389886741543e+03
2.034333815448430187e+03
2.320406214082141560e+03
1.639408987944146475e+03
6.341979470631594396e+00
-1.387933469656339412e+03
-2.048509305552971909e+03
-1.740405839235797202e+03
-1.869617217857020933e+03
-2.383161664542348717e+03
-2.224982867723337677e+03
-6.260672089684348975e+02
1.038612700532901499e+03
1.389077273353901319e+03
9.133529866345226083e+02
8.214182019646067374e+02
1.840273580839118722e+03
2.174895104968519263e+03
1.537300315144138494e+03
5.225140050509934326e+02
4.935162655597969206e+02
5.232510932774350749e+02
-3.663183302357118691e+02
-4.025231396286601466e+03
-7.953512131918119849e+03
-1.295624473035368283e+04
-1.592349234289110063e+04
-1.606820780570536044e+04
-1.530047156820555574e+04
-1.380634017994993155e+04
-1.166377259761456480e+04
-9.971748475164629781e+03
-8.388234635463315499e+03
-6.643329569751107556e+03
-2.974013507675139863e+03
2.597365767755875936e+02
3.475501661439015152e+03
1.770873380909564275e+03
1.996666030074966784e+03
1.147954227022195255e+03
5.607221734915653997e+02
1.929794748372917184e+02
-9.313398722696791765e+02
-2.527243399300008605e+03
-4.236754780684525940e+03
-5.326959834167819281e+03
-3.345845383218291317e+03
-1.823468678650908032e+03
-1.446925018888602835e+03
-6.931432270633216604e+02
1.877936619951924513e+03
3.676279197557317730e+03
5.158924907340629034e+03
5.138877863104153221e+03
2.878153588805102117e+03
4.088025258791468559e+02
-1.354116912992671814e+03
-1.346632659525250347e+03
3.193090312262100952e+02
7.496957294433435663e+02
6.865635631755486656e+02
1.452931466738255722e+03
2.490740966055001991e+03
2.404988400394924611e+03
1.657646123794032292e+03
1.404608875528590488e+03
4.069193297502430369e+02
-9.953507417674927638e+02
-4.862991472185407815e+02
5.710908782148495533e+01
1.319970576227367701e+03
3.959330174727984286e+03
6.255157013767795434e+03
6.478459413075988778e+03
5.429306654332362086e+03
4.503778875104689178e+03
3.388916855968029267e+03
1.874777195831562267e+03
8.263844215775631028e+02
5.057189952217686368e+02
8.838749719688008781e+02
1.425879548039430574e+03
8.676707008809161152e+02
2.632607501979294398e+02
5.146881920796255372e+02
9.959064209109143349e+02
6.629108869793453778e+02
-1.526893320728807701e+01
-2.908591454697065728e+03
-5.827187026828599301e+03
-7.213838300837688621e+03
-8.190560589066150897e+03
-8.056334998858631479e+03
-7.794073201985215746e+03
-3.490714174276522044e+03
1.700822498156094298e+03
6.303532602298426355e+03
7.742413924856308768e+03
5.578447371612983261e+03
5.652175731064477077e+03
6.694635555790845501e+03
3.735315227957170009e+03
2.391991009343439885e+02
6.525012776548405782e+02
1.971202583153577734e+03
-3.465766223036168412e+03
-1.639536673747453506e+03
-5.940743488524518625e+02
-1.664390178764898565e+03
-4.144481137449735797e+03
-2.576289352732660063e+03
1.362314193350759979e+03
4.485360136786061958e+03
2.166880074092646737e+03
1.344911757899842314e+03
5.203511414049197811e+03
2.742706846599400706e+03
2.149471167941576823e+03
1.116816742729254202e+03
1.629785042687236455e+03
-1.236270843370594150e+02
-3.223407330794433619e+03
-1.558547905743469300e+03
-6.017040323184203771e+03
-3.103933583919469129e+03
-2.143290412518702396e+03
-1.431134935153378137e+03
-2.349105271261195682e+01
-2.838374434446681789e+03
-2.275784057395967011e+03
9.982941836391902370e+02
7.508154997764881955e+02
-2.657246109544969840e+03
-3.058823855157955222e+03
5.291355491353797333e+02
2.885687542573930386e+03
4.053865177295269859e+03
2.949680900084098539e+03
1.810114956352590298e+03
2.021115168821536599e+03
3.273681699563808706e+03
4.084777641748091355e+03
-2.296696831694113428e+02
-1.059719093778611978e+03
1.178552260745108470e+03
1.935091054346654346e+03
2.215891523650871477e+03
2.501877763244956896e+03
2.769488778864001688e+02
-1.183922855638457349e+03
-2.164744586335851636e+03
-2.297475119432672273e+03
-1.261711663752826666e+02
2.738023272831920167e+03
3.403996055923574659e+03
2.625968037529719368e+03
1.084488682157786116e+03
-1.389218177576203971e+03
-2.823737701847041990e+02
2.191770776670097348e+03
5.902285984655181892e+03
7.218049634368803709e+03
2.056034342150492648e+03
-1.536875837327181671e+03
-2.637808333403013876e+03
-2.874723516313101754e+03
1.063216862223085627e+03
1.697929643296924723e+03
2.706874538097603136e+02
-1.722110326448399519e+03
-4.707564491251740151e+02
6.768492479974209175e+01
4.076371518473003448e+02
6.782788571725986912e+02
1.218333146167560926e+03
1.175674517291126904e+03
1.668334325086090757e+03
3.112789464290597152e+02
-2.578556997380761914e+03
-4.019261621618295521e+03
-3.354978622282858396e+03
-3.997692741110787210e+03
-1.342285323995712133e+03
3.800101150843966934e+03
6.316698861301782017e+03
3.476418654746880748e+03
1.185159596881516791e+03
1.974564846705549144e+03
9.534375954412103056e+02
-2.086603944555201906e+03
-4.696735857696548010e+03
-5.306099034635196404e+03
-5.871865015481881528e+03
-5.724920678900786697e+03
-1.448565508783775385e+03
2.398390471809194878e+03
2.771975731795464526e+03
3.310156640444430650e+03
4.100838663838787397e+03
5.371984179456173479e+03
6.701702646171293054e+03
5.609918980846901832e+03
3.483409546969374787e+03
1.417077210161096900e+03
-2.443115512318903257e+03
-5.271253402781231671e+03
-2.923467165652774383e+03
2.675007749103053811e+03
5.241047691268850031e+03
4.166717295686008583e+03
4.252069631649956136e+03
3.551134320974255388e+03
1.582962041240105918e+03
1.599483391638419562e+03
2.619681968050881551e+03
4.054499789858793520e+03
4.165032018859998971e+03
4.850292524835826953e+03
5.646329080723572588e+03
6.260163710418443770e+03
5.410785842098965986e+03
2.306196973637104293e+03
-1.165633366821944946e+03
-7.299852336650044890e+03
-9.649497400191954512e+03
-1.098648789435080471e+04
-1.246086689480950918e+04
-1.282860644733409208e+04
-1.456019382927977858e+04
-1.266709066300204722e+04
-9.195432850822298860e+03
-9.358036889129884003e+03
-9.098894122285038975e+03
-7.507135738464399765e+03
-6.817764355161937601e+03
-4.174562262045661555e+03
-2.398374371853315097e+03
7.448996974251734855e+02
-1.994780207317204486e+03
-4.859418445133783280e+03
-4.999352877185314981e+01
4.434457664219416074e+03
-2.610066845913796897e+03
-6.675573491076117534e+03
-2.002922019138298992e+03
2.769720808352768131e+02
1.930099548397773333e+03
2.033448250331853842e+03
1.599074983690024283e+03
1.387980710967875666e+03
1.708269744539994235e+03
2.572125496564210152e+03
3.468560989906260602e+03
3.503657438555485442e+03
2.706483450186987739e+03
2.080139690462916406e+03
2.643793014167063575e+03
4.075560014896127541e+03
5.466311801384340470e+03
5.628128989539834947e+03
5.982137652805567996e+03
5.586520036223241732e+03
4.673352503796198107e+03
3.834632006146706772e+03
2.442339150507646536e+03
1.034547080586564562e+03
2.353439297532775072e+02
-2.772587616718331560e+02
-5.013186073044300315e+02
-5.418052085649943592e+02
-4.456644119179674135e+01
5.365543989055569227e+02
1.158633439381095513e+03
1.402694879846516187e+03
1.640837562344004709e+03
2.272245025705985427e+03
2.774055574075700406e+03
2.636282719011937843e+03
2.426949691139878269e+03
2.222164348134020202e+03
1.697250679233936125e+03
1.029369867676863805e+03
5.677323103482848410e+02
7.052782565736170000e+02
1.088419727786713764e+02
-1.224621359075939608e+03
-1.998127999083623536e+03
-1.863713045481606969e+03
-1.483368065317136598e+03
-2.177217046555673278e+03
-3.282244255382658594e+03
-5.694601923000798706e+03
-2.903481946776491895e+03
-1.499550271274915580e+01
2.738015613692730312e+02
4.198168450993000533e+02
4.683012918470325872e+02
9.573509027474898403e+02
1.005835613724088148e+03
1.191834167222375982e+03
9.074271385670583641e+02
4.826592178574313152e+02
6.515366718946414721e+02
5.797830946685443223e+02
-6.396584452678937396e+02
-1.727715785106058775e+03
-2.017107877142601410e+03
-2.279213990190322875e+03
-2.377995541769549163e+03
-2.300467870522339581e+03
-2.374525357421545323e+03
-2.044931534799298106e+03
-1.301523950871880515e+03
-8.773274814424817123e+02
-2.984241116339293853e+02
1.590154898310768488e+02
4.370837190288825127e+02
1.048832561838017227e+03
1.371139042790254507e+03
1.464902644237533195e+03
1.382166411746055473e+03
7.109916804849789287e+02
1.783392500681920865e+02
2.882189734435331729e+02
-8.293475773676964309e+02
-1.808564599913881011e+03
-2.129479035781184393e+03
-2.028172126308010775e+03
-2.063805728975816237e+03
-2.637478601440740476e+03
-2.760074694901780276e+03
-2.095478719718268167e+03
-1.188671129978793942e+03
-5.506344129277152888e+02
4.565393810176872336e+01
1.761409301456947105e+02
4.877737276514109794e+02
1.269427602682703991e+03
1.404019713128393278e+03
1.544608482246816266e+03
1.611078722088966288e+03
1.161302365428805160e+03
5.672076777125997751e+02
5.947887888110025187e+02
-3.480216587740601426e+02
-2.076112484791771294e+03
-1.291482751079004856e+03
-1.555211982184611315e+03
-2.085416268582115208e+03
-2.201288780742235758e+03
-1.707944557545148427e+03
-9.656386107937747738e+02
-1.526626782666723159e+02
6.689716318203973344e+01
-1.369934818189035468e+03
7.042796040471883998e+02
2.224319446671720925e+03
1.532914819538424808e+03
1.387332656949042075e+03
3.093580110716785839e+03
2.957306677713495446e+03
2.550322607345670804e+03
2.251111171608631594e+03
2.019047026907471945e+03
1.323043323498348627e+03
3.741519854165054539e+02
-2.675621960149367737e+02
-3.244564502751495070e+02
-3.478593295568695112e+02
-2.248248718226439564e+02
-7.002821694832596222e+01
3.773590941617330827e+02
1.216906384244759010e+03
1.914078238634947184e+03
2.499730839124896647e+03
3.045842043394407483e+03
3.336242140648066652e+03
3.642100325886952305e+03
3.808444779305207703e+03
3.850845263435944162e+03
3.528686746195253818e+03
3.451346215280160777e+03
3.572832077249744543e+03
3.050098124440953598e+03
2.335971849028457655e+03
1.203748096393952665e+03
4.541281683530568785e+02
4.576739846389137512e+01
-1.371793528692111295e+02
-2.754592136954109947e+02
-1.103014316835925825e+02
6.269376667594920036e+02
1.136296973806925052e+03
1.852778461601185427e+03
3.234560682158178679e+03
4.012653039311059729e+03
4.274989814674195259e+03
4.385208370272357570e+03
4.476416987835736109e+03
4.400349106833905353e+03
4.232603650212406137e+03
3.746737272381472394e+03
3.506761913984572402e+03
3.007682043622303354e+03
2.503431589237295611e+03
1.948206393987644788e+03
1.179963154912024493e+03
1.155684758373786508e+03
4.962960265973384821e+02
-1.909431550686950459e+03
-6.334622491977316713e+03
-9.401053496414901019e+03
-8.623566390433561537e+03
-7.570047249984323571e+03
-7.443383346323016667e+03
-7.406809062817213089e+03
-6.488414098144803575e+03
-5.737371294781405595e+03
-4.748709034023098866e+03
-5.092745118099455794e+03
-5.665206387620805799e+03
-5.538276549201654234e+03
-5.590208518594945417e+03
-5.760401973725241987e+03
-2.033506580233951809e+03
-3.893382063385515721e+03
-7.759982697300157270e+03
-8.108498629856966545e+03
-8.603845279952529381e+03
-8.769997225911953137e+03
-8.590867421161005041e+03
-8.267395926398492520e+03
-7.359512244632712282e+03
-6.604168009109428567e+03
-6.046149001485292501e+03
-5.609191828586714109e+03
-5.186254893699427157e+03
-4.194469189067932348e+03
-1.613729436540867937e+03
2.053744615788871215e+03
-1.622276301849718266e+03
-3.927584461366036976e+03
-4.549725562554947828e+03
-4.405641340719639629e+03
-4.050502637568077716e+03
1.963885513077713085e+03
4.161753683227851070e+03
2.148228603808058779e+03
7.842530717840513717e+02
2.639872153631449692e+03
3.080156682422506037e+03
4.018817505077168789e+03
4.905897318712412925e+03
5.826771569407240349e+03
6.560490068605890883e+03
6.143113738873779766e+03
5.988709928402893638e+03
6.575353042676993027e+03
6.663293813662884531e+03
6.527727878944629083e+03
6.435760601452086121e+03
6.074661105875659814e+03
5.530464039173286437e+03
5.067797996267320741e+03
4.146438979087305597e+03
3.337573182180188269e+03
2.554538811022046957e+03
2.188359439127218138e+03
2.194203252865071136e+03
1.956259364587935124e+03
1.943501676269153450e+03
1.772921072953630073e+03
2.632567801183926804e+03
3.463681923975999325e+03
4.063182605793737821e+03
4.040055730032340307e+03
4.218409895972805316e+03
4.474771605023616758e+03
4.915601573041100892e+03
4.746017076479218304e+03
4.105367910931136976e+03
3.918559799938797823e+03
2.441679085697461232e+03
-5.364176110604402083e+02
1.304257980194146512e+03
1.821937122224486529e+03
6.534179769904820887e+02
-3.514393963903655731e+02
-8.793398437133304242e+02
-1.051195051051744258e+03
-1.009897752646304525e+03
-6.147747249294191079e+02
-1.697073587854616505e+01
9.858684899149482135e+02
1.140696621558723336e+03
1.468021946168768181e+03
1.617970893340853308e+03
2.000010900727306989e+03
2.172427883856840253e+03
2.161991236429425498e+03
2.107915332521813980e+03
1.855784361701609669e+03
1.594155311550505758e+03
9.435706831958246994e+02
4.233257103885036372e+02
-4.804598065057789995e+02
-1.286183240238366807e+03
-1.705764629575402068e+03
-2.177941396262840044e+03
-2.253722257875238029e+03
-2.474200962447174334e+03
-2.125292979013055628e+03
-1.795004287715553573e+03
-1.126346934784554833e+03
-7.303571756483803483e+02
-4.000426503344746152e+02
-2.482516273672054581e+02
2.249809410641654210e+02
8.186854012906117077e+02
1.118901028226100607e+03
1.325589503831113461e+03
1.237809300844470727e+03
9.195873418924863927e+02
4.228508994491970725e+02
-1.324407606938238757e+02
-8.322805981140760423e+02
-1.715730064426533545e+03
-2.544887061565803378e+03
-3.172790670584172403e+03
-3.243443670349692184e+03
-3.486824918367068676e+03
-3.281945854698745734e+03
-2.668837512025978413e+03
-1.688517597677922595e+03
-9.749063501298687697e+02
-5.950214211058421370e+02
-1.148375547552550557e+02
5.466499279162915172e+02
1.097441599091649550e+03
1.290439486647475405e+03
1.138597745146182660e+03
7.208976392643724012e+02
4.273902084261777077e+02
1.429851865621852767e+02
-7.184541962635270238e+02
-3.988990071933720174e+03
-8.028663266501678663e+03
-1.323960034024558081e+04
-8.266096163073412754e+03
-3.192858087674915623e+03
-3.531162055068341033e+03
-3.997988174290725055e+03
-2.848276023326157883e+03
-4.275887829562923343e+02
3.746985556717091868e+02
9.956053723742304555e+02
1.592071916784553650e+03
1.996096586998402017e+03
2.549625728755381260e+03
2.537579621397816027e+03
1.389918357494284692e+03
-3.512999504987428736e+02
1.885871547878884030e+03
1.554297509669864212e+03
1.253921273242649249e+03
5.686725719553041927e+02
-4.555512070637628312e+02
-1.377769087963184347e+03
-1.252047279891260587e+03
-1.351468104192709916e+03
-9.380393886487668169e+02
-7.378340712443997518e+02
-1.588808557236829131e+02
9.428042475942711462e+02
1.751212425860572466e+03
2.070339403356251751e+03
2.172170242467295338e+03
2.557711602869156650e+03
3.172014382724403276e+03
3.387988780278026752e+03
3.518518624767081292e+03
3.132665411810294245e+03
2.566384865466211068e+03
2.183612256655431793e+03
1.939268204698684485e+03
9.942456523985082413e+02
-3.544793988038628640e+01
-7.558630769682741857e+02
-1.027106807655553212e+03
-1.077225475356867946e+03
-1.057268123346133052e+03
-1.016274498297869854e+03
-4.221959604212125896e+02
4.799002206069297927e+01
5.222137700150088904e+02
1.525512080239521083e+03
1.721876870255019867e+03
1.869293267996942859e+03
2.256774850847164089e+03
2.665312465261652505e+03
2.580823375492190280e+03
1.983377361209585160e+03
1.302990315679213381e+03
1.384409201294172362e+03
9.537067677291078098e+02
-2.251112766279490813e+02
-2.157144991641883280e+03
-2.004508668674298633e+03
-2.577188073014987367e+03
-2.736184200780143783e+03
-4.287672465750290030e+03
-3.066521278086762322e+03
-1.450522083107480512e+03
-9.979996873951014322e+02
-2.855168224596830555e+02
2.476907922423758919e+02
9.164477236169117305e+02
1.426892096734739880e+03
1.993023846559605772e+03
2.464831464002144003e+03
2.513289014778653382e+03
2.078381144903913537e+03
1.482131171200498102e+03
1.117543120024660084e+03
5.055195766957732530e+02
1.650234955356001478e+02
-5.219924428499103897e+02
-1.630536732495492060e+03
-2.535647382164499959e+03
-2.867396486136256044e+03
-2.718764458100761203e+03
-2.584777865027398548e+03
-2.207418520268530756e+03
-1.001650744113037831e+03
-2.894500483579836896e+02
5.551958178854526977e+02
8.913377383112122061e+02
1.369007249551666746e+03
1.443201203745964449e+03
1.778865193343791589e+03
1.711010290728740756e+03
1.809628906051635340e+03
1.945790132652925649e+03
1.580464459334974435e+03
6.086061682825214803e+02
-3.388137923338832707e+02
-1.333802310545429691e+03
-2.110452845842632996e+03
-2.399838087736622128e+03
-2.974947506201773194e+03
-3.126820665089550403e+03
-3.035501937301884027e+03
-1.965989533769145510e+03
-4.044213412489362327e+03
-4.921128527939650667e+03
-1.247710267043379417e+03
1.232079681986162086e+03
2.040230799181970042e+03
2.373739327785851856e+03
2.796602075333317316e+03
2.734837482223555526e+03
2.604430484644760782e+03
2.322376405225633789e+03
2.065651352063973718e+03
1.575050324803688909e+03
6.215228952635968653e+02
-8.567184810445143057e+02
-1.494139296622168786e+03
-1.737739342413080749e+03
-1.711800904514353078e+03
-1.830368901459266453e+03
-1.701358937707538189e+03
-9.427335879869101518e+02
-4.025778642430091168e+02
-2.430805711180545586e+03
-3.391687783116918126e+03
-5.060742129382656458e+02
2.322122729231080484e+03
2.681878478056539279e+03
2.196318057079241498e+03
3.180480853348160508e+03
3.542389910557524217e+03
2.993683504705611540e+03
2.533661868712772048e+03
2.044058319440916875e+03
1.048856199714974082e+03
3.719710103833146491e+02
8.935625057045137964e+01
-5.900145969915910200e+02
-8.702558416070838803e+02
-1.153371890791565193e+03
-8.803943210573039551e+02
2.506741782882243115e+02
1.234879707556530320e+03
1.701322742501470884e+03
2.263801001446992359e+03
2.715634084318280202e+03
3.532638705243170079e+03
4.080934099035382587e+03
4.478319696116380328e+03
4.749709609277214440e+03
4.817057333935179486e+03
4.310802521607704875e+03
4.098447639295038243e+03
3.725309377948066413e+03
2.702735996549643460e+03
2.083338159348563295e+03
1.305586934969972162e+03
5.011348681694039442e+02
4.449740404339341353e+02
2.050807647522380819e+02
3.842454947762934836e+01
4.201014066036376562e+02
1.202086052984055186e+03
1.892388982971065843e+03
2.725036508775518996e+03
3.537046876393133516e+03
4.372461382690810751e+03
4.937298067021541101e+03
4.874551717377536988e+03
5.228178257384546669e+03
4.961252282560792082e+03
4.397765073594743626e+03
3.936718047905908861e+03
3.568052462146973994e+03
2.769703428343472297e+03
2.089718286038875249e+03
1.143087414492261587e+03
2.587708005077591906e+02
1.197320459143146110e+02
-1.727028013298409405e+03
-5.252502387790222201e+03
-9.519642335001988613e+03
-1.030538631545799581e+04
-8.985716176461875875e+03
-8.182603171431149349e+03
-7.651943047281247345e+03
-6.385656464884727029e+03
-3.884794124835883849e+03
-4.315428309930358409e+03
-5.000087896240964255e+03
-5.271994992769534292e+03
-5.297051067837191113e+03
-5.632322399609878630e+03
-6.239907068274902485e+03
-6.062586102290562849e+03
-3.232428234158830946e+03
-5.852524650484115227e+03
-9.430890709008817794e+03
-9.960515481110714973e+03
-9.794402872362115886e+03
-9.527454077251219132e+03
-9.019648254903688212e+03
-7.775899337310500414e+03
-1.518125053540808722e+03
3.783698496109885582e+03
3.086647096770745407e+02
-6.701389861847136444e+02
4.171298970607941555e+03
3.178071127671193608e+03
4.353231401865984481e+03
6.640798026285064225e+03
3.584859916360392617e+03
1.114442270062611215e+03
2.302574376761258009e+03
3.770289607458589671e+03
3.217570928244910192e+03
2.472458263637349319e+03
1.216967671632627798e+03
6.111535359281295996e+02
4.560345287240704693e+02
4.076623783918375921e+02
1.317066040778681781e+03
2.219363678711281409e+03
2.942634176906944504e+03
3.674924720814862667e+03
3.922295346182160301e+03
4.211849823497499528e+03
4.661687205295277636e+03
4.692891046864043346e+03
4.450496481482767194e+03
4.677523264409939657e+03
4.480062800509552289e+03
3.728151255357179707e+03
2.709832780110639760e+03
1.861157944544349903e+03
1.064134549505329915e+03
2.338155538732819423e+02
-3.997953571371030534e+02
-1.131667954821901731e+03
-1.240809515928012388e+03
-1.417241371741990406e+03
-9.478909952110185486e+02
-3.396196881132622138e+02
5.496244462290078445e+02
7.847992498007815811e+02
1.537978137691525490e+03
1.833160233145924849e+03
2.360801655164078511e+03
2.592126849953403507e+03
2.393083361235495886e+03
2.162777478308352329e+03
5.664651305308052542e+02
-3.544743847682104388e+03
9.741402804824689099e+01
1.053116809597068141e+03
-1.764042277193587438e+02
-3.384867311627564050e+03
-6.184696610069718190e+03
-2.866799817160705970e+03
-2.907403174776614378e+03
-2.492419464202332620e+03
-2.029825018072102239e+03
-1.387552708000712073e+03
-9.855348440703513688e+02
-3.597463834680942796e+02
2.468537063636408107e+02
1.032420493840802237e+03
1.736084967215143706e+03
2.037535494214497248e+03
2.222954126785529752e+03
2.242314753428131553e+03
1.629656632793439940e+03
1.049022990287296807e+03
4.794142610287112802e+02
-1.912726071390742959e+02
-7.360034127534191839e+02
-1.575866170576457762e+03
-2.475840753454977857e+03
-3.396972594518036203e+03
-3.641312207993436004e+03
-3.660850542847049383e+03
-3.564575420247605507e+03
-3.006489483944440508e+03
-1.783553108525519065e+03
-1.004763171652571259e+03
-4.951115811012911649e+02
4.938992793906566448e+01
4.818100415293697552e+02
1.187163525755357796e+03
1.922367429851893348e+03
1.679402911810522255e+03
1.281312922104503741e+03
9.370809893255949419e+02
3.866286780143665283e+02
-2.512564332023996272e+01
-9.122294303822941401e+02
-2.092734890506718784e+03
-2.937705204001360471e+03
-3.050232794191784251e+03
-3.158351400919395928e+03
-3.014097414433433187e+03
-2.563557490476313433e+03
-1.925688448301292283e+03
-1.227524138243788911e+03
-4.620864487041579878e+02
2.545852609318652924e+02
1.277497462352915591e+03
1.850664583299234437e+03
1.918017408675010074e+03
2.262529718284379669e+03
2.668127993361747031e+03
2.387815679600950261e+03
1.369629677426865783e+03
9.883100174469659578e+02
1.035830552201294267e+03
-1.807858313809967967e+03
-5.472756986510868046e+03
-2.856148433470764758e+03
-4.195069471712373343e+03
-1.749494985453936351e+03
-1.411584247074466930e+03
-1.062396820783567819e+03
-3.199890274083795134e+02
3.735883314121776380e+02
1.246367131454710943e+03
2.122255028622441841e+03
2.489256917152799360e+03
2.902420306910825730e+03
3.748703087623463489e+03
4.118046927649867030e+03
4.218368305470976338e+03
3.968551255303148537e+03
3.724574148992157916e+03
3.392413507854099862e+03
2.647962557483069304e+03
2.130105229179582693e+03
1.205803755173603804e+03
4.589664939692697772e+02
-1.045228899885393332e+02
-3.287958911622973233e+02
-4.958940063422513163e+02
-4.087764890433589926e+01
5.892797543257656798e+02
1.625524651207517536e+03
2.454890013874778106e+03
2.952328651055166574e+03
3.142802497904545362e+03
3.724287288573004389e+03
4.285736286285118695e+03
4.656122387240568059e+03
4.985471734584250044e+03
5.428793934241044553e+03
5.093999244211010591e+03
4.493048207835752692e+03
3.900870793956066791e+03
3.067435084321040904e+03
2.497642774049316358e+03
1.489398100018110199e+03
8.395914843969521826e+02
5.994512834088305908e+02
7.179830504943533924e+02
1.310700982639856193e+03
1.854575679558107822e+03
2.122227189279961294e+03
2.686296203258070364e+03
3.384692910059963651e+03
4.027534885856814526e+03
4.703875363410528735e+03
4.925710817807689637e+03
3.062173623719067109e+03
-8.138097097432489591e+02
-5.081290897180623688e+03
-5.978216469294307899e+03
-6.575686287274552342e+03
-7.286862912708648764e+03
-8.109721065118510523e+03
-8.651080514924071394e+03
-8.708830716301534267e+03
-8.703087204955701964e+03
-7.174208511478218497e+03
-8.458697890245959570e+03
-9.162629501914005232e+03
-8.992479492128299171e+03
-8.192176659049033333e+03
-5.267293565682145527e+03
-7.827615412024015313e+02
-4.098711788593367601e+03
-4.865114976236811344e+03
-4.339868922472718623e+03
-3.901946784699421187e+03
-3.564410712303557830e+03
-3.776184671782661553e+03
-4.015280038384280488e+03
-4.149652578886028095e+03
-4.832299337532947902e+03
-5.393161336868362014e+03
-6.312011506083822496e+03
-7.240831095662002554e+03
-7.365730209950536846e+03
-4.880741936934268779e+03
-1.964776766108201173e+03
-5.751871259877932061e+03
-6.803115379354938341e+03
-5.483586399445867755e+03
-4.961180451395103773e+03
-4.451732274743724702e+03
-3.864188575756950740e+03
-3.627353384010078116e+03
1.232903754784046896e+03
7.705603088232659502e+03
7.030686537823851722e+03
4.470142096595215662e+03
7.105001055364631611e+03
6.445408642812333710e+03
5.934471864425766398e+03
5.454223923968675081e+03
4.609753396354758479e+03
3.824900019783832704e+03
2.794576525750899691e+03
2.657863950482464134e+03
2.509877200933766289e+03
2.417623449870541663e+03
3.006085802012197291e+03
3.733212678862689245e+03
4.320035260092558929e+03
4.430816983791172788e+03
4.990728165579859706e+03
5.501973195430721717e+03
6.015658374793110852e+03
6.151701580789815125e+03
5.758937724375658945e+03
5.630448818382528771e+03
5.522292139125877839e+03
4.539520359806303532e+03
3.946172348123097890e+03
3.315198650343194458e+03
2.421909058906059272e+03
1.193775184610551378e+03
5.748571009659092397e+02
-1.903729144729004830e+01
-2.869278632835062126e+02
-1.481391782606115726e+01
5.723181724793073499e+02
6.953983869888578511e+02
-2.261691027633134581e+03
-1.872625134216983724e+03
3.968378520265375755e+02
3.320809925363299953e+03
3.777249209369486834e+03
2.436336954868309476e+03
3.892727231922091050e+03
4.715818508350984303e+03
4.291807528119947165e+03
3.593276150757883443e+03
2.810337155622104547e+03
1.992692796306286709e+03
1.109289786413054117e+03
2.914002322429062630e+01
-7.727709663155852695e+02
-8.114546080670295396e+02
-1.246056298690258473e+03
-1.216861162183863826e+03
-5.585937478464702508e+02
-4.283582859234565490e+02
3.885081729704695590e+02
1.026401690956757875e+03
1.457151886954325846e+03
2.030636503883001069e+03
2.357329890876986155e+03
2.826173435416056236e+03
3.081685674474801544e+03
2.875790177717921779e+03
2.316653885934910704e+03
1.817270984852294760e+03
1.354837987926226106e+03
8.553076826045746657e+02
8.560860186951487094e+01
-1.205290636448481337e+03
-2.040330937566490320e+03
-2.279404144786842608e+03
-2.386670246327952100e+03
-2.645295698407717282e+03
-2.289488333961184253e+03
-1.494256888801996411e+03
-3.566164380090603458e+02
5.175520829429297009e+02
9.322794195789431342e+02
1.688502828116916362e+03
1.988358594073476297e+03
2.076888364872837428e+03
2.203011320239698307e+03
2.278730867787415718e+03
2.181098373447548056e+03
1.889108567686301285e+03
1.822737223800087804e+03
1.564955900031917963e+03
1.286790761638938818e+02
-1.633233991468434169e+03
-2.383933402560837294e+03
-2.968443763568510803e+03
-5.058731205973160286e+03
-7.766712885175185875e+03
-1.248843673876510729e+04
-1.308179594044832083e+04
-1.128282573010927990e+04
-1.054854366410145849e+04
-9.582882623579649589e+03
-8.626985888377186711e+03
-8.390961116175003554e+03
-7.514363849130490053e+03
-7.374677963169150644e+03
-2.633670519518105266e+03
1.719986058750533175e+03
3.943989682432263066e+02
1.574315350653267842e+03
1.359151656969910164e+03
5.921062706571356102e+02
-4.489275159135300441e+02
-1.044969187951965750e+03
-1.266078681421206738e+03
-1.225239433236950390e+03
-1.473473668068716506e+03
-1.300777419592669503e+03
-5.391534622664777316e+02
2.544397979767358891e+02
1.100090037207177829e+03
1.568845298737204985e+03
2.014663922960945001e+03
2.467522269860436154e+03
2.805496515337142682e+03
2.760701090904360171e+03
2.937061349402789801e+03
2.511548732372366430e+03
2.134282592696799838e+03
1.576132780757010778e+03
1.027045717977986214e+03
4.810177302266735069e+02
-3.449975679596079203e+02
-1.533971407220736410e+03
-1.965946982636016628e+03
-1.916984726860440787e+03
-1.892848721372318096e+03
-1.883567060155264699e+03
-1.263209362587862870e+03
-3.297355360090680279e+02
2.083005066189238264e+01
5.915843839596856242e+02
1.346626383022859272e+03
2.089805927440539563e+03
2.425966931906095851e+03
2.494321590842155274e+03
2.587231973025929619e+03
2.536742820033686257e+03
2.115774862144120561e+03
1.496121824181747343e+03
7.846778737581898895e+02
5.440009468202027421e+01
-7.496176202958137083e+02
-1.300332178087071725e+03
-1.907563789085297685e+03
-2.036527241292464851e+03
-1.999408375152353528e+03
-1.715280579265680444e+03
-1.147081030373494741e+03
-1.018553080171211263e+03
2.743729406230168024e+02
9.797248931633604343e+02
1.619433746737467118e+03
2.463684327023348942e+03
2.678543239828857622e+03
2.522991273379102950e+03
2.814984567054067611e+03
2.203658067853129523e+03
1.247140557373078536e+03
1.225196917741413245e+03
1.421968334411467367e+03
6.719744354552410641e+02
-3.355337956874174665e+02
-1.284519678503237856e+03
-2.429177601083021727e+03
-2.383293479989170464e+03
-2.809885012552226272e+03
-2.876124410223505492e+03
-2.048969913963126146e+03
-1.104377995181526103e+03
2.265899955393093137e+02
1.144011745045357429e+03
1.649967332123313327e+03
2.296382129385650387e+03
2.899441966875611342e+03
2.903143310889812710e+03
2.530403856835297574e+03
2.872159678774277381e+03
2.838422005702280785e+03
2.267231936215770475e+03
1.586668313059078400e+03
