-1.547796539381185141e+02
-4.359713965986805988e+02
-8.935523321697089614e+02
-1.899570866009329166e+03
-2.511027220210134601e+03
-3.047055852376757230e+03
-3.199725120930820594e+03
-2.975117398180797863e+03
-2.586343078700444948e+03
-2.227413368081614863e+03
-1.257377825071743246e+03
2.237069553913663071e+02
1.125774614149166382e+03
2.155725420906264389e+03
9.494834296167439334e+02
-1.685984751040155970e+03
-5.281788558026672945e+03
-2.459990141941804723e+03
1.745247276479038646e+03
1.751893109183178922e+03
2.136773862966026172e+03
2.632785204940470067e+03
2.754729941167063771e+03
2.130462730389358512e+03
9.127960459154083992e+02
-6.946122152958947993e+01
4.106220093614763300e+02
5.057662594490572019e+02
6.487593668739730219e+02
1.564532064971949012e+03
2.439859184685859418e+03
3.412623968728046293e+03
4.318976836681091299e+03
4.938542679591477281e+03
5.475273387104044559e+03
6.200929758522508564e+03
6.912381975082461395e+03
7.568359853470414237e+03
7.887594998611991286e+03
7.702225029210496359e+03
7.379918515448108337e+03
7.206446164684004543e+03
6.867711590884610814e+03
6.047159531312147919e+03
4.973882016310834842e+03
4.081815860674592386e+03
3.780514679666181564e+03
3.398667927168040933e+03
3.490543326167376563e+03
3.887603835344667914e+03
4.178416899016095158e+03
4.709141695429098945e+03
5.309727575877038362e+03
5.989779216577137049e+03
6.311150496877825390e+03
7.012824798214626753e+03
7.458563929767797163e+03
7.712330733501598843e+03
7.430860696236117292e+03
7.291724516578844487e+03
6.699011875427153427e+03
6.309703097749032167e+03
5.675734537719898071e+03
5.395637804099545974e+03
4.471479037350657563e+03
3.690678491785099141e+03
3.073538836905458083e+03
2.610552289534068677e+03
1.857828667257580037e+03
1.911074366192425941e+03
1.965123907539009224e+03
2.375960583999715709e+03
2.812504970563682491e+03
2.474663836535281916e+03
2.364408441412904267e+03
2.646572802742111435e+03
2.581134110817611145e+03
2.431028018125052768e+03
1.997136040929615319e+03
1.393426187910632507e+03
6.183930882635669946e+01
-1.614698870733370541e+03
-2.823297435225607387e+03
-4.452076151383354954e+03
-6.074099610002372174e+03
-7.208450775835715831e+03
-8.486183416660009243e+03
-9.336335446166884140e+03
-9.989965954667648475e+03
-1.122519039154722486e+04
-1.506187573722216075e+04
-1.701957517857948915e+04
-1.388272705906381634e+04
-1.054733895357233632e+04
-1.376626624792407165e+04
-1.493944801236704552e+04
-1.109790540677035642e+04
-1.194457291733121747e+04
-8.614367222063940062e+03
-1.053924674839869658e+04
-1.131813732937758141e+04
-1.163697373556616185e+04
-1.115971572275194740e+04
-1.119733124067606514e+04
-9.381817982284463142e+03
-1.396708353488544526e+04
-1.293701217996440209e+04
-1.017656666105310978e+04
-6.742646465494331096e+03
-5.745153516993783342e+03
-7.682947056465413880e+03
-5.370835261578704376e+03
-2.270633351821748420e+03
-1.280156532687085473e+03
-3.032439932663025957e+02
5.902946069007502956e+02
8.996203228794075812e+02
-1.372085181880292339e+03
8.423453720488199679e+02
3.381220814716048721e+02
-3.945557876977337628e+02
1.391493480796308177e+03
1.587425565367186664e+03
7.254323898324663560e+02
2.468768383311869385e+01
-3.959284755010382639e+01
6.713325009322915093e+00
2.117613398863891234e+02
6.127585222686371935e+02
1.079923437096877024e+03
2.091553434259429650e+03
3.473904628292916186e+03
4.917191515375944618e+03
5.845646936951898169e+03
6.291631419543556149e+03
7.277444982009218620e+03
7.917324495045966614e+03
7.991534095886780051e+03
8.013383445573988865e+03
7.806121913638661681e+03
7.408018227815350656e+03
6.645232315640739216e+03
6.237920331424939832e+03
5.339298324634665732e+03
3.820555823543910265e+03
2.405275092525823311e+03
1.674861393116718546e+03
1.392655847258157110e+03
1.095989591064115984e+03
1.114926484107642182e+03
1.803665065019011763e+03
2.629490769656988050e+03
3.183906515827721250e+03
2.796020026495697948e+03
3.075429362895156828e+03
4.782732821137768951e+03
5.214465833892028968e+03
5.349841793238807441e+03
5.641041409815306906e+03
5.856303250899232808e+03
5.880458364084275672e+03
5.551863910938137451e+03
5.035865715141707369e+03
4.007379260982077994e+03
2.742581552899001508e+03
2.008030288276422198e+03
1.489887596832775216e+03
8.251399094401584762e+02
2.319282369917685571e+02
2.474111910892789012e+02
7.457637231411354151e+02
8.690752144420857803e+02
1.033455660292567018e+03
1.472925775545566694e+03
1.871708953541620303e+03
2.615996657601400329e+03
3.294910614849365629e+03
3.930524643206552355e+03
4.401962003583143087e+03
4.413463732472241645e+03
4.442184233080230115e+03
3.579187503972706963e+03
2.632542143654748543e+03
1.381253889634211646e+03
3.083395196190378442e+02
-5.192077671684235156e+02
-1.420341072144356531e+03
-2.054946176009028932e+03
-2.170982932447254825e+03
-2.031444616256042764e+03
-1.808219240575939693e+03
-1.219290035645509761e+03
-3.305718028447602705e+02
3.500730162443517912e+01
6.604776860468671202e+02
1.520866557346325408e+03
2.270247114380851599e+03
2.232607195570000840e+03
2.231890556663579900e+03
2.063132731834034985e+03
2.172312213230731231e+03
2.029376852205519981e+03
1.400250886409638042e+03
5.788711563697206657e+02
-4.448207087243894193e+02
-1.441946686736536776e+03
-2.206586102359138295e+03
-2.515789102856639602e+03
-2.465653641782693285e+03
-3.216268311729968445e+03
-3.476677544914303780e+03
-1.470940766910758384e+03
-1.503162007010755133e+03
-5.228382536440819422e+03
-7.381651049483510178e+03
-5.749992979713924797e+03
-4.610507517721041040e+03
-4.178282921803825957e+03
-3.969365810260293074e+03
-4.202839621447477839e+03
-4.601000720287124750e+03
-4.613946996098473392e+03
-5.050819581443074640e+03
-9.247186630883862790e+02
1.383174487633705894e+03
8.236563474335346200e+02
-2.194452065132482517e+02
-7.373288710671577064e+02
-1.421132154050632835e+03
-1.963002686886908805e+03
-1.784077424902391158e+03
-1.042486402018810168e+03
-8.243664792607800109e+02
-4.328408595360243680e+02
6.759630341913791653e+02
1.388902662299119129e+03
1.280837660718607367e+03
1.447624213890822602e+03
1.949074115019376677e+03
2.208077964744108158e+03
1.888414249698613503e+03
1.403926645063292881e+03
1.088479727422452243e+03
4.118080765250260811e+02
-9.502718889702874776e+02
-2.494915848172878668e+03
-3.346376421256949470e+03
-3.695861844708867011e+03
-4.034570522138287743e+03
-4.107682674738342030e+03
-4.089353698701600933e+03
-3.187743657429728501e+03
-2.296952987596373987e+03
-1.554123114459416456e+03
-8.733826096300806512e+02
-2.509146737679896262e+02
3.121229423114988322e+02
3.755908206949607120e+02
1.122678313620096162e+02
-3.840350635993842161e+02
-6.834314985091808694e+02
-1.403107998300398776e+03
-2.176279790936252084e+03
-3.203198537818755085e+03
-3.987086848056239432e+03
-4.815193923184975574e+03
-5.394639005575270858e+03
-5.336621417081211803e+03
-5.480395405794534781e+03
-5.479096859899765150e+03
-4.997888201798898990e+03
-4.068823980962228234e+03
-3.176917914077099795e+03
-2.531111293144632327e+03
-2.057572305531772145e+03
-1.495376342683979829e+03
-9.238287920652616094e+02
2.397573809152025603e+02
7.272115174805102242e+02
1.041419859451767707e+03
7.582970478916231514e+02
-1.422791394844107344e+02
-1.749558746623761252e+01
-3.646081563572548703e+02
-1.514639860712604786e+03
-2.170821304397110907e+03
-2.563355388927463537e+03
-2.972381259886017688e+03
-2.656063990924962127e+03
-2.267541747318282432e+03
-1.704917101343139393e+03
-8.432402356556520999e+02
2.873489814786468060e+02
8.637216527598269522e+02
1.604755335953587974e+03
2.424413378374653348e+03
3.146609038844241240e+03
3.590205498801445628e+03
3.985107088792742161e+03
3.934303597980163431e+03
3.608721624758409234e+03
3.224270903637228002e+03
3.009851737425014562e+03
2.315317730068464698e+03
1.591559834491681386e+03
7.824299608647663717e+02
2.238962228034128259e+02
-2.412030608321546410e+01
-1.637373098763153791e+02
-4.479132544738242814e+02
3.950078249848144196e+01
2.473624990028347952e+02
4.993930873624990454e+02
1.044392602951590561e+03
1.420195479483817053e+03
1.083784397689658590e+03
1.315944969634473182e+03
1.685507198596321132e+03
1.808339726674129906e+03
1.991414498136369502e+03
1.890685198173595154e+03
1.109206754117210721e+03
4.529839871347117537e+02
-6.280405945928812343e+02
-1.877864151035775421e+03
-2.961492602515606904e+03
-3.273053985235071195e+03
-3.275594375662305538e+03
-3.521188246428865568e+03
-3.338913847135067499e+03
-2.312750483640566472e+03
-2.050749713124685059e+03
-1.217976078176028068e+03
-2.124062995441060764e+02
4.338567758367956344e+02
1.236090331222333816e+03
2.109182858783097345e+03
2.786494079119814614e+03
3.569795065455182794e+03
3.646009260776497740e+03
3.392180593241224869e+03
2.636316195111242905e+03
2.126427524298659591e+03
1.628516663389177666e+03
8.225760761569856641e+02
-1.632448752330973775e+03
-4.068700136079417007e+03
-2.214675923008539485e+03
-1.305978593395836697e+03
-1.115174545896032896e+03
-5.735698019162756509e+02
7.885780196462182801e+01
7.436523382537046700e+02
1.589887273815281787e+03
2.464656559000743982e+03
3.303855259453855524e+03
4.173261280222288406e+03
4.753877963801980513e+03
5.068610744367483676e+03
5.170714507322723875e+03
4.794907141079575922e+03
4.170460812427737437e+03
3.625932937812072396e+03
2.876901288496273992e+03
1.661492165533991283e+03
5.889377283793083961e+02
-6.468337763172352197e+02
-1.260657952207931203e+03
-1.490024527550893481e+03
-1.445091046528237939e+03
-9.826882282149379080e+02
-2.126846620886267942e+02
3.259602740349531587e+02
9.959227551518984001e+02
1.388278473923534420e+03
1.974167967200261273e+03
2.435829921436646146e+03
2.756602979458725258e+03
2.600534173657421888e+03
2.504809004785618981e+03
2.144953704227258640e+03
2.290050556432207486e+03
1.841074012395008367e+03
7.362168803877182199e+02
-6.782915809367181055e+02
-2.049311032498579607e+03
-2.927652493454109390e+03
-3.717141015984548176e+03
-4.739620357316022819e+03
-6.210913455581166090e+03
-6.421761333930749061e+03
-5.872907146817413377e+03
-5.245145165834092950e+03
-4.872298611902301673e+03
-4.298088989291081816e+03
-3.754262210690782467e+03
-2.938575743542754481e+03
-3.328796266185527202e+03
-5.098753133609299766e+03
-7.775337835206417367e+03
-1.189937321202263047e+04
-1.228460663244392708e+04
-1.242886664137843400e+04
-1.303304114151454633e+04
-1.370102058643471719e+04
-1.442967230348878184e+04
-1.507191085088986802e+04
-1.501365581312493850e+04
-1.112085207020989219e+04
-7.561445125786081007e+03
-1.228535280322835570e+04
-1.452604258929888965e+04
-1.327162588446905283e+04
-1.183005190655448496e+04
-1.046423957694677119e+04
-5.677090135536836897e+03
-1.005456468225442450e+03
1.456393281881816506e+02
-3.003748272817468660e+03
-6.429539970922276552e+03
-5.885664811353201003e+03
-5.171097479519694389e+03
-5.166876880965399323e+03
-5.542997551668889173e+03
-6.281486317047552802e+03
-7.243356619968198174e+03
-7.838688475814171397e+03
-6.589545841754454159e+03
-1.786969066200005500e+03
-1.024975929028997143e+03
-2.056526058868878977e+02
1.239953815363273861e+03
2.338772594178500185e+03
2.656711758816695237e+03
2.651714927571434146e+03
4.076712298449072478e+03
5.913652239293879575e+03
7.203403532853172692e+03
8.607910854434187058e+03
9.510047037657219335e+03
9.374687066202031929e+03
8.587721659708589868e+03
7.810985415890785589e+03
7.497309908619419730e+03
6.845500073650998274e+03
6.186322806149582902e+03
5.701604052319024049e+03
5.391136990885429441e+03
5.251652880145859854e+03
5.380992703423790772e+03
5.757001841836707172e+03
6.437446991543918557e+03
7.775131036685409526e+03
9.112891518331120096e+03
1.011658504941999308e+04
1.144505410817678967e+04
1.259609902172290640e+04
1.366749088035107525e+04
1.393299888619491321e+04
1.413842700255523232e+04
1.409657901343142294e+04
1.357927329794545403e+04
1.280026643569409134e+04
1.252332208718963557e+04
1.177219259174973922e+04
1.036351657090656954e+04
9.390040674544014109e+03
8.885486369980204472e+03
8.239710161954699288e+03
7.810095549545289941e+03
7.711547436768035368e+03
8.287236783749931419e+03
8.923768399181148197e+03
9.331396420487057185e+03
1.026894229151759464e+04
1.106324359918552909e+04
1.115513005464957314e+04
1.138641767996028284e+04
1.114586559968127040e+04
1.142332040137242620e+04
1.130943697302594410e+04
1.053400333349200628e+04
9.490752181069628932e+03
8.189574755432718121e+03
6.863207097315455940e+03
5.328508536201956304e+03
4.064311128243974508e+03
3.070397620771516358e+03
2.194599413251475653e+03
1.465826433274353803e+03
1.341961125203852589e+03
1.731879217112943024e+03
2.205479800635253923e+03
2.350785156210628884e+03
2.699714230240757388e+03
3.336165192350187681e+03
3.317119106295762776e+03
3.021557574276726427e+03
3.449454062733652790e+03
2.982753257148516241e+03
2.129440686850437032e+03
1.317559092209706250e+03
3.781423359314305230e+02
-6.398587300808600276e+02
-2.289490437657914299e+03
-3.796736754335722708e+03
-5.282616860134035960e+03
-6.985081797920746794e+03
-7.764175806441355235e+03
-7.980822880974360487e+03
-7.860922147781911917e+03
-7.895378606501871218e+03
-7.376071753491897653e+03
-6.455869213251692599e+03
-5.976563526847057801e+03
-5.770974958674456502e+03
-5.346919359644708493e+03
-4.655276073721360262e+03
-4.337838248464345270e+03
-4.631402394716926210e+03
-5.198734812800863438e+03
-6.704684063763029371e+03
-7.744082447904877881e+03
-8.566750167151836649e+03
-9.901497208896491429e+03
-1.146006324541723188e+04
-1.300222814278790429e+04
-1.601375824673834904e+04
-2.000544519102989216e+04
-2.406000205247667327e+04
-2.225310005491311313e+04
-1.606039738168678377e+04
-1.442857618702635955e+04
-1.418331768250379173e+04
-1.389829224977711783e+04
-1.334706949055260884e+04
-1.265329891615868110e+04
-1.236860561743065773e+04
-1.269558428273239224e+04
-1.319781151658797171e+04
-1.247787993439821003e+04
-1.282435188582866249e+04
-1.322887704950542684e+04
-1.363409686013095234e+04
-1.430361030765551368e+04
-1.515306437905727944e+04
-1.606804567600389237e+04
-1.616218993251179745e+04
-1.622908365512350429e+04
-1.634929781105034272e+04
-1.654633307485074693e+04
-1.599976804384075513e+04
-1.558519228034968546e+04
-1.579413029666560760e+04
-1.591308040842389528e+04
-1.504961578442194150e+04
-1.433419433996458429e+04
-1.393730504179214950e+04
-1.363450165873123842e+04
-1.358736997707676710e+04
-1.405240642488181584e+04
-1.510817043768575968e+04
-1.533521904816479764e+04
-1.566817183545227090e+04
-1.634162743163255618e+04
-1.529617744936452073e+04
-1.041640644430048633e+04
-5.408954485347800073e+03
-1.410379389432539710e+03
1.709680616613028405e+03
4.173621820203893549e+03
7.444854701553810628e+03
9.545882497468344809e+03
1.001107199157065588e+04
9.589786712799494126e+03
8.968457389188444722e+03
8.468415920506033217e+03
8.378997944779308455e+03
8.866583158236871895e+03
9.208457917224341145e+03
1.024697867290350223e+04
1.148946352473936167e+04
1.248815126117332693e+04
1.353125249983413050e+04
1.462599404460167170e+04
1.535561362780608215e+04
1.598327723396130023e+04
1.642412667551492632e+04
1.665641130990353122e+04
1.701124880688113626e+04
1.583175282520398105e+04
1.793310187926591607e+04
1.856754674965379309e+04
2.344818615141236296e+04
2.539910860076809695e+04
2.670838630034764356e+04
2.790714669708759538e+04
2.880153237378170525e+04
2.994660457478793978e+04
3.055636234788020738e+04
3.097383007222520246e+04
3.021400340777588281e+04
2.558900453826092053e+04
2.257391029994815472e+04
2.510024319431501863e+04
2.529489135455846917e+04
2.138379051830965909e+04
2.294578550815581912e+04
1.890972539908102044e+04
1.983445410665041345e+04
1.631382456828074282e+04
1.409065067264760728e+04
1.551773439397085895e+04
1.692790191853059150e+04
1.627292467126745032e+04
1.862363076357953469e+04
1.541279473937659895e+04
1.601613442386743009e+04
1.555441515823487498e+04
1.286828727946215076e+04
1.197645161197767266e+04
1.406064906251872708e+04
1.159851810506011498e+04
5.229706567446985900e+03
7.289803308759570427e+03
7.167357216996250827e+03
5.430919728461932209e+03
3.049023722191121124e+03
-1.689794407022753603e+03
-8.379159317503067541e+02
-4.418842508543871190e+03
-4.430979811360450185e+03
-6.411796201634844692e+03
-7.097760583474787381e+03
-6.929354192530977343e+03
-8.219037809393865246e+03
-6.175257346707409852e+03
-5.091492938631778998e+03
-6.188336533216145654e+03
-7.399287539831133472e+03
-8.136822370712648990e+03
-9.488451328186674800e+03
-1.104176258568247067e+04
-1.243331137375024264e+04
-1.396266452771918375e+04
-1.566538884793076249e+04
-1.712100855607937410e+04
-1.840021936426663888e+04
-1.901066067216836382e+04
-2.015391797927534208e+04
-2.085757910356167849e+04
-2.082221158611688952e+04
-2.019937089511374143e+04
-1.891464840321269730e+04
-1.791851554047190803e+04
-1.732550287303679943e+04
-1.717208993795481365e+04
-1.672159313093626042e+04
-1.625358757309555040e+04
-1.577067710200304464e+04
-1.532532014327582692e+04
-1.497311534682820820e+04
-1.493464964644703286e+04
-1.474153903177234315e+04
-1.513439129705660707e+04
-1.671807309420479578e+04
-2.033315824297231666e+04
-1.803560101198227130e+04
-1.627005217993602309e+04
-1.578721836018426802e+04
-1.554056045065565741e+04
-1.473764552359510708e+04
-1.263856397111987462e+04
-1.141033539259274039e+04
-1.033416925111776254e+04
-8.859695014646169511e+03
-7.343385296329011908e+03
-6.112459675612674801e+03
-5.145311912288934764e+03
-3.983288511244909387e+03
-3.324775263579334023e+03
-2.758136409032416395e+03
-2.450709872098518645e+03
-2.102862763613899460e+03
-2.209090795845409502e+03
-2.029958079640510505e+03
-2.058487395556579486e+03
-1.994006791663340437e+03
-1.554987108441714099e+03
-1.260776165547679739e+03
-5.076210694219781772e+02
5.883589872274792469e+02
2.081828783531840145e+03
3.517583964124672548e+03
4.943503556578330063e+03
6.198400084370410696e+03
7.071243495935807005e+03
8.336985541987580291e+03
9.544584224481468482e+03
1.040499244030919726e+04
1.094811293664108234e+04
1.102493477651961075e+04
1.127543437828226888e+04
1.120657272687818840e+04
1.027534920593728202e+04
9.938757160600602219e+03
9.525859682133766910e+03
8.772618321011830631e+03
8.215064876979469773e+03
8.099249272875205861e+03
7.979243019348138660e+03
8.534205332586772784e+03
9.144266877093225048e+03
9.976618373670773508e+03
1.051245376950829814e+04
1.083801417639095962e+04
1.116254640539038155e+04
1.166833050897182511e+04
1.176663861959277710e+04
1.174274642695775401e+04
1.177283610983171457e+04
1.021023647655760578e+04
6.757261816720230854e+03
1.879195728116834289e+03
-4.316816419286847122e+02
3.457937156021894680e+03
5.572355126947182725e+03
2.489197243217123514e+02
-5.027081453465800223e+03
-5.118326324334299898e+03
-5.340346505210797659e+03
-5.122813507501991808e+03
-4.847373258911979065e+03
-4.517487277314407038e+03
-4.342761907921985767e+03
-4.069768288572061010e+03
-1.940817172985252910e+02
3.349729769345920886e+03
3.646175415984108440e+03
4.215728568131125940e+03
3.930855231671665933e+03
3.526041048879964819e+03
2.813755300941233600e+03
1.661422644922077325e+03
5.504789608583944300e+02
-7.156525371441266543e+02
-1.972538816152251229e+03
-2.689753740995856333e+03
-3.730904217999754110e+03
-4.186548573159400803e+03
-4.368214496362546925e+03
-4.478454609534356678e+03
-4.061816485807373738e+03
-3.604753645810284979e+03
-2.992748960433023967e+03
-2.361421756233675296e+03
-1.884231463321470756e+03
-1.438698924812751784e+03
-8.623831209647212290e+02
-4.028301056575439247e+02
-2.435953861270985215e+02
-1.991896130672120933e+02
-6.552313089159054016e+02
-1.071338188134262282e+03
-1.931088968502210264e+03
-2.669129887472238806e+03
-3.248145233496221408e+03
-3.824861993743597850e+03
-4.218899684796734618e+03
-4.400959274292434202e+03
-3.965779542928171850e+03
-3.234976568294963727e+03
-2.196175063497057636e+03
-1.369064882967368476e+03
-4.483652076568857296e+02
7.362377548808127585e+02
2.281094779766210195e+03
3.497504453514916349e+03
4.073798781803069687e+03
4.207177345207966937e+03
4.337860907290314572e+03
4.445076642487319077e+03
4.157066661336130892e+03
3.873955831294183099e+03
3.163935977592390827e+03
2.399285180421191399e+03
1.736499043651502916e+03
1.263362755401031791e+03
8.185944518650775308e+02
2.018545770627972615e+02
1.399855535611203265e+02
6.828982758712623991e+02
1.153626225857587997e+03
1.166168263465310474e+03
7.097582881274656756e+02
1.758488633972951220e+03
2.795396240467141070e+03
3.601385825242360170e+03
4.179490492059161625e+03
4.354712574678765122e+03
4.270977203775933049e+03
4.026283962451579100e+03
3.761574565272973814e+03
2.826817284146835846e+03
1.893840581069672453e+03
1.179555526614671635e+03
7.418437945142992476e+02
2.316071430433737817e+02
-6.393386078019258321e+02
-1.259120464369937736e+03
-1.455811227149036313e+03
-2.010564913088039702e+03
-1.864577882043395675e+03
-1.169978268845127332e+03
-5.008676245340773221e+02
-2.941011755270310246e+01
7.482486626320596770e+02
1.481016049554144956e+03
2.164771357875152717e+03
2.332260202643483808e+03
2.356229167438369132e+03
2.196469392215324206e+03
1.677615910018134400e+03
1.096085714626843355e+03
5.965169230628941932e+02
-5.623792638451295716e+02
-1.639843763721428786e+03
-2.817138620670400542e+03
-3.403664400733069670e+03
-3.666594421246997172e+03
-3.816006830380264546e+03
-3.144077102258482682e+03
-2.390961911583491656e+03
-1.749862810063259303e+03
-1.041044237605411126e+03
-6.077930803750639370e+02
6.699990677129470384e+00
6.841321327157778569e+02
8.512346899847567556e+02
9.747358967711151081e+02
1.110355678928286807e+03
9.977947434417244494e+02
5.028439682985244303e+02
2.624663674861962903e+01
-4.712874411629346696e+02
-1.230922072572907155e+03
-2.529877037814953383e+03
-4.006290451168111758e+03
-3.868636491510957512e+03
-3.718046544931104108e+03
-3.800118152024319897e+03
-3.861871995052110833e+03
-3.872512629067199668e+03
-3.073133294748344724e+03
-2.494903506232213203e+03
-2.047067422542835857e+03
-1.366706636124925581e+03
-9.629372242092545093e+02
-6.248984817347559328e+02
9.045691941305145747e+02
1.628464854328984302e+03
1.446065906323332456e+03
1.039354696345899129e+03
4.135029807582853891e+02
-4.020248282976583596e+02
-1.397943161381984737e+03
-2.037007819271034805e+03
-2.698751012030258607e+03
-3.409025969637660637e+03
-3.519193935483006044e+03
-3.833404560118741756e+03
-3.399598386679791020e+03
-2.560079948618034450e+03
-2.204432747649893372e+03
-1.386916538317297864e+03
-1.083537934444753546e+03
-8.191128557841457223e+02
-1.887715872455156330e+02
2.802658421664247612e+02
5.446322135732796141e+02
8.582964294095726245e+02
7.281179337756740324e+02
2.257367287333123045e+02
-5.839522391064106159e+02
-1.586954122566613023e+03
-2.067801290363838689e+03
-3.090912002034780926e+03
-3.740883159497889665e+03
-4.155931669526603400e+03
-4.485869509912334252e+03
-4.810681024429813078e+03
-5.175147486971256512e+03
-4.687352523624920650e+03
-3.873638474461148689e+03
-3.245943186287109256e+03
-2.655979949291899629e+03
-1.927636740874556381e+03
-1.162826881269649903e+03
-1.037435540625795738e+03
-5.693426258423088484e+02
-1.234531125079865745e+02
-2.862496433236431059e+01
-5.177750819870362875e+01
-6.248690320375629881e+02
-1.316816499538416338e+03
-2.004587624181602223e+03
-3.126046584170976530e+03
-3.998101813609668170e+03
-4.617719409302668282e+03
-5.072849864033435551e+03
-5.405480053219930596e+03
-7.074483884671295527e+03
-9.564694796655225218e+03
-1.172490808092108637e+04
-1.099600763226768140e+04
-1.038984089024482273e+04
-8.681265422521346409e+03
-7.288153854489194600e+03
-6.208338275964602872e+03
-5.865662708224077505e+03
-5.621079702174309205e+03
-5.142447625661322490e+03
-4.420431552034975539e+03
-4.805744209125486123e+03
-5.540778404500476427e+03
-5.601373507656257061e+03
-4.535373625301641368e+03
-4.010614459226547751e+03
-7.580037602614281241e+03
-4.403626882299187855e+03
9.880093201191941432e+01
-2.142620957961010390e+03
-7.092750828470856504e+03
-6.563456126286822837e+03
-5.404531490962236603e+03
-4.011830689029671248e+03
-2.872253706421367497e+03
-2.028603211261658544e+03
-1.306737881372677748e+03
-6.755272160592030559e+02
-2.389061011223980131e+02
1.492315924097819334e+03
3.867232728675932776e+03
6.447932875900997715e+03
7.716498745888743542e+03
7.777987456120788011e+03
6.834517146270206467e+03
6.581135172285493354e+03
5.961877266616335874e+03
5.648809487819504284e+03
5.578011841829750665e+03
5.269572783603621247e+03
5.949609204026867701e+03
6.542258703805766345e+03
7.052581902930729484e+03
7.801686627388031411e+03
8.471670169110657298e+03
9.170591247145746820e+03
9.807533306215389530e+03
1.012954413224922791e+04
1.042067631592968792e+04
1.038807062299315658e+04
1.090273064661884746e+04
1.043669829181397290e+04
9.634996571905310702e+03
8.965651300484803869e+03
7.878637532805028968e+03
6.857940398516680034e+03
6.010518356709218097e+03
5.479340049085481951e+03
5.245399033454888922e+03
4.897742113213374068e+03
4.994358033112847806e+03
5.691258042173507420e+03
6.482430933492668373e+03
7.394780093515717454e+03
7.814500612740025645e+03
8.463629410489045767e+03
8.641123156448311420e+03
8.809060355024397722e+03
8.928231449289356533e+03
8.575856341661543411e+03
7.807827351302820716e+03
7.216950003129234574e+03
6.368090240871136302e+03
4.948395123470771068e+03
4.444698370913945837e+03
3.846862347329839849e+03
2.656804338592248769e+03
2.528412068424800964e+03
2.413530358651251390e+03
1.983100027636352479e+03
2.135058183364704746e+03
2.042052809409267184e+03
2.228860297800251374e+03
2.500618675183719006e+03
2.656018061870669044e+03
3.135925761174235959e+03
3.520186046650517710e+03
3.657706017563717523e+03
3.704376781446616405e+03
3.315022999830924618e+03
2.565534073026793067e+03
1.878780245089412119e+03
8.445310802446379057e+02
-3.313813888514794712e+02
-1.749158446209042268e+03
-3.249998704722819184e+03
-4.599056221800323328e+03
-5.477599225661760102e+03
-5.846770970984238375e+03
-6.305728618326952528e+03
-6.349655778161059970e+03
-6.305715297244296380e+03
-6.194004601973131685e+03
-5.924696717421281392e+03
-5.470934963370353216e+03
-4.753781759705794684e+03
-4.360390007769618933e+03
-4.373922557583741764e+03
-4.523558845826696597e+03
-4.304398393030315674e+03
-4.230615420976137102e+03
-4.977394961407148003e+03
-5.616871909602420601e+03
-6.320251460930502617e+03
-7.571732467417259613e+03
-8.570502569537396994e+03
-9.150772398878789318e+03
-9.449736080680659143e+03
-9.538481741065848837e+03
-9.469114657955575240e+03
-8.909775896085457134e+03
-8.061585389550305081e+03
-7.113663483173826535e+03
-6.264072098592370821e+03
-5.224813181082370647e+03
-4.538935310042284073e+03
-3.680556011146041328e+03
-3.894745020063818174e+03
-6.259599747581071824e+03
-9.775162951110371068e+03
-1.047847249738579558e+04
-1.012863031114768455e+04
-9.362733810538769831e+03
-4.266868616458014912e+03
-2.698058117341747220e+03
-3.085333258557927820e+03
-3.723854586692914836e+03
-5.114639830360800261e+03
-4.513607635540384763e+03
-3.622782680199477454e+03
-2.606340209623247119e+03
-1.430169045411907973e+03
-5.772588976397926217e+02
5.683549340062719466e+02
1.188704989664638106e+03
2.058895994767781303e+03
2.601947638757937966e+03
3.378928995484517600e+03
3.694952363173952563e+03
4.008039685426285359e+03
3.938279700890790082e+03
3.767650293403378328e+03
3.381199654620621004e+03
2.778031341340057224e+03
2.142151252825761730e+03
1.127578934837330962e+03
3.034380561502281921e+02
-3.252484755608354021e+02
-4.634341825646148436e+02
-5.840370134867871457e+02
-5.379558024141153965e+02
2.048964575503652270e+02
1.294670024995458789e+03
2.640477165156270530e+03
3.473482916668330745e+03
4.056858915615877322e+03
4.673725316263469722e+03
5.456218428048722672e+03
6.104505318258699845e+03
6.243665796819510433e+03
6.314893985513481312e+03
6.030336323575331335e+03
4.956114891744514352e+03
3.891319352943468402e+03
3.293024194653205996e+03
2.357354205459057084e+03
1.905420929871470207e+03
1.798332104427385957e+03
1.641209142382447453e+03
1.438205070439941437e+03
1.836516088791562424e+03
2.411303127955582568e+03
3.285730405501084988e+03
3.971026766588989631e+03
4.571341341076331446e+03
4.775910165570651770e+03
5.242912546864553406e+03
5.547497736209566028e+03
4.965823226712474025e+03
4.972034008908312899e+03
5.240359528485203555e+03
4.891986550361584705e+03
4.525059684166115403e+03
3.952590169684543525e+03
3.134748702904621496e+03
2.379669456221545715e+03
9.815119932876691564e+02
8.023961273742556841e+02
7.123753632229944515e+02
1.796590116740229917e+02
4.413876804955162356e+02
1.429652385576098368e+03
1.599804018817372935e+03
1.193995461332629702e+03
3.569217199087557674e+03
4.444691418491907825e+03
5.137635100424793563e+03
5.288181653540214938e+03
5.421507635371694050e+03
4.833753435298895056e+03
-1.469338301855748909e+02
-3.609476609599741550e+03
-3.812786071953860755e+03
-3.914705805609059553e+03
-4.526196622910740189e+03
-5.493200292142161743e+03
-6.440633483817559863e+03
-7.052471624845052247e+03
-6.801589722867647652e+03
-6.973980932196488538e+03
-6.803482183297326628e+03
-6.359948621085265586e+03
-4.889350748702749115e+03
1.566417009340648065e+03
4.098408885000128066e+03
-7.427408743969280636e+01
2.002536616156324499e+03
1.173941655323756322e+03
-1.281999805913874752e+03
-1.371292453976730258e+03
-1.920885607197273885e+03
-2.359635701949157010e+03
-2.829601800422539327e+03
-3.560759812496972700e+03
-3.609085263116595797e+03
-1.161601818529811858e+01
1.043598238103677659e+03
6.855363507471768116e+02
-2.028432692167489222e+02
-4.345506298549288999e+02
-4.425475918273839966e+02
1.301857844547287471e+02
5.396617563051961497e+02
1.106956765830099584e+03
1.867984073125260011e+03
3.187766658457567246e+03
4.195284127686667489e+03
4.671534938889594741e+03
5.005534440568345417e+03
5.051241873924001993e+03
4.841541641888338745e+03
4.701199691122308650e+03
4.273745549534707607e+03
3.676669791035321850e+03
2.537319241014108684e+03
1.262419193745801749e+03
1.121486818553986353e+02
-5.347915760513186569e+02
-1.056243649514767185e+03
-1.189794275972583364e+03
-1.001105137891601657e+03
-7.104509902372788019e+02
2.039493722702175376e+02
1.421205106947211334e+03
1.928281275713509331e+03
1.972072860876193090e+03
3.301618007127078727e+03
4.154846359143309201e+03
4.069311398377482874e+03
4.341390976545332705e+03
3.851593781376145216e+03
3.457745048201460577e+03
2.576836732558560925e+03
1.561275196404490544e+03
3.969774420644999964e+02
-1.041007508379741921e+03
-2.044411586174039940e+03
-2.964171299367359552e+03
-3.109762574033288729e+03
-3.170514330985452943e+03
-3.271380495790741406e+03
-2.814039062655285761e+03
-2.047015946353090385e+03
-1.247204901785072479e+03
-1.022601029413142442e+03
-2.833408018637562691e+02
5.691802866689714619e+02
9.841641510032660563e+02
