-1.159030727833146784e+03
4.218070022858789798e+02
1.088094562419469867e+03
7.847373418215219090e+02
1.084694309638270397e+03
1.420989226870765833e+03
1.363623268071802386e+03
8.005827455071852228e+02
6.038120924557306353e+02
1.332448356814166175e+02
7.292596091142139869e+01
1.558816156105007735e+02
1.920957613085688251e+02
8.055109985431012092e+02
8.071062165744624508e+02
4.218388163757630309e+02
4.037088963712654959e+02
9.078792880969089651e+01
9.403942734165953254e+01
1.314933148718970131e+02
4.861294390939924597e+02
7.949619040902349525e+02
1.030951172045548219e+03
5.990778438981490126e+02
1.113456928269445996e+02
1.208235605851970433e+02
3.255129519642252944e+02
-2.368800057827427352e+01
-8.897799141029641987e+02
-3.948736293331924117e+03
-3.884678613287715052e+03
-1.184425303305279385e+03
-6.277889274316773935e+02
-1.883930329871954200e+03
-4.765880889809487599e+03
-2.855637446324721168e+03
-1.817238098116566562e+03
-2.256693983230034519e+03
5.310391423669707365e+02
1.315940102315543072e+03
1.281040905983364382e+03
8.883545730261262179e+02
8.749152570856155080e+02
-1.203342865793458259e+03
-9.573759342609869236e+02
5.588879964056692415e+02
-1.823529163082750756e+03
-2.051679222436227974e+03
-2.501517411963188351e+03
-2.505031405166722379e+03
-1.331653508066887639e+02
-3.417968667296245258e+03
-4.734400923907658580e+03
-2.977400228175687971e+03
2.389819851491351130e+02
-1.799189869918650174e+03
4.912566152502432004e+01
-2.501092142279691757e+02
-2.689928281437438272e+03
-3.033269966427710642e+03
-6.130901760324658198e+02
6.636350434907693625e+02
7.549249165588980759e+02
1.427794731610934832e+03
1.754296087956883639e+03
1.369438215937452014e+03
1.324169924171432513e+03
8.624869833208927048e+02
5.645032621188533994e+02
6.182739500383580662e+02
4.269230644759149840e+01
4.277876341508143696e+02
1.742694192551619835e+03
2.211476862764347061e+03
1.636057951972783940e+03
1.445389770919417742e+03
1.329470016365919491e+03
1.384337837087876096e+03
1.535092618007992542e+03
1.678692885914339968e+03
1.692146584245121630e+03
1.288328668373636674e+03
1.282262378602514900e+03
1.826969899892553485e+03
2.045483003282453637e+03
2.194430279403039549e+03
1.737821990317307382e+03
1.240491882047975423e+03
8.732041555042648042e+02
6.492683044977778763e+02
5.856692934124127987e+02
7.024872025592608225e+02
2.857640477663460956e+02
-1.309769745599295163e+02
4.997106852164121733e+02
3.152192103931093925e+02
4.131741460367397281e+02
8.367271758718577530e+02
9.016337443748694795e+02
8.728002051866127431e+02
1.040282093939682909e+03
1.506184977057556353e+03
1.658610319565314512e+03
1.588336448681840238e+03
1.567712679405938161e+03
1.352184619056600695e+03
1.017108272519171464e+03
1.064362099408941731e+03
6.825994628700375415e+02
4.119823840735080012e+02
4.275743362238676468e+02
4.515873733660348535e+02
5.896575943997675040e+02
7.927772561280534092e+02
1.028788666115060096e+03
1.354727940990867410e+03
1.555640916926858608e+03
1.500419019197355965e+03
9.870429656423636970e+02
6.575623544343723097e+02
8.799012502401768643e+02
1.490019080090652096e+03
1.678893397080375962e+03
1.514637145816684551e+03
1.425283933195246846e+03
1.084763015771899745e+03
6.930530343939982458e+02
2.141162786127072195e+02
1.489327996398776577e+02
1.594536817124729566e+02
2.577418732287382568e+02
2.868087611035006717e+02
-3.083262642453456692e+02
-6.170897559128404453e+01
2.647341010111210267e+02
2.109227055892854423e+02
1.307042410006979765e+02
2.601574965677460227e+02
7.623673552359026644e+02
7.392886418677107940e+02
6.159602756660439127e+02
4.864275039743662319e+02
2.797581435031593173e+02
3.668065979192489863e+02
4.534802019342312178e+02
5.067851524762129429e+02
7.377197409729967603e+02
1.306309547615230940e+03
5.665748510440170094e+02
-1.485392170480140749e+03
-4.560756935862184037e+03
-6.534551715516983677e+03
-7.137731063179432567e+03
-7.652238450144594026e+03
-6.734026862726494073e+03
-6.386094703057126935e+03
-6.126528806549541514e+03
-6.848363471568766727e+03
-7.188236626578262985e+03
-6.995285722601626730e+03
-5.681550412159910593e+03
-1.657225069246228713e+03
-1.463230628497426551e+02
-1.347416992696972500e+02
-2.863924828723249902e+02
-1.062991175542945399e+02
1.844751199037108620e+02
5.899412530650026838e+02
7.801106446954005378e+02
8.820048638076303860e+02
6.505594141983777945e+02
1.171836863487227674e+03
1.584866951138373224e+03
1.507635256943087143e+03
1.285193747659998280e+03
5.695693033156619549e+02
6.817589452019038845e+02
6.237833862410847132e+02
6.896565890255694740e+02
8.763851377553659177e+02
1.086970391811727950e+03
2.070499711418808602e+03
1.948960883851031213e+03
1.339343597676591571e+03
1.194645008517981751e+03
1.276911220036028453e+03
1.129221878892171617e+03
8.155916331045970082e+02
3.989805632851636688e+02
2.733642029184693456e+02
5.506915244939774539e+02
1.046988248414390227e+03
9.693033770106549127e+02
7.207055588610861605e+02
7.882397366725302845e+02
8.688937717169089865e+02
9.976667189549791601e+02
8.656168944649281229e+02
9.567540670312641851e+02
9.310925814917079606e+02
7.157143474329261608e+02
4.976267524774609683e+02
2.847670866248503785e+02
1.792001171888115891e+02
5.619318776841749923e+02
5.290322572211779288e+02
4.055255469526006777e+02
4.494087814713168996e+02
4.587648939157010659e+02
5.665830125730510645e+02
5.237917390842821987e+02
3.093372075026773018e+02
8.949414161272163426e+01
-2.344350388552022366e+02
-2.285004113839657407e+02
-2.338267335571188426e+02
2.546195048279056650e+01
9.738656128611565066e+01
4.969642789040858020e+02
6.751584328510815567e+02
-1.460503766197545588e+02
-6.496057500755665615e+02
-8.563575881806533516e+02
-9.502693701203103274e+02
-2.964083974219674360e+02
5.891654447640771650e+02
9.354139593463911524e+02
5.325133351737495104e+02
3.362424310013137756e+02
-3.642298286060944434e+01
-5.631508256755157618e+02
-2.451048207544130833e+02
2.096654196366877727e+02
4.515916523873335819e+01
-1.259925711745247057e+01
1.314056021730395685e+02
-1.282105886062517008e+01
-2.082157495259568805e+02
-6.317951174965901373e+02
-3.446583006557507929e+02
1.132107993107588157e+02
3.119376153925430231e+02
-9.755233947650367554e+01
-7.862448517222577493e+02
-1.166172183427681375e+03
-9.763044905382126899e+02
-5.706232050181200748e+02
-3.641377976004584411e+02
3.920758422287669873e+02
4.360284033482005270e+02
2.187235124382752360e+02
6.041585915263317474e+02
4.423587592769786738e+02
-2.526798315991056825e+02
-1.579696882059927816e+02
2.125617448901560067e+02
4.159216145811568026e+02
3.440664613874336055e+02
6.777939490315181956e+02
2.590766530120308744e+02
-4.203160979137162911e+01
-8.458862792782051088e+01
-1.706426099673528540e+02
-4.151214411793617955e+02
-6.019537039237403633e+02
-8.992072908082486720e+02
-5.298602751281173369e+02
1.390528861035408568e+02
5.105431927108530203e+02
5.536734821305171863e+02
4.973668756192990941e+02
-8.439355310778003627e+01
-6.125843101705498839e+02
-6.402370645055774503e+02
-6.634026087092761372e+02
3.128085310994156316e+02
6.203337184815799219e+02
3.900634977431123502e+02
1.330010682521348429e+02
-1.388841021666262954e+01
-3.136362999192391499e+02
-8.529007860012895037e+01
3.760620198820422502e+02
2.735676943421585179e+02
1.773583931547699137e+02
-9.445354271972622655e+02
-3.058942859253514598e+03
-2.906141478658202232e+03
-6.763458048226353867e+02
1.018437319464723174e+02
7.052483363301853387e+02
9.876839974317580300e+02
1.090876243518878709e+03
1.132057386837302829e+03
1.131207127461608934e+03
9.602760969012466603e+02
1.401245275463399366e+03
1.376063835778671546e+03
1.154741552253686450e+03
9.325539045495298751e+02
1.145327177256297773e+03
1.339618760014329155e+03
1.632569711822934551e+03
1.315291959849054138e+03
1.088755306076385295e+03
1.042026351960860666e+03
1.402025046384650295e+03
1.028515776942109142e+03
8.318723282403510666e+02
1.152913710470195610e+03
8.684194612632979897e+02
1.059205550377660529e+03
1.496590500349218019e+03
1.450328261353141897e+03
1.133533537037769975e+03
1.249302804743978641e+03
1.299854034030283174e+03
1.254852727602036566e+03
1.564303754453635520e+03
1.516255330246054427e+03
1.591560813613947175e+03
1.664363710075437211e+03
1.350568616115674558e+03
9.517570218931502950e+02
1.074922672499389819e+03
1.719197144920428855e+03
1.293603878790674571e+03
8.002788942174663589e+02
1.180304746205905985e+03
1.827510517372206095e+03
2.185801021459955791e+03
1.828081923128224844e+03
1.641239850531384036e+03
1.608282038001625551e+03
1.724170308132483115e+03
1.667903420748620874e+03
1.660584005388505830e+03
1.124156757269320678e+03
2.124866186327107016e+02
-2.003324956865564673e+03
-5.419305136565848443e+03
-2.015580055803484129e+03
4.819232547603207308e+02
-9.465696107940416368e+02
-5.551769646031575576e+03
-5.989419176968011925e+03
-5.405532616110451272e+03
-3.150355832543458291e+03
1.050080439301760862e+03
1.385862489123200703e+03
-2.945177405293768516e+03
-5.552087669559236929e+03
-5.710774937701807175e+03
-5.717280336790398906e+03
-5.462428184608725132e+03
-5.423029714952365794e+03
-5.384056389749065602e+03
-5.275558587840487235e+03
-4.071415011300265178e+03
-1.319935333639265309e+03
-3.677661629377935242e+03
-5.747603800316478555e+03
-5.804667170011785856e+03
-5.703960012045024087e+03
-5.414441164178572762e+03
-5.736778114254429056e+03
-3.830878025766856354e+03
6.520725092872489768e+02
1.063004186592702581e+03
2.749036831714257005e+03
3.162006033907231995e+03
3.435603568246460327e+03
4.068074983625650930e+03
3.706611451770456824e+03
3.330059599387609524e+03
3.123222620273003486e+03
3.132432837209617901e+03
2.834226713650182319e+03
2.530443649325123260e+03
2.993790273139261444e+03
3.390241130359937870e+03
3.206950926248360702e+03
2.968043172299122944e+03
2.897571355141320964e+03
2.785478318567130827e+03
2.531583372673922895e+03
2.416055546308616158e+03
2.400860656831452616e+03
3.117931942674296806e+03
2.734261259905153111e+03
2.077635044910859051e+03
2.226999462637928900e+03
2.065622404323086357e+03
2.170729098719602462e+03
2.438401329420245929e+03
2.390522689510273267e+03
2.209134639420551594e+03
1.999437428131681145e+03
2.187415625902470310e+03
1.940911856621578181e+03
1.797811312408588492e+03
1.984253885987056947e+03
1.756312049313994066e+03
1.392970762953177200e+03
9.832406984178534231e+02
1.375263174672776131e+03
1.376122481475388440e+03
1.035137942731392513e+03
6.305868647795363131e+02
3.602950906661241106e+02
4.483620535796465560e+02
7.507612371337878585e+02
-7.036565373272459567e+01
-2.680006400813053915e+03
-1.137077674616669810e+03
1.006519797906213512e+03
1.465782682485744317e+03
1.207681778106941010e+03
9.502404507732421735e+02
5.314654180454376728e+02
6.153371634468409184e+02
4.728387902172362374e+02
2.519866572083672622e+02
3.568625091571428811e+02
1.424766730443720917e+02
5.387104246207616853e+01
6.511420947336280562e+01
-4.872883406252837091e+01
-2.046387163834534988e+02
-5.965576410664326659e+02
-6.864341361631561540e+02
-6.471972191876853913e+02
-4.397608380602370630e+02
-5.831357838150134967e+02
-8.232224147739430009e+02
-9.829755235771564230e+02
-1.445361812877589500e+03
-1.548340695581544196e+03
-1.017898291033180271e+03
-1.159936090454657233e+03
-1.355394589967786033e+03
-8.092584555640911503e+02
-7.394953396369958227e+02
-9.420265164069095363e+02
-1.150782533873590864e+03
-1.417743602159761167e+03
-1.440855690366806812e+03
-1.265072947114489807e+03
-1.408424560455724759e+03
-1.108867478700691663e+03
-9.583463613124190488e+02
-9.867994493568528469e+02
-1.167237268133560747e+03
-1.391639643466066218e+03
-1.482909095872747457e+03
-1.439063260927928695e+03
-1.333078953111707051e+03
-1.816900497166933974e+03
-2.238473146770052608e+03
-2.061814136522679291e+03
-2.253902952822073985e+03
-2.408787147586497667e+03
-2.489406855743424330e+03
-2.700737486171754426e+03
-2.755762690843272139e+03
-3.431473730532056834e+03
-5.545886970815158747e+03
-8.692930460781592046e+03
-9.390592772946269179e+03
-6.937881774051918001e+03
-3.820807706320235411e+03
-1.475426465685159201e+03
-5.167284195220521497e+02
-2.006861572323880978e+02
-4.043143707741730282e+02
-5.316905605020963321e+02
-1.553774394046517727e+03
-3.185505123046963490e+03
-2.904996870011019837e+03
-2.507272307428535896e+03
-2.541342061351368557e+03
-2.045439764089999471e+03
-1.248586805828030037e+03
5.965106820413113837e+02
-1.831092386979006505e+02
-1.537773951328473004e+03
1.000449994472764729e+03
1.459653875424584385e+03
1.345110173382999619e+03
1.236602397696114849e+03
1.363747627343647082e+03
1.276840138846651371e+03
1.059688350020182270e+03
1.547186230993168692e+03
2.029330925170802630e+03
1.792283377569618551e+03
1.675695675990578820e+03
2.468401159053700212e+03
2.633295470436162304e+03
2.725795035277968509e+03
2.876677046749973215e+03
2.876788745374888549e+03
2.764872947279043274e+03
2.669025810169183387e+03
2.451317178033306391e+03
2.384376578043038990e+03
2.175152280308010177e+03
2.095452686144023573e+03
2.085319288023375066e+03
2.034684607353859747e+03
2.042759678584500762e+03
2.483199334979745345e+03
3.130850647006707732e+03
4.049872977768089186e+03
4.546807348858739715e+03
4.269750591552374317e+03
3.839634489756009316e+03
3.319411928516956323e+03
2.270824342035745758e+03
1.766915746551771917e+03
1.703769570297566361e+03
1.145941126347097679e+03
5.596702265215909620e+02
-8.218616133948877689e+01
-3.399419176811148873e+02
4.763487626046971286e+02
1.437658009132438337e+03
2.114887081959052011e+03
3.142932755368909056e+03
4.696649256950054223e+03
5.921811955964597473e+03
6.559329484373799460e+03
6.881089046908793534e+03
6.484038818681990051e+03
6.443111388441989220e+03
6.255224294118732359e+03
5.129279104175100656e+03
3.133238284660785212e+03
9.297418207005028989e+01
-1.071671696679373099e+03
-9.537581761042446260e+02
-7.723281212936522024e+02
-7.543849517110949137e+02
-1.305942708670158481e+03
-1.347188014656995620e+03
2.939625691267950060e+03
4.103504936021293361e+03
8.273411711865867346e+02
-1.706899636145419208e+03
-1.715298439738267234e+03
-3.239925645914892357e+03
-1.491848178825715422e+03
-8.701071256506110103e+02
-1.258804617911906462e+03
-1.716967178494928021e+03
2.530380893703386391e+03
3.213172979849145577e+03
3.723403710985367070e+02
9.018281856782327850e+02
-9.714378554833589305e+02
-1.377452620261075936e+03
-8.781857899326815868e+02
-5.637319849833800163e+02
-1.451346308389842363e+02
-3.233868002546942648e+02
-1.266516019990835275e+03
-1.750571723520459727e+03
-2.285526208381014840e+03
-3.781399329851426501e+03
-4.584217355269151994e+03
-5.844002119367673004e+03
-8.629729848491018856e+03
-6.733414032473479892e+03
-5.400065467544886815e+03
-4.033623460228873682e+03
-2.389097067868092381e+03
-1.322442097812916700e+03
2.259361227206359672e+03
5.015312470399653648e+03
3.069437732045508255e+03
1.967741097929400951e+02
-1.239629658424876880e+03
-2.129813428455043322e+03
-1.825676199603209170e+03
1.125839764209914847e+03
4.035741852549982013e+03
5.984048307939317965e+03
6.173832281455407610e+03
5.326166701262758579e+03
4.609125220172805712e+03
3.518775999909084021e+03
2.421125358356674042e+03
2.727299608920945502e+03
2.347394376731487228e+03
-5.425053149426155414e+02
-2.295274037966439209e+03
-4.178645604841382919e+03
-8.710389048574390472e+03
-1.356103922885879001e+04
-1.733558038357139958e+04
-1.824765138133228538e+04
-1.568731133772596331e+04
-1.255877521142397745e+04
-1.203737430332099575e+04
-1.165318663934984215e+04
-1.059330689312921459e+04
-1.188237855138102532e+04
-1.311288693233912818e+04
-1.429678084928048520e+04
-1.624812253582863741e+04
-1.586384589511374907e+04
-1.303584939138515256e+04
-9.141981955522218414e+03
-4.651141750740678617e+03
3.389739307291896694e+03
9.014616751036683127e+03
8.094249637760062797e+03
6.799324725630462126e+03
6.240221208211936755e+03
3.652121777378183197e+03
1.220776412327899152e+03
2.344454421342953538e+03
5.126557811800389572e+03
6.201934915897988503e+03
6.511151273150353518e+03
8.758505202140440815e+03
9.291829648954140794e+03
5.420742496952948386e+03
4.056216538185256468e+03
4.875116903263743552e+03
3.212746008595784588e+03
-2.701525681995627110e+03
-5.671771758975609373e+03
-1.265945793220157384e+03
2.400035208035108099e+03
2.206270503474996985e+03
8.960305152363374646e+02
1.231236790399827669e+03
2.840162431253541854e+03
5.260910712136105758e+03
7.047672359217760459e+03
6.806411278483004935e+03
8.779197585793703183e+03
1.066710038562916270e+04
1.178321699846460251e+04
1.201053399196047212e+04
9.743257024598529824e+03
5.816530655359902994e+03
3.872352868238246629e+03
4.198865295434589825e+03
5.650095466692975606e+03
5.902106570491742787e+03
5.857990286301296692e+03
8.164842517144236808e+03
1.043772744369345128e+04
1.047064477571833049e+04
8.659674948527142988e+03
7.897884197238635352e+03
7.440299238902583056e+03
6.327972713107021264e+03
4.980950104875363650e+03
3.192319335297660473e+03
-4.449849073815192924e+02
-3.053941484080130067e+03
-2.487453747157414455e+03
-3.775434402387517366e+03
-4.689888001417418309e+03
-5.213849780908258253e+03
-4.925325955482518111e+03
-5.048173369620338235e+03
-5.852067455257628353e+03
-5.833437612820002869e+03
-5.950386573759461498e+03
-5.702820468732914378e+03
-1.792724348111148629e+03
6.559801394011146840e+02
1.368353238665446952e+03
1.141274951639618394e+03
7.737053681296155219e+02
9.986500352927077984e+02
9.730308817871067504e+02
6.878935544236519490e+02
5.551860029889148791e+02
2.187563009766401194e+02
2.546002610156571961e+02
4.497849309363266457e+02
2.272441460272690676e+02
5.085466985607626356e+01
-3.364047325639442647e+02
-8.555610929468766699e+02
-9.577018870499925924e+02
-9.859165001160552038e+02
-1.054266325411933622e+03
-1.150760429312155566e+03
-6.894980242365206777e+02
-4.545458139844169523e+02
-6.129330178867190853e+02
-8.307646665077216994e+02
-1.031192200841664771e+03
-1.037241846504048226e+03
-8.989452740537703903e+02
-1.259387809696581826e+03
-1.263660065893845285e+03
-6.718535646690218073e+02
-5.130300302066839322e+02
-8.002403890025449300e+02
-1.119635803115026647e+03
-7.832994596359312709e+02
-9.403273327727901005e+02
-1.216794360380874650e+03
-8.718265383094038725e+02
-8.455101984505927248e+02
-9.818796971186826568e+02
-9.560221977823226780e+02
-5.189968314894852028e+02
-5.729219144649702002e+02
-5.448734970199358258e+02
-8.618639193951993320e+02
-1.044039910757371445e+03
-1.249564063644921589e+03
-1.270451236917064080e+03
-1.346804757256438279e+03
-1.675701944710141106e+03
-1.291105752777600401e+03
-9.120281861909012378e+02
-6.257635049647797132e+02
-5.902940025690010089e+02
-9.895213485362289703e+02
-1.298973040934040682e+03
-8.398162010898922745e+02
-4.757433790572094949e+02
-5.169535322224579659e+02
7.538166320654256936e+01
7.523419818803838552e+02
4.049038619533205861e+02
1.828855900114111250e+02
1.881483159855792451e+02
-1.921333462126926861e+03
-4.074614595549949172e+03
-2.531787502477274757e+03
-3.551168421804525224e+02
-1.699479169766860878e+03
-4.179839486550450601e+03
-5.808564249907633894e+03
-2.352582588715786187e+03
-1.218946688986712132e+02
-2.856514152113649288e+03
-1.249496702076118254e+03
-9.828675941735390325e+02
-1.739696250298918130e+03
-2.052074671689547358e+03
4.319438624368136743e+02
2.254119155241390615e+02
-1.263664184318651678e+03
-3.997402777232759945e+03
-1.154797443177983496e+03
-2.208795244163998177e+02
-1.368278481586278339e+01
-1.837213519155289305e+03
-1.344408461830563965e+03
1.332706521945294071e+03
1.288093525418560830e+03
9.598150159412539324e+02
-1.424123128799871665e+03
-1.979799379982700884e+03
-3.070200939390597341e+03
-8.603692916585899866e+02
-9.903085275487690069e+02
-1.734026347746373176e+03
8.705442164628440196e+02
-1.488600394157275332e+03
-1.276480759437298047e+03
-1.533086757713842871e+03
-1.168358802969150020e+03
-2.894285696547753560e+03
-3.176791285933107247e+03
-1.145844502559038119e+03
-3.673476454728857789e+03
-2.205626135015686941e+03
-2.042307837660813732e+02
-3.002558904087401288e+02
2.828257854040095154e+01
1.170348573319046864e+03
2.528952774583209703e+03
3.526103656122553275e+03
4.023762332007194800e+03
3.300935120026166260e+03
2.454658989919853411e+03
2.413024143631655079e+03
2.435029250511251576e+03
2.260776771244740303e+03
2.096296087311995961e+03
1.863685836628113975e+03
2.119089731094441959e+03
2.502621883037916632e+03
2.353459227047422246e+03
1.992539436110582756e+03
2.138630022435301726e+03
2.164841474242283311e+03
1.591452507265265467e+03
1.612514387741174232e+03
1.833299032086365287e+03
2.154393303952173483e+03
2.086789769630823685e+03
2.335927349775419316e+03
2.354868148306216426e+03
2.291391787353220934e+03
2.141679268500288345e+03
2.043414911186104064e+03
2.036929590749929275e+03
2.008584931232250483e+03
2.153068205740935355e+03
2.049998906453657582e+03
2.119686639618709250e+03
2.116376681285879840e+03
1.829804187964316498e+03
1.406497033244725117e+03
1.859315135119645220e+03
1.703174891529697561e+03
1.814249568440428902e+03
1.606498109610322444e+03
1.387161668874952966e+03
1.275967977470412507e+03
1.089007493044151488e+03
1.273375668984788263e+03
1.642271143691621774e+03
1.387690496653980972e+03
1.072531871268956138e+03
9.078828460851216278e+02
4.067985219552485319e+02
4.110009865011577403e+02
5.455312826502366761e+02
7.652973564290634840e+02
1.202648266735438028e+03
1.447266320914635571e+03
1.281052314284517934e+03
9.672996814433176951e+02
1.349099306167116083e+03
1.432437546708319815e+03
1.243272746027052563e+03
9.885218003505198112e+02
1.059959801762116513e+03
1.141588924114390920e+03
1.353448102813132436e+03
1.036609896451112490e+03
9.321246315239754949e+02
1.006998058100009303e+03
3.933027736536274119e+02
2.370863291009805209e+02
4.132855068656096478e+02
8.495543167753790215e+01
-3.027442856283196875e+02
-4.194682677031371298e+01
2.624462235078319736e+02
-6.470905204859145670e+02
-3.043416634214987880e+03
-6.549663285809739136e+03
-3.171052516622076382e+03
6.900402226466542288e+02
6.264727119423887416e+02
3.253664437155586029e+02
2.848648970084606731e+02
2.279398967807914289e+02
2.406275623980773162e+02
3.938402976905326796e+02
5.195835151901773088e+02
2.468973366106964136e+02
1.476353068738202410e+02
4.465858967732351630e+02
7.355531576934592977e+02
5.893702971272606419e+02
-4.503486300680936552e+02
-4.678580172476064035e+03
-7.581933453931310396e+03
-7.847393101699903127e+03
-5.234999710494406827e+03
-7.074546767140876909e+03
-6.944015343899458458e+03
-3.259642916926704856e+03
4.023737002229023005e+02
9.920989711894018228e+02
5.275503795797187649e+02
-2.487452776704752068e+03
-1.498159251474999394e+02
7.158629979091296036e+02
-1.315576365905839793e+03
-2.305350261449393201e+03
5.777102729713554652e+01
4.822161498445016150e+02
2.917638868404042682e+02
-7.601595816035280677e+02
-2.380558215992816258e+03
-1.183218442897723662e+03
-2.309965110265575277e+03
-1.928870682150444736e+03
-1.561113735651654224e+03
3.971818010861518360e+02
8.900244657315313361e+02
9.405555943468513078e+02
7.565688359825511498e+02
7.120131229208769810e+02
9.690290815993867568e+01
-1.536905904311321649e+02
-5.052863774117399487e+01
-2.894373805076418193e+02
-1.645809129107931668e+01
-6.470336091473981810e+01
-1.529405043655998853e+01
5.277024538888528582e+01
3.955825494199592640e+02
7.730430900574581301e+02
8.380533149445744812e+02
7.757224663079912261e+02
9.561762250162930741e+02
1.245537958283525541e+03
1.241719118998733393e+03
1.038835770183824934e+03
1.332966774244687713e+03
1.151070154127790829e+03
3.651845468068116816e+02
-9.846238446893187302e+01
2.908701300902821174e+01
-1.390053197529058195e+02
-7.616662046967387596e+02
-1.578875127606658907e+03
-2.070740683077071935e+03
-6.001654973633833379e+02
-4.630597544618448751e+02
-5.455197344055321764e+02
-7.625843269964555020e+02
-1.533231275566183513e+03
-1.320601952486821347e+03
-2.496001513752665630e+02
1.466795257622441397e+02
1.052515499715726719e+02
3.410010337987072262e+02
2.528988917284401055e+02
8.820043174152308438e+02
1.534363272740557022e+03
7.909563819592971186e+02
1.938195850205211457e+02
9.549082546738568453e+02
1.296312655788460688e+03
9.210498163497081805e+02
1.029078972827116559e+03
1.812448531978212031e+03
1.997136941483712008e+03
1.636175450822832317e+03
1.214602114875588086e+03
1.047339044939278892e+03
6.814708565035454058e+02
1.035949423269050840e+03
1.404804571188632735e+03
1.303066704821908388e+03
9.477178109316819246e+02
7.747894419094914156e+02
9.022964504801630028e+02
9.152057774690434826e+02
6.535002771258675693e+02
4.162196789877914398e+02
6.853502035273914998e+02
1.177891078806283986e+03
1.391879057322503058e+03
1.626293850998878725e+03
1.625203406720148678e+03
1.619642931387899125e+03
9.545695687711388473e+02
2.379167218462625044e+02
2.686659121138690693e+02
4.408012735466987806e+02
3.843233025886724477e+02
-1.737856906808944757e+02
-4.248452741697171575e+01
8.522021152369250103e+02
1.171317104948644783e+03
5.618572946896200619e+02
6.768026208646651867e+02
7.531409484998661128e+02
1.898913704098779647e+02
-7.779616695358946572e+02
-2.913483796478068598e+03
-6.536667363886585008e+03
-5.845565980377153210e+03
-6.381668715257771964e+02
-4.954087528715232338e+02
-2.690313462439449268e+03
-3.919137530654902548e+02
2.137955417031059540e+02
-3.822303677629370213e+02
-8.703407856340113824e+01
-7.761817577990649397e+01
3.050801027529759608e+02
2.607014608327679994e+01
-1.487596869407383906e+02
4.707506979096650070e+02
1.403665002599205764e+03
1.225676267996686875e+03
8.347055599427673087e+02
6.980019566540919413e+02
5.676353403463646146e+02
2.735075749993050636e+02
-7.720289009893152032e-01
9.582624874253782821e+01
3.216954039330888122e+02
6.165334076633819222e+02
3.573569697595595471e+02
5.319363125672921910e+01
-4.899744868512689777e+02
-7.533765250345105642e+02
-4.978673402531378542e+02
-3.823423313097939626e+02
-3.686765610932549180e+02
-5.543003997894094255e+02
-9.261373346514684499e+02
-1.429182697411156141e+03
-1.106326030491505207e+03
-9.277203998094458939e+02
-1.324607145472165712e+03
-6.998352650636634280e+02
5.363334248287681305e+01
8.975393428096879234e+00
2.050970587608487961e+02
-2.439174198258923525e+02
-8.993447512184908419e+02
-1.409061411390986677e+03
-8.210586220639793282e+02
2.683377852261692169e+02
9.094384864630316088e+02
8.040886182812045035e+02
1.005340156772588671e+03
9.010948938147070066e+02
7.395422987234074981e+02
1.054534938579295840e+03
1.080874323268838680e+03
9.889314483723123885e+02
1.206409924721972857e+03
1.349179895927567031e+03
1.188368148672153666e+03
1.331954026810855794e+03
1.656832571541311381e+03
1.646017855990005955e+03
1.212443138013509497e+03
1.204131149690963412e+03
1.222213333633319053e+03
1.600668036539143486e+03
1.249448649761571005e+03
8.445689138853568920e+02
4.560383471220850993e+02
5.548554001820306212e+02
8.740037045344115541e+02
8.474014929048237263e+02
8.190726925376649206e+02
7.501157189597809065e+02
-2.093426660659535173e+03
-4.694563202917703165e+03
-4.783322925984786707e+03
-5.548695392914819422e+03
-2.685705299273823584e+03
-8.839066384935570397e+01
-2.317535268409473588e+02
-7.749709775359565178e+00
5.446084796044739278e+02
-8.067142418164711160e+01
-7.885801063767257801e+02
-3.174102106858124444e+03
-2.921182557355483368e+03
1.046113160423830095e+03
8.188180753911225338e+02
3.339162121575902233e+02
3.684777299276922236e+02
-9.035050751456066109e+02
-3.504999362086603469e+03
-2.594994952555722193e+03
-2.660514281944765116e+03
-3.428607387244700476e+03
-2.442164571318595335e+03
-2.004179728193173787e+03
1.040405790561215326e+03
-4.914192789170259061e+02
-1.236666666773501674e+03
-1.391292896556114783e+03
-4.253563356919120224e+02
9.091689420690007637e+02
1.136671532341776469e+01
-2.500696649676006928e+03
5.792753604744093820e+01
-1.098708875318530545e+03
-1.765655567285107509e+03
-3.436872208003772357e+03
-9.123150336655689898e+02
1.083966192590609126e+03
2.044959610429036502e+03
2.172727163695576564e+03
1.732310103779688916e+03
1.837690651243084403e+03
1.546879581149448541e+03
1.158949252476586480e+03
8.118917527058518999e+02
1.175681690642180001e+03
1.793343800289178489e+03
1.910877164460447830e+03
1.463354947328641401e+03
8.417583477427978096e+02
3.820753542754412138e+02
1.453843481875808834e+02
4.166425146962789654e+02
8.217141165688731235e+02
3.826613345027597575e+02
-1.475283158437622205e+03
-3.041972031110440184e+03
-1.953448870700302223e+03
-6.353551421153915868e+01
6.378963021364241968e+02
1.152970197007730349e+03
8.431280134531687054e+02
1.772960798719918785e+02
-1.029178526528928160e+03
-1.900951344606647808e+02
1.804458525627479275e+03
2.536224105920123293e+03
2.233052547263284396e+03
1.976774124230688358e+03
1.263730684766487911e+03
1.018019698020952433e+03
1.270771757327733894e+03
1.334981504788675920e+03
1.268288104911000119e+03
1.775878824501335430e+03
2.339938676688761007e+03
2.256755771485715286e+03
1.811367188284798885e+03
1.397538433592807223e+03
1.302935244637795677e+03
1.089971314171769791e+03
1.412503995937267064e+03
1.633265716114371571e+03
1.684148318344729660e+03
1.506374529361084569e+03
1.371209619166695802e+03
1.172569090513366973e+03
1.403049801487930381e+03
1.546656180986533627e+03
1.094619180534893303e+03
1.041836943131873568e+03
1.398020474400461580e+03
7.812969292532095551e+02
3.567031031154006087e+02
2.502909353029192800e+02
-5.518853047995548877e+02
-4.460265924192461853e+02
4.360202623237648254e+02
7.671588272932709742e+02
9.543743923620424994e+02
1.249486092211088135e+03
1.618569551544956539e+03
1.833660248893556400e+03
1.799752430354708849e+03
1.460830770320960482e+03
1.151922585727775413e+03
9.829832347332059044e+02
3.669932663373107857e+02
2.379869514335749727e+02
6.719142536327193511e+02
9.057457748490287486e+02
-3.252996425408441894e+01
-3.339090528029132088e+02
6.865570633547988564e+02
1.033844376261142088e+03
6.699553581662847819e+02
-5.590764860579167816e+02
2.566914447512118613e+02
-5.176260031783190385e+01
4.358666697196378692e+01
4.647569406169849344e+02
-8.163272578522835374e+02
-5.095612013663151629e+03
-7.301084955618508502e+03
-7.689739043049734391e+03
-8.279618620353170627e+03
-8.101678722372874290e+03
-7.556912571891437437e+03
-7.769376734734897582e+03
-7.265093847707352325e+03
-6.407958983786224053e+03
-6.081034881176833551e+03
-6.588386209634712941e+03
-6.665965279255169662e+03
-4.194699088289671636e+03
-4.497040418912839073e+02
1.332937766357208830e+03
2.693272084461589657e+03
2.352313870620224407e+03
1.979038761541385611e+03
1.950515976321456037e+03
2.088719007369915289e+03
1.938624980900643095e+03
1.817286550713627776e+03
1.231674324079313237e+03
1.875701985353296777e+03
2.340413266370401288e+03
