1.904148979304122804e+03
1.890623922363441352e+03
1.863935201590689530e+03
1.477112446566701692e+03
1.437125816930277551e+03
1.752938238087762556e+03
1.687559144678861685e+03
1.550021584806527471e+03
1.694351455560517252e+03
1.890592628235354141e+03
1.699778230797371407e+03
1.370919791053273684e+03
1.196011902577277397e+03
9.930896275251095631e+02
1.084204618436491501e+03
1.302326730077719731e+03
1.457517136461114660e+03
1.284792995731738984e+03
1.042231828818541089e+03
7.618220571689230383e+02
5.675226699266927426e+02
6.125215594391023615e+02
1.127978513694905359e+03
1.356008759364556909e+03
1.096455225115466419e+03
9.543027318697171495e+02
8.664436226994888557e+02
6.628725159529994926e+02
7.314933250627090322e-01
3.089636618711159599e+02
1.178101568793498899e+02
7.532139298766547597e+01
-2.725142729483708877e+02
4.022532977654248043e+01
8.230127433441775509e+01
-8.110852066161183416e+01
2.394577111976644801e+02
4.075695668112285830e+02
3.843367785095440468e+02
6.975326298174986732e+02
9.331709028789108515e+02
9.662243388222473186e+02
1.102668464109853630e+03
7.225072885634215254e+02
8.457285688983387217e+02
1.071364315877957551e+03
4.833944548658403164e+02
4.477825468208893653e+02
1.845922849430259589e+02
9.983128960886668324e+01
1.585202832770654595e+02
2.716569696995766208e+02
4.132573809146236385e+02
4.463106607848274052e+02
2.787773991126164788e+02
1.856114729384496798e+02
5.485615787775653729e+01
-9.041843156404324588e+01
9.974640240995563545e+01
-2.866745581546792465e+01
-2.860539652662296461e+01
2.729357830922473340e+02
5.529702338168475535e+02
4.764701551769153980e+02
6.835279904938801110e+01
1.196913531179647094e+02
-5.434878361073490396e+02
-6.262580449810684513e+02
-3.957040195611405693e+02
-2.257721631871929731e+02
-5.024757290354780821e+02
-1.378473545763407628e+02
-3.448681265402348117e+02
-2.544992796410320182e+02
7.242585257942212529e+00
-2.496434304826522066e+02
-4.371702214921461973e+02
5.063664635887285925e+01
4.147706838503191875e+02
7.622331767133000824e+01
-6.033945743922761729e+00
5.198927974647680372e+01
5.873152445805372963e+02
-4.671031276625449209e+02
-1.382219549030000735e+03
-4.193866402417811514e+03
-7.694349343287017291e+03
-7.549723115356393464e+03
-4.453061445790534890e+03
-1.433029352273070572e+03
-1.291701274733469745e+03
-6.082288930274803533e+02
-4.366024272416174199e+02
-7.810791192951223039e+00
1.691301842684299004e+02
3.917096381526800286e+01
4.326962702083478263e+01
2.354203869834080365e+02
6.996297056813127710e+02
7.038961576765086647e+02
3.981907375548010464e+02
2.534999174572095910e+02
1.958207895782380206e+02
7.815501280485889879e+01
1.084929247566933697e+02
3.058372740087312991e+02
2.401701149733574425e+02
1.374445944905870078e+02
-6.632424107890788889e+01
4.831011363626698696e+00
4.258947247149890245e+02
5.858253504443373458e+02
3.226107498428491454e+02
3.272494828317550173e+02
4.067341912530335435e+02
2.730904943989011144e+02
1.892966229192587946e+02
1.537632630953384627e+01
2.352701140721488287e+02
2.869857998880010541e+02
-8.949412388106915728e+01
7.482762948252008073e+01
3.696274328207606885e+01
-1.081343302157097241e+02
2.565270014984213844e+02
4.159780402616854644e+02
4.222549985988104595e+02
4.543471537173691104e+02
6.322002109653000161e+02
4.608173671969037173e+02
1.471820601616603028e+02
4.122683542876493448e+02
5.840945749598483872e+02
6.786759220575702329e+02
8.509940296157387820e+02
1.118082882356328128e+03
1.237945276506899745e+03
9.734840565554879959e+02
8.667737370519968181e+02
9.768062254000975599e+02
4.635625401370958798e+02
5.800387208504380396e+02
8.632138478246509976e+02
1.396118056141357329e+03
9.027006015142312663e+02
6.660201095894600485e+02
8.220792719193958646e+02
7.869506597889808290e+02
6.305357803254427154e+02
2.898129034896018084e+02
2.398143128116051344e+02
4.205384908177464354e+02
3.170007264567535117e+02
2.002087950459817023e+02
1.221693473716817948e+02
-1.581084581537456586e+02
-1.426688401278687934e+03
-4.443456935045037426e+03
-5.213392082473457776e+03
-8.224770857155293697e+02
6.301969379664338931e+02
9.326538032163394973e+02
9.189464722713308902e+02
6.650541695807000906e+02
8.470614264998731642e+02
6.668933303581171685e+02
2.865290496625199808e+02
2.469955530531747172e+02
-2.355720877275642124e+03
-7.547007237899154006e+02
-8.383613539341907028e+01
1.179313409513086839e+02
-1.719424887235975575e+03
-3.383892190049868987e+03
-1.934497789814817452e+03
-1.730230096785081514e+03
-5.330623226568029622e+02
9.100366399789256775e+02
1.143050862106614659e+03
1.261958615703124906e+03
1.108809909653206205e+03
7.806082472653673676e+02
-1.875629226061550071e+03
-1.573907675955191962e+03
-1.798212440649935843e+03
5.024459713588079808e+02
-2.269664396428508724e+02
-2.793430462314951001e+03
-7.590878978350606587e+01
-1.340401617861395607e+03
-1.830921345319914735e+03
-1.374652211265198787e+02
2.509785815949427956e+02
-2.955416035045689114e+02
-1.262040410514721088e+03
3.314619541661344329e+02
-2.386018702730057157e+03
-1.478415349225724640e+03
6.562324007734130191e+02
1.289917754724897577e+03
1.259644143016890212e+03
1.159465558464956757e+03
1.048367853762243612e+03
1.208334503215976383e+03
1.106361782664975635e+03
7.824844741149706806e+02
9.156788331787464585e+02
1.063926686519395389e+03
1.303267180926149877e+03
1.307736899921957047e+03
8.641893531258904204e+02
1.008536536687553848e+03
4.889023809711032982e+02
-2.198460291615349433e+03
-1.333512988304182954e+03
-2.097324690142693726e+03
-3.012816617979558487e+03
-1.575698513751363407e+03
2.397617142549617313e+02
5.002413177482789024e+02
5.853471700236045194e+01
-5.300333236216000614e+02
6.946657316863855840e+02
9.656274499051347675e+02
9.798197808849796502e+02
5.793042979492870472e+02
4.871323101727894596e+02
3.884041775707443662e+02
9.865476130533266996e+02
1.210213768411791307e+03
1.038978636217409758e+03
7.098931682674503918e+02
1.818042919637224202e+02
4.417616267388050346e+02
1.094021202663112490e+03
1.098578066905738524e+03
1.209428165899157420e+03
1.245409915842643159e+03
1.198707161257688995e+03
1.220332791322610319e+03
1.066106992030049696e+03
1.016138815142262729e+03
8.352443373634565660e+02
8.533777863509451436e+02
9.524726131917724388e+02
6.454454665052152222e+02
8.132374273019203201e+02
9.268875976252335249e+02
1.224296027062672692e+03
1.580474810081070245e+03
1.080451982678778677e+03
7.852064260654919963e+02
8.147621396987428852e+02
9.781184650389918716e+02
8.862333715087767132e+02
1.053101153607254901e+03
8.397096756960713719e+02
7.800086075713920764e+02
8.269984805952512943e+02
1.012677533028711082e+03
8.770682020346711170e+02
8.571393406725577506e+02
8.118306976744041776e+02
9.761556294887778904e+02
7.750792150485692673e+02
7.605708764207982995e+02
8.476315481567737606e+02
9.452500388398083260e+02
7.144771214165756419e+02
7.213652052771401486e+02
8.018888579969117245e+02
3.009820236372697195e+02
8.056587255172024697e+01
-5.141965684175993090e+01
5.760356805713936410e+02
1.040936801642830005e+03
9.022616021806674098e+02
7.989963238212400256e+02
9.681623546161341665e+02
8.426670643347698615e+02
6.745041845641691225e+02
6.627760965198561962e+02
-6.884557819729088806e+02
-3.377161831454034655e+03
-4.793369345939397135e+03
-6.873074213468276866e+03
-6.891370215024421668e+03
-6.712205164384161435e+03
-6.455594818421920536e+03
-6.919585633899782806e+03
-7.440192394700561636e+03
-7.111267437089530176e+03
-7.035812700029823645e+03
-4.638892758183636943e+03
7.507973104459689573e+00
7.333642367115528486e+02
1.268601313087267727e+03
1.455325937265422226e+03
1.439609095029396713e+03
1.760518191673999127e+03
1.860184834267937731e+03
1.766464332205470782e+03
1.756204958797550944e+03
1.559497397104021047e+03
1.492383150297477414e+03
1.060909113790291485e+03
8.200242393207113309e+02
9.046418220193532989e+02
1.118773696152193224e+03
1.125444629468454650e+03
1.456778117436174853e+03
1.193845835901207238e+03
7.626495896657037292e+02
8.111741632258198251e+02
6.524359517028639175e+02
4.255278507872840237e+02
3.175346162434123016e+02
5.842045731814884846e+01
5.531357080004379441e+02
9.397773157548529070e+02
5.653876497669264154e+02
8.269251013766473761e+02
1.444460998626537048e+03
1.487048381177056172e+03
9.906633260464334398e+02
9.773010415516383773e+02
8.419856981079382194e+02
2.538705623572977288e+02
-1.730125451318962178e+02
-2.966085255909909790e+01
9.284808205925857294e+01
1.046691987681967007e+01
1.711695008042993607e+02
4.058699003408367503e+02
4.346145559443557431e+02
5.875259090067992247e+02
6.416657353169488260e+02
4.280680068093519139e+02
3.957895518460420021e+02
2.618554538232420441e+02
2.062878888461184204e+02
-4.200857866974703114e+01
-2.216889805132281026e+02
-5.778218531617388862e+02
-2.771298611615037771e+03
-1.012094553969606523e+03
-1.411287781260187728e+02
4.974711816693444177e+01
-1.645381795191175627e+02
2.139541690489215569e+02
1.930198731050849119e+02
2.456871693942428010e+02
4.107679911024957420e+01
6.213606182654985588e+01
1.237810334245015440e+02
2.229854832241763631e+02
-4.911866873727294092e+01
-3.084323683650476937e+02
-4.969925544402021842e+02
-3.148543033117593382e+02
-2.530142675771993481e+02
-1.734463243724433141e+02
1.168946232059948755e+02
9.904506963850361956e+01
-2.297206415947996661e+01
7.888037014670123881e+01
1.746238689890961666e+02
-2.570723049197603061e+01
-1.570365286015727975e+02
-4.073445923642364050e+02
-5.876932606754323842e+02
-7.501295563086574703e+02
-7.286917498462324829e+02
-1.473191160068390388e+02
-2.269914482926737378e+02
-4.297332165931755981e+02
-6.904619081568429237e+02
-5.911433621153887543e+02
-3.537603309766408302e+02
-4.001932909314147082e+02
-6.484579179804933347e+02
-7.337240159196376226e+02
-5.569735291042242125e+02
-4.018791776517196723e+01
3.061006862524076766e+01
2.292330253279264412e+02
2.296999287512367403e+02
1.060938070508806845e+02
-1.675211128136431284e+02
-1.709926627691512522e+02
-2.242281492709342672e+02
-2.904987395455188448e+02
-2.799840820305113311e+02
-6.345867755722080119e+02
-2.431540664504371989e+02
1.243368274125398472e+02
9.372134048525086314e+01
7.495092693588317445e+01
6.702756414318447753e+01
4.286904707641830470e+01
-4.756328840005961638e+02
-1.836882247556891912e+01
4.437562490808116991e+02
5.116827757630931046e+02
4.872406806076244266e+02
3.114589334248095156e+02
5.651217734110992552e+01
2.804364216987949590e+02
3.200481347779459611e+02
2.622174165534146937e+02
2.559249932550390554e+02
1.444500880707338126e+02
-6.624926229790983143e+02
-2.469490592828461217e+02
-1.685593728374453235e+02
-4.223573418336934537e+02
-2.561663101574775396e+02
-2.658748180405756898e+02
-1.853188397274074362e+02
-1.990935242288431937e+02
3.745845293016796518e+02
7.493641982204187570e+02
1.005732025886116048e+03
1.164658035094139223e+03
1.230929976721861522e+03
5.314063868960425907e+02
2.869156888051390411e+02
6.568136020637192587e+02
9.056936464934973401e+02
9.824935649506591062e+02
8.591255778769569815e+02
7.737601436119102800e+02
9.005798944216348900e+02
1.278100681511109542e+03
1.262132692032234672e+03
1.139360737579653687e+03
1.394541717468278193e+03
1.270525703840939514e+03
1.196198878657794012e+03
1.552527558245889395e+03
1.892571466789967189e+03
1.950266166444542932e+03
1.539503117737990124e+03
1.433276474508473711e+03
1.736682335754873293e+03
1.795456969830355320e+03
1.450952631343323674e+03
1.585121320728175988e+03
1.639536810009816463e+03
1.516199436551063400e+03
1.264032189542235756e+03
1.208254812696454792e+03
1.256670773322787227e+03
1.748454171461152328e+03
1.622288955364639378e+03
1.224066786687601507e+03
1.062890654130065059e+03
1.423761361355680037e+03
1.548740084647274898e+03
1.362882010870019712e+03
1.643015055654007028e+03
2.087029751712196685e+03
2.190977736413443836e+03
1.682798189470335046e+03
1.161472809499523919e+03
1.503018537451132033e+03
-1.034884683409598978e+02
-3.723059931740308002e+03
-6.098774076263224742e+03
-6.212636650030804958e+03
-5.809397213426422240e+03
-5.869266066443475211e+03
-5.198172456384283578e+03
-2.071929583742195575e+02
1.847531100803033269e+03
5.990566027282374080e+02
-3.818590565157473975e+03
-5.017415461776158736e+03
-4.753341659797866669e+03
-4.564488005929399151e+03
-4.880845239241547461e+03
-4.478374770827127577e+03
-4.738000865439724294e+03
-4.614755532202511858e+03
-6.356470952613133250e+02
2.754254988279007193e+03
2.804992147190945616e+03
7.305877236981059468e+02
-2.402962708390943590e+03
-5.250555891601989060e+03
-4.929222709854331697e+03
-4.612037496071415262e+03
-4.719909679084297750e+03
-5.140829940198743316e+03
-5.642804503181113432e+03
-5.477804170084963516e+03
-5.412824304059082351e+03
-5.311799958355183662e+03
-2.852726803456767811e+03
5.543981014549588053e+02
1.448574210917279061e+03
2.133764654127420727e+03
1.991094981402243320e+03
1.725543184411237235e+03
1.299122361382817871e+03
7.378438677512580171e+02
6.907401357950603824e+02
5.979116366460714289e+02
3.853573081634704067e+02
6.051030063379089370e+02
5.711556828843554285e+02
8.795609075783461321e+02
1.051352424195776393e+03
9.525709618375982473e+02
8.962374779316746753e+02
9.763514846337975541e+02
1.134951765891270497e+03
1.415058655669563223e+03
1.538683034646066972e+03
1.691939705363198300e+03
1.451805553840867105e+03
1.197308073467955637e+03
1.169463498027211699e+03
6.932760980060128304e+02
7.508141470152346528e+02
1.866128373661817704e+03
3.021229975680160805e+03
4.042125279212530131e+03
4.570868890916549390e+03
4.521503442406434260e+03
4.386191125186127465e+03
4.288053971566054315e+03
3.849849039581504712e+03
3.231393348549436269e+03
3.112953679309292056e+03
2.318570081209463751e+03
1.057478751153999156e+03
4.287645071241392998e+02
6.455194578436349957e+02
1.440632485601515100e+03
1.938229498138211966e+03
2.026586107197287447e+03
1.848528305574587648e+03
1.851855114202095137e+03
1.767396458696533955e+03
5.542811025182861613e+02
-5.125474497843786139e+02
-1.274807356427396776e+01
3.067675554727733811e+02
2.908375895392244956e+02
3.302409577305665493e+02
-2.739209952031249031e+02
-1.837689842324555457e+03
-2.425134672340431280e+03
-2.473283543023843777e+03
-1.544116460710952424e+03
8.323968801119849559e+02
2.183277973622469744e+03
1.720526437508956406e+03
1.307108641901189912e+03
1.753060411768918129e+03
2.544383408741059611e+03
2.791110080303456016e+03
1.798269274687779443e+03
5.577872625973074037e+02
-8.533446094982549539e+02
-1.215057255018489059e+03
-1.142503333318463774e+03
-1.249689793619220382e+03
-1.976517006197480669e+03
-3.038013044686624198e+03
-2.964164860099294401e+03
-2.288911731829433847e+03
-2.132214275096226629e+03
-2.599040644757015343e+03
-2.046532242114009478e+03
-1.421728507669499777e+03
-2.025663574627802973e+03
-1.633447807459315072e+03
-1.607135168129279464e+03
-1.727682590700263972e+03
-1.932085346186942843e+03
-2.216348003583839727e+03
-1.218470987727549527e+03
9.416177789387170378e+02
2.811963201233115797e+03
4.085510298805978437e+03
4.961250653464326206e+03
4.785275834547975137e+03
2.955558685443323157e+03
1.726955650406171571e+03
1.557401047639952822e+03
1.069788129591044708e+03
7.891067344983787279e+02
1.042396397600278760e+03
2.005626864003480023e+03
1.303762989938172723e+03
-1.542222114308250639e+03
-3.279309263211888720e+03
-8.696563379161805642e+03
-1.085206309372571559e+04
-9.798346906025206408e+03
-6.783939187579553618e+03
-3.881653582273331722e+03
-7.704829644198998722e+02
1.580532612264806630e+03
1.686257376315599458e+03
1.729725586292548769e+03
2.920894101838110146e+03
3.534701364417357127e+03
3.054126195206571083e+03
2.169199580510661235e+03
2.226893346013419887e+03
3.090213797536042421e+03
3.524144224073151690e+03
3.093699185150372159e+03
2.241841254742254478e+03
1.433516420350097633e+03
1.035708406543687261e+03
5.404069651471459110e+02
-6.231909597263631895e+01
-6.824868737967112793e+02
-1.090123662327035390e+03
-8.401998625480649707e+02
2.122955407913950410e+02
1.195380425279372048e+03
1.677009537885984855e+03
1.570155783150391244e+03
4.828360902195346398e+02
-1.319664246053149270e+02
-8.903458862791644606e+02
-1.886253499131052877e+03
-2.213712866523475896e+03
-2.765683377007441322e+03
-2.714201202338859275e+03
-1.147282861329412981e+03
4.821060845846101870e+02
7.080067238103069940e+02
1.126416377256696478e+03
1.825325344340152014e+03
2.484682001477300673e+03
8.325274783643671981e+02
-1.376162707706269430e+03
-3.199333378339746105e+03
-3.897921266686571926e+03
-2.515911225317207027e+03
7.176698208998161590e+02
1.187857261616706637e+03
-5.273297949925585044e+02
-1.271911898524916751e+03
-2.748722995225606951e+02
1.681789382969247526e+03
2.267051622132225475e+03
1.771971540331120423e+03
2.075599197778490634e+03
1.774977659997512546e+03
4.660924671270286694e+02
-5.199957991949956977e+02
7.171895656920882800e+01
7.042097656318180725e+02
-8.764502883095223069e+02
-2.359187910696506151e+03
-1.669993500690092105e+03
3.812134462028150210e+02
9.914123338865543928e+02
-7.035848883150778477e+01
-1.403105056082500141e+03
1.405276818019391612e+03
9.709076951937802278e+02
-1.222292568821881559e+03
-9.804323813469355855e+02
1.315584773500771917e+03
-9.023577950235531944e+02
-4.179963482961698901e+03
-6.656277146150804583e+03
-3.790069778554874119e+03
-3.140418431814671749e+03
-6.557419134719242720e+03
-3.781076078075704572e+03
-4.553655114701404614e+02
1.563791732493084965e+03
-7.365608401135004897e+02
-1.065363692810765542e+03
3.575439723115940069e+03
3.742842073495111890e+03
9.888066938103852408e+02
-3.699617617355312177e+03
-3.212379295772076603e+03
-5.343909334986051363e+02
-2.331604056999922705e+03
-6.299107539211006952e+03
-1.988814886506616858e+03
4.474325097284750541e+02
1.596555646603392233e+03
1.652583712302560343e+03
-1.393478682471765069e+03
-9.206503334478186389e+02
-1.344906252765843419e+03
2.208274247677377957e+02
-5.834111089431308983e+02
-2.342647273518115071e+03
-1.954875748728157077e+03
-1.288850199407236516e+02
2.644332105246020546e+03
3.135699468355434419e+03
3.073235668071672990e+03
1.209960394527320659e+03
1.765940341326107045e+03
3.064189601803422192e+03
2.631664675884966528e+03
1.714264583658147785e+03
1.195970514712963677e+03
1.113812874835785578e+03
6.988196796112497395e+02
1.300912814519401081e+03
3.189191430762724849e+03
3.749713834936395870e+03
2.881425802774326257e+03
2.489338627896021535e+03
1.851438600317069586e+03
1.063784533278113486e+03
6.833993867484915654e+02
1.294180183319204389e+03
1.533265626304976422e+03
1.504889113581403535e+03
7.300221408034791466e+02
5.984270385206970104e+02
1.276981563319818861e+03
1.488646332470030984e+03
3.267179771250533236e+02
-3.858311054010028442e+02
5.367119111089707530e+02
7.014643482828479364e+02
3.874085377346408166e+01
-3.762635781841605631e+00
3.655263145617282703e+02
9.201917214940708334e+01
1.191647839431135836e+01
4.327582636660872026e+02
7.159647834022067627e+02
8.402862251514704894e+02
7.504777760078534357e+02
8.191763502749132613e+02
6.688596350238815376e+02
-6.230974479854433312e+00
1.115604593500346766e+02
4.913287233371747220e+02
2.780858964477095014e+02
4.790840757619641295e+02
7.881305998350443360e+02
7.909834976877285726e+02
8.726228399573184333e+02
8.519594259085839667e+02
1.281963044565236487e+03
1.704613348985532184e+03
1.813640696421900657e+03
1.842856200913099428e+03
1.124362299506023874e+03
1.212084740756231213e+03
1.181005190749250232e+03
9.593855455695704677e+02
7.451971428532627897e+02
7.334115320732308874e+02
8.078511123943776511e+02
6.084469385834718196e+02
6.641263340941937940e+02
6.158429214052769112e+02
5.306144066166655193e+02
8.093339347810820072e+02
9.079782436697864796e+02
1.057564114684773358e+03
9.390523184524623730e+02
1.123393939501576597e+03
8.685778865743425285e+02
3.695362026040701267e+02
9.402385193087471862e+02
1.163623432541581906e+03
9.986362926367901309e+02
7.692665363138333987e+02
2.235330693330377585e+02
1.234590669431236876e+02
-9.403980738295364006e+01
-4.101237422863427469e+02
-1.067851926065197404e+03
-2.289283790768482504e+03
-3.477380166875892428e+03
-3.014099715913708224e+03
-7.645568538104195966e+01
-2.714954811752185151e+02
-4.289231526307503373e+03
-5.995643377272344878e+03
-7.734749713025191340e+03
-7.267549990999940746e+03
-5.912041465699174296e+03
-3.017225695905196517e+03
-2.998191354680292534e+03
-3.596988950235079301e+03
2.494050596293296280e+02
1.143937332303047242e+03
1.178625608094268046e+03
-1.239482529021255459e+03
-2.527439841116516163e+03
-6.106170701916231337e+03
-6.136697392377288452e+03
-4.102158771003431866e+03
-4.234565669278011228e+03
-4.775935909040242223e+03
-4.592517967084035604e+02
7.225450356875529678e+02
1.093547435401718985e+03
7.627722800319083944e+02
3.222150365781463961e+02
5.427513529160439703e+02
8.821046211898328693e+02
1.036366624398664953e+03
7.737350113225699033e+02
6.821820262409975157e+02
6.765654401717949895e+02
6.488780707263513250e+02
1.169168769520147634e+03
1.136524331811895991e+03
1.203999132663690261e+03
2.167660641435349589e+03
1.661487358131844530e+03
3.044857892047789392e+02
-2.033421308996524033e+02
-6.920228265285268208e+02
-1.287488920144257008e+03
-1.187758406821893459e+03
-2.589306935175945910e+02
1.345082917330116970e+03
2.421352125871434964e+03
3.442789462486620778e+03
3.601440411192501415e+03
3.107427532338659603e+03
2.429700720193508914e+03
1.843304107971170424e+03
6.812658147200621670e+02
-1.984171924940482938e+02
-1.289665680856076960e+03
-2.050473467330639323e+03
-2.113930723179927554e+03
-2.156105243057224470e+03
-2.071014736726338015e+03
-5.756543705707518939e+02
1.540000687729780566e+03
2.613120535995606588e+03
3.149786587883656011e+03
2.752026303286528673e+03
2.312850227953988906e+03
2.304138215277058862e+03
2.328866887027422308e+03
2.011983866447512355e+03
1.574993839019816960e+03
1.332424844179229012e+03
3.758671639982514989e+02
-2.022477454394998631e+03
-5.258865210375678316e+02
-1.552369462591674392e+03
-4.597579886938755180e+02
7.378694397983649651e+02
1.528258103679734404e+03
1.549391084865401126e+03
1.968379492871119965e+03
2.251230052303892990e+03
1.668847699341075668e+03
1.098335108096548993e+03
1.132808869041833759e+03
1.079325570457378035e+03
8.908435976240457421e+02
5.643528261563535580e+02
5.919397726632412287e+02
7.156934437801201057e+02
1.805739939926828583e+02
-5.264359480148191324e+02
-1.128256231549017684e+03
-1.050821933161980269e+03
-1.200104387002821795e+03
-1.411962330469624476e+03
-1.107417622168346952e+03
-7.955377080927121369e+02
5.621953144976234107e+00
2.790031530866821186e+02
3.346112781038998492e+02
7.014889401284559654e+02
1.185699793815630073e+03
1.213240432030816919e+03
1.324195268003682713e+03
9.566168503258284090e+02
9.485215667491372642e+02
7.848988026481459883e+02
5.127581262942085232e+02
3.270152430732258608e+02
3.565734043226212293e+02
4.194893387943814105e+02
5.868331966578747370e+02
4.345678494219819186e+02
2.987013535523954033e+02
-1.935729636298065941e+02
-3.761869221419200926e+02
-1.514260724042615536e+01
2.584972856698221904e+02
2.855415765573944782e+02
5.658594707858630954e+02
9.566468195702068442e+02
1.006035686603187855e+03
5.960049533254262997e+02
6.674092320297797869e+02
2.481182057834239743e+02
-1.598097433981073436e+02
-2.602612534478700468e+02
-7.427460367445820566e+01
-4.108014934858866809e+02
-9.588187548852577038e+02
-8.353330183543829435e+02
-1.309417657425396101e+03
-1.616000537193331638e+03
-1.440007467885250662e+03
-1.692448634912098669e+03
-1.413525252582881194e+03
-1.241376351579559696e+03
-1.060667669490821709e+03
-1.476548844923670686e+03
-8.798192710772414102e+02
1.091472489398903008e+03
1.087269547932228079e+03
3.776071670741162620e+02
1.113046475242232134e+02
-2.844819766347427503e+03
-2.321434006220094489e+03
-2.973408580678954422e+03
-8.077717666181399636e+02
2.950836059892197341e+02
5.992883691344990211e+02
3.751503779159032206e+02
-8.580502891384911379e+01
-4.764711882661720921e+01
8.954362251480834800e+01
-3.099238935941007185e+02
-8.913762510755921653e+01
3.464819364637667718e+02
-1.398309054066761234e+02
-6.658653242436317896e+02
-1.291401631126682332e+03
-1.263773688601806271e+03
-7.151877332639320457e+02
-1.398316379483537958e+03
-1.850980155375523282e+03
-6.748470808500637759e+02
-2.788002423956262987e+02
-1.567735440176994643e+02
-3.007635062216934330e+02
-6.164635553874211382e+02
-9.532715879583845435e+02
-9.378996296712990670e+02
-1.309563132370806670e+03
-2.251316858504541415e+03
-3.243700100057625605e+03
-1.967081696049784568e+03
-1.018672567487287893e+03
-6.815382077496700504e+02
-3.005982921950457580e+02
2.004717691695593018e+01
9.895656469161594941e+02
2.437076163299515429e+03
3.622415411609810690e+03
4.112618209240423312e+03
3.681727630369419330e+03
3.055745429546668674e+03
2.735552259890241658e+03
1.699209685553423697e+03
1.534638855620977893e+03
1.746706013646314432e+03
1.720438829991780040e+03
2.118972270390048834e+03
2.110360483020016545e+03
2.204662718644135111e+03
2.518792864555906363e+03
2.414668485144289662e+03
1.960323677503911085e+03
1.802752440138536713e+03
1.829971838714830028e+03
7.420594778397155551e+02
-1.664050079998452475e+03
-5.686473664740152344e+03
-5.427104829010217145e+03
5.332367707999080721e+02
1.956430579546453146e+03
2.097415054077450804e+03
2.688145064131821528e+03
2.111640524320716395e+03
-3.109110787689829067e+03
-3.528113897401495251e+03
-1.382379782955036262e+03
-4.211889610627865295e+03
-2.063672221521099345e+03
-2.165706653680798809e+03
-4.669546204951257096e+02
-2.803420613731520007e+03
-1.732089938269778258e+03
8.660854877873157420e+02
-2.438813340074982079e+03
-5.491818462442153759e+03
-5.581963512315742264e+03
-1.406285864979757434e+03
1.230188949346175377e+03
1.176386761282242560e+03
1.127354426639752546e+03
1.021116362900574586e+03
9.246766131208050865e+02
1.141017559646596737e+03
1.115104257979471186e+03
8.359627136994694183e+02
2.955853949904578144e+02
-9.769442272203268658e+02
-3.260663437187024556e+03
-2.052536481739519331e+03
-6.715188732463873293e+02
9.403774952688855819e+02
1.465171561970729726e+03
1.614869506080560996e+03
1.110482773230966814e+03
8.229775408884373746e+02
1.000364708145733857e+03
6.356302883940567199e+02
2.747448417758288315e+02
2.887198826764350201e+02
2.835591359765940638e+02
2.412841638980900427e+02
6.718765497693849511e+02
9.523936041893783795e+02
1.262884385662598788e+03
1.341199886707239102e+03
6.653923932243534409e+02
2.248319117692081193e+01
1.584950400759163927e+02
5.554634056071722625e+02
8.404092100090026634e+02
6.923308225354012393e+02
4.512345219973734061e+02
-1.528150997230850976e+02
-3.008176891001188551e+02
-1.018158497316345290e+02
1.952204086163518184e+02
2.381027502871000934e+02
-2.405973230033418986e+01
-1.031927147239498197e+02
2.998103904681818790e+02
2.262049995018588220e+02
-3.781289730996095386e+02
-4.552425808284123718e+02
-6.752030177155025967e+02
-6.230962735982983531e+02
-1.036904038369510630e+02
-3.675292250678519963e+02
-5.545586453890168741e+02
2.902467184349100648e+02
6.894640166866821573e+02
1.015769520383326494e+03
1.111357868492045554e+03
1.067975066213561831e+03
9.212673229745113304e+02
2.597284191297962934e+02
-1.596481607918419741e+02
-5.744037495922968901e+02
-1.093384530653679803e+03
-6.477414573115240728e+02
4.620432453717864405e+02
1.391892726780718249e+03
7.236416152134612503e+02
6.102727679239866347e+02
1.422827315514248312e+03
1.971316559025735614e+03
1.540734446996276802e+03
1.405050019591350292e+03
1.406180514162168038e+03
1.058066464406708974e+03
6.797964345546735103e+02
4.743535022526610874e+02
7.106500536594827508e+02
1.448789645930759207e+03
2.097862612236182486e+03
1.573867017363490731e+03
1.082878636856340336e+03
1.176871700794056096e+03
4.637996163880572453e+02
1.876097128143309760e+02
-1.108017381199490359e+02
-8.264146797930396815e+02
-1.059276813581005399e+03
-1.211400378729245404e+03
-1.297805101537612927e+03
-1.386434953277016120e+03
-1.551299714516520453e+03
-2.249334654545240483e+03
-2.454534036716055653e+03
-1.353856841527973984e+03
2.496980560543345860e+02
1.289146161264955481e+03
1.831418894763691696e+03
2.122434556670159509e+03
1.394105762478500310e+03
3.724297762386735258e+02
9.043127585939954827e+01
7.571193545713462072e+02
9.395707692781642209e+02
-8.602158417636968579e+02
-3.337276405176140088e+03
-6.761519749436947677e+03
-6.074930623187755373e+03
-7.975432219642975724e+02
2.135713568263070954e+02
-1.155531536166202159e+03
-4.770646535694774684e+03
-6.420049587529630116e+03
-3.532538822913497370e+03
-4.893585281807325487e+02
5.305594433344963363e+02
1.223191625992360969e+03
1.206569090142984805e+03
8.796688868871177647e+02
1.966295586061068832e+02
6.945832583935282400e+01
2.008382026298376388e+01
-2.444904439791139339e+02
-6.032804852742644925e+02
-5.072328728973398029e+02
2.497096073876164439e+02
1.215447169267023355e+03
8.729474930788813936e+02
-3.546849107769603506e+02
-7.943802123291455928e+02
-9.621427840150247448e+02
-1.345024352306882065e+03
-2.419967662113444931e+02
6.979449029993429576e+02
1.414766051074127290e+03
2.421503853825075566e+03
2.881073864521754786e+03
2.989521262772138016e+03
2.930884381900764311e+03
2.284150903866594035e+03
1.484355126220422562e+03
1.136453243042977419e+03
7.524794809146501393e+02
9.104989161166895428e+02
4.284888399309259057e+02
4.344668478041210165e+02
1.069454304015199796e+03
9.094869530531990449e+02
9.052505436604651834e+01
2.665326662093132768e+02
3.305074739272513966e+02
5.915232001640993076e+02
8.886190882494304333e+02
9.868403267515981270e+02
8.722055710104081072e+02
6.876368044304020941e+02
1.111440889082905983e+02
2.497624379741040457e+02
6.954824570567767523e+02
5.153027227457776007e+02
7.192792452330816104e+02
9.004141270897216600e+02
7.886974940579400482e+02
3.371943257656537867e+02
2.188928804394012388e+02
4.187866841667315612e+02
7.388776907157460982e+02
1.441977258400083031e+02
-6.432375737556034210e+02
-9.264759332404316865e+02
8.457951386329983734e+01
-1.030453229140804723e+02
-7.473949223059698852e+02
-2.071442673590966933e+03
-3.763239590514603606e+03
-2.176774604037920199e+03
-4.220052371595053955e+03
-4.484886357332766238e+03
-4.344367782475375179e+02
7.681625303367222841e+02
5.880252635234575109e+02
3.572212093249698910e+02
2.918694918576171062e+02
1.081631427295168635e+02
-8.519975837976549826e+01
-4.961233110831211661e+02
-4.078707581918237111e+02
-1.493251276707563306e+02
-1.314571087172801072e+02
1.407596816766306347e+02
1.268361667151649726e+03
1.074349680560117349e+03
5.857025239884728762e+02
7.304372901290857953e+02
1.285486864050086069e+03
1.251847105501672786e+03
7.586519900313968492e+02
2.119058048942936807e+02
