-8.643514648431379328e+02
1.001370798792110804e+03
1.758406478620872122e+03
2.071697983164516700e+03
1.955234887951257861e+03
2.098943978362715370e+03
1.875708550955118881e+03
1.583663745565469526e+03
1.127889090887995735e+03
3.184368425959221440e+02
-4.107649201538438319e+02
-8.438377192348474409e+02
-8.587622248094235147e+02
-5.794537477510866665e+02
-9.289547069722233346e+02
-9.293038223465358669e+02
-8.153946539581608022e+01
6.122826090676788908e+02
9.795054061728855004e+02
1.090451097498124454e+03
1.397849977046528011e+03
2.080468344461100514e+03
2.014668971231947125e+03
1.917276911073428209e+03
1.917267911510494287e+03
1.606804451959884318e+03
9.446056763332004493e+02
1.161715185928326946e+03
9.882673837145946436e+02
6.302213665600786499e+02
3.635370829235309316e+02
-4.667376576242927513e+02
-8.605462756312408601e+02
-6.909824865058511705e+02
-1.096612382473441585e+03
-5.382321230645720789e+02
-3.973640149711071246e+01
7.146876542684066180e+02
1.549026780210615470e+03
2.033813362191074702e+03
2.047087001387918008e+03
2.136412925168864149e+03
2.387404544375615387e+03
2.400248516198467314e+03
2.252188469783660366e+03
2.188232026801612392e+03
1.996266713498101808e+03
2.087279074288415813e+03
1.798309344690963371e+03
1.076228862916673734e+03
1.888312821308491891e+02
-3.007391298596737101e+02
-4.724853044695860831e+02
-7.405899690118136505e+02
-6.841819411902131378e+02
-2.463714426733807841e+02
4.768014229342421118e+02
1.006271282866835804e+03
1.495062948450872682e+03
1.975248342636488360e+03
2.275960760817477421e+03
2.235109434068403061e+03
2.151642612301864119e+03
2.193506571743956101e+03
2.448750226053912684e+03
2.303511205274413896e+03
1.870779933170965933e+03
1.691483226612957196e+03
1.323497642031145915e+03
6.386721690800743545e+02
-1.439740497319951089e+02
-6.573455366958504555e+02
-8.114743489733702972e+02
-9.674835605566518097e+02
-6.615185094668892134e+02
-9.952255286429925718e+01
4.376236617500352395e+02
3.529490147961336675e+02
-1.049674713973607368e+03
-3.704222317046534954e+03
-5.243622612317980384e+03
-4.939706460690221320e+03
-4.805543629457883981e+03
-4.301205437609439286e+03
-4.309672252470901185e+03
-4.550980055559971333e+03
-4.453153255374642868e+03
-4.336139327511954434e+03
-4.189829440186632382e+03
-1.857219331378929382e+03
2.736780107527063706e+02
-3.540457603712431478e+02
-4.753754721303458609e+03
-6.760366751529810244e+03
-6.508904370085867413e+03
-5.782436011065874482e+03
-2.481868111820244394e+03
-2.969118366296378554e+03
-3.613922508437840861e+03
-2.978352706164765550e+03
-2.910468137932868558e+03
-2.599242935761250010e+03
-2.326780463867573872e+03
-7.761425342016659670e+02
2.992739015853125693e+03
3.707977662128775137e+03
3.547615026888578996e+03
3.004736318609544014e+03
2.643301575937303369e+03
2.210442030611843165e+03
1.416279653724859600e+03
5.597900870355366578e+02
2.817208399155990151e+02
1.819992807979574820e+02
3.737045834116384526e+02
4.057828068986893868e+02
9.013002779361517014e+02
1.620315547727485637e+03
2.145845950069201990e+03
2.611980284918581219e+03
2.876800060554616266e+03
3.044347516573321172e+03
2.980574167663286516e+03
2.827429424224959803e+03
2.451943688583286985e+03
2.453206793974726679e+03
2.282381860881848297e+03
2.125580657507208343e+03
1.731695849575557986e+03
1.138759601755928088e+03
2.597742506728438912e+02
-8.932964872510450505e+01
-7.405715823120583536e+02
-8.218747463790074335e+02
-7.812206896482720140e+02
-1.016438544517737910e+03
-5.614476171731788554e+02
3.797929859071111878e+02
9.901405386880313699e+02
1.343665782564454958e+03
1.515502669649901236e+03
1.465755365548950522e+03
1.469322828658335311e+03
1.416090408808816619e+03
1.272075649686985798e+03
1.535382635069270918e+03
1.571260547315397389e+03
9.742598416472958434e+02
-6.778877169383871149e+01
-8.510294543188426815e+02
-1.788400787937046289e+03
-2.541977761003056003e+03
-2.700913554738764560e+03
-2.904356567590098621e+03
-2.501352525483051977e+03
-2.186528490529547980e+03
-1.749845704536959829e+03
-5.573433372880961088e+02
3.289667674242675730e+02
1.138041206662710920e+03
1.176802554634938815e+03
1.276350298451068056e+03
1.312875242949737867e+03
1.193484483498291638e+03
1.031899110438307844e+03
5.430628581746120744e+02
4.742232452299305692e+02
3.604908178432130512e+02
3.798137192686490380e+02
2.761595355205852229e+02
-3.885071902691236119e+02
-8.593499492992933710e+02
-1.407449456716820123e+03
-1.726647528717894602e+03
-1.696818557268194809e+03
-1.524972629474929818e+03
-1.010174319410735393e+03
-5.255298897571080943e+02
-2.109536198679054451e+02
6.766974355707924360e+01
3.533265472257894544e+02
4.009750153586805368e+02
4.366060489336468322e+02
6.213357562472396012e+02
5.791645440108261482e+02
8.179918253786245259e+02
9.338017077277116869e+02
1.048696678325014545e+03
5.578162350188339360e+02
-7.393949405517012963e+01
-6.447158331731599219e+02
-1.132594675774064399e+03
-1.628547052933596433e+03
-1.849716187688571608e+03
-1.679113976321676773e+03
-1.198524426631537381e+03
-7.109135874126477574e+02
-5.840335716592517912e+01
2.689904732695592884e+02
2.051953634466723884e+02
5.002091365355724975e+02
9.841034510534975652e+02
9.747919354110758832e+02
6.412143213662038761e+02
1.885223764262916859e+02
1.758753132434233635e+02
1.353005547725440749e+02
-1.440565848255808357e+00
-1.786294433940646513e+02
-8.741346493233343153e+02
-1.216920285613960232e+03
-1.679997672790162369e+03
-2.642540755425475254e+03
-3.718606576693536226e+03
-4.641181413044050714e+03
-4.223417773530516570e+03
-2.125259128568116921e+03
-3.485291863271220905e+02
3.974529174881972722e+02
8.259608321644799389e+02
1.529908540028035077e+03
1.884052080222509403e+03
1.914338952339523075e+03
2.100898735464378206e+03
3.185930026750606885e+03
3.526476978188211888e+03
2.763340182093671501e+03
2.038452687290856375e+03
1.591619248039697368e+03
1.231776312057215591e+03
4.731113299269291588e+02
-3.304183472277488818e+02
-1.209115215941173801e+03
-1.108481683072074702e+03
-3.241674058429952083e+02
3.089631847325413787e+02
4.697896672879138009e+02
7.873482722940779013e+02
1.266802603225764415e+03
1.855381759823650782e+03
2.469563978126012898e+03
2.793448655048383898e+03
2.727954514589044720e+03
3.243825741944738638e+03
3.210899013097460283e+03
2.957499857270775465e+03
2.498668420891520327e+03
2.148989155847670190e+03
2.300563528373514146e+03
1.817529197876394164e+03
8.016958634080323236e+02
-1.868086283087524464e+02
-1.086193881235978097e+03
-7.803009415943940894e+02
-3.485398202977120832e+02
1.853411980121726970e+02
8.331904421900148918e+02
1.706467849814071769e+03
3.089666817873890523e+03
3.883750147159364133e+03
4.498092601262348580e+03
3.992760752901938758e+03
2.282543387441558025e+03
1.847288266855177881e+03
1.662053980555385806e+03
2.200888556287470692e+03
2.059583469455868453e+03
6.950737290378323223e+02
-2.436106341230155863e+02
2.895406567103115094e+02
6.484463755084444756e+02
-5.847515483763285147e+02
-3.813108725158116613e+03
-6.981780579870077418e+03
-5.153867694268454215e+03
-9.163318847253691501e+02
-3.351934445897722981e+03
-6.188769106493809886e+03
-4.571029374755848949e+03
-4.169462313624906528e+03
-3.801922728537969306e+03
-2.176496481094724459e+03
-3.139993652041487167e+03
-4.967509955242908291e+03
-5.456331202679662056e+03
-5.501302391349189747e+03
-6.162395419408728230e+03
-5.592605253917658956e+03
-2.937903644294130117e+03
8.367116906138364811e+02
-1.078229880896198836e+02
-3.063430259482692236e+03
-4.262086478533664376e+03
-4.953670060622944220e+03
-4.882352360054693236e+03
-3.793130215265674451e+03
5.029387552237438399e+02
2.015800093526904220e+03
-1.534354007706915354e+03
-3.381305122466746980e+03
-2.678963083953853584e+03
-1.967415447881822956e+03
-2.033718410727256469e+03
-2.275774697015409402e+03
-1.738627126176877255e+03
-1.579314400066260532e+03
-1.152772474157169199e+03
-1.132908744110577572e+03
-2.456136414139346584e+02
3.286146577198642262e+03
4.510373345450663692e+03
4.344066878658404676e+03
3.664162424757903409e+03
2.213661248352952498e+03
4.805749348708215507e+02
-3.750944995567410274e+02
5.437476787844384489e+02
7.082036529413711605e+02
4.834387595637792288e+02
-3.250002271729681524e+01
3.253548059959942975e+02
1.853997630089377935e+03
3.644489000630002920e+03
5.026861016069683501e+03
5.323184289863551385e+03
4.054560099339631051e+03
3.172934982224393025e+03
3.634418549332284329e+03
4.440014231198857487e+03
4.387539871108074294e+03
2.792215077746408042e+03
1.481097707475452580e+03
1.329238464036881624e+03
1.823542498559448632e+03
9.489655955889606957e+02
-5.403469397913072498e+02
-1.236222718448429305e+03
1.426138441423755125e+02
1.631021656452777961e+03
2.073040931375292075e+03
2.445773494881042552e+03
1.972208509330753259e+03
7.433303019828349534e+02
-7.285316275057536473e+01
6.838291611283548264e+02
1.719611972713745217e+03
1.968271000981042107e+03
2.010014452183501589e+03
1.909957486472231722e+03
2.202790011746397340e+03
1.131193970678016512e+03
-1.246651315134693959e+03
-2.913719823794863714e+03
-4.061469353482963015e+03
-2.279461935038250431e+03
-5.455964717702144071e+02
-7.090867636759951154e+01
1.094726389222072839e+03
1.458385354309946933e+03
6.600628752325438597e+01
-1.114558316330281741e+03
-1.865146530834740133e+03
-2.612667992956351554e+03
-2.501280063477590829e+03
-3.161003190916439962e+03
-2.434900168790571570e+03
-2.410099735349310208e+02
2.291707566255788606e+03
2.354209314919224653e+03
1.383447173771333155e+03
1.461478108549522176e+03
8.672361352961899001e+02
5.157799319246067853e+02
6.150864397789176792e+02
4.471614047327955177e+02
2.019061539889556798e+02
8.413435004396293380e+02
2.356555747160401097e+03
3.155415534268398005e+03
2.205931136105522000e+03
7.202082053824539116e+02
-3.297742229673210090e+02
-9.897010101894996126e+01
9.457805368443559928e+02
1.111366182331394157e+03
1.919605633926381643e+03
2.535513658222131198e+03
1.528144560949509469e+03
-1.026389157266992243e+02
-1.318913405249237485e+03
-2.526556529558883994e+03
-1.986527849580989596e+03
-6.659604455364053592e+02
6.781509716872329818e+02
-2.402295270018962015e+02
-1.245129735942797197e+03
-5.685755921501074681e+02
1.745282488809848019e+03
2.668317483446626738e+03
1.156710524722910122e+03
-1.055470339058927493e+03
-3.823283169719257785e+03
-6.402645333443833806e+03
-4.288452414540436621e+03
-3.044672363371414122e+03
-2.371570885807133436e+03
-1.415239561239088061e+03
-8.385948305620169094e+02
-1.384632634644363407e+03
-4.159436883842009593e+03
-6.067134642581635489e+03
-3.628745029780200639e+03
-2.279139989240076829e+03
-1.467497391152616046e+03
-6.980062789816323630e+02
-7.236791321656411355e+02
-2.271498931844177150e+03
-2.692478344190229109e+03
-5.585876288582998086e+02
2.334210915952289724e+03
2.162922428895121811e+03
1.461041160346219669e+01
4.142721119822674609e+02
2.009850733567056295e+03
3.247341891914897133e+03
3.869729158254087906e+03
4.283895663779005190e+03
3.407748250816553991e+03
1.140287488576326950e+03
2.885094516714738688e+02
1.094346568488272169e+03
2.426729667476776740e+03
2.392652707354675840e+03
1.074289018159342277e+03
2.626450382576768448e+02
4.196558084440309813e+02
6.342460178262366526e+02
3.543156381608816332e+02
-1.481424455492393406e+02
7.339061438019469961e+02
1.857405558410064032e+03
1.466424460424857898e+03
-2.198259664002765845e+01
-1.178377880200406480e+02
1.759768626036080377e+03
2.693851311331370198e+03
2.289420039960180475e+03
1.335480196819341245e+03
8.730070510708118263e+02
-9.429663559215440500e+02
-2.647461583373975827e+03
-1.749528792029146189e+03
-1.492340851272837767e+02
-1.657724976788057702e+01
1.954556515062360802e+02
-5.861150676787116254e+02
-1.423327731466944897e+03
-1.348127824125375582e+03
-2.549419011594018684e+03
-4.380150723818783263e+03
-4.277311969164921720e+03
-1.998906727448300671e+03
1.308022250413623397e+03
2.610493950258982750e+03
3.365646127344550109e+02
-1.937006296575342503e+02
2.396463853575262988e+02
1.362576928461010993e+03
9.611277917595025428e+02
6.022855811957175547e+02
6.051066490158249280e+02
-5.823721436666479576e+02
-1.163229638480946051e+03
9.493845010617326352e+02
-6.365392632499635965e+02
-1.981062715734216226e+03
-2.874878969623591729e+03
-3.512003960262310102e+03
-4.461495201478332092e+03
-5.164354264138199142e+03
-2.970507830532502339e+03
-1.158936699990885245e+03
1.012373306791730442e+03
9.525524554704445563e+02
7.226420786139376560e+02
1.011586638468838828e+03
8.003262362439314757e+02
5.181989181916563211e+03
3.987716040194863581e+03
-5.605049986697779332e+02
-2.800851774960879538e+03
-3.598406238130913152e+03
-6.143133568308864596e+03
-6.522930757117474968e+03
-4.070806717310357271e+03
-3.728087233934949154e+02
6.550465784552131936e+02
1.203831544690696774e+03
5.107652725897853088e+03
4.948580059534881002e+03
2.604657842992445694e+03
3.760882935046125567e+03
4.399293858996258678e+03
3.678939120734955850e+03
-3.961631464938088243e+02
1.548983102901924553e+02
1.569184621098946991e+03
3.527514345085850209e+02
1.526018638152945073e+02
4.627502604516260476e+02
-3.135839265226815769e+03
-4.150159501777925470e+03
-4.982247259667579783e+03
-3.690143478690557458e+03
-4.725864369189617719e+03
-7.228441495583077085e+03
-5.042833249418928062e+03
-1.427930248121235081e+03
7.153469157053460776e+02
1.075096640161773621e+03
2.501239250218192865e+03
5.014788091856636129e+03
4.848742933872179492e+03
3.761220831826259200e+03
3.166261077781272434e+03
3.150876079978495454e+03
2.480933152446312306e+03
3.127350457930901030e+03
3.634356916964649827e+03
3.221122881726587366e+03
1.341630863425949656e+03
-7.064876190333394561e+02
-4.647776112018712524e+01
-2.868494392622024520e+02
-2.913486616048708584e+03
-3.427774330946165719e+03
-2.098589833175964031e+03
-1.639924935170659637e+03
1.258952162956511302e+03
2.964426074901746233e+03
1.791616825203022245e+03
1.985376553796017788e+03
2.213722900846121775e+03
2.435765837204402942e+03
2.153448846725013027e+03
1.947299327635251757e+03
1.144198925573359020e+03
3.195069358206496872e+02
4.823846966820808575e+02
2.326880325678304416e+03
2.407860245993086210e+03
2.604498371609930473e+03
1.491354952400386310e+03
-1.580075370836350885e+03
-3.015637182096006654e+03
-1.816911501657693861e+03
4.392855060828587739e+02
1.471473366669183861e+03
1.639966011973230025e+03
2.697633054655172600e+03
3.332668497161834239e+03
2.690694875864433925e+03
1.707800543623646035e+03
9.092749267105295985e+02
1.278724888353490087e+03
2.063043793635695238e+03
2.465989369432816602e+03
2.871748233610945590e+03
2.486460832954473062e+03
2.026030841229748603e+03
1.066547211376837595e+03
-5.639859655518174577e+02
-1.687667044611871006e+03
-2.282636373587230537e+03
-1.526846962707279090e+03
-4.743403544958491693e+02
-9.146196508190046481e-02
2.738788561476489463e+02
5.314234225610921385e+02
3.734475309786093362e+02
8.659580650742448142e+02
2.170046400307452586e+03
2.027839489378442750e+03
2.614333720690401151e+03
3.039403486986000644e+03
7.099990044025657880e+02
3.730766237310808151e+02
8.447789496754513721e+02
2.145125376862702979e+03
2.090016320327759331e+03
2.313480152255372673e+02
-2.274747673441195730e+03
-5.541216600222190209e+03
-5.556104231565223017e+03
-6.196604642675335526e+03
-7.022809770349834253e+03
-6.518651096891957422e+03
-6.976106676152428918e+03
-8.541022911957938049e+03
-1.052133846238963633e+04
-1.093906981063151761e+04
-8.341343223667681741e+03
-5.758192551802681010e+03
7.944538420178873821e+02
7.800618308148023971e+03
7.000264674069397188e+03
2.831325186099235452e+03
2.198888609922044452e+03
2.277105114711903752e+03
-1.004037780036663548e+03
-2.932524383700008912e+03
-4.510595660662411319e+03
-5.824283785497083954e+03
-6.428489713642162314e+03
-5.926298145571382520e+03
-6.310719584786907944e+03
-7.402594941995273075e+03
-3.211842821685214403e+03
6.285010694288745299e+02
2.287489164378065652e+03
3.538102229961120429e+03
4.276465593141406316e+03
4.448454126447541057e+03
4.674940489903726302e+03
4.038846710057269320e+03
3.037291240736152304e+03
2.781361591652761490e+03
1.888964905740470385e+03
1.522231850764709634e+03
1.404161861805863737e+03
1.875739191010589138e+03
1.102957100622084909e+03
6.278735362910921367e+02
1.226406478257346407e+03
2.044724371242810150e+02
-1.120893772293034999e+03
-1.279549494279490091e+03
-1.982359463593537839e+03
-1.676293472842244228e+03
1.051606118146991776e+03
3.138291307917240374e+03
3.060823542173303395e+03
3.058207034886295787e+03
3.581482266292063741e+03
2.947775240831653718e+03
7.871399110820868827e+02
6.305728401563020498e+02
1.472113750582665489e+03
5.746392358341436193e+02
6.410751093125808211e+02
1.303405788631416726e+03
1.951796401084254512e+03
2.612251866968115792e+03
1.468708588641969982e+03
-1.795940329507532397e+03
-2.985626935151073667e+03
-3.277135572672496437e+03
-4.326334835124667734e+03
-3.656177017187507317e+03
-1.114591643973665441e+03
2.221202791012359739e+03
2.262397174449044996e+03
1.382017126035536421e+03
1.439100333553910559e+03
1.943669034685467523e+03
2.330812915921740569e+03
1.276659571077446572e+03
7.721858587737135622e+02
2.439272509439488658e+03
2.656980241717660192e+03
1.677118354278160496e+03
5.776218465207803092e+02
-5.545742374332547087e+01
-1.465018405878210160e+03
-2.426097824844993283e+03
-2.840912693825104725e+03
-3.175578982194794662e+03
-2.444837660066338231e+03
-1.689465838685099470e+03
-8.246503022579296385e+02
4.835465697724160918e+02
2.415146866183119528e+03
3.384211734124749455e+03
2.839752975568387683e+03
2.516869658542536854e+03
2.113657330032574464e+03
1.028022251362140878e+03
-7.621369687551025436e+02
-2.723917018957623441e+03
-1.969210007652103968e+03
-5.359008090695492683e+02
5.289422101102304623e+02
1.077282598098076051e+03
6.201359153113589855e+02
-1.064840491965619975e+02
-3.655373262153626115e+02
-1.162151601765160194e+03
-1.278355861429685547e+03
-1.350486813126865400e+02
1.066925781281922582e+03
1.452511523221606240e+03
1.528491439527342891e+03
1.540901729103708703e+03
1.617889087868300749e+03
1.371483301116989423e+03
1.455619895650870149e+03
1.519394483454581405e+03
1.357802505559524207e+03
6.616379994447574973e+02
-7.219444175837284661e+01
-4.665989719205211941e+02
-9.346313281727059348e+02
-2.574214694910503567e+03
-3.531365476751975621e+03
-3.112147346314738115e+03
-2.420457311702477909e+03
-1.896254583867045312e+03
-1.648678216473399971e+03
-1.649871531871862544e+03
-1.546986389655265612e+03
-8.619546405560813582e+02
7.556128155428690434e+02
1.222582832874858241e+03
1.508811578887891301e+03
2.017198287026255684e+03
1.537810338005264612e+03
1.150610616940123464e+03
9.055508139292908254e+02
7.226983719561114867e+02
4.099903044109415760e+02
-1.208306310152706828e+02
-2.762510233577125291e+03
-2.107020468506829729e+03
-1.267430634117132968e+03
-1.541751194262985337e+03
-2.523965856719329622e+03
-2.805121958536737111e+03
-1.967494470028632350e+03
-1.621095624523459492e+03
-8.929762014424474046e+02
1.760204994240216934e+02
5.889025158050500295e+02
-7.937693717476224720e+01
2.223385270721159657e+01
1.656302176010846324e+03
2.996181853848667288e+03
2.860116985504444528e+03
2.131002146954935597e+03
1.466728055261668032e+03
1.423436210237815203e+03
1.204953764528507236e+03
2.390108778344696532e+02
-1.278604048521961204e+03
-2.285728192876864796e+03
-2.534369207519023803e+03
-2.555854238479816559e+03
-1.507891658977022416e+03
-1.056279336063578057e+03
-4.953304742611797451e+02
3.209803415328142364e+02
1.384836904630024037e+03
1.748573255384269032e+03
2.100835783601599815e+03
2.309552873229214129e+03
2.136897382962846677e+03
1.736746396038823150e+03
1.790016607960426882e+03
2.041021214510292111e+03
1.910589463442111764e+03
1.270742875329152639e+03
5.102592477691791828e+02
-1.996845980924548485e+02
-1.044932691832646242e+03
-7.118482513037106401e+02
-5.606537659420954469e+02
-8.021976595355183690e+02
-1.307448237334189571e+03
-1.714498924653909398e+03
-1.490439784408817104e+03
-3.040686003367859485e+02
9.075848222403379850e+01
8.589894702583735580e+02
1.482587693170403327e+03
9.856168348917321964e+02
1.739037552631051540e+03
2.271801769146275547e+03
1.845923419129481772e+03
1.457553669726592489e+03
1.090752683898616397e+03
5.193405879143217589e+02
3.053610374491088919e+02
-6.290007921165561129e+02
-1.017856884089263076e+03
-1.218376211010105180e+03
-3.592447560498666007e+03
-3.773332888479258145e+03
-3.539019846197991683e+03
-4.097235593035884449e+03
-3.981028760377201252e+03
-2.848333869278781549e+03
-6.101284029592226261e+02
-1.589359408808759554e+03
-2.154008901669967145e+03
-2.394985493110386415e+03
-3.043268609722462315e+03
-1.570915037934764996e+03
-1.091134755102800682e+03
3.165187980849693304e+03
3.851074517096321415e+03
2.073614665862123275e+03
3.042307703446145872e+00
-2.389742951510594594e+03
-1.392889069111747631e+03
-4.178504566654069095e+03
-2.670496819381471596e+03
-3.165818622173189851e+03
-9.115745646167530367e+02
-2.332729613248614442e+03
-2.922094920867083147e+03
1.282397644775877097e+03
8.488032787563552120e+02
1.500670652677272585e+02
-3.368590110626718683e+02
1.280949751219243069e+02
1.634902856533029535e+03
1.719609375010691110e+03
2.210228018510209495e+03
2.386810286639150036e+03
2.074405586751123792e+03
1.941062761724771917e+03
2.050755869569776678e+03
1.405377531181490895e+03
7.648943894203526952e+02
8.753085543046189514e+02
7.386819954103912096e+02
2.100320698164089208e+02
-1.426305511808408255e+02
-4.230025932689727597e+01
2.119998768425217577e+02
8.053720074471679027e+02
1.401775851892236915e+03
2.227257493030474961e+03
1.971094665000139685e+03
1.901181982851636576e+03
2.163445306335201167e+03
2.326760440388474763e+03
1.977196528061438585e+03
2.006838882427956150e+03
1.942771432400263848e+03
1.931164788224215044e+03
1.693021147938515242e+03
7.204908713499140731e+02
-3.354662199696931566e+02
-1.259020067461414101e+03
-1.112026216930340979e+03
-1.081425213726435913e+03
-1.063140328659207171e+03
-1.053249351487822196e+03
-9.080227957219382233e+02
-3.444996508434043676e+02
5.419795134857999983e+02
9.992498952294262153e+02
1.077094825550250107e+03
7.967341138160115861e+02
6.146112040765891606e+02
3.885916940686428802e+02
4.939899478392410401e+02
5.279417283177402851e+02
5.504498334759452973e+02
8.855127068419479883e+02
1.050089471686722391e+03
3.361008690504117453e+02
-5.173746166135996418e+02
-6.792856878817475490e+02
-1.328901672805739963e+03
-1.741562565765115551e+03
-1.796183310940057481e+03
-1.112727550333165937e+03
-6.002241209135638655e+02
1.763739543319031782e+02
9.840408282411276559e+02
1.160870507849667547e+03
1.167921622648493440e+03
6.771496028976608841e+02
9.145801359642771331e+02
1.142145654195401903e+03
1.473811884226794064e+03
1.269490755680957363e+03
1.484265190915345102e+03
1.397112646108295621e+03
1.138936648792508549e+03
5.808517759956240525e+02
-3.521139673204589258e+02
-8.420026775888925386e+02
-1.204800145554480650e+03
-1.241603751457218323e+03
-1.161665413129871922e+03
-1.277939204749724240e+03
-7.872759110723320646e+02
1.343048177783527990e+02
9.607948866495980837e+02
1.416260460137184282e+03
1.715866334414359471e+03
2.060514468741788278e+03
2.327057713437795883e+03
2.490617517464060256e+03
2.629095886594154763e+03
2.429414373450070798e+03
1.565527612822839956e+03
1.100459445229814946e+03
9.603184439672993449e+02
3.672583786241203256e+02
-4.238246477102180165e+02
-1.195970987402928586e+03
-3.195117006450549070e+03
-5.645384763345792635e+03
-7.029061920537181322e+03
-6.796224025476334646e+03
-6.781618642625920984e+03
-5.930123287629110564e+03
-4.987812134553413671e+03
-4.000718350642999212e+03
-4.157838032031644616e+03
-4.653980585343663734e+03
-2.192224655293002797e+03
1.044241333219667467e+03
1.971456917319474314e+03
2.242535793264269159e+03
2.399488996189924819e+03
1.955291731935380085e+03
1.692056224415235874e+03
1.206804229126093787e+03
3.534883419534132258e+02
-1.959295205362467129e+02
-3.965263021197848730e+02
-8.943478002770120838e+02
-9.184268468257038194e+02
-7.377975015771793323e+02
-1.544730598507292711e+02
5.745978102802058629e+02
1.325547053957893922e+03
1.550381105016067750e+03
1.549135245996725644e+03
1.904918152638988886e+03
1.832818938877527216e+03
1.926853157375192723e+03
2.045798251741435024e+03
1.441594158945779782e+03
1.137263723537880651e+03
1.109794065781662539e+03
7.232188711182483303e+02
4.706084108737985616e+02
-5.303105729364943954e+01
-5.356108497706658227e+02
-1.250174312433893874e+03
-1.369856021861132831e+03
-9.196790585107714833e+02
-9.175649024547948329e+02
-9.504736461656686970e+02
-1.903439040623935625e+02
5.108549515098354163e+02
9.511734559763928019e+02
1.186627765110232076e+03
1.194247321094250537e+03
1.225094896322390923e+03
1.244215253359981489e+03
1.464584517995753913e+03
1.278199140857481098e+03
1.157094774285145832e+03
6.723792459640101242e+02
2.690177483243197116e+02
-1.290415578195552371e+02
-9.738477907649778444e+02
-1.901398717309905805e+03
-2.094739954597129326e+03
-2.302834515500747329e+03
-2.932499335894067372e+03
-2.022694580349828357e+03
-9.706446016843318603e+02
-3.582229428743001449e+02
2.626265847001296834e+02
7.108491071926162022e+02
9.735447855005724023e+02
1.265785680392553104e+03
1.404581747411997185e+03
1.402911229563947245e+03
1.250768377243624627e+03
9.551900264269639820e+02
1.141377041837614343e+03
8.720918799474419529e+02
7.723300899787593607e+02
6.321916206384224779e+02
1.367038780232629449e+02
-6.651657735929641149e+02
-1.388446092452531730e+03
-1.752128192814405338e+03
-1.862253946929476797e+03
-1.841893943009865552e+03
-1.617957362193376184e+03
-8.413131988491468292e+02
-3.399799091913823190e+01
5.818329859317418595e+02
5.272079521949884793e+02
8.092664927158340333e+02
1.066052575328292505e+03
1.293583351178446719e+03
1.408776419268192058e+03
1.468672757018792936e+03
1.089313164888416168e+03
9.217435390188891233e+02
5.269561184930402078e+02
-6.508311885533758812e+01
-4.353747886290876181e+02
-6.450414667685391805e+02
-1.532079303203578775e+03
-2.479484433268585690e+03
-2.433311370724486096e+03
-1.882598367930818767e+03
-1.456323307406632011e+03
-5.154813826332160716e+02
4.159934964008454017e+02
9.111497948674401641e+02
1.071026638694836947e+03
1.055597287405958696e+03
9.308327439441250135e+02
1.169730082079939621e+03
8.562804217189285509e+02
5.594717350782583480e+02
3.852887507054698517e+02
2.617170529955815823e+02
-5.583035241420672037e+02
-1.327777725000551925e+02
-7.426814400845368027e+02
-1.405016636177089140e+03
-1.761838175611337419e+03
-2.002210445689203880e+03
-1.492204071913853568e+03
-1.342780080660047815e+03
-1.177015122817233760e+03
-9.429132038383501140e+02
2.216237242239877503e+02
9.665038607024235944e+02
1.013726539461248308e+03
1.187318505735574263e+03
1.429308117991160771e+03
1.911655459614681149e+03
2.131327107921506922e+03
1.889232577852686518e+03
1.789431733912316759e+03
1.318848413309079206e+03
1.520306365959925643e+03
1.106151537816863311e+03
-7.461990373711725510e+01
-9.862446420716784132e+02
-1.661532328395773447e+03
-1.670693810492451348e+03
-1.499628494171960028e+03
-1.300671987549754931e+03
-9.817575377652794941e+02
-2.726011092132160343e+02
4.707662021420559313e+02
1.429377597039739840e+03
1.603725831014744017e+03
1.586993662542270613e+03
1.827941403456658009e+03
1.592598793730232728e+03
1.632279543816246814e+03
1.185933597620232831e+03
1.207459851076391715e+03
1.158531945044152963e+03
1.327674514966372953e+03
1.193321418862468590e+03
4.297824372912206741e+02
-5.414315623046919654e+02
-7.588488752181991686e+02
-9.497429751341067004e+02
-7.102933924325891439e+02
-1.934990344421976545e+02
1.638255233146241210e+02
1.148647815540490001e+03
1.916926128431323605e+03
2.423486693241484318e+03
2.826620445744811150e+03
3.091207870559096136e+03
2.779120195753191183e+03
3.052383997161860862e+03
3.177951565097049752e+03
3.145712899470598586e+03
3.039710852794125913e+03
2.305966602673759553e+03
1.951485185217872186e+03
1.607250553441360353e+03
6.502404983986752995e+02
8.050902390652616702e+01
-4.992471413850554818e+00
-3.063296577452807696e+02
-6.026546455875503625e+02
-5.520002460847355223e+02
-4.135280120717786190e+01
7.684335711184445472e+02
1.511358342885973798e+03
1.705366317869234763e+03
1.451473163715005512e+03
-1.412787880652797696e+02
-2.534893873864568377e+03
-5.023345007034797163e+03
-5.114672015780804031e+03
-3.935909423827243245e+03
-3.518016695128053925e+03
-4.075957533489757679e+03
-3.824695020587690578e+03
-4.246324413683317289e+03
-4.703820612948490634e+03
-5.022186775266702170e+03
-5.633479014966303112e+03
-6.240643207391457508e+03
-6.139678914489552881e+03
-5.928645082470918169e+03
-2.193516667198081905e+03
1.231774626441450209e+03
7.843061688543607488e+02
-1.052929308050664531e+03
-3.147968879385934997e+03
-3.087774936789704043e+03
-3.057304136684679634e+03
-3.112542391754578603e+03
-3.181528109103865063e+03
-3.089235736296836876e+03
-2.702594824159072232e+03
-2.356584960953531663e+03
8.007820725145309098e+02
8.376610271633691127e+02
5.871126351947234525e+02
8.750140749468279182e+02
6.332527730621800401e+02
5.939489179680126654e+02
3.770886155568006188e+02
5.265751729221690312e+02
1.024469133827269161e+03
1.799827824429088878e+03
2.415803420894186729e+03
2.777355124328830243e+03
3.108467964083715287e+03
3.128225280033958825e+03
3.063752877343503314e+03
2.964000972798248768e+03
2.828993672016961227e+03
2.586739117207609070e+03
2.151307761300832226e+03
2.257731666349077386e+03
2.032978197013973158e+03
1.585053274550803053e+03
6.979745497586177407e+02
3.688384177108531503e+02
9.573568191016892115e+01
-3.522935600569674648e+02
-2.513475034642467278e+02
-3.735012761405148467e+02
-1.566514723017715482e+02
7.623268935405078537e+02
1.174464235458603753e+03
1.637698183651450336e+03
1.916018323479778246e+03
2.055423286064791228e+03
1.881943211291998068e+03
2.345799096566500793e+03
2.525960098869750709e+03
2.048228622927801553e+03
1.735838158693967898e+03
1.682960987666423307e+03
1.622442557039540134e+03
1.801277153695399647e+03
5.488765789420253896e+02
-2.956851465780022181e+02
-8.765939571402843740e+02
-9.628168017918709438e+02
-1.177302054843437190e+03
-1.313140913678888865e+03
-1.409428388996924014e+03
-4.579463352179401454e+02
3.345226865631857294e+01
5.805099161797265879e+02
5.031754852760067820e+02
5.877343488392963309e+02
4.020866652192535184e+02
6.000522221794323485e+01
6.256803974939611379e+01
5.386699959915946465e+02
8.764112356496639222e+02
7.300355790819866115e+02
6.794613320400588918e+02
1.684960649530592036e+02
-6.509843881949734623e+02
-1.443952194845831855e+03
-1.549223747843511092e+03
-1.702829540305238879e+03
-1.753837730383431790e+03
-1.735216071890584317e+03
-1.529098707630706940e+03
-8.014498160784071388e+02
