2.158028055516225322e+03
2.235635633649392275e+03
2.589257018637634701e+03
2.484894258388701928e+03
2.514583998717171653e+03
2.701404254202016546e+03
2.834377152023856070e+03
2.580464916918194376e+03
2.502710959324488613e+03
2.317234177048648235e+03
2.426062654612569531e+03
2.106268939646788112e+03
2.104970378014075322e+03
2.109311380173338875e+03
1.979429548542197381e+03
2.013109398077798005e+03
2.354473414261407015e+03
2.303482713665390747e+03
2.306110590199912622e+03
2.024406093961096303e+03
1.721304539762459399e+03
6.529124641574718453e+02
1.363265615390113908e+03
2.142119609329884042e+03
2.165444628224382086e+03
2.314700151367373110e+03
2.347708109084642729e+03
1.271709192102210181e+03
1.013749134956856892e+03
1.835386127339731502e+03
1.820086413212724210e+03
1.834963701998246506e+03
1.703959950382620946e+03
1.564098967947760229e+03
1.552314660595754049e+03
1.295847804714089989e+03
1.233664648705473155e+03
1.387252845020734412e+03
1.626677177225820060e+03
1.824059512565220075e+03
1.581368283646319014e+03
1.463744936675676627e+03
1.520955520086731440e+03
1.032887250324504521e+03
8.586427905023929270e+02
9.622677289591144927e+02
5.427070847978701522e+02
7.889783332414397137e+02
5.660573375294865173e+02
7.169156848102654749e+02
7.624182602607564831e+02
6.728906616486078747e+02
8.692794014852638611e+02
8.802991880143000571e+02
4.191561611283202069e+02
3.727911777430812208e+02
4.391562580288256754e+02
3.142267204582572049e+02
2.944617355073510225e+02
1.397340091843033463e+02
-2.862120400185347080e+02
3.964364898393843362e+01
6.922086872044245354e+01
-2.195460417998081937e+02
-6.569092021816258864e+01
8.473327132238365778e+01
8.667942480119900495e+01
-2.788292705351930181e+02
-4.127726968284284226e+02
-2.342674561680639727e+02
-3.823000464474800992e+02
-2.538939518545670921e+02
-4.084157709814405735e+00
-8.185192356871732500e+01
-1.162659036837142708e+02
-2.953770342958137576e+02
-1.601610607013505216e+02
-5.536356403728331088e+02
-4.868272169673845156e+02
-1.715782494843175755e+03
-3.694640687965671077e+03
-7.124404354837347455e+03
-7.591066365367271828e+03
-7.349684485511029379e+03
-6.642284708376913841e+03
-5.443901309431948903e+03
-5.981584728520046156e+03
-4.913994644745501319e+03
-2.123907994103480519e+02
1.953280939895653887e+02
-2.298010553642232935e+03
-5.025455703544296284e+02
-1.082542933506850602e+02
-1.279189826750533257e+03
2.016907944005079401e+02
5.505567437100012285e+02
4.803347421552280707e+02
4.376395619969167683e+02
4.625262735206646880e+02
3.950455042854683256e+02
1.651583759353498806e+02
2.717985294929335964e+02
4.079560316397418092e+02
7.759585728499301638e+01
1.596764508487759997e+02
2.911790063940418918e+02
2.131179444670318333e+02
2.685194205855486302e+02
1.533164126121038180e+02
2.075024138187021947e+02
3.380649060492445415e+02
2.059649017888343963e+02
2.182208306747225492e+02
-5.186804901257603184e+00
2.296892376563838241e+02
2.519148162058766616e+02
5.384264456182908134e+02
7.331378693000630165e+02
6.500700237550928478e+02
4.562347851163303289e+02
1.966149159298856546e+02
2.421689816648195119e+02
1.189131301277946875e+02
2.598375191916927065e+02
9.896087113442042948e+01
1.763432619003002912e+02
3.269333954684337868e+02
1.972398236896329848e+01
3.317109267360243052e+02
4.098665338081472100e+02
3.422038057404777760e+02
4.787892825539734076e+02
7.765975958955330043e+02
8.085466093181454426e+02
6.756761899493048986e+02
7.060377793109479398e+02
6.196653303530831636e+02
6.635649507610254432e+02
8.247718348768592023e+02
4.872682559781841860e+02
5.170922321017151262e+02
3.142616648600704821e+02
4.777875321179990920e+02
-8.834928236804005053e+01
8.168590594839520236e+02
9.034562058279331040e+02
9.004741761970171865e+02
1.002928008431940611e+03
8.658672582139766973e+02
-4.306961658644880231e+02
4.281548658410061989e+02
7.004801318859271078e+02
6.695047873910302769e+02
8.352503568489551071e+02
3.997893208415591175e+02
-1.452068669869852101e+03
-4.183084091007368443e+03
-3.690273741206542581e+03
-1.583610497340374650e+03
-1.589206721800693686e+03
7.108644305533816805e+02
6.416292776668161650e+02
3.492297216755852105e+02
-2.972735857165915832e+02
-1.907846341388070186e+03
5.425233808697994391e+02
-5.671487265922189636e+02
-1.550829123206997338e+03
-1.147460707080109387e+03
-6.130266759701943329e+02
1.177492390808740083e+03
8.790833269745496636e+02
5.848391697475292403e+02
-1.753216284919075179e+03
-1.952066256324073265e+03
-7.146982293126914101e+02
9.389612419349836046e+02
9.319107109379558551e+02
1.043172813787048653e+03
1.011788666219439165e+03
9.208087492833413990e+02
1.010226260190822586e+03
8.271085848709678885e+02
8.124325212636753122e+02
8.822163583678354826e+02
7.165300290478027136e+02
5.573906379198342620e+02
-1.363184754443274642e+03
-8.361572644594652957e+02
-1.497517512921794378e+03
-1.388251271566530022e+03
-3.037328100842769800e+03
-1.402742352584057471e+03
-2.244650628860344739e+02
-2.079482254157032912e+03
-1.137769926121304707e+03
3.056546976076622286e+02
5.238419966036531150e+02
5.868099199087675970e+02
5.325211154398410827e+02
5.819945649560157790e+02
5.242462099908495929e+02
8.162777219355962188e+02
1.048140051940184094e+03
1.056835927378361248e+03
9.133236198567146857e+02
8.766352961273207711e+02
9.197835763684896619e+02
8.757289959195885558e+02
7.424295321879264975e+02
8.090161955392943582e+02
7.635428827653485087e+02
4.727410458433480471e+02
-1.052294258091744496e+03
-1.663602251110568773e+02
4.757864337694243204e+02
2.869755789625036186e+02
3.890586299672417567e+02
4.139514645610253183e+02
4.097216525012013904e+02
-4.486263836052012834e+02
3.897302043528670197e+02
7.329843195636065047e+02
5.570596621637583894e+02
3.967881922028289523e+02
3.513072046393845085e+02
5.336351881825613646e+02
2.167145283728998493e+02
4.053402852275059445e+02
6.584290553542526823e+02
7.262237318126434502e+02
5.946132902434560492e+02
4.747464674553943951e+02
7.623259801228648485e+02
7.465073417382772050e+02
5.811183881696264280e+02
-2.776425984762637356e+01
2.089272140815675982e+02
1.689250489044955827e+01
-4.046375723634579344e+02
-3.499580719919708827e+02
-3.380602599767187826e+02
-2.168367794861773064e+02
2.926421647703396616e+02
4.698919361604418441e+02
5.013693947823340409e+02
7.547176806008350241e+02
6.309301327662329868e+02
5.460854862717429796e+02
7.113754024129400477e+02
8.615647143656278786e+02
9.695775510999419566e+02
1.198394587412698229e+03
1.160990898843605009e+03
1.075330937779507394e+03
1.101344658556907916e+03
1.031035270405195206e+03
7.963026733114970739e+02
7.623322893311180906e+02
7.900217708943815751e+02
9.143187353724505329e+02
1.142254362878334405e+03
1.456778674720737399e+03
1.085924343061868285e+03
5.875804449290781122e+02
5.966893497765390748e+02
4.892703876507893597e+02
6.112495476330349220e+02
8.416569987341580372e+02
8.854359546728434225e+02
9.875874601999154265e+02
7.209015827209623239e+01
8.429162046801948236e+02
1.264019130675692168e+03
8.914031128406256812e+02
8.230181810072598410e+02
6.398833506154510360e+02
7.780314600987580889e+02
9.735015361685568678e+02
5.911227301345015803e+02
-4.862108446268497346e+02
-3.313291668186812331e+03
-6.311188177107766933e+03
-5.718951218774498557e+03
-2.980506158712199976e+03
-4.607885320463508833e+03
-6.115211559509287326e+03
-6.003509575180483807e+03
-5.961710227042204679e+03
-5.532614565924443923e+03
-5.750249460413186171e+03
-2.350758022842624541e+03
1.311847619667641084e+03
-1.763426386566209658e+03
-5.115599366653223115e+03
-4.608670800519506884e+03
-9.516553577028475956e+02
1.083465918780044376e+03
1.199712743910414474e+03
1.359090456449956491e+03
1.399625327332556026e+03
1.403286338491196830e+03
1.078084417746627878e+03
1.237054444968798862e+03
1.672183380325236385e+03
1.339517198599373614e+03
-1.056989828681585323e+03
-1.514327528464441912e+03
-1.516465229634476145e+03
-2.242402247375796833e+03
-2.046101943270167567e+03
-2.290528375160504766e+03
-3.235704619195062151e+03
-5.380624238093176245e+03
-1.403249400646343020e+03
1.889430968921154772e+03
1.997450713797190474e+03
2.257853345277578683e+03
2.141599381000756239e+03
2.100697622168980160e+03
1.926232214229763258e+03
1.612149170807410655e+03
1.523457896894648229e+03
1.295243152133727790e+03
1.330549079587116239e+03
1.187352048263503548e+03
1.415644550743679702e+03
1.542495339993378821e+03
1.275919373031780196e+03
1.363902967613617648e+03
1.299486589835431005e+03
1.204700634149736516e+03
1.275552200037929651e+03
1.279055352106825467e+03
1.356281108693212445e+03
1.558233182766338132e+03
1.634047594506618225e+03
1.411831338796372847e+03
1.024773945511791908e+03
7.756791460297644107e+02
6.124089965334396766e+02
2.159598074603401585e+02
-2.230631868418498925e+03
-1.893095550910849397e+03
-2.749474776849378486e+03
-1.664056627221481904e+03
5.684434560411048096e+02
4.614610771907373987e+02
5.416993475940641929e+02
2.758961124703737937e+02
5.192449420441812435e+02
8.956848816285308885e+02
7.643436832264377472e+02
6.541621590188957498e+02
5.560945417335425418e+02
6.701774882612148758e+02
6.544213625307875191e+02
3.268643780226811941e+02
6.144848581794212805e+02
6.202844818174708053e+02
6.693132238435169938e+02
5.826021460563558776e+02
5.041428942473389156e+02
8.219758266890947880e+02
9.091119416738197287e+02
6.445838486405131107e+02
7.693656314118553610e+02
4.284766831174201798e+02
4.639543373521061653e+02
7.107890208321805403e+02
5.360247202781949909e+02
6.156291547280442273e+02
7.436204934757976162e+02
2.440069100284969181e+02
2.697944151604818899e+02
3.189797797833492154e+02
-1.837150831766189540e+01
-3.462554685945785877e+02
-1.967058785471875808e+02
-3.068844364633963906e+01
-8.423235158970882708e+01
9.167363625918909520e+01
3.150320715155490916e+02
1.918741385889308333e+02
-9.880389245851010571e+01
-1.720583997684008182e+02
-1.558367666020107265e+02
2.874340383273233268e+00
1.420478835054214528e+02
-1.213262525948713488e+02
-6.236114350890858304e+00
-2.766330325912240440e+01
-1.836113331911874127e+02
-1.640937485411031389e+02
9.109991656293947582e-01
-6.964290311138353218e+01
9.926189747898871474e+01
2.426274911408573303e+02
-9.457458990904171969e+01
-4.433734072413196259e+02
-3.686075304074682322e+02
-4.264840339945811820e+02
-2.379539920913555022e+02
-1.950245854377218961e+02
-3.474128977132461671e+01
-8.515037332401605852e+01
-1.782019017544500912e+03
-3.099478118796109811e+03
-2.153636728097005289e+03
-1.623455196928870009e+03
1.631471672309717178e+02
3.390892007891208095e+02
1.951462047677438250e+01
-8.350991428686528195e+01
4.478256248060451838e+01
-7.476941582196162983e+01
-1.210458329677298082e+02
-2.902662099673513012e+02
-4.352735641629952283e+02
-3.840317184684378731e+02
-2.305740753280812214e+02
6.520153633757556122e+01
2.499739295684166791e+02
7.893762868984215686e+01
7.512596483206318965e+01
6.420446654642269380e+00
-4.220021189178923748e+01
-4.159041939427004309e+02
-2.185585058299720913e+02
-1.161580786487726584e+02
-2.095381781262815082e+02
-1.078737920239913990e+02
1.147107942806527205e+02
6.916543828196344634e+01
4.354639248776099691e+01
-2.179622701186752387e+00
7.002731781512879650e+01
9.311625181738241963e+01
2.590981380886801730e+02
1.899286630256105468e+02
1.375880546289485267e+02
5.009111385727121757e+01
-1.365722000951205359e+02
-1.224055816864066912e+02
-6.425664527509476898e+01
9.268311109217475519e+01
6.947299042113732526e+01
6.107748364476374547e+01
-1.940089481146672057e+01
5.977502859026287041e+01
1.226280541601556422e+02
3.378304122788255093e+00
2.280239804294822648e+01
4.068426262423580511e+02
5.315481176236846750e+02
4.958929417583229338e+02
3.359098444497082028e+02
1.965959152291461578e+02
-1.120586952558824265e+02
-4.511878717483598678e+01
7.464220561101109297e+02
8.385581790105355822e+02
8.933449860072062165e+02
1.058783309843498046e+03
8.558429363656927080e+02
3.715105980066204552e+02
3.157856211570195342e+02
2.716811445300300534e+02
1.281895086070053082e+02
5.234302645140475363e+01
4.642266408081129612e+02
5.426359791961748442e+02
5.827849234807176799e+02
4.236187707801984175e+02
-9.295564122810975505e+01
7.560615911601508969e+02
6.647144343120460235e+02
-1.332891464936463535e+03
-6.369179747069737232e+02
-4.743604895304336537e+02
-1.785183637994557330e+03
-1.875350540230711658e+03
-2.608867692615851865e+02
8.112290187387542346e+02
-9.099790256604700289e+02
-7.935672020213116866e+02
3.815032101587718785e+02
-1.961721664845712667e+03
-1.272520262334904118e+02
-1.439071228636427804e+03
-9.561972960269717987e+02
-2.191620278866809258e+03
-1.985306415377838448e+03
-1.962207161871698986e+02
-1.254403071534721221e+03
7.682100912251268028e+02
-8.733744966696144729e+02
-1.886164107979835990e+03
-1.568142001232598886e+03
-1.723094768800287966e+02
-1.165724674165788429e+03
9.946657268323314156e+02
-1.114116558098533005e+03
-1.644081032094501552e+03
-1.957175138996688702e+03
8.646044605045531171e+02
1.273219905181122613e+03
1.417699425473735573e+03
1.160052258825116496e+03
8.732834358325644644e+02
8.944609305469609808e+02
6.055457974071662193e+02
1.655808416069644409e+02
-2.106412691542855100e+03
-1.257423888562826960e+03
-8.944178845310592578e+02
-1.303401537705361307e+03
-8.553898950826373948e+02
-4.253888711258898638e+02
9.756108056564661410e+02
1.064693352950890130e+03
8.439025251812204260e+02
1.034194056407085100e+03
8.615899895618122173e+02
8.960664546262512431e+02
7.475652937107819298e+02
8.960668397293069347e+02
9.095644614280852238e+02
9.894226401412076939e+02
1.106561202743411286e+03
1.191017076720275099e+03
8.808856883092377075e+02
6.403626744978747638e+02
9.402801455925196024e+02
1.052403949318516652e+03
8.887495052438364382e+02
-3.796351206733239678e+02
4.773105178848794594e+02
9.256267927818415728e+02
8.133453865044766644e+02
4.855057425575837442e+02
4.579819234863113024e+02
5.908677154954883548e+01
-1.564146290737895697e+03
-2.543824837811742327e+03
-9.989486359046799180e+02
6.245038493477744623e+02
8.026968227827981082e+02
5.779854150614453374e+02
5.832822209500733379e+02
5.862788842452555400e+02
7.620003855849150796e+02
7.821852192597534668e+02
5.507021708822308028e+02
5.916709163136150664e+02
8.658813684627017437e+02
8.575135169239655397e+02
5.754047952047037597e+02
5.935119060226695638e+02
3.849081346408765398e+02
5.505134707410353485e+02
7.893064830427107381e+02
7.113502848291680039e+02
5.248153996196805338e+02
4.155493550734631185e+02
4.585283864723618876e+02
6.938508508693018939e+02
7.294132948606421678e+02
6.352545144089582436e+02
5.314299846213485807e+02
5.070384946182143722e+02
5.075797063837011365e+02
5.880160819250590976e+02
6.905547164043471184e+02
8.382008610190534910e+02
6.129771815962217261e+02
8.898317734457922370e+02
6.647789249618792837e+02
2.678374117217023240e+02
5.629786664696998741e+02
8.231934035627531330e+02
7.004865736638918179e+02
4.878400300591549694e+02
5.422153608726430321e+02
8.306009773449143267e+02
8.780641279241749544e+02
8.595751518260433386e+02
9.861110255413856294e+02
7.216423742527861123e+02
6.011829545824888328e+02
5.047403342126350481e+02
5.702926148485167914e+02
6.578251397991142539e+02
6.703413365718012074e+02
6.828615267507378803e+02
3.173818485696149878e+02
-1.712112046042237807e+03
-4.037638232869540843e+03
-6.000236858914230652e+03
-6.796548963875556183e+03
-6.898835330992756099e+03
-6.577052192313355590e+03
-6.488299344782942171e+03
-3.952713074390731435e+03
-5.491946025715841415e+02
-1.596749844259225029e+03
-2.339351424693552417e+03
-1.427019823962147939e+03
3.171933770445000960e+02
9.743302989732297874e+02
8.784096573407387041e+02
1.088390273335686970e+03
1.126289384234046111e+03
1.240110260440712636e+03
1.174855440284204860e+03
9.294588231581951732e+02
5.309454855718660156e+02
6.633079074378216546e+02
5.635666630063086586e+02
5.667370331267461552e+02
6.607802480067836086e+02
8.466838951503062844e+02
6.864937602558666185e+02
6.841908272392651043e+02
7.427992107090922218e+02
6.463334657019981933e+02
6.987738827278943745e+02
6.591331052798838073e+02
5.193878201428931334e+02
6.665472383064416135e+02
7.806674142933851499e+02
4.527212946580806374e+02
7.087268631410862554e+02
8.526969584367193420e+02
7.676517288259901761e+02
8.775653427818077716e+02
8.254223784359652427e+02
5.122587341125968123e+02
3.510365009539649463e+02
6.787602582363866759e+02
4.674794504111825404e+02
4.822456109386475021e+01
5.497594065979534861e+01
8.776762769669844033e+01
-2.138257252969134470e+01
-5.049945072357377285e+01
-1.485879599771891719e+02
-1.816609363307340743e+02
-6.669132429726161604e+01
-2.126333656138567108e+02
1.174764866612640759e+02
1.036572151833693880e+02
-1.820744268891056095e+02
-6.173112086656031749e+01
-5.264098996077398169e+02
-1.046036045960984666e+03
-1.252377580016015912e+02
-1.231321498459987396e+02
-5.985056039701592567e+01
-4.044346118052270356e+01
-4.118879199448522286e+02
-1.720198096658074519e+03
-1.385314904988423905e+03
-3.100640439171110074e+02
-8.564700125983989665e+02
-1.122725861712623782e+03
1.501755045863603186e+02
6.311236767742322229e+01
3.001627282155391185e+02
1.086978260160102110e+02
2.354392886320973943e+01
2.261455361945960973e+01
-7.407845650223300993e+01
-2.106517692233423702e+02
-2.259914037161177305e+02
2.051028823604562206e+02
-4.444128700782601271e+01
-6.873144512346344470e+01
1.972455461243385173e+02
-2.275191846145710031e+02
-2.150178027329609449e+02
-1.912172849761331292e+02
7.186671116197598508e+01
-2.675399470196435203e+01
-1.260286352952317230e+02
-2.998548008780424468e+01
2.134453673341349500e+01
-1.730641773879569030e+02
-2.011895652694722969e+02
1.829327313971309934e+02
8.733734320034503185e+01
-1.520089746504876302e+02
1.969095385572990153e+02
2.911168488538872623e+01
3.965788185932069041e+02
1.042907112216654468e+02
-1.977068485780462197e+02
-6.442369707511249999e+01
-1.278851852877531314e+02
-1.140920229273360178e+02
7.952890741061374058e+00
1.352573430883083745e+02
-1.518141704397252312e+01
2.575684345709270247e+02
6.148838652773614655e+01
-1.183745974508559158e+02
6.197164970303383313e+01
1.235181584480528301e+02
1.402201608826711379e+02
4.010784153498383944e+02
4.480339289297206165e+02
1.151146102891926688e+02
1.483056634079601110e+02
3.756236541711529071e+02
5.030680370460353856e+02
2.416382645148702295e+02
8.825095043929644589e+01
-3.461317733601705982e+02
-2.284342561834843934e+02
8.529607676654342185e+01
1.860055030963827107e+02
5.870286573155686938e+01
-2.175825997548769521e+02
-1.428942375032181928e+02
-2.732047289756363853e+02
-2.945520757668681426e+02
-7.639928157137080689e+02
-1.730480452501649552e+03
1.099204395687803952e+02
7.890638318707603958e+02
5.922154397440964431e+02
2.314594185818448295e+02
3.387600512707623466e+02
8.799415963867681967e+02
1.089957700192292123e+03
9.826493147665768220e+02
7.240252365826044070e+02
8.221380951880290695e+02
5.879369183380593995e+02
7.903421911969321627e+02
7.183432456326916054e+02
2.491512429904366286e+02
2.386477695297435559e+02
6.216486767331805368e+02
6.043371113680748294e+02
6.726650393227130280e+02
8.547518582382822387e+02
7.904689645073884776e+02
8.609754568567486785e+02
6.931627598648954063e+02
6.485756880841759084e+02
8.896140800386709770e+02
7.882081224064302205e+02
8.823076459736962533e+02
1.053085597890921690e+03
1.239388948032955795e+03
9.970458715012243829e+02
1.019262597909230408e+03
1.054818690792783627e+03
1.077960672070274541e+03
1.287560746572590915e+03
1.438675193909057043e+03
1.189074545712684994e+03
1.122829728525644214e+03
9.707685287130077540e+02
8.409604118576426117e+02
1.202411234887316141e+03
8.240849314857726995e+02
8.850057146293340793e+02
9.622459457139390224e+02
7.909519801454213166e+02
1.077947008180301737e+03
1.227341593534814365e+03
1.142205923097852747e+03
9.243750280315763348e+02
7.658219492527921375e+02
8.135016539950626111e+02
1.054448163205525361e+03
1.039631676941467504e+03
1.018048668582127789e+03
7.257121493611222149e+02
-5.173859907463978516e+02
-2.791248684634476831e+03
-5.969880158238182958e+03
-6.230284179398385277e+03
-6.051457411142841011e+03
-5.702385969030285196e+03
-4.943028101324677664e+03
-9.533085391488116329e+02
1.443748562976257972e+03
1.340096340005244656e+03
1.433852662048518823e+03
1.462975394718116149e+03
1.271616161454985786e+03
-1.081288329294239247e+03
-4.846840567161629224e+03
-5.482012739384673296e+03
-5.275747749606742218e+03
-5.315060472952845885e+03
-5.276853703931556083e+03
-5.213984761984629586e+03
-5.219481845697759127e+03
-4.413499213013613371e+03
-1.649036651226958838e+03
-2.935006468359635164e+03
-4.538347498098801225e+03
-4.087019268113359885e+03
-4.434988581779773085e+03
-4.730290418092691652e+03
-2.767920456305610514e+03
5.922056388507162410e+02
1.707547212349189536e+01
2.070654966397690714e+03
2.294003301630612896e+03
1.976194456823520795e+03
2.292227587428683819e+03
2.131108776494108497e+03
2.094871660901511405e+03
2.198554851858719303e+03
2.161223908780548300e+03
1.764851059045683087e+03
1.470457421732931380e+03
1.724087776546021360e+03
1.637731608314366213e+03
1.723481323159507838e+03
1.814348857842231610e+03
1.702338373990337459e+03
1.644485129150017656e+03
1.479818943945301498e+03
1.307347546792268759e+03
1.511104670100947942e+03
1.821090225552653237e+03
1.642316367719276059e+03
1.557773287327517210e+03
1.615540175002241767e+03
1.593620684262530176e+03
1.347018161148703712e+03
1.501774029323926243e+03
1.341941159252638272e+03
1.133519276547262962e+03
7.515051681198398228e+02
8.958928923959510939e+02
1.147750843340808387e+03
1.085038531523080565e+03
6.286726593433782000e+02
5.407432862240624445e+02
5.852662360336101983e+02
5.274738027769012660e+02
5.293696896551648479e+02
5.839529243375388887e+02
6.922386582864600086e+02
5.942432412310676000e+02
4.160349247906403320e+02
4.977580673083911478e+01
-1.284497384515786507e+03
-4.117605134623507865e+02
-1.480385390538035892e+02
-5.043749960833832233e+02
-7.082607554552602380e+01
3.986966673103437984e+02
1.840786805551387602e+02
1.010406166747869463e+02
3.964775832536834344e+01
3.041204737885964278e+02
1.923274893877111253e+02
1.750894560693158155e+02
4.653980149522544139e+02
2.613241557389870309e+02
5.378488701808386168e+02
8.489482167912570958e+02
9.146317200483535999e+02
7.538674195752324749e+02
6.586920590656944796e+02
4.971339906943227334e+02
4.381644010445626805e+02
5.757773458309599164e+02
6.729214307717705879e+02
4.036040052899633679e+02
2.828245808462042987e+02
2.495652989739795373e+02
-3.321684484738505461e+01
1.684899320970488077e+02
3.896893865422347289e+02
3.493664013204293610e+02
1.835054812574814491e+02
1.380684376597085929e+02
7.104915663619161137e+01
5.444395298511765446e+01
2.722610961113409189e+02
1.884384566218683688e+02
2.159794642833386149e+02
3.188726510670525158e+02
2.140876722847464180e+02
2.906327128397680895e+02
2.452013897369703344e+01
-2.333057142273653426e+02
-3.218857331664206072e+02
-3.461894207089974884e+02
-5.802512953776266613e+02
-3.960901303219196166e+02
1.882789376564828672e+02
4.958485519586969872e+02
2.296094832982155367e+02
-8.434735364498102683e+00
-1.793370046104924995e+02
-2.713097834814333709e+01
-3.088154010828682772e+02
-3.234616417654023621e+02
-4.780229528812695321e+02
-7.055144726188757431e+02
-2.556989069945022948e+03
-4.597425917982815918e+03
-2.022864305436450195e+03
-9.143874144874736487e+01
2.099366075958630518e+02
4.227358756032438691e+01
-8.650900296556906710e+01
-4.163750443959245331e+02
-3.162291830979681890e+02
1.197647789138138279e+02
2.054600984311271361e+02
-7.793840994120112953e+01
-6.853299122299464443e+02
-1.578886585619235802e+03
-3.259562966649592909e+03
-6.634567946018781868e+02
2.324246827499048891e+02
3.020359216407534291e+02
2.014117907624154782e+02
-1.681472035336983254e+03
-2.711626886200801891e+03
-1.196050124275491498e+03
-1.528143431521287994e+02
-2.969017946833053543e+02
-1.133132369719863561e+02
-1.110644207127883476e+02
-4.471329859375177307e+02
-2.725483239619190385e+02
-3.983552148535663946e+02
-4.115733595184757974e+02
-1.371817262192944042e+02
4.218242918407609636e+02
6.274562298238719222e+02
2.976946209792892546e+02
4.315545606783250037e+02
2.840378557823454457e+02
3.451012770409791983e+02
-2.725650993463935379e+01
-2.800063298012814812e+02
-1.521724390395593787e+02
-2.577422489337934053e+02
-4.497706965293464236e+02
-2.202087440551438533e+02
9.783775604099076428e-01
-7.223479389140609896e+01
-2.508272332033940586e+02
-2.307907891745235247e+02
7.084568867710238749e+01
6.780931419262813051e+02
3.899563818004857012e+02
-1.255869093266001926e+02
-7.249725484019299415e+01
1.982276097590055883e+02
5.635682708524400368e+02
3.085476205567346142e+02
2.881586960162065338e+02
3.036965906894454648e+01
5.029989398718948479e+01
-1.460483087312042301e+02
-1.567009963119874101e+02
-2.069295463626229292e+01
7.301932368302625775e+01
-4.495417156718200431e+02
-5.303788970436335148e+02
1.055737332932830519e+01
1.952209488160182218e+02
8.650119935316224584e+00
-3.241501780819223768e+02
-5.411712445323914835e+02
-8.374011875255754376e+02
-5.998442900055021028e+02
-7.705180418293962248e+02
-1.558291335416384072e+03
-1.056125319225290696e+03
-1.438035113022686346e+03
-3.901144171013368577e+03
-3.209438202824203017e+03
-1.351843810670104631e+03
2.410653308235395798e+03
4.014065365412001483e+03
3.186333622653272414e+03
2.944518346602309521e+03
2.560643783466214700e+03
1.246725824406101992e+03
2.467338231005071236e+02
2.287439948739673241e+02
8.671799415632952446e+01
-4.030875591494874755e+01
1.636840308753710076e+02
-6.332991231437680426e+02
-2.955261867374698340e+03
-1.730211398213715711e+03
-1.682132809165550043e+03
-1.353995973858116486e+03
-4.318167771992373787e+02
9.074088983682554499e+02
-1.724291598578527555e+03
-2.188904547520514825e+03
7.257920192067435039e+01
-1.682851669400125729e+03
-8.912009928994546044e+02
-4.954875586915442796e+02
-8.246806714951693493e+02
-7.057203717433808379e+02
1.733589111609258282e+02
2.315721235714046031e+02
2.900044330495083145e+00
8.313145008862142049e+02
2.674845326798517817e+03
4.000516464260840621e+03
3.107327581403833847e+03
2.625293478937571763e+03
2.087394313090666401e+03
1.272596604866313328e+03
2.609757841503043210e+02
-1.964950871705648296e+02
-1.082843304572216766e+03
-1.418016478675916005e+03
-5.430878201795967470e+02
7.849404312748721395e+02
1.109108048660219083e+03
1.279437279186040769e+03
2.252912447112972131e+03
2.749523582599792462e+03
2.575255629651528579e+03
2.750088751351083374e+03
2.729021331807376100e+03
2.761048052655108222e+03
2.481264036887720067e+03
2.332770938554665008e+03
1.874508674153086986e+03
1.322496718095222377e+03
7.698277719519401217e+02
5.324876461140792117e+02
7.075838774016384605e+02
4.228235976382421200e+02
-1.752722651427605456e+02
4.597987989595850991e+02
1.511579997695579323e+02
3.085310663085175520e+02
1.764808626651367376e+03
1.671225902313452252e+03
1.151225164568130822e+03
7.743614954951538039e+02
1.132741863304444081e+02
-5.478130387216800301e+01
-1.376628138278987876e+02
-5.763391917328282261e+02
-7.017982023589869414e+02
-5.692098865805259038e+02
-7.867717445769908409e+02
-9.450799081360770515e+02
-6.360325168612612288e+02
-6.315678639961365093e+01
6.868564037342623863e+01
-1.733475503258288484e+02
1.035751511290005453e+02
2.284559143685875142e+02
-1.387958119578168805e+02
-3.764719491391961697e+02
-3.052960296674293090e+02
-2.762484604107062864e+02
-7.985191937443881898e+02
-9.210747879479284848e+02
-7.309487184528024954e+02
-2.211338481010938608e+02
-5.006502958467787607e+02
-8.764565549354482528e+02
-9.075958349598832910e+02
-1.211072849471146355e+03
-7.989277756773847159e+02
-6.121546661363518069e+02
-7.137456380132886125e+02
-6.147002226328435199e+02
-3.769938195343210623e+02
-2.016344194993827728e+02
2.313797687415279540e+02
5.420102985729145075e+02
3.482518740187325079e+02
2.031457369871705794e+02
2.866746010492421988e+02
-1.671808811662085361e+02
-2.464085163534196568e+02
-5.975141597043230668e+00
3.631062060740440529e+02
3.878548741553515811e+02
3.672899652457712136e+02
2.924125048321488975e+02
7.061905711738384070e+02
3.076172683808381976e+02
-1.526261748510884217e+03
-3.323398753724239668e+03
-5.598834429732895842e+03
-5.405578543899553551e+03
-5.181581933349460996e+03
-5.106835876811474918e+03
-5.095340663245959149e+03
-5.061093129710882749e+03
-4.707085917496221555e+03
-4.317336731047778812e+03
-4.429860547940211291e+03
-4.581350216502760304e+03
-4.322920627650000824e+03
-4.040619648855110427e+03
-4.036412483631012037e+03
-2.963339915906717124e+03
-5.742759733111997633e+01
1.498420399041475321e+03
-2.727796050095768123e+02
7.709755625418351883e+02
2.152679130171463385e+03
2.709364985465797872e+03
2.478064107805491403e+03
2.503762556056252379e+03
2.693519755680649268e+03
2.504324411666378182e+03
2.597188863060521726e+03
2.143152037102634495e+03
1.946247185493314191e+03
1.951481184059036650e+03
2.231890157846141847e+03
2.388512574525059335e+03
2.087331028481361500e+03
2.083378079285451349e+03
2.388696104816423485e+03
2.306299002587949417e+03
1.906208195308951417e+03
1.831481268981458243e+03
1.806109709127001224e+03
1.923104847692176008e+03
1.959525204098962377e+03
1.523407096120658935e+03
1.425748855878133782e+03
1.480589498727456430e+03
1.373948555474078603e+03
1.223811041298150712e+03
1.262245389094080110e+03
1.143264746254748616e+03
1.026910147276920725e+03
1.082177078312419553e+03
1.250084300749140766e+03
1.022672677111507141e+03
9.879823344606351156e+02
1.072045855532325504e+03
6.188681666149267357e+02
4.644670176235176768e+02
3.628342636737601765e+02
2.349383185336351119e+02
2.928371996963315951e+02
6.145867228030084561e+02
6.012121194918812535e+02
5.647179421656727527e+02
5.260635563349921995e+02
2.892100592729486266e+02
6.161213143896313795e+02
7.509668572722306408e+02
8.789585211605681252e+02
9.202322596793129605e+02
4.708997579585287667e+02
-1.004439379735868414e+02
-2.156740933534324540e+02
1.605145957717866736e+02
-3.232579342081350546e+02
-6.630112758266311630e+02
-7.717055063250552394e+02
-1.338267851396968354e+03
-2.938848167680536790e+03
-3.555499339316871556e+03
-2.449035400156366904e+03
-1.410459353901516351e+03
-5.517511299419693387e+02
-2.688569397293774159e+02
-2.851162897259494571e+02
-6.984106799384887836e+02
-4.427157511850583660e+02
-4.070396703843878754e+02
-4.282257459753125204e+02
-1.253102721616946411e+02
-6.052700323368672031e+01
-3.118540300336644577e+02
-2.842274237634421183e+02
3.032159108986593665e+01
8.479720673051203050e+01
2.882175067310908503e+02
2.751681100917370770e+01
-1.772857029628180499e+02
-4.292343808416052866e+02
-6.363939143023349061e+02
-4.367745159665975052e+02
-4.283606007454336577e+02
