2.889227953651237613e+02
4.792494499547554483e+02
1.016518867748141020e+03
1.776780041790972064e+03
2.402125600391485023e+03
2.471581749183426837e+03
1.756150512281842794e+03
1.603864115122166368e+03
1.605786845586727168e+03
1.198880934086375191e+03
1.172200128429614324e+03
8.198221152144443522e+02
8.686840285111719595e+01
-2.147131781286251453e+02
-3.958716031912063045e+02
-2.926518555733932772e+02
-4.300456731431512480e+02
-7.207627421809501129e+02
-1.245919115851232846e+02
2.765515567149202525e+02
1.614547394459567897e+02
2.032197521901710502e+02
1.224554725283977241e-01
5.131555267076828386e+01
2.128081456230331980e+02
6.066809558428902847e+02
9.119128349222834231e+02
1.255548578087572423e+03
8.085445761535958127e+02
1.097908375934614014e+03
1.576853242470499026e+03
7.062669270256702703e+02
-2.248486805318063659e+02
2.212072371296573579e+02
1.990627387605726710e+02
2.738494722819965546e+02
3.398598690902967405e+02
8.391533135731689796e+00
-1.214760399615325639e+02
2.523267780348077167e+02
1.397532662343182210e+03
1.693249093304221560e+03
1.763456465423324062e+03
6.040063191253991590e+02
5.469330302376732789e+02
1.325301906038547713e+03
1.573132884007130087e+03
1.107402828218447667e+03
1.181184928795625865e+03
1.676477630944664043e+03
1.812275715278542975e+03
1.613603533801433059e+03
7.204292459157505846e+02
1.976798010590241361e+01
-3.383213190386654219e+02
-1.703900502591608529e+03
-1.778003066686700549e+03
-1.188630015329507160e+03
-5.427294839824980954e+02
2.357280106811051610e+02
9.127550281291927377e+02
1.524354226295231683e+03
1.235571393414114709e+03
1.255396742230361042e+03
1.668768445244390023e+03
1.946702659164369834e+03
1.657147820206473398e+03
1.274147243986583590e+03
1.149807605969952647e+03
1.344080275847006533e+03
1.330859434710346250e+03
1.535208305870647791e+03
1.201033636280402106e+03
4.162760673536931790e+02
1.259113134184451184e+02
2.888852536433512910e+02
-1.817533947289261960e+02
-4.570153941594100502e+02
-2.659356526216649286e+02
-9.860350337285197497e+01
-1.818032989305880619e+03
-5.704179159068182344e+03
-8.938040826239905073e+03
-9.036738039696381747e+03
-9.542268288697181561e+03
-8.787569348239409010e+03
-8.949821043531950636e+03
-8.659898937040265082e+03
-8.209828556766826296e+03
-8.192702679958816589e+03
-7.875570827974524036e+03
-6.546503759769801945e+03
-6.020383442726034446e+03
-4.803933826242061969e+02
1.157434695457033285e+03
1.027106374280573391e+03
1.250474707873123634e+03
1.517506798655252169e+03
1.508149916450955971e+03
1.897432375000087404e+03
2.269299180118433014e+03
2.100771709684111102e+03
1.422830935451081814e+03
1.500406486234170870e+03
2.377489011243446384e+03
2.313028521149515655e+03
2.284891146414068771e+03
2.637976517222819439e+03
2.884294446000934386e+03
2.979854887453536776e+03
3.147622450770043088e+03
3.241533646292924914e+03
2.765551311096163317e+03
2.970659172716271769e+03
2.741790007825851717e+03
2.134812475081978391e+03
2.170574222067563824e+03
2.293027289743024085e+03
2.867258275647669052e+03
3.810248405532734068e+03
4.220908793470898672e+03
4.298249828378499842e+03
4.732226511227972878e+03
4.293776394979229735e+03
3.322903160620844574e+03
3.146571021014811322e+03
3.520754468441397421e+03
3.732356604823541147e+03
3.684369616046910323e+03
3.776720063968315117e+03
3.722372758610157234e+03
3.775324906259495492e+03
3.510497199391324557e+03
2.904859044111217827e+03
2.757358990567543970e+03
2.087944559972925163e+03
1.929557416302703587e+03
2.362165213615486664e+03
2.768773552595058845e+03
2.685399058503744982e+03
2.749022381532131931e+03
3.320574099859938087e+03
3.889055445910274557e+03
3.575485186086482372e+03
2.679857206695605782e+03
3.428163815484065253e+03
3.624355981198290465e+03
3.134396398992425929e+03
2.754323242049551482e+03
2.727088587767343597e+03
2.864655978571311607e+03
2.720070867034159164e+03
2.475349992491346711e+03
1.745503133654394105e+03
1.375464019998409867e+03
4.081583702960527944e+02
4.476404671556915105e+02
-5.122461406237712254e+02
-3.121508168217402726e+03
-6.932185216424260943e+03
-9.906169159224366012e+03
-9.623439111150330064e+03
-7.457973939074829104e+03
-2.506771149442037313e+03
-7.892801704151676859e+03
-8.952127082882230752e+03
-8.613707093240236645e+03
-7.798552126834616502e+03
-7.359623936921990207e+03
-5.844909138775070460e+03
-4.273385581625007944e+03
-3.089065082976310805e+03
-8.205910528965718186e+03
-8.961927048219899007e+03
-7.745174508969057570e+03
-3.723622702389129245e+03
-3.684219205344162674e+03
-8.218979174422405777e+03
-8.539864417460381446e+03
-8.063807870339767760e+03
-7.518765687905593950e+03
-6.632786502152007415e+03
-6.321877481788054865e+03
-6.099993464750966268e+03
-5.708117847333193822e+03
-6.212188604886180656e+03
-6.195179097363401524e+03
-5.380093926416414433e+03
-5.498912910644367912e+03
-4.902547297386153332e+03
-2.389837306814559383e+02
-8.122198596696161985e+02
-5.217326985509356746e+03
-5.097286250471093808e+03
4.380091202860676276e+02
3.484571331318748435e+03
4.168383617370406682e+03
8.685071424980625352e+02
2.646965554382616119e+03
4.759849270113162675e+03
5.155232992034466406e+03
5.543137833355966904e+03
5.993554385788469517e+03
4.941526311529497434e+03
4.653177239877472857e+03
5.159503885632422680e+03
5.201439944957708576e+03
5.284954401596937714e+03
5.394166216001823159e+03
5.395941168126248158e+03
5.515046288478366478e+03
4.963432250636972640e+03
4.239560857804998705e+03
3.838630321469989212e+03
3.921675971634944744e+03
3.450629784447917700e+03
3.225622129053379012e+03
2.865699053677441952e+03
2.770829479497373086e+03
2.648056408563712921e+03
2.907549245004163822e+03
3.259684796889926929e+03
3.189904601471033402e+03
2.980391181294966827e+03
3.354524342801232251e+03
3.628124581585619126e+03
3.770116064796485261e+03
3.723059110573872204e+03
3.568174978081386598e+03
3.731019550059153062e+03
3.760047840784613982e+03
3.593491451128762492e+03
3.204083480761969440e+03
2.249966661493855099e+03
1.292481974845593868e+03
7.531733680423070609e+02
8.203812261363705147e+02
1.078887755490104837e+03
1.247628030483595921e+03
1.302661856582659993e+03
1.652285067167843181e+03
2.307081443714070701e+03
2.552748784514912131e+03
2.570408007465730407e+03
2.641253035680556422e+03
2.684322686063268065e+03
2.354827641745814162e+03
2.213915157395561891e+03
2.171730884644102844e+03
2.456800816061102523e+03
2.245982961583245014e+03
2.327166453248978542e+03
1.806310745932793907e+03
8.973994155513479427e+02
7.938165121870164853e+01
-1.297551324626830365e+02
2.249733336443518681e+02
4.735220727035255663e+02
1.918703661238014604e+02
4.629979468838412799e+02
1.339922620705620602e+03
2.201689904131069397e+03
2.146262710531256289e+03
1.732699820223914230e+03
1.696982158114631147e+03
1.735127695938961551e+03
1.760059514324451357e+03
1.864686507374784469e+03
2.378080493822796143e+03
2.429320415047604456e+03
2.309295490187237647e+03
2.286967578019048688e+03
1.855332548051258527e+03
1.739462179254335297e+03
1.190320130561566202e+03
-1.769321558409779300e+03
-6.353531151186978605e+03
-1.055130053857167695e+04
-1.094560179982320369e+04
-9.827379819668658456e+03
-9.365739298466425680e+03
-8.835690129685675856e+03
-8.239201921975680307e+03
-7.817229151956922578e+03
-7.564738833805497961e+03
-7.925681583016856166e+03
-7.373160835631626469e+03
-7.082170778984680510e+03
-7.104687483886791597e+03
-7.593821644598820967e+03
-4.332610387623101815e+03
-2.386008237020121214e+03
-7.283031261512404853e+03
-8.276688886047131746e+03
-8.590947020264176899e+03
-8.774821642283688561e+03
-5.389350358187478378e+03
2.533699141241597204e+02
1.346401173324673664e+03
1.729796175155842775e+03
1.667699424966147035e+03
2.029108918377246027e+03
2.230943259368440067e+03
2.312240988398340960e+03
2.273062838305397690e+03
2.429391734690766043e+03
2.698261314368557123e+03
2.702744570737645518e+03
2.326845130199877985e+03
2.297538162634767104e+03
2.523782376346146066e+03
2.645546738477378312e+03
2.426999565412572338e+03
1.659119545980933935e+03
1.173814181584289145e+03
6.061034626212953071e+02
4.280409764197112850e+02
1.266136240229516261e+02
3.337615389023266630e+02
4.356327090240752682e+02
4.362630574765076972e+02
6.206806922301167333e+02
5.279382528744646379e+02
3.191166816292834483e+02
5.852549420782313518e+02
1.172419537235265352e+03
1.561607821159238711e+03
2.113852038279327644e+03
2.334105950677387682e+03
1.795440988715514777e+03
1.475939845901863464e+03
1.138610441446376171e+03
1.050443671963593260e+03
1.318533091155120928e+03
1.302907074593036668e+03
7.965563110948979784e+02
3.445172668782801679e+02
3.259040649178000990e+02
6.739287101610979107e+02
3.428077278893426296e+02
1.955891985480277810e+02
6.692462895344532399e+02
-2.791166142448373648e+02
4.759974022858054923e+02
1.273635173225831068e+03
1.133581810368607421e+03
7.370016337496784899e+02
-1.836438928105666264e+02
3.074128392567966443e+02
2.710655031155801566e+02
2.244741652801397152e+02
4.416977011567295222e+02
1.497622656116857058e+02
-4.583608939663247952e+02
-9.456413334668617381e+02
-1.469994252122715807e+03
-1.956347026104722090e+03
-1.616756495143917164e+03
-1.369146537660268223e+03
-1.117390047670887043e+03
-3.404886422260477730e+02
5.365292227397203533e+02
6.237619696054475753e+02
2.213588351811840838e+01
-6.813986588183933009e+02
-3.568149381255230992e+02
-9.909828135119180104e+01
-1.132329060693759715e+02
-1.841964333450577840e+02
1.820651282149911481e+02
9.515417623208144278e+02
1.390274355608945370e+03
7.523134428476313360e+02
-4.853962800554350565e+02
-7.818364047447217899e+02
-8.010314453432325763e+02
-1.345015345341966849e+03
-1.166813342446928118e+03
-1.046485450149910093e+03
-1.142020445684755259e+03
-5.112982135001500410e+02
2.207269950977814119e+02
1.063983768605655087e+03
1.181394094022697573e+03
1.173988273454072214e+03
1.121790351811896699e+03
1.228771175905283144e+03
1.265911697097850492e+03
9.171487092760838777e+02
8.844564760982030975e+02
9.188440271388454903e+02
6.602611548516543962e+02
6.056803830504276220e+02
9.905109032311386841e+01
-2.007091498805913261e+02
-2.256540560155603430e+02
-2.408146221166655039e+02
-5.652116329713055620e+02
-1.033952787819059495e+03
-9.771062640725822348e+02
-6.606511445274884409e+02
-3.155706144013638692e+01
2.210177725857901123e+02
1.579822646696512436e+02
1.593546659691823209e+02
4.959198639515531681e+01
-3.796958741296456310e+02
-6.366502876084932723e+02
-4.202905514870080310e+02
5.193252458254464727e+02
1.099175962126633522e+03
1.109130055168753870e+03
2.054036939986049219e+03
1.987213630458875741e+03
1.578915178420076472e+03
6.096414863504646746e+02
2.897202242792976676e+02
2.771170115628168560e+02
3.068684024063142033e+02
5.343020400730384836e+02
1.034021832898457887e+03
1.139157551435260984e+03
1.256094335733256685e+03
1.418995954972459231e+03
1.543244585510005209e+03
1.430219807990147956e+03
1.443966910586272434e+03
1.469052365553980508e+03
1.952621774302617496e+03
1.800803101118174709e+03
1.309630300869548819e+03
1.047373458392566363e+03
9.922166243464131412e+02
4.613133828947262600e+02
1.768465032853142418e+02
4.844981561447003742e+02
1.088960562047096118e+03
1.110831079392492711e+03
1.016279063810752973e+03
1.143374129295524654e+03
1.117507585366969124e+03
1.591143414237890738e+03
2.610627084838268729e+03
3.317910466964506668e+03
3.025430670355907750e+03
3.502585884765078845e+03
3.639286675381846635e+03
3.305035500891467109e+03
2.240986928733007517e+03
1.217648126417608410e+03
1.081883775557428862e+03
1.258754228543565887e+03
8.465557548163973252e+02
3.394201347964303181e+02
-9.185355453701893111e+02
-1.349707619075351204e+03
-5.021532261706762483e+02
5.016921004255591043e+01
-6.167690054778719286e+02
-2.590154415200866538e+02
1.675541800122797213e+03
3.817914005677846944e+03
4.676071854957563119e+03
4.976005109906955113e+03
6.461697470669984796e+03
6.089165739826826211e+03
1.908415397070989002e+03
-4.263536079821991734e+03
-6.562645123023414271e+03
-6.840884645847465436e+03
-6.991290036026685812e+03
-7.925856035295645597e+03
-7.781499486285250896e+03
-7.014218974583116506e+03
-7.031017141026595709e+03
-6.816904860522922718e+03
-7.042737772463843612e+03
-7.506583140460651521e+03
-7.613485944565884893e+03
-7.730404298388354619e+03
-6.191273256239916009e+03
-7.380994941145744406e+02
2.826195143123021808e+03
3.747687411411451649e+03
1.699427481971357111e+03
-4.542518291812133612e+03
-5.367130597732483693e+03
-6.316346827367323385e+03
-7.010124532627211011e+03
-6.552397163770589032e+03
-6.673067746707064543e+03
-6.840074094079199313e+03
-7.064401164861955294e+03
-7.526022354593279488e+03
-7.966904555328264905e+03
-7.891999063978645609e+03
-7.723244016641883718e+03
-6.041606460262684777e+03
-1.297066790017709536e+03
-2.009527951094123409e+03
-3.489927702002847127e+03
-3.571174502348709211e+03
2.618029987446427072e+02
4.058133069653155417e+03
2.629879385160217225e+03
5.544082295005007836e+03
6.634766376028824197e+03
6.751020882294834337e+03
6.775881604834322388e+03
6.037400570063382474e+03
5.099737305631644631e+03
4.622022015912266397e+03
4.332251626293528716e+03
3.570431256757438859e+03
2.408632528632876529e+03
1.366953877969838004e+03
9.824227625790435923e+02
1.462029872523234189e+03
1.254805105691641529e+03
1.105869889698092265e+03
1.404349644028709463e+03
2.480308697763009150e+03
2.484818291085030978e+03
1.788951739990262922e+03
1.785755347056239088e+03
2.623285501998847849e+03
2.697659267587519480e+03
2.580917583435622873e+03
2.968025051518335658e+03
4.539946274598376476e+03
6.103702242489961463e+03
6.133624487922045773e+03
5.379302139381307825e+03
4.239000116334805170e+03
3.592738852445295379e+03
3.503274358390006455e+03
2.336514972356352700e+03
1.040503831717285266e+03
3.443212001546414172e+02
2.879810884756667519e+02
1.005489221478832292e+03
1.897900356160030015e+03
2.501398290889202144e+03
3.849907015135477195e+03
4.482688759953781300e+03
3.451294722197650117e+03
3.182793600642718047e+03
3.126118625901325686e+03
3.011317349098967497e+03
2.794988336271709613e+03
2.562897068609648613e+03
2.212005210491765865e+03
1.822329162796069340e+03
9.815720917782606421e+02
-3.221120179435001507e+00
-7.858818428822108899e+02
-1.346754720584565121e+03
-1.135882198078656302e+03
-1.122314355973005377e+03
-1.137078721561503926e+03
-1.279155859496931271e+03
-1.338529356169264929e+03
-5.442035450715437719e+02
1.043795537682351778e+03
2.556499877408547945e+03
2.973933393823274400e+03
2.657078437073540044e+03
1.774880803169878163e+03
1.435317698472153324e+03
1.675365601383756484e+03
1.177049875564356398e+03
7.703134393718902402e+02
1.074135846403835558e+03
1.031512596042741507e+03
-1.625729842093078332e+02
-9.141946896269873832e+02
-1.466414894686529124e+03
-1.687252413570145791e+03
-1.699777393162635008e+03
-1.639981136338159786e+03
-1.671879257865253294e+03
-9.915786412223137631e+02
-2.541062424032957381e+02
4.815301797676291926e+02
5.382273734448126561e+02
5.249931771763875759e+02
5.328584548143090842e+02
5.537720597588120199e+02
4.326780334921270992e+02
3.614740973131611099e+02
2.751077425870686284e+02
2.059553357611025604e+01
-2.780605123728804529e+02
-1.926912517529065781e+03
-4.827069650013797400e+03
-6.265572038611243443e+03
-4.837440347004180694e+03
-4.427758730189594644e+03
-1.334786662648609763e+03
-6.187269787947673649e+03
-1.177407798827494662e+04
-7.645560210377352632e+03
-7.347190127920146097e+02
2.673520225966234989e+02
-8.633892499994456102e+02
-4.978718141271522654e+03
-1.717756904875945111e+03
-4.473563379497767869e+02
-6.608338210138208524e+02
-1.387413792658760258e+03
-2.198961866289052978e+03
-2.716153360779779177e+03
-2.225322382741385354e+03
-2.747536614585103052e+03
-3.299894762920108860e+03
-3.247485026787100651e+03
-2.798359429372163504e+03
-1.921579968312210895e+03
-6.142281307806085806e+02
-2.813103922611306302e+02
-3.797793110820604738e+02
-4.136343578171774880e+02
-6.149805510808763529e+02
-7.557916631623587591e+02
-8.700571396273323899e+02
-1.130800583979508019e+03
-1.050103804549687084e+03
-9.940470460684294949e+02
-8.606447035166494288e+02
-9.498573628735540524e+02
-7.416149588394265493e+02
-2.540227516023296346e+02
5.118966236168627120e+02
7.301469799636289508e+02
-1.623103892270086988e+02
-6.315231920556260548e+02
-4.094986260532776328e+02
-1.802933177159845854e+02
-7.494414690585368533e+01
-2.764954118206824205e+02
-1.190101432843528251e+01
6.188573119471781183e+02
1.412817436632197541e+03
2.269943308185573187e+03
2.874245658532466223e+03
3.212804834492938880e+03
3.623606394869065753e+03
4.221637050932157763e+03
4.292898149003180151e+03
4.552380165416714590e+03
4.873110685684196142e+03
5.097124881680339968e+03
4.939392477009242612e+03
5.137935062012486924e+03
5.049809673537792150e+03
4.677015042811327476e+03
4.118514762623070965e+03
3.597285292107606892e+03
3.075334353383146663e+03
1.191700238823016207e+03
-1.189555167850716998e+03
3.123538830590585803e+03
4.008039714392851693e+03
3.995026586189468617e+03
4.102519017653595256e+03
3.958501567625197367e+03
3.514920346799796789e+03
2.010824275255282828e+03
-2.297648726909788820e+03
-1.431663763087877214e+03
2.975841624938899258e+03
-3.009752174024809506e+02
-1.236039407760260701e+03
-2.161371123713148336e+03
1.420022274208122781e+03
-4.018107871835590572e+02
-3.449874803798497396e+03
-1.791176319332902722e+03
-3.836654932341587028e+03
-1.666278275411289769e+03
-6.352040554756294114e+03
-6.194895003179175546e+03
-2.899811102682497676e+03
-3.603731811206831026e+03
-1.515594984360650869e+03
-3.879367981990606950e+03
-1.438003612874682631e+03
-5.827443648487134851e+03
-3.932691684071266991e+03
-2.316714555937944169e+03
-2.616456566695740094e+03
-2.747878915941458217e+03
-5.694032450497707941e+03
3.730360386277221210e+02
-2.582586085979093696e+03
-5.091860785929489793e+03
-1.824799804089711188e+03
-4.463358825636351867e+03
-3.109564449091780261e+03
-8.144727176104859154e+02
-4.412051996729343955e+03
-3.511177363292803875e+03
-2.122855717651776558e+03
-1.579051810693026482e+03
-3.420702364937292714e+03
-2.943722829167513282e+03
7.769264433359562645e+02
-6.607894027732097584e+02
7.621422269773522657e+02
2.837729835951201039e+03
2.689981920602775972e+03
2.625957070535961520e+03
3.015649863128277502e+03
2.837930637872766511e+03
2.544838603740017788e+03
1.869423744883697054e+03
9.935899422539235957e+02
8.282396844868652579e+02
1.227290680554055371e+03
1.209868486318631312e+03
1.041955164596226950e+03
1.123463730216986733e+03
1.161487090528293493e+03
1.547421849587836505e+03
1.749565628154864726e+03
1.883678178864989150e+03
1.567605418644951897e+03
1.542305106319625565e+03
1.810840106902673824e+03
2.097138621363307266e+03
1.895081311038135027e+03
1.382702776053860589e+03
2.431909685147895289e+03
2.882568082210226294e+03
2.590623559373369062e+03
1.939132391179265824e+03
1.364432519637809264e+03
6.943475992189075896e+02
4.055094746931020495e+02
4.889699319600077843e+02
5.208168526833502483e+02
7.472409155291071556e+02
1.029635676060652486e+03
1.509639940929638897e+03
1.805242092191512484e+03
2.102433780760090940e+03
2.321057317372438774e+03
2.468178430962836956e+03
2.360018629406930813e+03
2.446129811302779217e+03
2.506181445736100159e+03
2.435535405980765972e+03
2.311149957978941984e+03
2.166941199026543472e+03
1.882763429194947093e+03
1.702255052422071458e+03
1.235764251715134833e+03
1.111329110467186638e+03
1.030818784268225500e+03
1.381842528840660179e+03
1.952595040184981144e+03
2.403313712202332681e+03
2.787223765620874474e+03
3.064367918156067390e+03
3.284752028914238053e+03
2.591417069176188306e+03
2.392385802680321376e+03
2.914618584903821557e+03
3.115071100167760505e+03
3.148700319327851503e+03
3.248488054268096676e+03
3.248430522476210172e+03
3.322495402286730496e+03
3.188628723953528151e+03
2.736715642337562713e+03
2.041783669770581355e+03
1.540779015751415955e+03
1.245635626778836695e+03
1.048268194386005689e+03
9.277071442317030687e+02
6.349623920452642096e+02
7.309842094819921385e+02
1.233707948929216627e+03
1.395137163854948085e+03
2.952990460512369282e+02
-3.074845668690240473e+03
-7.756435309016099382e+03
-1.043954932156608447e+04
-9.398073414490256255e+03
-7.957934427713929836e+03
-7.419109506143774524e+03
-7.334658499358268273e+03
-7.377607709699110274e+03
-7.934890122959445762e+03
-7.844541084830246291e+03
-7.846572172077961113e+03
-8.360019249636605309e+03
-8.835884194131418553e+03
-7.952244619436429275e+03
-7.301101408657851607e+03
-3.153552473213829217e+03
-5.078507656906955162e+03
-7.526843612441864025e+03
-7.290581231727570412e+03
-7.311683837547828261e+03
-7.091104576560018359e+03
-6.904837828114754302e+03
-6.822877037700790424e+03
-6.535186667277330343e+03
-6.060744796255527945e+03
-8.834823353647733484e+02
4.101649723382369302e+03
4.903631210994461981e+03
4.891457217458947525e+03
4.730107439357822841e+03
4.100682112640100058e+03
3.580241225992558157e+03
3.142787741028483651e+03
2.905283609563619848e+03
2.581695823383810875e+03
2.571030603287077611e+03
2.643251090871911401e+03
3.069424540844258445e+03
3.431671337033899363e+03
3.811131756794362445e+03
3.888871447845785497e+03
3.947845885173708211e+03
3.707130445744806366e+03
3.253806917457606687e+03
3.373848117555748559e+03
3.535298152766271869e+03
3.715257471956917470e+03
3.462769582625389376e+03
3.281913321796430409e+03
2.790662179093036684e+03
2.531084087431162516e+03
2.354262334269932126e+03
1.683281106155553744e+03
1.505065569305204690e+03
1.683611778695046951e+03
1.332980178671818294e+03
1.349309621203692586e+03
1.537580689015357166e+03
1.794868159083062437e+03
1.843301744702624546e+03
1.286943878730024380e+03
8.998204233056309249e+02
1.033986250539938510e+03
1.283516964446947895e+03
1.453483358133683623e+03
1.194020374020534746e+03
1.445150673338002662e+03
1.399857492942350063e+03
9.479888742526602528e+02
-2.011960727473785710e+03
-3.125148011485413008e+03
-2.687975821896220552e+01
-1.719563650679835121e+02
-6.880763478039261827e+02
-2.444410610118684872e+03
-5.498852005875310169e+03
-3.942093601600058719e+03
-3.611683332052812602e+03
-3.417414810302282149e+02
2.145743971140915392e+02
-2.325813511486557218e+03
-3.513900994761901529e+03
3.473764798519577539e+02
8.780845018680292924e+02
1.100130612171019038e+03
1.492617866649369034e+03
1.304589791425530166e+03
9.750187512961183529e+02
9.738477132761879602e+02
6.950992741363377263e+02
9.795849320593099208e+00
-5.389784742729004847e+02
-1.067211827891758048e+03
-1.707934056337699531e+03
-1.689085854449122508e+03
-1.350680353283850991e+03
-9.207272841501791163e+02
-6.231669681614007459e+02
-4.069507952537787219e+02
-1.800400192761022424e+02
-2.384545524050651295e+02
6.278233068156052354e+01
5.071125235551700428e+01
2.573194309637225388e+02
1.595884189806206734e+02
4.825527837197806775e+02
4.023165339348030898e+02
1.487755414040978792e+02
7.489318228120305321e+01
-9.431762269195195358e+01
-4.848719353446187483e+02
-9.147387670010008378e+02
-1.273997189075269944e+03
-1.209685921049864646e+03
-1.458747271555727366e+03
-1.698294530093332924e+03
-1.350331476220776040e+03
-8.598273878541567683e+02
-4.118592800026590339e+02
-2.694821391571802565e+02
-1.456481413718991007e+02
-3.083796478962364063e+02
-2.769128675759429115e+01
-2.604244445328113500e+00
1.779079299012095703e+02
6.567241450692359876e+02
7.688206317817231366e+02
6.982076991524284040e+02
3.748432230712919591e+02
3.117454389313529077e+02
2.159005757450331373e+02
3.733813332792174151e+02
-1.057672680087627270e+02
-3.571550253848033663e+02
-3.106062004228202795e+02
-2.230826814737121424e+02
-1.656093612189636701e+02
-2.602291057991606067e+02
-2.400019290391589664e+02
8.522095162739873331e+02
6.356533220021010493e+02
-1.872809424786557884e+02
1.568052286546485163e+02
4.103672875890749197e+02
5.461543632653324494e+02
4.676793783097502342e+02
6.794148324728216721e+02
6.983741034621199333e+02
5.893732624569883001e+02
5.099318906749990674e+02
4.599665747649623313e+02
9.936350836311842727e+01
-1.587711657694340772e+02
-7.983373017965689087e+02
-1.143254082554539536e+03
-1.138782049783281082e+03
-5.262606824378915462e+02
-1.868301335760147026e+02
1.615448760610895249e+02
2.561546920927560222e+02
6.157650713787360246e+02
8.383537306116195396e+02
1.442535226265428264e+03
1.757780070363141249e+03
1.560851417444576782e+03
1.630957583814805048e+03
1.760987027867344295e+03
1.648399857368561925e+03
1.639262503399156913e+03
1.530571564512191571e+03
1.074857929927107079e+03
5.152739238728886448e+02
2.162531764700950419e+02
3.182880789391277858e+02
3.674059955702805382e+02
5.043945289390092057e+02
6.106570645083534146e+02
8.191398264607013289e+02
1.199864626416212104e+03
2.054457885082098528e+03
2.409126549846930629e+03
2.600195212734055985e+03
2.460835555503081196e+03
2.799368725986998925e+03
2.785428652801060252e+03
3.165937025053139223e+03
2.942855075136996675e+03
2.343175189922401387e+03
2.275925517966732968e+03
1.826018315660046710e+03
2.074354240411862520e+03
1.672939146382493391e+03
1.516760281839535764e+03
7.437516724309075471e+02
5.759377205782351439e+02
9.912644061347644993e+02
1.306705646158544823e+03
1.579255592043755769e+03
1.627971332871997902e+03
1.815769648649882356e+03
2.408587559694084121e+03
2.582480918433018360e+03
2.862261062088773542e+03
2.488095937615755247e+03
-1.347749175507592838e+02
-4.385640884050351815e+03
-8.428536974082589950e+03
-8.403368933681815179e+03
-8.510191068512527636e+03
-8.178929616489225737e+03
-7.448554985540226880e+03
-7.231142720694215313e+03
-7.382708518291272412e+03
-7.478228971307998108e+03
-7.371748380109737809e+03
-7.369294677392839731e+03
-6.972869418124185358e+03
-7.007459921304126510e+03
-6.185032075986197924e+03
-1.392531831200639090e+03
-1.331896703729009914e+03
-5.942092338679448403e+03
-6.132132037248172310e+03
-5.878995998087533735e+03
-6.055618946933848747e+03
-5.824005508320644367e+03
-5.784138760344654656e+03
-5.678995430326968744e+03
-5.625523189673509478e+03
-5.535708040337588500e+03
-5.541494455034820021e+03
-9.748791208123229808e+02
3.417104973690921270e+03
3.496493017809556477e+03
3.330293294506103848e+03
2.831532355732595533e+03
3.263229236132025108e+03
3.730495208031386483e+03
3.823419921544764293e+03
4.158024625216424283e+03
4.610331294573726154e+03
4.777403417888075637e+03
4.733284992752580365e+03
4.545058559594091093e+03
4.580765194635461739e+03
4.467421897553575945e+03
4.494105152219343836e+03
4.247899326219375325e+03
3.973839406205589057e+03
3.925006121801008703e+03
3.686406571104099385e+03
3.034049355897500845e+03
2.544010521345649067e+03
2.427287366087799455e+03
1.946883166699372850e+03
1.832906508051185256e+03
2.040520589079037563e+03
2.218874747502112768e+03
2.005143155568674956e+03
2.124261298425829409e+03
2.555379381209267649e+03
2.914640798653992078e+03
2.973166470543948435e+03
3.353000973146422893e+03
3.555203013440306677e+03
2.902831502985831321e+03
2.381968556636723406e+03
1.885545606704376496e+03
2.268607464336395878e+03
2.103205501133958478e+03
1.775343800736859976e+03
1.024076613322356479e+03
7.891453008472669808e+02
2.332952552947755009e+02
-2.439065970137812656e+02
-2.765830377619801084e+02
1.105668944023594236e+02
3.385371479889456623e+02
4.333523651183484162e+02
6.240831960758988544e+02
7.867542193988538202e+02
1.044440840276129165e+03
1.376879958031650631e+03
1.176260964585394277e+03
5.764013374677260799e+02
-9.763828238216776256e+00
1.537886524784132121e+02
8.391361045403752996e+02
1.206328231907312102e+03
7.683945727941311361e+02
3.623675786465555575e+02
7.322508004521795328e+02
5.530798921871555649e+02
-1.861393632464780126e+02
-7.604396435929515974e+02
-8.487706866248292954e+02
-1.481317677984091290e+02
1.525060290325338599e+02
1.512039243575692353e+02
6.970322492424370466e+02
1.168017557259644718e+03
1.423162119270970379e+03
1.064515010209272759e+03
7.820863316294804690e+02
9.329007011609287474e+02
3.129688536731995328e+02
1.531812276688308927e+01
2.399320785335888502e+02
9.598601268714467096e+02
9.851595832355252469e+02
5.047988177789504221e+02
2.427489340560620974e+02
5.300668919128746666e+02
-2.312711808344547819e+02
-8.772760881256507446e+02
-5.709394652054502330e+02
-2.192575625762656841e+02
-1.422070763532115620e+02
-6.274182829011105156e+01
1.241562796892726794e+02
4.944652629692108690e+02
3.451673506386210306e+02
-2.416676425546157589e+03
-6.009065822642975036e+03
-1.042402494270099123e+04
-1.055452732558373100e+04
-1.023134085137642069e+04
-9.767544272574494244e+03
-9.403479976900489419e+03
-9.020011784446538513e+03
-6.880186809199370146e+03
-8.841845835175796310e+03
-1.007774847257940201e+04
-9.961282918764974966e+03
-3.909445658075582742e+03
-5.974962505738071741e+02
4.097205267711923398e+02
4.674343543343616147e+02
6.066145467407621936e+02
1.361838980715413527e+03
1.626338248641756081e+03
1.839108452269068721e+03
2.100136499964996801e+03
2.214441637240204273e+03
1.635034128240246673e+03
1.505853576045401269e+03
2.108932530323850187e+03
2.896264796228973864e+03
3.288857764979051808e+03
3.088680714936979712e+03
3.175759680806839242e+03
2.833985562978476082e+03
1.978311645726249026e+03
1.281742606493689664e+03
1.241227289481815660e+03
1.560782381594650360e+03
1.632373546797108247e+03
9.869991549486011309e+02
9.856090101204481471e+02
1.123244184849158728e+03
1.464907479980632388e+03
1.888595675737760303e+03
2.575266565582072872e+03
2.217918990770820983e+03
2.005573026792161727e+03
2.058150668329142718e+03
1.896650634582677185e+03
1.886079984061035248e+03
1.381426095932354883e+03
8.616615696327626210e+02
1.615822916973958399e+03
1.438914736734826874e+03
1.294853600718011421e+03
1.629548231855911581e+03
1.373949505475874275e+03
8.650281945656270182e+02
6.907870262765876532e+02
7.052153883553040714e+02
9.933441661925985500e+02
1.376143567630234429e+03
2.211632633837083176e+03
2.324804599085933205e+03
2.229609330616553962e+03
2.303925226370027303e+03
1.887735739164628740e+03
1.983067325532768336e+03
2.258669069140968077e+03
2.302180772035861992e+03
2.379243670104673129e+03
2.055877985896131122e+03
1.679014750575842754e+03
1.452614592288616677e+03
1.556669618029306321e+03
1.392160887158752530e+03
4.980870267689743400e+02
5.073797079375693215e+02
7.669875727098486777e+02
-1.778005565549321773e+03
-8.417591147740897213e+03
-3.520826002894621524e+03
1.930303538840641295e+03
2.336758232992796366e+03
1.453580884384098226e+03
-4.672302090298346229e+03
-1.950905886990071167e+03
5.027431375452153475e+02
-1.026396145859883745e+03
1.013658873345731763e+03
-2.182111209858846905e+03
8.953059331762510737e+02
-3.686104198940420702e+03
-2.064405794555468219e+03
-6.946519722682905922e+02
-5.301918583888948888e+03
-4.400225911098602410e+03
