1.666488891693151118e+03
1.978902067996688857e+03
1.752978299227668913e+03
1.312304455214749851e+03
1.201893413688172814e+03
1.094780156117345086e+03
6.550482763043311252e+02
6.795987666054382998e+02
7.655722480427310757e+02
8.770576680236953280e+02
8.521548464533592551e+02
4.238839593099399963e+02
1.440245016682167716e+02
-1.416017889525875546e+02
-3.074996112488621520e+02
1.058721076522207056e+02
7.197684968419598590e+02
6.290618106237114944e+02
7.206065213734598274e+02
1.448366367692867925e+03
1.414385602946301333e+03
8.957475795388734241e+02
9.874622988032573403e+02
1.192525918026943600e+03
8.419169217415337698e+02
6.996855778971290647e+02
3.348153688918552007e+02
-2.864490893495211310e+01
2.635635687500451496e+01
-3.202257039613995744e+02
-7.454033887271064032e+02
-3.801457504725310059e+02
-3.204675864307517372e+02
-6.673809320735946358e+02
-1.493853136486359517e+03
-1.383917820372334290e+03
-1.087623409277417750e+03
-4.879786654479736399e+02
9.620203461859330218e+02
1.459373039013293237e+03
7.240578439558909167e+02
2.730812089946470564e+02
-1.355589412597212799e+02
1.831751149557414635e+02
1.352201759761349820e+02
5.356657993691381847e+01
4.382019371667972223e+02
1.009189107078008533e+03
5.524734812673044644e+02
1.379540316902604786e+02
-3.233320032481060480e+02
-8.544134894288512214e+02
-3.122870080035505111e+02
5.209781968643973187e+02
6.853114049510411405e+02
-1.829027389141521809e+01
-1.658361783471708293e+02
-1.443781907328660168e+02
-2.418907212969170075e+02
-1.734510750603010081e+02
-2.960455688041753319e+02
-9.926527409386413865e+02
-4.235376102238688873e+03
-8.479343735486632795e+03
-1.121843395697363667e+04
-1.085573020890291082e+04
-1.010427345114903073e+04
-3.998057616258242433e+03
4.698703945728161102e+02
4.644496486614274318e+02
-4.413714073847118584e+02
-2.715277281217763630e+02
-2.791156364761140480e+02
-5.031550471560463507e+02
-1.004715533057423954e+03
-1.059855586454056947e+03
-3.286125425208452953e+02
9.369422797122497286e+02
1.438831072740777245e+03
1.373003485029799549e+03
1.361443599011293372e+03
1.426097676555056069e+03
1.051965826363653605e+03
8.079939144182727659e+02
7.881685602824750276e+02
1.162429068908786121e+03
1.091724444187001609e+03
1.360033157394535237e+03
1.288395957082541145e+03
1.015758049801824654e+03
1.160390456337116518e+02
-8.537722696674195504e+02
-3.886856396077595264e+02
5.702763145748754141e+02
1.075049812413134532e+03
1.403626695514826679e+03
1.407957684016952044e+03
1.027022153895642532e+03
5.127983779947762741e+02
4.182675434065083664e+02
3.843789533480245950e+02
3.671190981239046778e+02
7.774725229681721430e+02
1.186428203715609698e+03
8.000026458939245231e+02
1.106133431694754563e+03
1.600793258931448690e+03
1.610008899161003910e+03
1.087755672380116039e+03
5.970405618005999031e+02
-8.517482894961014495e+01
-5.249295355260176166e+02
-1.431932918779452564e+02
5.050061923239660473e+02
5.266330821690859239e+02
4.917551974849030785e+02
1.221346169482581445e+03
1.208310841816342190e+03
9.476465007960966886e+02
8.343870136055617195e+02
8.645660568992105937e+02
9.131005846660160614e+02
9.630060063965778454e+02
1.221353332138142605e+03
1.382180449735526963e+03
1.170404868672397697e+03
1.277059223645769634e+03
1.468103981751871970e+03
1.307552387841903510e+03
6.034406546033173981e+02
6.478025204507313219e+02
1.206634951641138059e+03
9.879201292481242263e+02
2.286286317275539091e+02
-1.772317869226499738e+02
2.945561672543203713e+01
-3.359398160207044384e+03
-6.920802711722647473e+03
-6.185674448802224106e+03
2.139522845117355132e+02
-2.693975900923351674e+03
-5.354030012428911505e+02
1.110625396614020474e+03
2.920565199891837338e+01
-2.419598973904191553e+03
1.007212403068802473e+03
-2.520365361209169805e+03
1.014685160263042462e+03
1.697375449840580359e+03
1.193673437820980325e+03
-2.919335018198252328e+03
-3.053630312327140928e+03
-4.968183361611405417e+03
-3.118012643746656067e+03
-3.160763555560585019e+02
-3.212404132458215827e+03
-3.101991147660214665e+03
-6.146824917415361597e+03
-3.960919504600663458e+03
-2.335216975651589564e+03
-2.328709680656048022e+03
-2.964377067069281566e+03
-2.196207929550290828e+03
-2.771186522748328571e+03
1.568695748832771415e+03
-8.614920294237065264e+02
-6.467863991511050017e+02
-2.491126253295042261e+03
-2.105463766650892921e+03
1.804201003669745887e+03
-1.483120694209782187e+03
9.458289610995764463e+01
1.838352087432654116e+03
2.100189893307323928e+03
2.009078228124610860e+03
1.820997283586259982e+03
1.713914031394045423e+03
1.534861948761365056e+03
1.875980114910451903e+03
1.638243261966975979e+03
1.156623422064909619e+03
1.140137075577026053e+03
1.133763775798842971e+03
1.391536143929280570e+03
1.819428472259898854e+03
2.017330715343148995e+03
2.475466665097214900e+03
2.250966084325683823e+03
1.920330670469539200e+03
2.046364546566846911e+03
1.592993911117436255e+03
1.344264082123409025e+03
1.357160882774949869e+03
1.546619043333427499e+03
1.573617021934038348e+03
1.465085995644610421e+03
1.049099131617338571e+03
7.460834697208368880e+02
1.508086714842632858e+01
1.159993228925566626e+02
1.487267250979785786e+03
1.887338254473453162e+03
1.272019913790257306e+03
1.340551492036103582e+03
1.712223467251171314e+03
2.232523901384724468e+03
2.405065696754897090e+03
2.164281598733819919e+03
1.948072728694380203e+03
1.874365595435342129e+03
1.315003897428879554e+03
8.149924201820487042e+02
8.432881640700107937e+02
1.039870477397407058e+03
6.643327257012350628e+02
3.275688132276494571e+02
4.784674946796042150e+02
7.586382724157498387e+02
9.659199221757605756e+02
8.973967123393124439e+02
7.053050220076842152e+02
7.817736363368912862e+02
1.501734204579096740e+03
1.716222953511502737e+03
1.287298241607161572e+03
1.117914109009620688e+03
7.080798269636272835e+02
1.136725065181598666e+03
2.058817390145896297e+03
2.268380154317048891e+03
1.911412063105685093e+03
1.463800019121541027e+03
1.585530337642717541e+03
1.635627283711462496e+03
1.200068798177838744e+03
8.248278899488776688e+02
5.388923743239769237e+02
6.152103136120632598e+02
5.437636184977667426e+02
7.274837226218767228e+02
1.101413124602770495e+03
1.430556866970116516e+03
1.345884374939505960e+03
1.110430810711317008e+03
5.821850655274843120e+02
7.150581633377476010e+02
1.281048451970268161e+03
1.559197506810895675e+03
1.738533812605561479e+03
1.785064779287122519e+03
7.157408874692489462e+02
-1.039320373297806555e+03
1.155922692937508828e+03
1.621414194344477892e+03
1.252065582747952703e+03
1.083793243184450148e+03
7.965785555684078645e+02
-4.220580535567935840e+03
-1.024279575078610105e+04
-1.005306375909228700e+04
-1.017729647971745362e+04
-1.001954781296546025e+04
-7.911877288804441378e+03
-8.648120113371620391e+03
-9.890233326324783775e+03
-1.005117117953683191e+04
-9.056925539456371553e+03
-8.208496071821673468e+03
-7.471871476569846891e+03
-7.592066655557210652e+03
-7.748053978510110028e+03
-5.586781448395719053e+03
2.677897695289847775e+02
2.823703028774292306e+03
2.890006465903940807e+03
1.990628148391759623e+03
1.647400703728213784e+03
1.893245382807026999e+03
2.014187412251148771e+03
2.158252068989228519e+03
2.163442230350890441e+03
2.024860205044313261e+03
1.523574851697106624e+03
1.670687760653588839e+03
2.675232131894987106e+03
2.797189371659375411e+03
2.486594133928977953e+03
2.694515507424740008e+03
2.801933290542519899e+03
2.372951382352584915e+03
2.447655241272171224e+03
2.809210096585616157e+03
2.480644427624540640e+03
2.110898505013353770e+03
1.993947971252616981e+03
1.792867828126577479e+03
1.149756940780870536e+03
8.616889291451620920e+02
8.135345894878762465e+02
8.181910341691033182e+02
6.886222362674308215e+02
5.989894028432076993e+02
6.733461241270541677e+02
1.512652761275969169e+03
1.954930778423169841e+03
1.586310823291558108e+03
1.487797660539076787e+03
1.353456195754298960e+03
1.452439290415276446e+03
1.364656662953175783e+03
7.691537835125956235e+02
3.230037420929099881e+02
1.962421014693855739e+02
3.691353408124900426e+01
-4.676417033380307231e+01
-9.373905741717034346e+01
-1.871672786244099882e+02
4.229296421277568356e+02
5.817111489718361099e+02
-3.884817993131587741e+02
8.151179951933326606e+01
-3.016211438806112355e+01
8.133067083638101735e+01
4.651346084411777611e+02
6.682502279525759832e+02
6.602435475334207240e+02
9.810529938066288480e+01
3.880639158087038254e+02
4.642034469697390477e+02
5.956098900829035756e+02
6.183326071384028637e+02
3.034312364496292957e+02
-2.272694015450612994e+02
-8.289250400685903060e+02
-5.505691383047025056e+02
-5.720709176927379076e+02
-8.414444737198017492e+02
-1.215563167653888058e+03
-8.373162890559774496e+02
-4.227193299903792649e+02
-2.514534394593264324e+02
-3.892309815385899583e+02
-6.332408258112545809e+02
-7.307360926484692527e+02
-4.079945346538557374e+02
-2.092418010978924769e+02
-1.744836516770914443e+02
-1.096096333664185494e+02
-2.482083747005157548e+00
1.458742880521830614e+02
-1.075725726375317066e+02
-3.518265494382609404e+02
-5.188948212385888610e+02
-4.547945432138889146e+02
-4.175371675637255180e+02
-2.081170150660277613e+02
-2.815286914254393764e+02
-3.167324383551549545e+02
-6.097094546837040525e+02
-6.575032164020412893e+02
-2.720747717464680022e+02
-1.093868489218434803e+02
-3.135189890648655364e+02
-2.584765041439338802e+02
-3.171794292793142631e+02
-1.285485732956958316e+02
-1.186989531009834451e+02
-4.206500396308099994e+02
-4.403990979601754816e+02
-4.610941977946309862e+02
-5.997916425714013258e+02
1.975324148771865396e+02
5.268712540401635351e+02
-6.983903654581435205e+01
-4.265284710501143195e+02
-3.792086673165679258e+02
-3.997270207068287817e+01
-4.079190351292251648e+02
-9.130936644708993981e+02
-5.814115411331872565e+02
2.316524678401336601e+01
1.056286259225524020e+02
3.389122375192658865e+02
3.089437842734704986e+02
1.967811035618454412e+02
-1.596810542413876544e+00
5.497535422468450861e+02
1.109741936215938495e+03
1.274413273659422430e+03
6.379613557592729194e+02
1.125583425716763131e+01
6.779570196053882682e+02
7.371840485499424176e+02
4.631486595589307740e+02
9.919679453609812754e+02
1.166829991556576715e+03
5.895244171730079188e+02
6.156660841798238835e+02
2.990196062011099798e+02
1.523348299223511582e+01
4.344380639782255571e+02
7.615686672219724187e+02
9.545270195105841822e+02
1.079645605097880434e+03
1.008632791073369617e+03
6.402538912586547895e+02
1.085506385051355892e+03
1.172126977811401730e+03
1.363502270181767699e+03
1.519714470300732955e+03
1.984386265788305991e+03
2.121132436654311277e+03
2.250742908615957731e+03
2.590838807161469049e+03
2.147728593958979218e+03
2.206938542079260515e+03
2.048716362713699709e+03
1.810862391197944135e+03
1.740950849314130664e+03
1.551567273234324375e+03
1.358524704821176556e+03
1.716391826294723387e+03
1.283824214973203880e+03
9.725178422773070679e+02
1.294446376796450068e+03
1.758404794852405075e+03
1.828056493399164538e+03
1.967771400806453357e+03
2.076269068134564804e+03
2.427804048850341587e+03
2.520210717540286169e+03
2.052445677899412658e+03
1.198496202326408138e+03
3.623252358455914077e+02
8.609078725579635147e+02
1.278177566932810578e+03
1.521144078741104749e+03
1.944805164222619169e+03
1.999127999909650953e+03
2.079096797632090329e+03
2.006697893212723784e+03
-3.940984021968103548e+02
-3.211320298172093317e+03
-8.053980855375893952e+03
-8.467999688375444748e+03
-7.954380982751770716e+03
-7.963162313703016480e+03
-7.694259285888857448e+03
-7.107719226683605484e+03
-7.010570578478784228e+03
-7.162825555536434877e+03
-7.868441413859704880e+03
-1.423392637591505718e+03
7.433318183551184575e+02
-8.183262806352540792e+02
-3.918238211807956759e+03
-1.346400961939143144e+03
4.473003946718000407e+03
3.756050238756454291e+03
-3.447117691025569457e+03
-6.659519681983432747e+03
-2.982261098312659669e+03
-2.280323457768433400e+03
-6.295667398173034599e+03
-6.655186207317589833e+03
-6.339838616947907212e+03
-6.032652316238419189e+03
-5.959573249913669315e+03
-5.896526248774376654e+03
-5.256528896613469442e+03
-5.714608282846344991e+03
-5.889682353459484148e+03
-5.850712254331640906e+03
-6.287701871687401763e+03
-6.586645412999279870e+03
-5.652531170787568044e+03
1.697610892382909924e+02
2.372248389808608408e+03
3.940913347067301856e+03
3.957735525235003024e+03
3.861791237286762680e+03
3.830123714333446060e+03
4.295765745698010505e+03
4.761821996472582214e+03
4.589263410602731710e+03
4.514069368191840113e+03
5.034344796106259309e+03
4.839164032651745401e+03
4.381585596926212929e+03
4.640589360666012908e+03
4.473224722308260425e+03
4.422579422888554291e+03
4.772669689918455333e+03
4.579545170354091169e+03
4.240232811165950807e+03
3.661743107178818263e+03
3.523093607046307170e+03
3.295269617264503268e+03
3.014300749322124375e+03
2.568280972538876995e+03
1.807297234267159865e+03
7.464094494037544791e+02
2.915576846800581166e+02
3.567785509349770905e+02
2.861149565695977230e+02
-4.430656924371012551e+00
-5.378971524817327463e+02
7.999397104305761275e+01
8.494907736704818717e+02
1.711085907319139778e+03
3.051648174815247785e+03
4.189251951733042915e+03
4.645435454086546997e+03
5.069322646254769097e+03
4.588309547994617787e+03
3.471579486403419196e+03
3.014739633470994704e+03
1.939847958835984855e+03
-3.770995398615626755e+02
-1.459312173302807651e+03
-1.821605199027316303e+03
-1.606821722359206206e+03
-1.241055917777688364e+03
-1.012340815815249698e+03
-1.204575762647697729e+03
-1.752571253118254390e+03
-2.308884868941627701e+03
-2.371548744059092769e+03
-1.363426336892096060e+03
7.802110393532730086e+02
3.353854439343649574e+03
5.654199059589162971e+03
6.830161594334779693e+03
6.208676737885853072e+03
4.889678172334478404e+03
3.917171206825129957e+03
2.575136249065719767e+03
1.357561285803663395e+03
6.094599110699482480e+02
4.398813890209117403e+02
2.207636858638620083e+02
-3.009739218024600405e+02
-1.389291811895939645e+03
-2.427152672600437199e+03
-3.632609377525378477e+03
-4.429699255107771933e+03
-5.211372099589277241e+03
-5.022664272097197681e+03
-3.896644501747632603e+03
-3.550254541080310446e+03
-3.495517696553594305e+03
-1.553469062841929372e+03
1.107902928462108548e+03
3.686601135693028482e+03
4.769560804056013694e+03
4.065774584473875166e+03
2.918200249378186527e+03
2.892811749075515763e+03
3.050621698122414728e+03
2.701593161149750813e+03
2.362639177531291352e+03
2.116745903847095633e+03
1.203922309116071347e+03
2.021583747795146166e+02
3.384794312309353472e+02
-1.741258717658710111e+02
-2.217259159634343746e+02
-4.243145863586742053e+02
-1.852916954848234127e+03
-3.157566548882043207e+03
-2.073299903147619261e+03
-6.441536167790743548e+02
-1.501155496580462341e+03
-3.762294458026859957e+03
-5.740703228214378214e+03
-7.408408949393609873e+03
-1.007929987785761114e+04
-1.129253378793911179e+04
-1.265907592467460927e+04
-1.221399185009488065e+04
-4.926352577835904412e+03
-2.625129717295451883e+03
-4.734399487029741977e+03
-5.779072071279704687e+03
-5.260121185021384008e+03
-3.960613919830469513e+03
-2.264578179687600368e+03
-1.201221208125982720e+01
3.810526068478486650e+02
-7.643995365425765840e+02
-2.191322958347113399e+03
-3.084793453129991121e+03
-5.403836780859061946e+03
-6.856434430415227325e+03
-7.361588924927908920e+03
-9.136343787699805034e+03
-6.986743235260360052e+03
2.716144462643503132e+01
6.689403891659986584e+03
1.103804815828637220e+04
1.294500859785317152e+04
1.168725450483562054e+04
9.647764066977833863e+03
7.698562779150912320e+03
6.816619436538298942e+03
6.880949789761697502e+03
7.297598220559872061e+03
7.520504571764368848e+03
7.682605331213944737e+03
7.387922715069830701e+03
6.419461531593546169e+03
5.051235308261671889e+03
3.850232683601047938e+03
3.047495292909680757e+03
2.427988509748044180e+03
1.679735941260812069e+03
1.567741493131846482e+03
1.239937479187690769e+03
6.163925636691640193e+02
2.741587634590460993e+02
7.552076762270678500e+02
2.114560768466993522e+03
2.345214131894810635e+03
2.264229465146030634e+03
2.637617782488307512e+03
2.220393114924886959e+03
1.670530182622179609e+03
1.060100632996768582e+03
4.810617162175695398e+02
1.604749109451689151e+02
4.384065347466136018e+02
7.238493331435760183e+02
2.698150219214457479e+02
-1.177702826347981954e+03
-3.260621783576121743e+03
-4.247916598683383199e+03
-4.228648882054467322e+03
-3.901808335499362329e+03
-4.412332943186002922e+03
-5.305207554449583768e+03
-4.969329071968501921e+03
-4.729709544107962756e+03
-5.485297997918532928e+03
-6.509136745196202355e+03
-5.952180471390684033e+03
-2.640381741040115685e+03
-4.326602067283733959e+02
-1.737944056374437878e+03
-3.723501740584676440e+02
5.652932526589535200e+02
2.952987126235342657e+03
-7.193064724559815204e+02
-3.075475826158274231e+02
-1.756528906564970782e+02
2.919355152951625314e+03
2.432609279140335275e+03
1.357112320053252461e+03
-2.440212275732586022e+03
-1.264301272059012945e+03
-2.176106955185626703e+03
1.116415856883370679e+03
-4.872657591926822107e+01
-2.302439370394376965e+03
1.451249062585648517e+03
1.870406015269717045e+03
1.959068285539839735e+03
1.500275009023936491e+03
-2.340020739442825743e+03
-1.604780877675587135e+03
-2.600971371875826208e+03
-2.797547589923482519e+03
-3.562432538943186501e+03
-3.566206711074025861e+02
-1.591249825812871848e+02
-6.473903060162398106e+03
-3.862935744978348794e+03
-4.221156368907269098e+03
-4.334547851113397883e+03
-1.798162732201395784e+03
2.030844861569843829e+02
2.952337164254348068e+02
2.132551875556201821e+02
3.001482919430611105e+02
-1.873043060634724270e+03
-3.111272138325226479e+03
1.224660030254608358e+02
8.501376001838526690e+02
1.126776597369718502e+03
1.479467183563482877e+03
1.757263651198123625e+03
1.925189236175139513e+03
2.064176580323956387e+03
1.999211824343683020e+03
1.730345471148692468e+03
1.572522315595504097e+03
1.337757765066524826e+03
1.345053532279881210e+03
1.364429894575710932e+03
9.261246476805334851e+02
6.572166280035831960e+02
8.169383588177374804e+02
8.050198815932346861e+02
7.563411843933038199e+02
1.233944665965737840e+03
1.275789722349429667e+03
1.146830419117243991e+03
9.820793424791896769e+02
1.173486483691142894e+03
1.540193383284134597e+03
1.637553872969138638e+03
7.947472064625471830e+02
8.040165773719049866e+02
1.560514239501557995e+03
1.364792933693692703e+03
1.143535702344652691e+03
1.560206972784463460e+03
2.271342403755427767e+03
1.795714523307637364e+03
1.473787384761494877e+03
1.035657348892804976e+03
1.232639361997131118e+03
1.718593355283216397e+03
1.709236137403693192e+03
1.475356786925605093e+03
1.813261879290522984e+03
2.144159983765297511e+03
2.004990816670516324e+03
1.941826067734392382e+03
1.949679272748863241e+03
2.003444189723706813e+03
1.930109959812101124e+03
1.540614572438776577e+03
2.046920599406330211e+03
2.299921396799548347e+03
2.181395117548670441e+03
2.094023890252895399e+03
2.165863725589337264e+03
1.611877508029835553e+03
1.060790628453841919e+03
9.988984095518643471e+02
9.242340585495554706e+02
7.558093365376499833e+02
8.924516024630291895e+02
9.430601802761800627e+02
1.096678301602762758e+03
1.055295765163221176e+03
1.126833600829781062e+03
1.353221842304035363e+03
1.291416436343428359e+03
1.410388752056182966e+03
1.818136497480464868e+03
1.809660657703438346e+03
1.847967404849713375e+03
1.465026204855581909e+03
9.398271009155819229e+02
6.872900484203839824e+02
9.084274740863692159e+02
1.126239411302335839e+03
7.307212160648235795e+02
8.757989189946734996e+02
1.016433069957290286e+03
7.176046317873697262e+02
-8.366904105825873330e+02
-6.454430583516856359e+02
1.615273000900978332e+03
1.252393471919740932e+03
-3.169117926238239306e+03
-9.225334994480377645e+03
-9.466285394289086980e+03
-8.605961721908270192e+03
-8.297403310717138083e+03
-8.383568494326451400e+03
-8.352398576459969263e+03
-8.077932770556786636e+03
-7.698117954056418967e+03
-7.940849645511335439e+03
-8.807193488349803374e+03
-8.696215406325767617e+03
-9.084961981443837431e+03
-8.770451364581942471e+03
-6.881709918512791774e+03
-1.587700881116353685e+03
-3.884398047901934660e+03
-7.476834916647236241e+03
-7.204311362664377157e+03
-5.431724100276953322e+03
1.602231146416773072e+03
3.795447744257048726e+03
4.221988695725292928e+03
4.328547926345143424e+03
4.235270590338630427e+03
4.205214177349196689e+03
4.057380847690332303e+03
3.676813790113286359e+03
3.335298871392298679e+03
3.258347338003299228e+03
3.101484209727599591e+03
3.046155845782049710e+03
2.905287798517819738e+03
2.947832851692797249e+03
3.016772946194586893e+03
2.713166487790102110e+03
2.631984403403353554e+03
2.765220863848810041e+03
2.580587165935972280e+03
2.685462598170073761e+03
2.608979798227279389e+03
2.505289332629104138e+03
2.705996845085089262e+03
2.694914558857948577e+03
2.324013536519778881e+03
2.302388797830489693e+03
2.057188147435124847e+03
1.538458484319183981e+03
1.427030233868938694e+03
1.292887656249791007e+03
1.226371770956335695e+03
1.048748787674515370e+03
4.027522816745295700e+02
2.941254753902747154e+01
2.217659499907493625e+02
9.547671999032049825e+02
1.078492352594853173e+03
1.040941746490913829e+03
1.039216827785661280e+03
1.231434251467505192e+03
1.273620985102159466e+03
1.251611662420178163e+03
1.248364359246835875e+03
1.749059815563577558e+03
1.740854604279225896e+03
1.334802594673667727e+03
1.439961579006228931e+03
1.225489780667035575e+03
1.241297000320180359e+03
9.374473299492808565e+02
2.578112149587865360e+02
3.880697976019914108e+01
-1.236264793009196637e+03
-1.955018321638573298e+03
-1.233485779668824989e+03
-1.153749743190823438e+03
-1.052892182447351161e+03
-6.909288498653498891e+02
-8.188988806557767930e+02
-1.307691372223284588e+03
-1.241185138425177684e+03
-1.038383416064169523e+03
-1.198381181327543345e+03
-1.210556203694980468e+03
-1.241105553348906597e+03
-8.270256871784342820e+02
-5.603196332243417146e+02
-9.602464352220198407e+02
-1.149258932326736158e+03
-4.555690140394037257e+02
-5.402847603678109181e+02
-4.368126193416168235e+02
-5.536689983335402303e+02
-3.640885681109760981e+02
-4.270146873555230513e+02
-1.144834469276003688e+02
1.110451975916058927e+03
1.401749335643585027e+03
8.264430021836252536e+02
4.645653076051406742e+02
3.292175739712009204e+02
3.344662766544575447e+02
3.883478823153712369e+02
7.329396648865549651e+02
6.442188422282042666e+02
4.621865061317533900e+02
4.278689431232439233e+02
-1.727775517880398866e+02
-2.377097775832864954e+02
-1.248507595382537261e+02
-2.822549904526088653e+02
-4.779791924179909870e+02
-6.811178081927798758e+02
-4.196409040570923139e+02
-5.454708439513907479e+02
-4.656279976929923237e+02
-9.980986996185609996e+02
-1.062821966774276234e+03
-8.887629439931657771e+02
-4.219175328016579556e+02
-2.543005073526373678e+02
-3.369531693087066628e+02
-1.878967609019647682e+02
-4.010840087193817993e+01
1.965424135901951672e+02
2.221400334504677403e+02
-9.438809617612331238e+01
-2.871589587123730212e+02
-5.221872066489268036e+02
-8.014037253527196754e+02
-3.408033069353749624e+02
-4.725195195194393705e+02
-4.805638863449708538e+02
-6.528294767485205057e+02
-4.903418143093348363e+02
-3.942348477766103088e+02
-5.537616525403159358e+02
-3.608900742332525624e+02
-8.273188570258644177e+02
3.067428064378285768e+01
2.560977953966725522e+02
4.617825400135145060e+02
5.291852862987163917e+02
4.290426949803382399e+02
8.231614653706303386e+01
6.626781539361128353e+02
9.193936560895042476e+02
4.655138585053344968e+02
3.302698910193687993e+02
2.952279392244479368e+02
3.995727768955630381e+02
-7.705929487244968357e+01
-1.874769085318229145e+02
-2.838948992004774254e+02
-2.230368102657493807e+02
9.231102368376311063e+01
6.307513422798519969e+02
6.310443187160954039e+02
4.590738277332773123e+02
3.242961281234164517e+02
6.837178133446510628e+02
9.442475922375657547e+02
1.469955150110263276e+03
1.293500544334353890e+03
1.147018999507479748e+03
1.006044147595948971e+03
1.262861289282613598e+03
1.433650890588992752e+03
1.197363499893594962e+03
9.025730201385548526e+02
8.187668587964716380e+02
6.966702351561988280e+02
5.206896768666598518e+02
2.874399321406326635e+02
5.190492345650183097e+02
6.424915762178661680e+02
4.133722901283336455e+02
1.587841000989888869e+02
1.576550564316905820e+02
1.205842894252284623e+02
8.177399909111006338e+00
2.002278964965204864e+02
1.576570002282933558e+02
6.318708121403174118e+02
6.404754612834774434e+02
4.407747689247468657e+02
1.837557680919134668e+02
-8.270692713547465758e+01
-3.705184662070680091e+00
-9.267035257849208563e+00
-2.841117548957469552e+01
3.428344780755310239e+02
2.585122257035351367e+02
3.956347548056356231e+02
4.950765663292323211e+02
6.208335074385421422e+02
7.079787869419169510e+02
-2.493521712953460590e+00
6.294448590431836692e+02
1.236772547960841848e+03
1.295427092223944328e+03
9.955083424451413521e+02
6.230298999585963884e+02
2.359851879809634170e+02
3.203811574679556884e+02
8.030734728930947313e+02
9.550269970752179916e+02
1.118257214390962645e+03
1.761881413279905473e+03
1.631838243074517777e+03
5.591613269552306065e+02
1.027821737781356660e+03
-1.372212603072092179e+03
-7.140927987225528341e+03
-9.962317345683492022e+03
-1.018244413036243714e+04
-1.022428433383301308e+04
-1.007781065045424111e+04
-9.063947700135000559e+03
-8.677664021554728606e+03
-8.515987585627532098e+03
-8.734886882894898008e+03
-7.603353992917166579e+03
-5.784839211374405750e+02
2.832737395166652732e+03
2.908428023366366233e+03
2.777576523002709564e+03
2.399131694881003114e+03
-1.632836717763112347e+03
-1.422220350785247092e+03
-6.307770507726394982e+01
1.650569561307146159e+03
1.870693231477270274e+03
1.890307234511631805e+03
2.248436122255488954e+03
2.630083237435764204e+03
3.223265825940602099e+03
2.952029636376630606e+03
2.510479118498585649e+03
2.473637279171563478e+03
2.237439474026573862e+03
2.135805935800442057e+03
2.116766491545236022e+03
2.472395256373011307e+03
3.063733835373850525e+03
2.941810360365161159e+03
3.092631050546624010e+03
3.166200286989175765e+03
2.991478098173105991e+03
2.553546686097460224e+03
2.348387656534290272e+03
2.041053196553801172e+03
1.660622863578175156e+03
1.270165705997530267e+03
1.375568019847097048e+03
1.298627764869977000e+03
1.350453739996025206e+03
1.528347875336279230e+03
1.789483023208046916e+03
1.971758113409507132e+03
1.980447625254789500e+03
1.797557415706629399e+03
1.680130325609965439e+03
1.686098001588142097e+03
1.746519903595525193e+03
1.632500004308072903e+03
1.623818379036403712e+03
1.448452399973529054e+03
1.363503307602429004e+03
1.422073614063837113e+03
1.199129701624745621e+03
1.114444781865229970e+03
9.958512415931140822e+02
2.819851784441692075e+02
-4.526605462701265424e+03
-7.845947616088627910e+03
-5.875950261040827172e+03
-3.690708079819191425e+03
4.895943808536014785e+02
6.021844840015596674e+02
8.559325458168212890e+02
8.707354512868934080e+02
8.976207174389103329e+02
7.135414136586972518e+02
-3.038468174239551445e+03
-2.273748870761698697e+02
-3.186196877485742789e+03
-6.799110921160499856e+02
8.944737696411514207e+02
1.224967371253482725e+03
9.965085994916732943e+02
8.990769460667297608e+02
3.727490587380912075e+02
-7.654902671657838482e+02
-5.663700338028513215e+03
-5.353857053499690664e+03
-3.877897484375522708e+03
-2.138296479592592618e+02
9.943628290005301551e+02
1.098618656318472858e+03
1.259959034897945457e+03
1.434436334732773958e+03
1.554011087841130802e+03
1.307693757580827878e+03
-7.234408747644389450e+02
-3.710432395829660891e+03
-3.529278752318129136e+03
1.939508442020822940e+02
7.732891736695884219e+02
6.898690039837006225e+02
3.826148338150311474e+02
1.454476891226958060e+02
-1.926685100424361394e+02
-5.336213443516928692e+02
-5.143572879436084122e+01
2.878179957475179549e+02
5.091754851134153910e+02
7.266748649191673621e+02
8.232933931909251442e+02
7.250016189848277008e+02
4.717766815029203826e+02
2.815854430776165600e+02
3.704755868584256859e+02
7.104593685811674959e+02
6.245373609454022699e+02
6.277778409844200951e+02
4.061691837662522744e+02
2.977365185453187451e+02
2.142455453560859624e+01
4.192793148574325834e-01
-7.141242356583045137e+01
2.980912533828251654e+01
-1.787997184335620204e+02
-8.129879987201314862e+01
3.882023707707877520e+02
5.747496349248236811e+02
3.974122412841671235e+02
-9.188530195257533251e+02
-4.099986551352594688e+03
-1.476970774823548254e+03
-8.338255744418033828e+02
5.984335946527911574e+02
3.827682444462906801e+02
6.291961309026347635e+02
1.018792312961346624e+03
-2.014857374473460254e+02
-4.712785682460797034e+03
-4.049074901782300003e+03
4.266075114129618839e+01
1.423794100838626377e+02
2.790657657591177099e+02
4.147696368170294363e+02
4.794932644619475468e+02
1.351277947495227068e+02
-2.093353824513354766e+02
-4.657717733165726486e+02
-1.131548820279473091e+02
1.094941047215269663e+02
-1.108021586037861823e+02
3.349213496704244335e+02
5.426241991003131488e+02
6.553749585145127412e+02
6.851695326983923451e+02
5.459885869951647237e+02
5.708985345388462065e+02
1.156850922117419032e+03
1.209814161485799332e+03
1.343854004653739821e+03
1.356986630609774693e+03
7.082218344219626260e+02
6.304870260051178548e+02
7.608248595303587081e+02
1.922164678152884960e+02
4.276391691146125851e+01
1.224337967843936639e+02
1.651894857980623783e+02
2.040050684589144225e+02
3.829526652279493533e+02
4.660150926583521596e+02
1.171314576390613240e+02
2.583259082970454870e+02
5.446230122323872820e+02
7.899968926827878022e+02
5.645613803430171629e+02
6.492637327367657463e+02
9.921404038412307500e+02
1.081211321955486028e+03
7.854229152954527535e+02
4.507992661391967886e+02
6.273304366526040212e+02
1.690313927786949364e+02
-3.801105973976630139e+02
-8.000856405024453579e+02
-1.035922880639007417e+03
-5.306631287769820347e+02
-6.291871850542803486e+02
-5.024930878554796436e+02
-3.976414905052092195e+02
-4.036367250644372575e+02
1.845578554618817861e+02
4.419788386667855775e+02
1.336680258840319766e+02
2.176343908321759670e+02
4.629179546139043282e+02
6.404662420249206889e+02
1.102419179910633602e+02
1.292570428275170684e+02
3.104997199701043087e+02
-1.103976883545170722e+03
-7.594219396716297524e+03
-4.520197775322511916e+03
-2.569176950156562498e+02
-5.724392631114677670e+02
-4.914768845990446607e+03
-1.731929311021065587e+03
-5.028589040035931248e+02
-4.855095016567200332e+02
-7.189827929378265026e+02
-4.323024509126472026e+02
2.125771728773271718e+02
4.576968912540111774e+02
6.010804731836277597e+02
2.977489308345909649e+02
-1.293852404349879919e+02
-8.453331320098023980e+02
-4.323064272032433109e+03
-1.248557533545826800e+03
-2.886862248471387375e+03
1.099016619240083401e+03
1.097158763752376444e+03
3.865250032887793168e+02
-5.193156297249883124e+01
-7.042102661995184008e+02
-2.183310533650514117e+03
