-2.458780294974464596e+03
-2.974961600000701765e+03
-3.193812047483384958e+03
-2.270228344908219242e+03
-1.828118106383383974e+03
3.725584110459167277e+02
2.921743481792195325e+03
3.915488651144359210e+03
3.245713946587931787e+03
2.756404207616909844e+03
1.837734529644486429e+03
1.552793160599236217e+03
2.039435536315269246e+03
2.449583416704627780e+03
2.837251391893135406e+03
3.449419552907182151e+03
3.780876244145590590e+03
3.211792160536326719e+03
2.758371035230648886e+03
2.996666598078491461e+03
3.710776003962258983e+03
3.711880638458895191e+03
4.280021993069965902e+03
4.124038995256951239e+03
3.651059330034669983e+03
3.913126546788306769e+03
3.408310935047764815e+03
2.680561514535385868e+03
1.370773766709209440e+03
-6.299686027152824863e+02
-2.087530025590909645e+03
-2.207418999117767271e+03
-1.492587550392429193e+03
-9.647842613517805148e+02
-7.301005083248355731e+02
-7.337298264441312767e+02
-2.267968203028224707e+03
-4.174267741946893693e+03
-5.892427577268061214e+03
-5.976050162272862508e+03
-5.201242798665870396e+03
-4.637986938320954323e+03
-3.616908243660426251e+03
-3.097199978166089295e+03
-8.199064532672806536e+02
1.675930082916798028e+03
4.902408780775166633e+03
6.430534565259127703e+03
4.977291353863014592e+03
3.331860184078589555e+03
1.197297220861508549e+03
-5.474916888232946803e+02
-9.676065771897069681e+02
-3.241195560874386956e+03
-8.378256026606553860e+03
-1.171968693542044275e+04
-1.027246401487407638e+04
-6.214590125821939182e+03
-3.317990962826529540e+03
2.127409383616005201e+01
3.288257470775271486e+03
4.596033827088956969e+03
2.329483285262704158e+03
-1.703528965907443762e+03
-4.638908226914546503e+03
-6.959587983974549388e+03
-7.997548429969448989e+03
-3.163899566329406298e+03
2.250255512750934940e+03
5.428975428320442006e+03
7.559320915014235652e+03
8.614278049645456122e+03
8.217894015483443582e+03
8.102273335363492151e+03
6.932492426974927184e+03
6.815601099466766755e+03
6.854384276732454055e+03
5.002597414581573503e+03
2.616311604231253568e+03
2.955259795292059266e+02
-3.509795406423439545e+03
-7.191505015279633881e+03
-8.382651346594970164e+03
-7.877252022275292802e+03
-6.960252379422378908e+03
-5.858497156429109964e+03
-5.743880348046664949e+03
-4.130465724347031028e+03
-6.116477483433144613e+01
2.859014634645044680e+03
4.268635904065322393e+03
4.796631648985010543e+03
4.447644682517880938e+03
4.166350333718277398e+03
4.498585428663913262e+03
3.342432953500988333e+03
7.708355973869062154e+02
2.607224926223248644e+02
3.911701285052446337e+02
8.793726778757780949e+02
-3.947847751222866464e+02
-8.464056487989262223e+02
-1.643429157173433623e+03
-1.444763174092111512e+03
-5.072690356690386011e+02
4.500734095829975558e+02
2.637345186082531654e+03
3.482496647311966171e+03
3.200530612846297117e+03
3.367415869419759929e+03
2.330143965092458075e+03
1.710735341318769542e+03
1.901330670800556391e+03
3.347845951969352882e+03
4.100235134611904869e+03
3.187481664465418817e+03
3.000559542546468492e+03
1.962481756191148406e+03
7.226427080278861581e+01
-1.372101003118555582e+03
-1.650505203898095488e+03
-5.049222687030268730e+02
6.596256902367862267e+02
6.042180997246098286e+02
1.013922336979637066e+03
2.907711665730280856e+03
4.736647113717236607e+03
3.423744980749437218e+03
9.240323881857565311e+02
4.443220037926771937e+01
1.516038712926700782e+03
3.049860842632765070e+03
3.448873516792185910e+03
1.690111387643874195e+03
3.906235571204104531e+02
-1.782627129464923883e+03
-3.952668973568213460e+03
-3.793461119225890343e+03
-3.362897259916320763e+03
-9.529732779392824114e+02
2.414276826081181753e+03
3.661944336073169779e+03
4.757117830922884423e+03
4.678881354660772558e+03
3.068288993400579329e+03
2.731308545318288452e+03
2.255981036129612221e+03
2.278372982595241865e+03
1.213990382087799844e+02
-2.244967832996650486e+03
-1.991725235056444262e+03
-1.328805574477558594e+03
-1.413115998953582221e+03
1.214341181956278206e+03
2.636629838593972181e+03
-2.506104270662926865e+03
-6.201894922921615034e+03
-4.450693165176804541e+03
-4.324461908248716099e+03
-5.010158952734482227e+03
-6.282773551438192044e+03
-1.874320800699825668e+03
-3.561726134628700493e+03
-9.184900822256351603e+03
-8.216739844607332998e+03
-1.093712455520873482e+04
-1.459300193806842981e+04
-1.672434039473089797e+04
-7.406061524702240604e+03
-8.970794109545261108e+02
4.018583843828424506e+03
5.501959031797013267e+03
7.757092782924086350e+03
5.817023237248291480e+03
5.134701847489905049e+03
2.599131073133837617e+03
3.243346528081130600e+03
1.601415638660321747e+03
2.439409680535943181e+01
-1.635632219212596283e+03
4.463279849365575274e+02
-1.347727047321429154e+03
1.290277992424774993e+03
-1.566561555282538620e+03
-3.205158087342676026e+03
-2.852434163344744320e+03
-1.093380004583636264e+03
-1.269986403450968737e+03
4.128081778926011225e+02
-2.965850375559253280e+03
-9.519692454907781212e+02
1.207387340235946567e+03
9.362429217028553694e+02
-3.961373011300851431e+03
-2.646359994933659436e+03
-7.887135823086438222e+02
8.905759011812291419e+02
1.612559086301396292e+03
9.841962579814753553e+02
8.284973023444789533e+02
2.158566921014901254e+03
2.307418615149298148e+03
1.136068983185129809e+03
8.794819024629963451e+02
1.298753388961367591e+03
1.888005814091787670e+03
2.185209561524340188e+03
2.549303689043567829e+03
2.292208140923360588e+03
1.494739272120783653e+03
6.671752791657395392e+02
-1.081251176514819463e+03
-2.977628993942214947e+03
-4.675010024190398326e+03
-3.453313837731843250e+03
-1.619351300339076033e+03
-1.902938207335836523e+03
-2.940721624428208088e+03
-1.357949216699522140e+03
-1.868087912184580546e+03
-2.705833102697553841e+03
-8.213987243164162919e+02
8.049593306117720886e+02
2.630370693043539063e+02
-4.076745523587491675e+02
1.339837981260687911e+03
2.083245881251437822e+03
1.285561627569849634e+03
2.126982147275258285e+03
3.631300895802059586e+03
4.524328772742763249e+03
3.483502978628278925e+03
2.017434774491418693e+03
1.845136935712833747e+03
2.985512429773866643e+02
-1.311472577857437273e+03
-7.519287205229790061e+02
-2.081527635760767680e+03
-2.277831366061825065e+03
-2.969712728106128452e+03
-2.801021665513480912e+03
-1.374222896318461835e+03
7.525975313485940887e+02
1.926082241431091688e+03
2.343429503622086941e+03
2.183605572503207441e+03
2.322499122920135051e+03
3.262950484936282010e+03
3.208948538062711577e+03
3.208442284471767834e+03
5.181408113373447122e+03
6.749764693863288812e+03
6.602364707302843271e+03
5.108125901021942809e+03
4.160971355626075820e+03
3.740831689802974779e+03
3.065725260177942346e+03
2.134602078582251579e+03
5.193020253758149920e+02
-8.662596436828314381e+02
-8.172362473637354014e+02
8.292735678629288714e+02
1.394974871388699512e+03
1.947688282036477631e+03
2.047448785514768588e+03
1.305293070476670891e+03
2.404112845234264569e+03
4.423904280993934663e+03
4.817467190637093154e+03
4.272620259228567193e+03
3.308280087999373791e+03
1.310341887330588861e+03
-3.457315266535802948e+03
-6.023849203969949485e+03
-5.904298593263044495e+03
-6.035738726989409770e+03
-6.412385643586253536e+03
-6.953395100055752664e+03
-8.108716215495367578e+03
-9.062510945469890430e+03
-9.309784437425649230e+03
-9.219635182940646700e+03
-7.892262430874027814e+03
-6.650886545627469786e+03
-6.271237336290098028e+03
-4.325377820821831847e+03
-1.914452829080825040e+02
-2.117534180191890755e+03
-4.043782497730092473e+03
-3.983363245865474710e+03
-4.832434503060064344e+03
-5.052091196001995741e+03
-5.167425703323947346e+03
-2.475435688410375860e+03
3.340764491284702672e+03
3.755141407905600772e+03
2.144526886653890415e+03
-4.292652537271204665e+02
1.807686359710324041e+03
2.003236841771344189e+03
1.670323753582151085e+03
1.318667740519197423e+03
1.704141883954301647e+03
1.643549561862797873e+03
6.888799931942112380e+02
1.501273904087739311e+03
3.219763072460949388e+03
4.250326685907731189e+03
4.322901279558017450e+03
3.776316263976212667e+03
2.928666623527651154e+03
2.102169795801724376e+03
1.273701159567466675e+03
8.558038338652364700e+02
2.252139824174021214e+03
2.615628126248796434e+03
2.746102696032803124e+03
2.536468888156019148e+03
1.454833802994808366e+03
3.683983683283187816e+02
1.063117174985330138e+02
2.935296456073290869e+02
3.860101241412604622e+02
1.126360641363052935e+02
3.058790482973483904e+02
1.034548142919132033e+03
2.040690183244513946e+03
2.025318952789350078e+03
1.955480110533658717e+03
1.468278170927308565e+03
5.386625303206801618e+02
2.646774892022253312e+02
2.252456354847579405e+02
-6.246750208170564065e+02
-9.089496561720878844e+02
-1.026476514864326873e+03
-1.364232551969136466e+03
-7.280555802058315749e+02
-1.211991394040033128e+03
-2.738188092191741816e+03
-3.729755991925695071e+03
-3.919452024337598232e+03
-3.873242274994127911e+03
-4.354028505065198260e+03
-3.064951471493361623e+03
-1.655933569826941948e+03
-3.197981861966763518e+03
-6.194366454459380293e+03
-1.146095791400965027e+03
1.769029354990306274e+03
1.656025203361430613e+03
1.853819545284417927e+03
1.407536872003705639e+03
2.033600143281514079e+02
-6.388385954482331499e+02
1.449485250121223316e+02
-3.762606250887680517e+02
-1.616214376760714003e+03
-3.299942748810538433e+03
-3.875357533873655484e+03
-3.147464278136204484e+03
-2.693243944253589689e+03
-1.423720823382544950e+03
-2.639582168111828082e+02
3.972226826788378844e+02
-3.369975398161829503e+02
-1.292625689395411428e+03
-1.708472106224074423e+03
-4.934469182477629374e+02
5.074630004069744018e+02
5.982176814855424709e+02
2.908880342574430511e+00
1.947371551805610750e+02
6.697041613913553419e+02
5.059436216183520969e+02
-5.753555248720153941e+02
-3.631109150251068627e+02
-3.326548038884711644e+01
-5.848523744476256070e+02
-1.408786547820161786e+03
-1.294911278574095832e+03
-9.741687998039420791e+02
-3.886264171199103430e+02
7.078283007575990382e+01
3.033963178233809117e+02
5.894610299627873928e+02
1.749999923843672150e+03
2.707893506884985527e+03
2.891222994618139637e+03
2.425185744961095679e+03
2.414016806817152883e+03
2.166827374597494781e+03
1.896805995579154114e+03
1.751144119587559089e+03
1.613714146713225318e+03
1.679557013669953221e+03
1.028604705340782402e+03
5.428719875407223299e+02
2.365751871646878897e+02
-1.252020286322908760e+02
2.507088167787707675e+02
2.585747139794089549e+02
1.174237769762841026e+02
5.213634326885601240e+02
3.934707854720460318e+02
8.580312630921898744e+02
1.658246583376107992e+03
1.783040060455987032e+03
1.849435008927154968e+03
1.763613460020418188e+03
1.558367529007864277e+03
1.431693001747893277e+03
1.456409678622127785e+03
1.533867947003856443e+03
1.061825826218721659e+03
7.061663588518832739e+02
5.519393617644332153e+02
-6.769569030156321787e+01
-2.167643730079404349e+02
-3.962433082227325940e+02
-4.043712636736385662e+02
-5.271693418498849724e+02
-7.573464233802855006e+02
-5.179362533153503136e+02
-1.639322498344599239e+02
1.327686655394944069e+02
6.210419809215552505e+02
1.531313886809963606e+03
1.935198149553507619e+03
1.876192754081727116e+03
1.423010613511519978e+03
9.853785462182382844e+02
7.986963705494733858e+02
5.396590188691403682e+02
1.318081138426423706e+02
-4.196765439289924871e+02
-7.531102680482201777e+02
-1.039361273369390346e+03
-1.521386792085690104e+03
-1.157267709417856622e+03
-8.654412506304882982e+02
-4.460668246658054272e+02
-4.859348463943849197e+02
-4.575673307391708704e+02
-3.194391441993585090e+02
5.554034824568117301e+02
1.232324553281460339e+03
1.613153504232615660e+03
1.576579262715669529e+03
1.595724537048793763e+03
1.947489083436552846e+03
1.724297522805293966e+03
1.133023945588960942e+03
1.138650515731030509e+03
1.311249559238947995e+03
1.564969634522951765e+03
1.438837419479196114e+03
1.178777494657179432e+03
1.331895612072818039e+03
1.276349574551423302e+03
8.381771665023056812e+02
7.213365156958266198e+02
9.278053186297788670e+02
3.326304252454137327e+02
-1.656155814310183587e+03
-5.454460438460500882e+03
-7.272214013833982790e+03
-6.121390798954163984e+03
-5.202845636638749966e+03
-5.309530696677956257e+03
-5.082397364451157046e+03
-2.664629807023811736e+03
3.573671740684329961e+03
2.105624651529748462e+03
-3.445678412425495480e+03
-4.263450708926880907e+03
-4.212534685415359490e+03
-4.421848911889736883e+03
-4.875586501981950278e+03
-5.516823760309528552e+03
-5.146337419186583247e+03
-2.559077663808288889e+03
-3.052246172012163697e+03
-4.984806729660788733e+03
-4.615698129536247507e+03
-4.271039660700593231e+03
-3.926874501541142308e+03
-3.458179081112213225e+03
-2.692818572056653011e+03
-2.506735780739507391e+03
-3.179049971373787230e+03
-3.530628675795699564e+03
-3.661487421811149034e+03
-3.460795061296965741e+03
-3.378407042519428614e+03
-2.643423578907045339e+03
2.454102995417471448e+03
4.715159556855632218e+03
4.040663586511461745e+03
2.795500285693908609e+03
2.648636618847328009e+03
2.413070815362530993e+03
2.544865742459443481e+03
3.038971327250002105e+03
3.181287104902503870e+03
3.314822725124805856e+03
3.820597235640020699e+03
4.481462366524699064e+03
4.667366795356361763e+03
4.541360119282943742e+03
4.346517147495832432e+03
3.446790871302433516e+03
2.896141965589009487e+03
2.778523180276302355e+03
2.259955022348731291e+03
1.995456253094872181e+03
2.258998116216195285e+03
2.266430888143484481e+03
1.817568739128831567e+03
1.179486557517352821e+03
1.086158348874823105e+03
1.118548510062599007e+03
1.081700768889304072e+03
1.780410211950600115e+03
1.806537325169043015e+03
1.622175996350947571e+03
1.749298234356413104e+03
2.018926379505363684e+03
2.557162535963588653e+03
2.313200414111580358e+03
1.921923884964520312e+03
1.851117482495430068e+03
9.026214739160310501e+02
-3.757101474143761948e+02
-4.396900799111156175e+02
-6.251122531074953486e+02
-1.610710216799246268e+02
7.839011987524591518e+01
-1.917739379848857197e+02
-3.185742632068737294e+03
-2.003528435864063113e+03
-8.421794702134144472e+02
-1.115934530859331517e+03
-1.220060882359506422e+03
-5.411763546306640364e+02
3.896938080231070671e+02
7.834245725700234289e+02
1.205248780234168407e+03
1.672017754261701839e+03
1.833427571485871340e+03
9.069497006632389002e+02
3.711236826048026387e+02
2.857220022437921898e+02
-1.042523229970419330e+01
-1.473441035417294245e+02
-2.775133162219166820e+02
-3.178213376880417513e+02
-6.922526772076639645e+02
-7.588268692969454605e+02
-7.706568196402763533e+02
-9.547815696824345650e+02
-1.351168869993144654e+03
-9.319937523893332809e+02
-6.874016197313712837e+02
-3.154435141452261178e+02
-4.013160092119338174e+01
2.825808674007849390e+02
5.916954121801204565e+02
1.028156460150349858e+03
1.154930250155331123e+03
1.217952717985705476e+03
8.179990355928576946e+02
2.270844104983538045e+02
-1.608397495655130456e+02
1.561924515238247295e+02
3.222874273734740314e+01
-1.887838126648826176e+02
-2.139441069003043765e+02
-2.603284119918947681e+02
-4.079482951642206672e+02
-4.428387693119733513e+02
-5.161251169804926349e+02
-6.968654208161683528e+02
-7.130914341122671658e+02
-4.587654191107509973e+02
1.520366713316119274e+02
7.072820376404398530e+02
9.030065656084121883e+02
1.218152512194801375e+03
1.324622929840041252e+03
1.116446766716378761e+03
1.169560999860399761e+03
9.928899040377975780e+02
5.544202162359249542e+02
-1.679999713219253181e+03
-4.677343595869318051e+03
-8.439561469087097066e+03
-9.187653781592602172e+03
-9.327673529433730437e+03
-9.239699715314340210e+03
-9.494736159299523933e+03
-5.301945642240506459e+03
-5.524071655942849475e+02
1.738801955427035466e+02
-1.526400913624532620e+02
9.174146215888790721e+02
2.032016260054569784e+03
2.598303178298277089e+03
2.775198151729628989e+03
2.923667096344796391e+03
2.519765280108025763e+03
2.138515223720605718e+03
1.728738877109445411e+03
2.049527118846731810e+03
1.957903190819798965e+03
1.778885590778613050e+03
1.711406749995342352e+03
2.088344732221830327e+03
1.652704782583096630e+03
1.119379197431139801e+03
1.016371140266535576e+03
1.333687424635954358e+03
1.106446737570157666e+03
1.031634049467493924e+03
1.404236078811486550e+03
1.842095486089740234e+03
2.382220331981475738e+03
2.815649504893998255e+03
3.217426670170098078e+03
3.224501938797781349e+03
2.817830441464050637e+03
2.412463260183335024e+03
1.852516232937300174e+03
1.778883459405898520e+03
1.676472635630062086e+03
1.863370876628760470e+03
1.854660685668697397e+03
1.932273116496877492e+03
1.719135381815014853e+03
1.517252295101940263e+03
1.275650414405688707e+03
1.228316002681392092e+03
1.419286363429723679e+03
1.253502844267710771e+03
1.306938089104893152e+03
1.804645268586272778e+03
1.751715020728658828e+03
1.905160332768820581e+03
1.882037787236213035e+03
2.562360292732404105e+03
2.482123922025049524e+03
1.930335928683500015e+03
1.447020815588580945e+03
1.525255509819248800e+03
1.574020092226696988e+03
1.523266289966810064e+03
1.211120402606979951e+03
1.190535616115708535e+03
1.213493908138020288e+03
1.021104914888790290e+03
8.904268146882710653e+02
5.924731015390156017e+02
7.602504113800108598e+02
1.059733782697886681e+03
9.379708249402000320e+02
1.237986743933334310e+03
5.988308390471964913e+02
-2.547500106880449948e+03
-4.128872228856526817e+03
-2.140246562895400984e+03
1.439362114173427926e+03
1.412029235808433668e+03
-2.712426079845413938e+02
-2.437413495846525166e+03
2.854543367900370399e+01
-4.372374985122971339e+03
-5.833110656611789636e+03
-2.476636843259836951e+03
4.351021748552096824e+02
4.781531107899265862e+02
3.515205493823119696e+02
4.925647035891474701e+01
-4.196584653219910251e+03
-4.760001620192787414e+03
-6.490307185250974271e+02
-2.520629047199518027e+03
-4.336896984876656802e+02
-1.929125734559162083e+03
-1.776914827151343388e+03
-3.891998083430353290e+03
-2.566347028775771832e+03
2.960745531874467815e+02
-2.299668916539392740e+03
-4.025421569515549436e+02
-2.743543156040193935e+03
-2.773648410895002144e+03
-1.837877072725877497e+03
-3.221191736401983235e+03
-7.475476324080703989e+02
-4.212895064520535925e+03
-3.840166835268098112e+03
-2.547330375558241030e+03
-2.409426777269945433e+03
4.405757051810731468e+02
-4.262923673506473961e+02
-3.026001586497339758e+03
4.249397442165147254e+01
1.441252026211228213e+03
1.853340667264665626e+03
1.817819373605975898e+03
1.473659201625635433e+03
1.066864534526531543e+03
7.614435966998488539e+02
5.614490875562457859e+02
1.709089985363366111e+02
-2.192073416695353103e+02
1.541038698940420488e+02
3.378034289969689894e+02
1.318640426235589018e+02
-9.044418686623183135e+01
-1.506605700197949886e+02
4.208797561880053451e+01
1.589104852099754055e+02
5.950065330741025349e+01
3.076967540484500887e+02
3.340932143432514181e+02
5.306230803313291062e+02
1.144922084561104384e+03
1.449293114864898143e+03
1.212022905921312940e+03
1.058537741182100490e+03
6.793592277885528574e+02
1.622330981386817257e+02
2.198570969194231850e+01
2.077929362675381526e+02
-4.984297956101464706e+02
-4.928999923801230238e+02
-1.073039440947712109e+02
3.562094460089087988e+02
7.335696711338658815e+02
3.792310023152494978e+02
9.366796014665159475e+01
2.641884375220988659e+02
5.676556441615224458e+02
7.963910919752382824e+02
1.183219312438262705e+03
1.304936756811167243e+03
1.750951080032363052e+03
1.749803528046878910e+03
1.816396381934373721e+03
2.002034911211858116e+03
2.109794757284958450e+03
1.066433373187148618e+03
7.355573835013160533e+02
1.100221911248492461e+03
1.557650119918486780e+03
1.407902376328931268e+03
8.997576224350422081e+02
8.929797803251299229e+02
8.478446430937991636e+02
7.654239621767476365e+02
1.746265925850233884e+02
1.333934785762367028e+02
8.617324739876501098e+02
1.534610380994931575e+03
1.803171872304227463e+03
1.891452626764240449e+03
2.022399497537831849e+03
2.484962615348346390e+03
2.422074497298494862e+03
2.616670378992763744e+03
2.505825794364946432e+03
2.299496833255282127e+03
1.837553264951527581e+03
1.164054400494685069e+03
1.068212297218400863e+03
1.298066216335808576e+03
1.239593049536628996e+03
1.344918158265411648e+03
1.234834857353341022e+03
1.174223433740961127e+03
1.590281805509729338e+03
1.229024697257489152e+03
1.000164569768788510e+03
1.212487923010536861e+03
8.059014773388396407e+02
6.814532326167154679e+02
7.861425677679417277e+02
-9.869929920560437040e+02
-5.081033018715073922e+03
-7.248046489800540257e+03
-7.262094436102857799e+03
-8.027191162508681373e+03
-8.284401540707554886e+03
-8.157740950002303180e+03
-8.235130200426290685e+03
-7.451340885341708599e+03
-7.106660082785077975e+03
-7.251423604019276354e+03
-7.177309219198467872e+03
-7.303125070832984420e+03
-7.656107020831543196e+03
-7.173316165444154649e+03
-3.450770709923284358e+03
6.134115714777869925e+02
2.367164905003503918e+03
1.350518095905966902e+03
-1.030393221028989728e+03
2.865400402132106137e+03
3.753863935623091493e+03
3.640030559027651179e+03
2.761874090142388013e+03
2.144368669279919686e+03
1.784474813493309966e+03
1.743210117739969292e+03
1.713508793573908179e+03
1.470349243097342196e+03
1.281769552994464220e+03
1.291799329834416767e+03
1.406401215748428740e+03
1.236556961903228512e+03
6.951960848148771674e+02
6.833906283251554896e+02
9.171336162216891807e+02
9.563518156465781885e+02
1.044001655857200831e+03
1.286102010377798706e+03
1.301718643536609306e+03
1.404938415487255043e+03
1.395693253663519272e+03
1.235973260241477419e+03
1.289734935919232385e+03
9.960157556246684862e+02
6.469337486091075107e+02
3.154843840861021249e+02
3.825509994687614608e+02
2.310649923098618217e+02
-5.768397247165451063e+02
-1.028057071453159097e+03
-8.146494005587850324e+02
-3.285859682845603515e+02
-2.288986220559471576e+02
-4.916704296607861124e+02
-3.758909671107997497e+02
1.414229313025165879e+02
2.481893710763758349e+02
3.864924601639255570e+02
7.474851037225826076e+02
8.572129123329141294e+02
1.102573443630046313e+03
9.555063932580088704e+02
4.830718942850136841e+02
-3.145220908305286116e+02
-5.498416803199694414e+02
-3.247993109663992755e+02
-3.874288152772210765e+02
-6.468418496317499375e+02
-6.958442358820570917e+02
-8.645503467309509915e+02
-4.002397549927004093e+03
-3.420580055719696247e+03
-1.757062892813944472e+03
-8.055180760262860531e+02
-1.641846381166753304e+02
2.968738035467042664e+02
-2.351464938375549263e+00
-3.276618820515552670e+02
4.909181426795605319e+01
1.199012445122376675e+02
4.318124745106719615e+02
4.116604506583516354e+02
2.147305986586694004e+01
-2.437720114046717015e+02
-5.731044062239027426e+02
-7.835496247306085706e+02
-1.199076610515001903e+03
-1.225640820769157244e+03
-1.258194889193247946e+03
-9.836914799582693831e+02
-1.195133187817255703e+03
-1.099466396410147354e+03
-1.164615680245837211e+03
-9.226483334095593136e+02
-8.195912305601584649e+02
-8.294050150809318893e+02
-6.740907294845742399e+02
-6.636342999670199561e+02
-5.560198553656321110e+02
6.586076471378986241e+01
6.711702052378525423e+02
3.029416318333784943e+02
3.604944402629818967e+01
3.443747678377177408e+02
6.449518111078007223e+02
1.957142638317730530e+02
3.562170933872570089e+01
1.237284398637201832e+02
-2.519011361260140234e+02
-2.002882191081158112e+02
5.451425221244907959e+01
-1.234062820854782672e+02
-5.050462457409248032e+02
-6.903749503320862004e+02
-5.423198661806153495e+02
-8.906928335101866878e+01
3.114521646498222935e+02
5.692539047627230957e+02
6.823859202363441909e+02
1.107909126111375372e+03
1.569831975998323060e+03
1.570174356276409299e+03
6.068871048254450216e+02
7.069003524371553340e+02
6.351610243154680120e+02
-4.673112465402776365e+02
-8.676137391589707022e+02
-2.677412441732221851e+02
-2.736133115029801957e+02
1.237277375434648690e+02
4.132555318870107612e+02
4.079775044239991075e+02
2.738453562931050556e+02
1.777671046777101935e+02
-6.602245994735650356e+02
-2.229627318497976773e+02
5.855664162596074220e+02
9.975071281583706195e+02
1.456630418899659389e+03
1.599174148600767467e+03
2.027252818437478027e+03
1.853977627379530077e+03
1.408994909488232679e+03
1.179718293392876376e+03
8.959534673429247960e+02
6.735422496531183469e+02
3.669302862037118302e+02
4.183123253900695460e+01
6.947941983552203737e+01
4.021023409205146777e+02
6.493738875854736534e+02
5.843192814188225839e+02
1.930491872187071749e+02
2.220090291643301725e+02
4.507148023445377589e+02
4.025306490379128377e+02
8.512883939754883613e+02
1.159199191995062165e+03
1.281907430190790137e+03
1.549210931243840378e+03
2.011655919652048397e+03
2.087883732925746699e+03
1.683174221870883684e+03
1.322287545785877001e+03
9.150825431359754702e+02
7.946407130068233755e+02
3.946497342465653446e+02
4.418207634796123102e+02
6.386788408156830883e+02
7.958119741339496613e+02
9.874399069827834410e+02
1.020595267140386795e+03
5.855229881451970186e+02
2.779268145369509284e+02
6.931287539257257322e+02
1.132365628744197920e+03
1.583803854011678141e+03
1.903562736291565216e+03
2.178544198019269515e+03
2.400538520532391431e+03
2.645671976027055280e+03
2.772037784634359923e+03
2.558428393117446376e+03
1.733728164625266572e+03
-8.141064611928983368e+02
-4.639060202358187780e+03
-5.635098280292034360e+03
-1.476241918281401240e+03
-2.744255043224383144e+02
-3.576333614668224641e+02
-3.843017452708340443e+03
-7.727625279097705970e+03
-4.207464379405415457e+03
-1.906537052768428794e+03
-4.112900556753674209e+03
2.214171614746110492e+02
8.373279503283914664e+02
-3.991782587653538030e+02
-2.468721642983131517e+02
5.262680655581722249e+02
-2.648335756901074660e+02
8.898408771321867334e+02
6.862672049670755996e+02
-3.246495008862907525e+03
-2.666542253256009644e+03
-1.163892930787552132e+03
-3.524611446684961265e+03
-1.937715972474229602e+03
-5.252218194227901222e+03
-4.943156426293639925e+03
-6.465516326228438629e+03
-3.412187219699753769e+03
-1.462986517703729760e+03
-2.399998703909840060e+03
1.431603606899858505e+03
-4.381110890169804151e+01
-3.115960170098845538e+03
-2.090078532651520163e+03
4.106610739268128327e+02
1.117244981725089019e+03
2.296660217876665683e+03
2.662932359714686754e+03
3.460213991942517623e+03
4.615682195199378839e+03
4.094465297351302070e+03
-4.741596122047176465e+01
-7.742040626483202459e+02
3.506776894518818466e+01
-3.784961360637503844e+02
-1.567844987128391949e+03
-2.285161281511993820e+03
-3.167457641252997291e+03
-2.404667585073115333e+03
-1.031787540346620744e+03
6.123388138477709930e+01
4.428565228218034555e+00
-6.402040701979027517e+02
-1.789473141103990429e+03
-2.473487380652050888e+03
-3.585234807549412835e+03
-6.101404031465220214e+03
-8.515524742940779106e+03
-8.881301011534755162e+03
-8.921098438121018262e+03
-8.548228220025252085e+03
-5.801797915882363668e+03
-5.071600958752488623e+03
-4.639592135820937074e+03
-1.491740538062085307e+03
2.911155037571196772e+03
5.125236081884182568e+03
5.475410319731606251e+03
5.386303870488508437e+03
5.525984066392277782e+03
5.835645242792734280e+03
7.504664892004873764e+03
7.757123279202403864e+03
6.773178620327381395e+03
6.208077367355704155e+03
5.502947576373246193e+03
4.825829721625893399e+03
3.963896518762783671e+03
3.810124003285416165e+03
3.746422925617503552e+03
4.343443861397883666e+03
8.659524303533565899e+02
-5.889042656621897009e+01
2.059270059591205609e+03
2.665281783536340754e+03
3.429799183525138687e+03
4.076145675142451182e+03
3.657127168656812955e+03
2.633602472426235181e+03
1.759810364405525434e+03
1.535406913667653725e+03
1.286385879543888223e+03
1.126936936571278920e+03
1.361178764906245078e+03
1.641271808604954913e+03
1.829312218357121765e+03
1.797219061714566806e+03
1.788023011973643406e+03
1.298777488839946272e+03
5.876054596666605221e+02
1.754890686573990024e+02
-9.043839275023783841e+01
1.067062716214891935e+02
1.347495158554709178e+02
-5.063331525829968314e+02
-1.793634125825356307e+02
3.847257048271139297e+02
1.988243072163994327e+02
-3.630640468166806158e+02
-1.041885219725460956e+03
-9.706687818432137647e+02
-1.604214740178666432e+02
-4.741251484607554971e+02
-9.457310939868060586e+02
-1.418313834620312036e+03
-1.989896850089482996e+03
-1.196162950869904080e+03
-9.016730469753302657e+01
-4.669790352480575848e+02
-2.191227570990049571e+03
-2.444935864958977618e+03
-1.368376437901435338e+03
-1.158782589903814824e+03
-3.843071568670989677e+02
3.831522214455719109e+02
5.696874228613247624e+02
9.422991441604198144e+02
7.269415057677520053e+02
-7.202109249422090897e+02
-1.728378227780961652e+03
-1.363571432954621514e+03
-1.478074123779140336e+02
-5.792324748458389649e+02
-2.657836401864653908e+03
-7.202542638635842195e+03
-1.199730911704372738e+04
-1.401905713113244019e+04
-1.284880281189923880e+04
-1.151726183712209786e+04
-1.142714224209579334e+04
-9.092695070395291623e+03
-2.237430340036315556e+03
2.025426047885301386e+03
6.993806224340339668e+02
-1.893032081383177001e+03
1.065473368688455139e+03
1.527708967485214998e+03
5.665815067974789372e+02
-1.413010418340306387e+03
-1.313002516044969525e+03
7.562336333302859259e+01
1.402732041622870383e+03
3.412238468145041224e+03
4.181105925837189716e+03
4.929495033178314770e+03
5.211493260476532669e+03
5.012919847113880678e+03
4.716881232009752239e+03
3.623278557546166667e+03
2.369995862570925965e+03
1.605944033019205790e+03
1.595965753072300686e+03
6.988602938306523811e+02
2.208330451325708452e+02
1.046923222795538550e+03
1.103958264598771848e+03
8.278012425964034264e+02
8.573534414340672356e+02
7.547545906910144140e+02
2.230280363258239902e+02
-9.849221813395621439e+02
-1.288850228897022134e+03
2.024796167609055715e+02
2.930958967210360242e+03
4.426523532955792689e+03
4.841049412315831432e+03
5.582448545450720303e+03
5.581497543785724702e+03
4.538115375465788020e+03
3.847452915210651099e+03
3.709664699594487047e+03
3.326467776749210316e+03
2.275836424637289383e+03
1.733822917892521900e+03
1.261220734683644650e+03
1.648875728607797555e+03
2.627976937942676614e+03
1.347594136755905311e+03
5.936018160932815135e+02
6.479831431635280978e+02
6.696283077301776530e+02
9.683966522215282566e+02
1.430223192888241329e+03
2.959103742098701787e+03
4.280173488378713046e+03
4.944543788649600174e+03
4.776165445444453326e+03
5.254119912920871684e+03
4.620536453729201639e+03
3.737297694993065761e+03
3.945182241832058480e+03
3.488128370052083028e+03
3.184137543067412480e+03
3.294260145125667350e+03
2.444444233170381722e+03
6.686863903872274477e+02
-2.121005682088508820e+03
-6.580527059389562055e+03
-1.094494636232102494e+04
-1.016232034909458162e+04
-9.691637879728834378e+03
-9.010872210073410315e+03
-8.423000734993454898e+03
-6.948046705436771845e+03
-4.643008228470456743e+03
-3.449781589695486673e+03
-1.968273146352568347e+03
3.809553701117828496e+03
3.946777804177870621e+03
-2.616628015632235929e+03
-7.599779911934926531e+03
-1.071466870848143117e+04
-9.751332083750454331e+03
-4.288869079550700008e+03
-4.049262375587305996e+03
-3.322371677289607760e+03
-4.577128084232293986e+03
