-1.447232046244558433e+03
-2.343460589757642538e+03
-5.123463034548858559e+03
-5.911265110534965970e+03
-6.482932920279832615e+03
-6.488440059791270869e+03
-6.739773064190760124e+03
-4.570884259655732421e+03
-3.378768349697349095e+03
-2.515395045550705163e+03
-3.243758342196798367e+03
-8.188319270893414341e+02
-7.975651719357368847e+02
4.801007041634079542e+01
8.109463264937888880e+02
1.233294748490623533e+03
-5.429424876326122558e+02
-3.581014528384016415e+01
1.587724626792419031e+03
3.371247247758555687e+01
2.230145491020966801e+03
3.159758978897351085e+02
-2.758851845295278054e+03
-7.664132693936829810e+02
-2.707667490029535202e+03
-1.063662894675822372e+03
-1.275405163927515105e+03
-1.396895768036254822e+03
-5.171131804071796978e+02
9.289703535691751313e+01
2.921801952103779172e+02
-1.553217377661057981e+03
-1.013258384160987021e+03
-1.102934779520061966e+03
1.489822348120248080e+03
5.230122339795875632e+02
1.547654283128838415e+03
2.627709466797848108e+03
6.982296973696072655e+02
-6.188026615578913834e+02
1.475255126658623510e+02
1.031721538308614896e+02
9.111197625859425671e+02
1.297328095917545625e+03
7.597702712259801956e+02
7.253909443509552375e+02
7.611396743705629433e+02
1.143069564361150924e+03
1.264154301950649824e+03
6.425452602125518524e+02
3.222736637085378106e+02
5.135407326032819810e+02
1.534197420208960921e+03
2.362213052531140420e+03
3.037572547386764199e+03
3.087222967920141855e+03
2.718282334833786990e+03
2.647728708631828340e+03
2.014407554645591517e+03
8.673417782526005340e+02
1.414500616059678578e+03
1.288753583793844427e+03
-3.969679008055368854e+02
-2.313543233781471827e+03
-2.472937463069366004e+03
-1.898333995382943385e+03
-1.596460466845460815e+03
4.656435804277846202e+00
2.418403050205054967e+02
-2.760167485769361519e+02
3.121527422800395470e+02
7.013565894568440626e+02
1.066584911311482301e+03
1.808891125168491726e+03
2.327203782116051570e+03
2.933546719054519599e+03
3.691180427583184610e+03
3.776882423097835726e+03
3.324451368751560494e+03
2.820626536542291433e+03
2.118175563654138841e+03
5.065293802505386793e+02
-4.262003780871849585e+02
-1.652103116692669857e+02
-4.194408728659681742e+02
-1.382931775333479436e+03
-1.765754034224028374e+03
1.430253151791671939e+02
1.339163849572479876e+03
1.301643535383185963e+03
1.544610312098671557e+03
2.119900719001650941e+03
1.733493657917281325e+03
1.337457807607237100e+03
1.669750568869900462e+03
2.813333111187877421e+03
3.531233351745347591e+03
3.778479594144150724e+03
3.567076062676199399e+03
2.642955203235889257e+03
1.744070312510275244e+03
1.455427760848380785e+03
1.426023707047530024e+03
8.437909042144472096e+02
-8.539544491742339005e+01
-6.774762127773758493e+02
-3.848804576356300089e+01
2.485959044248552061e+02
3.687943250626140070e+02
5.760219320889340224e+02
5.422441118552260377e+02
4.084991133983913869e+02
6.848395564072427533e+02
-2.386750011776846634e+02
-2.424121838433721223e+03
-2.693479048271771262e+03
-2.587691958070719011e+03
-2.968746862395089920e+03
-3.553615250555599232e+03
-4.455240985590046876e+03
-5.072773314094773013e+03
-5.166327600731362509e+03
-5.704873306386270087e+03
-5.360358354206448894e+03
-5.361811953999142133e+03
-5.739375085173825028e+03
-6.532744196233492403e+03
-7.168893966096812619e+03
-4.719934289595608789e+03
-2.865875053254944305e+03
-5.131746733356243567e+03
-5.190492883939227795e+03
-4.196082773010902201e+03
-3.075493343699019533e+03
-2.116711755805779831e+03
-1.778651440206348298e+03
-1.575250600297816845e+03
-1.728471015939606332e+03
-3.003315624536041014e+03
-1.787733457070550458e+03
6.982458712178751057e+02
5.455386920229398129e+01
5.361554411718233268e+02
3.217093758607712971e+03
2.276351186241430696e+03
1.693928252443071642e+03
1.608811054074378717e+03
1.395108926724578168e+03
1.267724286474675182e+03
1.469707396455131629e+03
1.197046076488649760e+03
1.668807026135809110e+03
2.217044559894308804e+03
2.852825332448251174e+03
2.589196253378387610e+03
3.212246445813711034e+03
3.626082982268467731e+03
3.758833397980791233e+03
3.694472366100633280e+03
3.105959271816218916e+03
1.591327932876801697e+03
8.834805658699291371e+02
4.164378641547538678e+02
7.473989604654666437e+02
6.154083224680566673e+02
2.473992410549687406e+02
-2.266692622191920350e+02
-7.207283502831523947e+02
-8.247485278106892110e+02
-3.937156686017908669e+02
3.223112710736776307e+02
8.972186041615353815e+02
1.380118497118044843e+03
2.597257977243802088e+03
3.286760243190906294e+03
2.450699290555519383e+03
1.394125196978255417e+03
1.764046067648492453e+03
1.934450208811390439e+03
1.461384954005779718e+03
8.669976894028534389e+02
5.462143146137526628e+02
9.009274217407913738e+02
9.211310246008332570e+02
-2.502626832478340191e+01
-3.384293440632129091e+02
-3.540191703263191130e+02
-6.567880795283527959e+02
-1.134801995923392496e+03
-8.289779038741223758e+02
-7.923362888284866585e+02
-5.010555473593583997e+02
2.881650134909117469e+02
9.441640438713559433e+02
1.610705359302367242e+03
2.053080188847518457e+03
2.434421228306568992e+03
1.947708585771832077e+03
8.388333763120471076e+02
-3.302738334389209740e+02
1.564459312278595462e+02
4.970847065735802630e+02
-3.714072746162888734e+02
-7.640551497909965519e+02
-9.458599749236808520e+02
-1.264814734968269022e+03
-1.300950869761499916e+03
-9.893619429859160164e+02
-7.419926984772395144e+02
-5.868002687244866138e+02
-6.517579554504364978e+02
-6.067989042404086604e+02
-9.977098458731093444e+01
5.973257853715132342e+02
1.404249268353110438e+03
2.018034830168181315e+03
1.521818922770191193e+03
1.154645416956498821e+03
8.924231719166117500e+02
7.381263898079606633e+02
2.089317025581279950e+02
-3.051784400975734570e+02
-6.064061707441265980e+02
-8.967670769468743401e+02
-1.872375567976148204e+03
-2.430290039066255304e+03
-2.134430903809537995e+03
-2.002784849218774070e+03
-1.836382374804616802e+03
-1.561264401259549459e+03
-1.016356747913471509e+03
-6.597045838386682135e+02
-8.092810523847364266e+02
-3.607343540005400939e+01
6.200104136183094852e+02
1.357048245504305669e+03
1.828862508356314038e+03
1.728381532968838656e+03
1.596732193630292386e+03
-1.390761133789402493e+02
-2.652079686696706631e+03
-5.407256196091896527e+03
-3.004555610426910789e+03
-1.485203171351052106e+03
-3.971388837993562902e+03
-3.271133260489730219e+03
-2.251500125899453906e+03
-1.778431760734236377e+03
-1.717856973741535967e+03
-1.631824297781526866e+03
-1.605240312889184224e+03
-1.993060842592417430e+03
-6.954346170676622023e+02
6.205199481348080326e+02
1.445774610373381392e+03
1.964749920147514331e+03
2.050354013843233588e+03
2.112313983999860739e+03
2.027883042351355016e+03
1.827090728959419494e+03
1.199578125933235697e+03
6.062877254725270859e+02
5.229326703280782596e+01
-1.014079993152746226e+02
-4.560572000408306508e+02
-8.356879632768045667e+02
-1.099371610332464797e+03
-1.099996051472848194e+03
-6.618146717772771126e+02
-5.795771250118023090e+02
-4.084256203980801843e+02
-1.945077997872432150e+02
2.452057881529117367e+02
7.929200703412845996e+02
1.399499441064172743e+03
1.920895517744132803e+03
2.678347554235241660e+03
3.234481748390721805e+03
3.123642121202464750e+03
2.350917655660010951e+03
2.007818201256084649e+03
1.572628362795904195e+03
9.510956187099071713e+02
4.862648749211830932e+02
1.479614412957558329e+02
-3.769176328815009924e+02
-6.003377943914031221e+02
-8.803120436022098829e+02
-8.136243477101060080e+02
-7.314509343232368792e+02
-1.107417598843286726e+02
4.303333275259370225e+02
9.360253431990220179e+02
1.262136187881189471e+03
2.249695340137478979e+03
3.088929128421839323e+03
3.088721758083641816e+03
2.981917213679475026e+03
3.225630192592029744e+03
3.066778173351558507e+03
2.520321160087472890e+03
1.542248035911419720e+03
7.475134274979499196e+02
5.250103794031242614e+02
-5.483904538924562075e+02
-7.256146085155589844e+02
-1.284519786117738249e+03
-1.576126988503166331e+03
-1.141460366906486342e+03
-2.715978273763594757e+02
6.051084445715532922e+01
5.802456669398433320e+01
1.053959717521124730e+03
2.389265126265231629e+03
2.489914719884667647e+03
2.371009516162811906e+03
1.900627916610407055e+03
2.236183914843469722e+02
-2.908916900756521045e+03
-4.999850551388950407e+03
-5.260206133227748069e+03
-5.282155397134174564e+03
-5.196743859113760664e+03
-4.957951796309071142e+03
-5.101917631052135221e+03
-5.844531312698040892e+03
-5.849660963696008366e+03
-5.889351586026891709e+03
-6.086578147466653718e+03
-5.565365238162831702e+03
-5.330709380367024096e+03
-4.902553100636645468e+03
-3.698844675769100832e+02
2.559216806737576007e+03
3.092968285536238000e+03
1.919302380228528364e+03
-8.868899476699084516e+02
-2.731433557964985084e+03
-2.531151076096035922e+03
-3.174003577123108698e+03
-3.257034395603915073e+03
-3.680300456323375784e+03
-4.292704680321265187e+03
-4.600341060683913383e+03
-4.688508105934492960e+03
-2.334300304349475482e+03
4.023288911703252779e+02
7.714540477360166051e+02
8.571059655874547616e+02
1.686333605265909910e+03
2.022132438669756766e+03
2.171508278616807729e+03
2.418481330997813984e+03
3.173081430200312752e+03
3.948455507702710747e+03
3.907718814129252223e+03
3.976976744636778676e+03
4.216327011044038954e+03
4.253797820190140555e+03
4.200202672343931226e+03
3.136438053666883661e+03
2.437541233500849557e+03
1.353478676493583862e+03
6.372315193426254609e+02
3.008781681323345083e+02
2.833732705838175434e+02
4.615467321822533222e+02
4.965408759425111498e+02
4.304173067947293134e+02
6.604222355050666238e+02
4.217603289081507114e+02
3.995095579783957191e+02
7.654913522608831045e+02
9.745978455937822673e+02
1.784943994308483752e+03
2.624575673867584101e+03
2.668517602547686238e+03
2.623672135362836798e+03
2.596052934823460419e+03
2.564749879819612943e+03
2.046636812952642231e+03
-8.171791125268916858e+02
7.522988255497224941e+01
1.065559036675873131e+03
7.471329370632212203e+02
1.548087335399206097e+02
-8.796498222842321866e+02
-1.197043979124174712e+03
-1.222366417709280995e+03
-1.570608356132570862e+03
-2.110650216298918167e+03
-1.768592193447529098e+03
-1.014497162740831072e+03
7.159396476528718267e+01
1.215752332732609375e+03
2.388104464268286392e+03
3.192497595000459114e+03
3.398947821069995825e+03
3.187541591784819957e+03
3.164054758870527621e+03
3.215212031003388347e+03
3.009142819026068992e+03
2.188704063391111504e+03
2.027773337504562051e+03
1.483437303652293849e+03
1.063707045656556602e+03
6.735557233404817907e+02
4.550429977512330311e+02
-6.493981859940575418e+01
-4.324122316439481892e+02
-3.014161006632959925e+02
-4.429248208599062764e+02
-4.600110117452708209e+02
7.144107328399866219e+02
1.773369833676978033e+03
2.160936240953423749e+03
2.438145162455914942e+03
1.908015013694149047e+03
9.455227872211632985e+02
5.256970991031535050e+02
4.833307372803108137e+01
-4.425283777870344579e+02
-7.028447811181978295e+02
-3.707001333771505074e+02
-5.406535285327679929e+01
4.008617214504957005e+00
-4.035698309685554364e+02
-1.323872774911273609e+03
-2.149850675205191692e+03
-2.523463771427050688e+03
-2.095807079078338120e+03
-1.515871205584567178e+03
-8.245540845090370112e+02
6.319060908011135069e+01
4.002936200424783806e+02
4.197707070175918602e+02
6.457061903436725743e+02
1.231381960588522304e+02
-1.522978527189367696e+03
-4.378763151148566976e+03
-5.351204327906198159e+03
-5.480237213918874659e+03
-5.402947276237190636e+03
-5.162378392104165869e+03
-6.469462617803468675e+03
-7.566167157648485954e+03
-7.652538795694139480e+03
-5.242505880377481844e+03
-1.999052536069479174e+03
-4.126164263443846721e+03
-4.918855832406987247e+03
-3.509117291845615910e+03
-2.212899915599209180e+03
-3.482499287564372139e+02
1.205939501233906185e+03
1.632699982143044053e+03
1.612051334740430548e+03
1.858941973241586084e+03
2.407398268213508345e+03
2.573421991040125249e+03
2.187948975823079763e+03
1.861988799090981047e+03
1.714600578112052744e+03
1.082708507194156255e+03
7.299875728225097227e+00
-7.446040623891967698e+02
-1.293003481930532644e+03
-1.808821529916445570e+03
-1.608034238447980897e+03
-7.406676478236091725e+02
8.632505842123212858e+01
1.180976982977467287e+03
2.385341541703147868e+03
3.221515866212258516e+03
3.416549290839177502e+03
2.881489371834984922e+03
3.284409467169544314e+03
4.493409213015491332e+03
4.335478478687267852e+03
4.202614432161622062e+03
3.424852670736730033e+03
2.124241855355845928e+03
1.252705690555472302e+03
3.851571685223040049e+02
-3.673857427133377200e+02
-1.318877228294989209e+03
-2.014232190705801941e+03
-2.761428783265405855e+03
-2.775360638862924588e+03
-2.548959776612240603e+03
-2.063303510441798153e+03
-1.058335265397438661e+03
-1.141062945536941015e+03
-1.641498876202973406e+03
-1.233573054066000168e+03
-2.582183669368395726e+02
4.727024770068539965e+02
1.297262080347185929e+03
2.900584272232676994e+03
3.514552131023482161e+03
3.144102852446488669e+03
2.119315959137685240e+03
2.033411602276447070e+02
-1.226967172091262228e+03
-1.765639326133614759e+03
-1.841697190791963976e+03
-1.455120931200779296e+03
-6.568542491283233176e+02
-3.386700505556170810e+02
-6.987177831324530644e+02
-2.180036177509520257e+03
-2.234606047247893457e+03
-1.987421723458223823e+03
-4.854088888019687147e+02
2.212502592963948700e+03
3.876334921085908263e+03
2.948155060641234741e+03
1.401093919114779283e+03
1.510120215838560398e+03
1.760210257265577184e+03
2.065342237260794718e+03
1.810465662193899561e+03
7.986190473973379085e+02
-2.461755784151084754e+02
-1.056887788817446790e+03
-4.065696712119406016e+02
-1.951767015164753616e+02
-1.579735089950100019e+03
-2.804295641467741461e+03
-3.763814116557664420e+03
-4.251294948761589694e+03
-3.667719143630291455e+03
-2.695099154874011219e+03
-2.226382622529421496e+03
-8.975579113028986740e+02
3.844393440386892280e+02
8.137025900602614001e+02
1.407139265828669295e+03
2.868762534721111933e+03
3.860619161760723273e+03
2.953694351720405393e+03
1.832913553570466092e+03
1.093272900974779077e+03
-1.432507705746547231e+02
-9.096750677773758298e+02
-1.728084720042475055e+03
-2.484478421787092884e+03
-2.308908387873804713e+03
-2.029345992624292649e+03
-2.121791134869850794e+03
-1.261265726691934333e+03
-2.318038060974954533e+02
-2.373869081520302586e+02
-8.394380210109727614e+01
1.137517054115289284e+03
2.747913290964437692e+03
4.089291964738181832e+03
4.719656558128204779e+03
5.491042355146129012e+03
5.114427844383402771e+03
3.271711908567615865e+03
1.821991795745683248e+03
1.157112667831160479e+03
2.160448010684564224e+02
-7.831939775145476688e+02
-2.106669482742003765e+03
-3.063537646189097813e+03
-1.960832650575508751e+03
-9.565485425697604569e+02
-1.006791576335683772e+03
-1.260590992908736553e+03
-9.378857345620543811e+02
-3.076983098705666748e+02
4.197962488428242267e+01
1.208173826406656872e+03
2.454108553753682827e+03
2.837936379633960769e+03
2.432476099402512773e+03
2.061689042033875921e+03
1.598498204458025612e+03
6.218557421854851555e+02
-4.452955943680265136e+02
-9.459580800321659808e+02
-1.140177467686196451e+03
-1.273039732305723646e+03
-1.904603500032458669e+03
-2.267948665594860813e+03
-2.163073850649543601e+03
-1.791844984630560248e+03
-2.330923826222635398e+03
-6.883850287431785091e+02
-4.508379316553433682e+02
-2.188193565293842767e+03
-2.505333014894980352e+03
-1.922254184222168533e+03
-4.060645817300495537e+02
2.007224295951250951e+03
3.541511725802170076e+03
5.818788471237596241e+03
7.723973555759573173e+03
8.536970063068225500e+03
7.720791532061140970e+03
5.955211126023689758e+03
4.950317944417332910e+03
4.431070381484624704e+03
3.218327375627309721e+03
1.248962885053638047e+03
-6.059656574498453665e+02
-1.783516170020359823e+03
-3.317816715287939587e+03
-3.784015927070903672e+03
-3.456170140965029987e+03
-2.700241798749603277e+03
-7.342473106704449037e+02
2.580804969036313196e+03
4.233910467471470838e+03
3.988104152658614112e+03
3.461462653527860311e+03
2.312974785198448444e+03
1.841678712030292445e+03
2.004540243206476589e+03
1.297471805263210626e+03
-2.116598024120394712e+03
-4.851738347950445132e+03
-7.802963664682190938e+03
-7.675302070923755309e+03
-6.112801167092657124e+03
-4.973400605708013245e+03
-4.392058785464986613e+03
-4.897844342952017541e+03
-4.519713210342720231e+03
-3.774689627198032667e+03
-3.051792507119780566e+03
-3.460975166777585400e+03
-3.282210093785017307e+03
-2.295497923526373143e+03
-1.838799044797997112e+03
6.696278492810186833e+01
1.083956041473823234e+03
-2.656112660238512490e+03
-2.657201613290756995e+03
-8.302315494409058374e+02
-1.860231225277905878e+03
-4.960142853180820566e+03
-6.599974870948108219e+03
-7.147768579064037112e+03
-5.516475177503681152e+03
-4.626087342887639352e+03
-4.788643489823169148e+03
-5.550120640669348177e+03
-5.760538686807580234e+03
-5.528882940219315060e+03
-4.472155956056813011e+03
-6.572987404344321476e+02
2.464768721078717135e+03
4.708110085328332389e+03
6.809764750979984456e+03
7.804746074023536494e+03
7.418115932587438692e+03
5.827953441281410051e+03
5.093222275630659169e+03
4.590965935891632398e+03
4.170207231066902750e+03
4.185951464820971523e+03
3.721242231379719669e+03
3.300141093877793992e+03
2.632653030159793616e+03
1.385761127564069966e+03
-4.345270919694042533e+01
-5.439383007844076019e+02
-8.307886910410628616e+02
-2.189470694484081719e+02
5.666906635047283771e+02
6.541603305305910681e+02
1.205553710793417622e+03
2.644034531580807197e+03
2.587654215375842341e+03
2.818434289098791396e+03
3.600391575147347339e+03
3.326537778814229569e+03
3.428818161586346378e+03
3.362268944861519685e+03
2.774023232440890752e+03
1.616147364830006836e+03
1.027649300866464955e+03
1.040427402139656806e+03
8.755423078765803666e+02
5.850100337712647161e+02
2.491398379310901845e+01
-4.837796759950524006e+02
-5.631327537526295828e+02
-5.200520767856977500e+02
4.967284532519844475e+01
1.105372418906314806e+03
2.039837801719126674e+03
2.327022604370423778e+03
2.583042548675205126e+03
2.656104294357858635e+03
2.048186590084670570e+03
9.103771210243811538e+02
4.663333641651397699e+01
-9.389303022268748009e+02
-2.082274287434675898e+03
-2.832503354514285547e+03
-3.313761621673084392e+03
-3.087033439234707657e+03
-3.057821226435629342e+03
-2.789415870027468827e+03
-1.952062821114262078e+03
-1.645752845145598030e+03
-8.455144573316619017e+02
-4.623905279536361377e+02
-2.543068255726853124e+02
8.867917486868286687e+02
2.549811671894970914e+03
3.095773377009838441e+03
3.034833863400072460e+03
3.066077368992189349e+03
3.552430223661248419e+03
3.130838944512638591e+03
2.616334253823838935e+03
2.033969442883516876e+03
9.696640815782920981e+02
2.023642377943525332e+02
-6.158921148557086553e+02
-1.768154929865694385e+03
-2.513490039301510933e+03
-2.999822361982870916e+03
-3.229144169277536093e+03
-3.746494951782165572e+03
-4.079890772483576711e+03
-4.199323084220958663e+03
-3.626783579515651127e+03
-2.359334231613607244e+03
-1.411046237879315186e+03
-5.018502255880934513e+02
7.322350316305419256e+02
1.686244920896408075e+03
1.661258204393578580e+03
8.952519182855694453e+02
-3.617194324807693988e+02
-1.652660265868862325e+03
-2.313629581681068430e+03
-2.858684103934794166e+03
-2.524865199005753766e+03
-2.088306139068917219e+03
-1.960043704885644956e+03
-1.329057082187374590e+03
-7.774034832983884371e+02
-8.240863582170917425e+02
-9.160497579903128553e+02
-5.783635925367739219e+02
-6.962203402487180028e+02
-1.763616149901085237e+03
-2.833595344981845301e+03
-4.872607459567942101e+02
8.154927324984051893e+02
-1.473278391190662887e+03
7.634154038309088719e+02
1.772583731525777694e+03
1.864184377239036394e+03
8.931441482968845094e+02
-4.026233859544173015e+02
-1.689166346512622795e+03
-9.135733997880620336e+02
-4.029417054273635017e+02
-2.542753956170601271e+02
-3.784884535610262901e+02
-9.686731608863232168e+02
-1.407869076212454274e+03
-1.304230263150960354e+03
-1.360932467497107382e+03
-9.570031485049638604e+02
5.737346214156182214e+02
1.669347934922443756e+03
2.352761541573599516e+03
3.031893453608925938e+03
2.636698688618988854e+03
2.341162442970133725e+03
2.121328637498837907e+03
2.366178462647643300e+03
2.318688566066093244e+03
2.429725711977925130e+03
2.184209266078920791e+03
1.086248117376893333e+03
5.418139277853595104e+02
-8.113824392510569794e+01
-4.846236514041736427e+02
-1.231750435000282096e+03
-1.067640855274210253e+03
-8.063175547831712038e+02
-2.917980223266915800e+02
8.089191556852947542e+02
1.168789986168604401e+03
1.602770122341271417e+03
2.504844291122226878e+03
3.524016500407969943e+03
3.846366185550202317e+03
3.959898174248601208e+03
4.115584435195608421e+03
4.052497235599859778e+03
3.233568118095809041e+03
2.386778490414486896e+03
1.404133407539635755e+03
8.035151515196348555e+02
3.169049137981649551e+02
-5.396499240995980244e+02
-1.011307889907740901e+03
-1.054124503332392806e+03
-6.940478063593001252e+02
-2.731062372021544320e+02
-2.873200460025462348e+02
1.872435913699535774e+02
5.685331164227043246e+02
1.145568400761884050e+03
1.832390252358277621e+03
2.070165026949085131e+03
3.000075039016825485e+03
3.141086921220516615e+03
2.729104218460423908e+03
3.044165860699070890e+03
3.763337462477472400e+03
3.526706219743795373e+03
2.712253004336899721e+03
1.838671157212805156e+03
8.609867020637917676e+02
3.263720660345213673e+02
-2.491909603385087451e+02
-1.169796861749543950e+03
-2.322474473315698106e+03
-4.742297238918331459e+03
-6.562348978376626292e+03
-5.829496305071394090e+03
-5.338506752837565728e+03
-4.552290476596853296e+03
-4.033904715285753355e+03
-3.329381950461130600e+03
-3.164656989772108318e+03
-3.279623956954767891e+03
-2.834268231531301808e+03
-3.029571573798914415e+03
-3.824617652892249225e+03
-4.625354291808482230e+03
-5.328738168922252044e+03
-3.402742932473383007e+03
-4.680415922680198491e+03
-7.672713405066345331e+03
-7.571802745545856851e+03
-7.750493343217121947e+03
-8.266543658834161761e+03
-8.052060466081068625e+03
-6.788131721191291945e+03
-5.867870667735412098e+03
-5.136386668865877255e+03
-4.293515239922936416e+03
-4.270268105735985955e+03
-4.965673673557684197e+03
-4.985644890258085070e+03
-4.728067376105533185e+03
-1.385829343255776848e+03
5.670968941231411691e+02
1.231762098375664891e+03
1.686178613638883917e+03
3.187448460753181735e+03
4.590678659207838791e+03
5.135865977215968996e+03
4.809087326382042193e+03
4.209235512507711974e+03
3.533274692915404557e+03
2.895291701235644723e+03
2.516182385679151594e+03
2.075834867204011971e+03
2.205271477632576079e+03
2.454618101329509045e+03
3.037969810380029230e+03
3.916468568405045062e+03
4.971113896014245256e+03
5.588877907735486588e+03
5.902819880562788967e+03
5.776208195031104879e+03
5.480957152009485981e+03
4.753275986545580054e+03
3.634076826150263059e+03
2.667245299391413027e+03
2.346777926489833135e+03
1.502842490131360819e+03
1.026379494472562101e+03
9.322807235894904352e+02
8.265495858390839885e+02
5.842737162535946709e+02
5.376156503276304193e+02
4.205627385290958387e+02
7.668507539956950723e+02
1.614568483053844830e+03
1.903676918625730877e+03
1.865240654284671109e+03
2.719378662964094474e+03
3.470024315343056514e+03
3.424108003418179578e+03
3.306833477883298201e+03
3.481390773650623942e+03
3.199685634905996721e+03
2.926646601176993954e+03
2.105135207915859155e+03
1.213066763404266112e+03
7.695004824342094025e+02
2.704983812722045968e+02
-7.294689544181520091e+01
-5.188776578864158182e+02
-7.222608526304418319e+02
-7.334113477100476075e+02
-7.004395987491571987e+02
-3.183992774939010815e+02
3.260523436042009848e+01
6.426488459786264684e+02
1.296853515692466999e+03
1.771303568690267866e+03
2.030007170572484711e+03
2.241939631599272161e+03
2.042107380045629498e+03
2.059436838092146900e+03
2.054929383026493269e+03
1.678546422164027717e+03
9.822939804899917817e+02
4.672341936269327221e+02
1.433876552155243758e+02
-6.343276048039624584e+02
-1.143996257986324736e+03
-1.380688652403841843e+03
-1.756435118368972326e+03
-2.435202258798521143e+03
-2.202036887936869789e+03
-1.296022044626090974e+03
-5.620108077021913005e+02
-7.205136564055993631e+01
3.467868274384077267e+02
2.365751841602275078e+02
1.713095326847940782e+02
1.279972236827193456e+03
2.592556644928399237e+03
3.119138791978682548e+03
1.644681144966805732e+03
4.621096020310092172e+02
-4.095700434345732219e+02
-4.823863129371462719e+02
-1.258335779020077098e+03
-3.227409454119888778e+03
-5.384706425100323031e+03
-5.922266910479181206e+03
-1.973097529890850183e+03
-1.313242340662300421e+03
-3.232730025508805738e+03
-6.558512828677166908e+03
-6.692593168691132632e+03
-6.803957006068263581e+03
-5.826540291227828675e+03
-5.330249388431814623e+03
-5.296117951470461776e+03
-5.127107086052379600e+03
-5.786180065913890758e+03
-5.849371928592330732e+03
-4.174694878348625025e+03
-9.172539165116781987e+02
-1.220516468291940697e+02
-2.951086328749812537e+02
-2.985146808157363125e+02
2.207448778173368567e+02
2.405734995229973379e+02
1.890332194873449794e+02
3.161250301185777971e+02
-7.152586409824926932e+02
-1.435094072116916777e+03
-5.153055935858417342e+02
1.151147683121288537e+03
2.112270730610795454e+03
2.654009050669309545e+03
3.110481122120214422e+03
3.722717586024460161e+03
3.450780771204076245e+03
2.381743487886126331e+03
1.488602384736760314e+03
4.374524725971008934e+02
-8.946947082617699607e+02
-1.221893778578093134e+03
-8.392043671866347267e+02
-3.436439307729154393e+02
6.781090208075779913e+01
2.791120002844049282e+02
-6.970933810989669155e+01
-2.206079442443163430e+02
-1.246678317911813849e+02
-2.039163771435117383e+02
-4.043402291284415355e+02
-8.109371841071750850e+02
-8.616467510027790695e+02
-8.483898451571893702e+02
-2.077209906590407940e+00
1.233382479891121875e+03
1.824049519994816364e+03
2.167937145258111286e+03
2.117080591649897542e+03
1.215361389262103785e+03
2.217877924990827978e+02
6.437361984493408329e+01
2.660745127373481296e+02
-1.990752261765703395e+02
-1.020142716289091283e+02
4.802491887583391303e+02
-2.793401301384529347e+02
-7.678394425550723099e+02
-1.252160233419121141e+03
-1.679023780735946275e+03
-1.024559139201760445e+03
3.230602474104787802e+01
7.691330571804013516e+02
8.973644239734292114e+02
1.009942426748369826e+03
1.338991603800945768e+03
1.478606871821634513e+03
2.086815005429962184e+03
2.784709763219759225e+03
2.436152132546624671e+03
1.693104690947159725e+03
9.856018737992814067e+02
6.686534125980864474e+02
6.093066656853152381e+02
5.195701850320983795e+02
3.594454952479354120e+02
-2.640682499272751897e+02
-8.310143306929775235e+02
-1.171468184469614698e+03
-5.423581725115776635e+02
-2.196316448589982997e+02
1.786814515288020004e+02
3.326375965292922956e+02
6.082967015111057663e+02
8.296997468960213382e+02
1.254823343865170273e+03
1.990695367446756336e+03
1.871298187823196940e+03
1.792700357806549391e+03
1.536957276054249178e+03
9.880197231809677305e+02
8.418905733887295355e+02
7.615297172842073223e+02
-2.203647163865389658e+01
-1.317905997960295053e+03
-1.606128352511945877e+03
-1.245683597901741678e+03
-1.799597563480289409e+03
-2.506841364603416878e+03
-2.038438957791991925e+03
-1.253445357462587026e+03
-9.608958711802252992e+02
-8.037472574510967434e+02
-6.039692020969529267e+02
1.034535644410178037e+02
4.965525570206945076e+02
6.763792515010484294e+02
1.054941367941764838e+03
1.019225495422590711e+03
1.097213968864139360e+03
1.698851757148984461e+03
1.533148368158186486e+03
1.137087440083661704e+03
4.866044479655691930e+02
-4.694070732999580287e+02
-4.940025198861051763e+02
-5.871239319621199684e+02
-1.309827147273153059e+03
-2.488171201000772726e+03
-3.088202822889903928e+03
-2.737942172871094954e+03
-1.686358610496060010e+03
-9.335388482379560173e+02
-8.724556114197417855e+02
-8.590496847632031177e+02
-3.183375644829218913e+02
8.645742720258512009e+02
2.117660475028750625e+03
1.521013525952956343e+03
1.231612260106772510e+03
2.213409619718639078e+03
2.808332379355283138e+03
2.715252319831796740e+03
2.506341544614017948e+03
7.896540499955202677e+02
-1.733832998350685102e+03
-2.843008208553166241e+03
-1.873351622710081756e+03
-4.819446144131041478e+02
1.153279376448083298e+02
-1.143947739314066609e+02
-5.604395585501516734e+02
-2.948828131282094205e+02
3.776090316093081469e+02
1.469870345215165344e+03
1.374042002146703908e+03
1.024161303270029975e+03
1.054845297801946344e+03
1.670391924963586916e+03
1.832316862388400978e+03
1.292963322339169281e+03
4.574487495733734477e+02
5.062878995701092890e+02
1.286593562677672708e+03
1.697431945750478690e+03
1.662589513627499173e+03
9.799914796016897753e+02
-2.742386060545246664e+02
-2.883185063823634096e+02
5.336417541433197584e+02
9.558538573528011284e+02
1.501111018244390152e+03
1.573689860202826821e+03
1.386404738971122470e+03
1.565781549084568724e+03
2.449957248797660213e+03
2.306160549749976781e+03
1.868251574818673816e+03
2.042092555675126732e+03
2.168618208272440370e+03
2.295829738545309738e+03
1.461798780871166400e+03
4.035258535937251168e+02
6.329854516567668270e+02
8.621801318395127964e+02
1.519116244260946132e+03
1.191782005163685881e+03
2.890965770529965084e+02
-2.890359425495730648e+02
-2.716368020055438706e+02
-6.771603272196766454e+01
1.377339812677369935e+02
-1.211953346583123050e+02
-5.324895600071984063e+02
-2.769156801963359158e+03
-3.955154686290949485e+03
-3.916434270482473949e+03
-3.864919069609243252e+03
-4.136593979512439546e+03
-2.591534699330928106e+03
-2.887624321917502130e+03
-4.053917738732359339e+03
-5.103478589715879025e+03
-5.147309783701157357e+03
-4.214390364651694654e+03
-2.681748355401077333e+03
-3.608354862540123122e+03
-4.007160570210687183e+03
-3.186203419877098895e+03
-1.840428622615347194e+03
-4.306762039745452967e+03
-4.842255793171279947e+03
-4.244887611919908522e+03
-3.664594464370121841e+03
-3.127288654209143260e+03
-2.844941513810505057e+03
-2.560488465424146398e+03
-1.493888643519770994e+03
-1.745083854193379238e+03
-2.210024327465483111e+03
-2.630686775345116985e+03
-2.689078740252169609e+03
-2.753198401642788667e+03
-1.061011857832644409e+03
5.514961293979447419e+02
1.423335595253248130e+03
1.706554887592974183e+03
1.153139396536488221e+03
8.501180350997593678e+02
8.704718728628384952e+02
5.742509028682445660e+02
1.071542965187984692e+03
1.581443314103655894e+03
2.457979192464384141e+03
3.130190280712065487e+03
3.595133949196851518e+03
3.745897890006812304e+03
3.792500010236993603e+03
4.036013244862472220e+03
4.277468088455315410e+03
4.405868924203949973e+03
3.705318257218165854e+03
3.093851146786979825e+03
2.512431237838226025e+03
1.821055401005711019e+03
1.093846391245418545e+03
4.657820692850747264e+02
5.247878112420760317e+02
4.548944112757952780e+02
3.301791985836116510e+02
2.867217018096549168e+02
7.746235143394542320e+02
1.160876462098499132e+03
1.066442487098705215e+03
1.351310954781544751e+03
1.767569666998533421e+03
2.033448033936994534e+03
2.453970741414433178e+03
