3.796463624033973247e+03
3.641063284285538884e+03
3.803031914329631036e+03
3.591492637938173175e+03
3.232536942262084722e+03
3.697224673554328547e+03
4.038670004230301856e+03
4.343950247617551213e+03
4.312095120244664031e+03
4.755189026080482108e+03
5.310238358509538557e+03
4.695321689976504786e+03
3.869569215840855122e+03
3.771023184445057723e+03
3.911703606871595639e+03
3.605712110852359274e+03
2.906075869816684190e+03
2.442805808750244523e+03
2.023986189410732550e+03
1.550620321988649494e+03
1.313565957387751723e+03
1.417899065813150173e+03
1.661143339974854598e+03
1.694797186696093149e+03
1.602835906000517980e+03
1.738152335750900647e+03
1.620819627737993642e+03
2.287824173638857246e+03
2.983298818975132690e+03
2.860205740189659991e+03
2.692624446054835971e+03
1.988694529763674836e+03
2.415271276003797084e+03
2.367400405582400708e+03
2.181193150978240737e+03
2.377894588920792557e+03
1.605256412551172843e+03
7.256413821185599318e+02
-9.723516040161251794e+01
-4.079393091370940994e+01
-4.482951799606372560e+02
-5.393093291966061997e+02
-6.753440001721894248e+01
3.388140504383923002e+01
1.479148272135500690e+02
3.557745870068266640e+02
9.728116240202721201e+02
1.133992999568374216e+03
1.193913369113377485e+03
1.248394898206110383e+03
1.311291601455961882e+03
1.279635261479774272e+03
1.379452188420752918e+03
1.325710718840421578e+03
9.984584019080565440e+02
9.077246714940968104e+02
4.754388741407811381e+02
-7.638996737258392500e+01
-9.037869412822835784e+02
-1.172816930363509528e+03
-8.684908876640597555e+02
-8.818540335047968028e+02
-4.949183040465568411e+02
-5.546957807666790359e+02
-1.371747476884345360e+02
7.036088983774538974e+02
7.676496568662370237e+02
4.389994321850749088e+02
4.117029921643479611e+02
8.235937685157605301e+02
1.051697462080665673e+03
1.122035546851846902e+03
9.985200710652630960e+02
4.491455861438812462e+02
2.199076719343643731e+02
-1.242303376072807737e+02
-6.362871674076920954e+02
-1.392326943289812789e+03
-1.574495447837825850e+03
-1.432898164292789716e+03
-1.435563698906113132e+03
-1.793550386750232065e+03
-1.379820742647841598e+03
-1.078320559565356007e+03
-1.115136461100828683e+03
-3.226242243609141951e+03
-7.032590953309846554e+03
-1.015128514348649514e+04
-9.757457617436639339e+03
-9.329137092425728042e+03
-9.239242146961230901e+03
-9.332752125892357071e+03
-8.956775784742332689e+03
-8.229389104787873293e+03
-3.453659893905319223e+03
6.633504687592374012e+02
3.757086699521873925e+02
7.047637701668619457e+02
2.909037569965947228e+02
3.830813559495897493e+02
4.131018049062518571e+01
-4.784405863059779449e+02
-9.825481777175444620e+01
1.588348926666436398e+02
8.582801680236920561e+01
7.347169155158227341e+02
9.425305604493892133e+02
1.087276783161424419e+03
1.160845151436175684e+03
1.639127482208578840e+03
2.209129954921249009e+03
2.588910244029918431e+03
2.274464235477348211e+03
2.205785940200517416e+03
2.182827236794142209e+03
1.818507400440279525e+03
1.376732903353015217e+03
5.554550628625797799e+02
2.556051481094809219e+02
2.811554281575035361e+02
2.491304713813749174e+02
4.293791664221223527e+02
4.498604486105062392e+02
8.466490919185469011e+02
1.172719057864821707e+03
1.173086801206974769e+03
1.277815683215751960e+03
1.179836208230948387e+03
1.692216073949907923e+03
2.614964179497525038e+03
3.064034442780099653e+03
2.755432850760771089e+03
2.569145826868619224e+03
2.537169409815735889e+03
2.422472825778430888e+03
2.410028562067814619e+03
1.806783039922433318e+03
6.157169281037602104e+02
-7.512031773621183675e+02
-1.373943164291236826e+03
-8.835254379614993923e+02
-1.269935584730378878e+03
-1.090190788578238880e+03
-1.482173219529164498e+02
8.820181289491063126e+02
1.538504416402654215e+03
1.565320040666869090e+03
1.284467279426002506e+03
1.249959053105551448e+03
1.718862364040389593e+03
1.990067687959595105e+03
2.352625970302165570e+03
2.636551923351523328e+03
2.226839021799700731e+03
1.384579012527244686e+03
1.001802965628124184e+03
2.894678630297937616e+02
-5.138987223064150101e+01
2.282337854258354639e+02
-1.218641105125177546e+03
-6.722940053884428380e+03
-8.355684176031367315e+03
-7.387958270680052010e+03
-3.575837150750919591e+03
-4.548178818125212274e+03
-1.099408293898569298e+02
-7.500911521182141541e+02
-2.628566236549496352e+03
-1.378369825918811102e+03
-8.574495323645618328e+02
2.685241459905266311e+03
-1.243223972519764402e+03
1.137215323204320384e+03
-1.492462645067888388e+03
-1.353253771207741920e+03
-2.344145844807370850e+03
-1.186145469581141242e+03
-2.600231430693362654e+03
-3.143923480350654813e+02
-4.532627036012626377e+03
-1.426805523584194589e+03
-4.042000639176040295e+03
-4.490251201184471029e+03
-4.041456749673096056e+03
-2.863565234311275617e+03
1.667412906861822421e+03
-9.945384806422530346e+02
3.116935296849595716e+02
-9.928695735007698886e+02
-6.831834307987385273e+02
-1.649222490063805026e+03
-8.199894502838036203e+01
-1.213476579139439536e+03
2.602369879002510515e+03
-4.137092166710810659e+01
-5.365785086567029794e+01
-1.615744205557921305e+02
-2.380101946997006053e+03
-6.732597421123408594e+02
-3.300593387311683955e+02
-9.154652147791151151e+01
3.212909899745334883e+02
4.634928739895096896e+02
1.000046960281788756e+03
1.666992897679390808e+03
1.647340038995527493e+03
1.223141801528171754e+03
8.874160907268781102e+02
9.961249743220193977e+02
1.114342289850848147e+03
1.927070064590300262e+03
2.771309007339127675e+03
2.933096748468259193e+03
2.829609824272096830e+03
2.728989408713272951e+03
2.233354117656767812e+03
1.789308964979968778e+03
1.628695534426437462e+03
1.155438552986500326e+03
1.137702046468269373e+03
7.988624096913166568e+02
2.667951498180042904e+02
5.944406894496028144e+02
2.907592173694571898e+02
2.387271121061095016e+02
1.322335989765701925e+03
1.832679017931668113e+03
1.753648824235309121e+03
1.917125610062507121e+03
2.372033509143539504e+03
2.857880474987507569e+03
2.800467598945264399e+03
2.944836320440039344e+03
2.869803642584080535e+03
2.695893018135385319e+03
2.580385587183580355e+03
1.713338243808239895e+03
9.907242263516692447e+02
9.305125608240365409e+02
3.355606137866650442e+02
1.788703253460134022e+02
-1.706085994236001682e+02
-3.159663972359930426e+02
-3.495298746887895618e+02
3.688851798568704226e+02
1.670744773123273944e+03
2.015794863023026437e+03
2.332176707632905163e+03
2.477484537483202530e+03
2.713137429246440206e+03
3.119518235824397834e+03
3.498623960566506412e+03
3.476264056205505312e+03
2.799344062235621095e+03
2.328854414462419300e+03
1.917735654877320485e+03
1.667922000124847727e+03
1.271354722903784932e+03
1.128032325737692418e+03
7.789199919450800280e+02
6.639767446565537057e+02
2.811922087215494912e+02
3.964485968363370603e+02
7.807178714076364940e+02
1.136014521246314871e+03
1.373350199139121742e+03
1.218679844441247496e+03
1.689962796563891288e+03
2.739303497257206800e+03
2.744703088247816140e+03
2.353087644655176064e+03
2.934425789768731192e+03
3.394716077996300555e+03
2.592975884250258787e+03
2.253167367408450446e+03
1.871277448758845367e+03
-1.139736729582361249e+03
-6.355874611025978993e+03
-9.760190067995828940e+03
-9.916730627723232828e+03
-1.006349133303319286e+04
-9.929444518966600299e+03
-9.611605389507816653e+03
-9.259015233798783811e+03
-8.391711540228008744e+03
-8.416675569138966239e+03
-8.024824122162323874e+03
-7.072157236465016467e+03
-6.306617827597175165e+03
-6.163186647621128941e+03
-5.746904285241677826e+03
-2.419801065770830974e+03
-2.188937590843012458e+03
-6.440163649535303193e+03
-3.948427310036841391e+03
1.532246418802725202e+03
-6.025188052241187506e+03
-8.486684262557268084e+03
-8.320236596625531092e+03
-8.274871124254732422e+03
-2.152571819832573055e+03
1.408707576390903796e+03
1.104982924272535001e+03
-1.320805415478032046e+03
2.123463340175594112e+03
3.868840112961372142e+03
3.755384461859621752e+03
3.640103466931928779e+03
3.768038893893693512e+03
3.577245737575149178e+03
4.110755414930690677e+03
4.601604672426065918e+03
4.290826377744432648e+03
4.237470013566511625e+03
4.315586124991210454e+03
3.857268905316845121e+03
3.038512338331155661e+03
2.235291596151993417e+03
1.752690455450723675e+03
1.573726098087771106e+03
1.212416836854328039e+03
9.217737094410089185e+02
6.497926561190317898e+02
6.385876628130411063e+02
1.220275640628650763e+03
1.279906392168549019e+03
1.577496906968027588e+03
1.849153224641454926e+03
1.989936755426510672e+03
2.310882795314331361e+03
2.858134224315534539e+03
2.840666601702812841e+03
3.204543928765011970e+03
3.252831521647880891e+03
2.440578032914689175e+03
1.517805969608179339e+03
1.021550129964804228e+03
2.088842304105615142e+02
-5.531210397883472751e+02
-8.295185508847243909e+02
-1.388387897128064878e+03
-1.563766977659948680e+03
-1.163218341328465158e+03
-7.052159410724972304e+02
-3.916412573894332922e+02
-1.276620673309557219e+02
1.227568950568634563e+02
4.897095148884799301e+02
5.472280193989531654e+02
9.532887743371023817e+02
1.142907317789868330e+03
6.547912182479327612e+02
2.639633550001294680e+02
1.193960466130572968e+03
1.175403052752682697e+03
8.052731282747773776e+02
3.635101352891927604e+02
-6.781395415373481228e+01
-7.676404710674688658e+02
-1.391037358838324735e+03
-1.859993116818068529e+03
-2.130421486450271914e+03
-2.226323546781143250e+03
-1.399691845612630914e+03
-7.925183009860052152e+02
-7.987569734799518528e+02
-1.247400393935256488e+03
-1.143456023971609284e+03
-3.718546126026080856e+02
2.614290288552733159e+02
6.424278921725037890e+02
7.591397953606486908e+02
9.145816894692367214e+02
9.618007877238354695e+02
8.568548669761888732e+02
5.646944224093514322e+02
4.742600281924321735e+02
-1.264422802880216494e+02
-9.264116423758425753e+02
-1.330669624200269482e+03
-2.128256729982711022e+03
-2.174171186533411856e+03
-1.577428967362460071e+03
-1.110064841823576216e+03
-6.690595487128319974e+02
-1.204328049671338476e+02
-8.621472190753175369e+01
8.361714737638355643e+01
2.913488657743305410e+01
-1.371502328878327504e+01
1.950435206041674974e+02
3.903420087059631101e+02
5.131132535169116409e+02
7.334205131874620065e+02
6.533469874413787011e+02
6.968327793175759552e+02
-9.232428867632535230e+00
-4.639473692823492001e+02
-1.020252154057120947e+03
-1.468250994667364921e+03
-1.586062834464344633e+03
-1.776809406853592463e+03
-1.541511824298498141e+03
-1.454145910785941169e+03
-1.087727810227330338e+03
-3.672685107510826015e+02
-9.098420002180797610e+02
-5.224761445423234818e+02
2.176558913228624803e+01
3.038175006578526904e+02
9.656782205878398599e+02
1.556346463884325658e+03
1.448727121447388527e+03
1.437834980977624355e+03
1.238547439337251035e+03
7.906638268619091150e+02
6.650984691360089300e+02
4.395553029672562388e+02
-6.042958710320193632e+02
-1.516716411446245957e+03
-9.724980884394897203e+02
-4.828990311512554854e+02
-3.608037292240196052e+02
-1.857878794537727885e+01
7.518586741503241910e+01
2.979663145811371123e+02
6.705581546600483307e+02
1.063770414336001068e+03
1.462158447763057438e+03
1.532274527488389822e+03
1.709382111637697335e+03
2.401204859712095640e+03
2.518789607018892184e+03
2.377961805386809374e+03
2.221468474908881035e+03
1.892496666388729636e+03
2.315118915406456381e+03
1.571707855144771884e+03
9.420157916561865932e+02
6.593293727319679647e+02
2.517451267978377984e+02
1.541607171069887272e+02
-1.226088639198583934e+02
5.294393024711495173e+02
7.416491326273390996e+02
1.009703158746371969e+03
1.515526912586447452e+03
1.648481220056332177e+03
1.714418651684681436e+03
1.890924561628447918e+03
2.216952381810574025e+03
2.936624329290391415e+03
3.099127078228613755e+03
2.980872305758831772e+03
3.194227198281553228e+03
3.020244949339213690e+03
2.686802860341509586e+03
2.378680967748030980e+03
2.274783366031899732e+03
1.604115993080529961e+03
1.112615706821537515e+03
1.030216281129510435e+03
1.243927475687320111e+03
1.768754369988074359e+03
1.803705730634659631e+03
2.159808094159586744e+03
2.785039325847948021e+03
3.238325888932260114e+03
3.710627015609226873e+03
3.904013940359596290e+03
4.084473801578125403e+03
4.044005820279293857e+03
2.662624785404324484e+03
-4.946551561919070537e+02
-5.435849265311004274e+03
-8.623939239504321449e+03
-7.987960569962707268e+03
-8.168860378238408884e+03
-8.133674559227590180e+03
-8.167478266072446786e+03
-7.727125367926311810e+03
-8.899576289273221846e+03
-8.699960601532153305e+03
-8.859260930163058219e+03
-8.747412105359146153e+03
-7.520360381652223623e+03
-6.697075387028812656e+03
-6.231568622104407950e+03
-3.502736355042631203e+03
-1.552561120184283254e+03
-5.734972412275589704e+03
-6.450957384400819137e+03
-6.501490421544439414e+03
-6.176494340774806005e+03
-5.346924606220894930e+03
-5.778771868772547350e+03
-6.028970561640790947e+03
-6.012500865589583555e+03
-6.462322893737418781e+03
-6.798406908174165437e+03
-7.127730575398502879e+03
-7.109332415571122510e+03
-6.202216825362610507e+03
-1.701253238506958269e+03
-1.928384535794755266e+03
-4.931521277588327393e+03
3.733819275480676083e+02
4.903343035065437107e+03
5.611440835376194627e+03
5.633754363646849015e+03
5.787379813024118448e+03
6.020396996385626153e+03
6.133817853023741009e+03
5.658649238406273980e+03
5.531941345968886708e+03
5.722805950805061912e+03
5.422316770552739399e+03
5.104476852011113806e+03
4.381335416221715604e+03
3.454915929289928954e+03
2.947253923917012344e+03
2.520372925415406371e+03
2.297329952535345910e+03
2.057252630983942709e+03
2.288100035724948611e+03
2.486927968856234656e+03
2.682884207983775923e+03
3.078024327039288892e+03
3.340327038086084940e+03
3.628900740265516106e+03
3.824869049610110324e+03
4.076155149609235650e+03
3.828677482082926872e+03
3.920684123463481228e+03
3.840737256511323721e+03
3.448098979420985415e+03
2.986500515582948083e+03
2.792038194950178877e+03
2.709737723780594024e+03
1.805583816479776942e+03
1.132582151762027706e+03
8.147013531867855818e+02
7.890538041158098395e+02
6.476203200005345479e+02
5.244145101744511521e+02
1.857410146390014916e+03
2.437720864204000918e+03
2.463560593093540774e+03
1.931461040016770539e+03
2.122356428234106716e+03
2.613978432670413895e+03
2.523888509076808532e+03
2.441782392476108726e+03
2.229664558754475820e+03
2.096276676755983772e+03
1.989427764742512409e+03
1.468131270421783256e+03
1.212977353178080193e+03
9.382882604886751778e+02
-6.815151061345652295e+01
-3.913526915524028595e+02
-5.627956455629051788e+02
-3.363900031547996150e+02
-3.719807363279716697e+02
-3.875813656392418807e+02
6.581424325910110440e+01
4.332155997042224840e+02
5.485771608564567714e+02
8.449126460158037162e+02
9.272843772744554371e+02
9.186843616070929102e+02
1.187099923754330348e+03
1.327514816829620258e+03
1.199973983086795442e+03
1.328443176581183479e+03
1.629914230466260506e+03
1.176335790633718489e+03
6.826772741274830878e+02
-3.207626164908592159e+01
-7.449079867248186702e+02
-1.164892849696625717e+03
-1.423113771172114866e+03
-1.695616746589999593e+03
-1.357444665944348117e+03
-9.125599687104586337e+02
-8.139994462579994661e+02
6.420393528007225825e+01
3.280489177650205761e+02
6.335490092475000665e+02
9.116390969413519088e+02
7.613126380524598744e+02
6.616318354117802301e+02
6.605620107596828348e+02
8.540291459797355174e+02
9.410515899208713790e+02
4.245967046519010069e+02
-2.198411206992710504e+03
-7.300982597817832357e+03
-1.098920614615028717e+04
-1.165816675053696054e+04
-1.180290202121865877e+04
-1.157540615970729414e+04
-1.130065640106210958e+04
-1.055478642891738309e+04
-9.986880303153409841e+03
-9.659891538730475077e+03
-9.057849270936681933e+03
-7.716818700315513524e+03
-5.648726839788489087e+03
-9.359655886546613601e+01
1.689478895156126782e+03
2.359528605142632841e+03
2.375478041307568674e+03
2.450334732147286104e+03
2.629058750718334522e+03
2.442683694265071608e+03
1.914181739275762311e+03
1.755462649488488296e+03
2.076486928104508479e+03
1.872235137570479310e+03
1.369595196180336643e+03
1.027567065806169012e+03
9.441132054781191982e+02
7.112947055443165709e+02
1.100037834218579746e+03
9.552792033082590706e+02
1.272026466833229506e+03
1.512293244671237517e+03
1.474129959547438375e+03
1.791532118418500431e+03
2.345449847045611932e+03
2.714892047843147793e+03
2.632864829108209960e+03
2.559268419763538986e+03
2.782156926337384903e+03
2.666531468385700464e+03
2.505345609474365119e+03
2.466636209445544864e+03
1.994359499511477225e+03
1.162443108093284081e+03
3.138970822119358672e+02
-1.143050448972508946e+02
-2.031485984352940761e+02
-7.861414827084244905e+01
5.702871798688228182e+02
9.916092135597709785e+02
1.666350576778104596e+03
1.779550417727541117e+03
1.423177548658932437e+03
1.539222715223837213e+03
2.422708880101423347e+03
2.584663148563724917e+03
2.241100816103597936e+03
2.145055232974871615e+03
2.487556500681445868e+03
2.611684265286454320e+03
2.682416620335249718e+03
2.008763059917564078e+03
1.286667984936535731e+03
7.330916921457151147e+02
4.306865477761049021e+01
-1.043716689750511364e+02
-5.121894405890004975e+01
2.005971086219580286e+02
5.160518688647509862e+02
7.021811636500600571e+02
8.610207445458413531e+02
1.132556765143920984e+03
1.212845471321518289e+03
1.800978766668359185e+03
1.848976623441830043e+03
4.848888361117870431e+02
-3.894293133418745128e+03
-4.073523282841464606e+03
-4.954745203941140062e+03
-6.191161499715384707e+03
1.827888428642200722e+02
5.069365985559184082e+02
-4.500875446453844233e+03
-6.053634440566080229e+03
-2.954334725573604373e+03
-2.279930913919642535e+03
-4.112444555408781525e+03
-4.364895020405695504e+03
-4.284283803331235504e+03
-2.920546233884348567e+03
-2.185598562020338250e+03
-1.635401287048147196e+03
-7.749927219579317352e+02
1.148702968339002382e+03
-2.211235527993700089e+03
1.440227869014977841e+03
3.560964159379558964e+02
-1.218704208883743377e+03
2.202959152607431406e+03
-1.020881297253548610e+03
-1.930235902960130943e+03
-2.741061029470937228e+03
-1.034343908227916017e+03
-6.034071633949502029e+03
-2.390273272243430711e+03
-4.654980416075155517e+03
-6.333204023003215298e+03
-4.098973356961029822e+03
2.887657605766755751e+02
-2.530935283977787549e+03
-1.740581401245663073e+02
-1.968583272810739800e+03
1.653473528518939474e+03
-1.906836251615710353e+03
-3.371482161008832009e+03
4.555707457138909149e+02
2.867293128594127211e+03
3.206676809084543947e+03
2.988740545619147269e+03
2.994504762868521539e+03
3.022975218966119428e+03
2.778099452822421881e+03
2.240881260528479743e+03
1.377271611613780351e+03
6.291806807835744166e+02
7.546385981305246560e+02
8.366324285388297994e+02
9.661333474987371801e+02
9.551676592914565163e+02
1.463740036312886787e+03
1.710834463966805288e+03
2.037317319445786552e+03
2.153219443756252531e+03
2.422630164149028587e+03
2.751112427301965454e+03
2.937886710269729065e+03
3.023822871564511843e+03
3.385586330899428503e+03
2.835174771821530157e+03
1.797610141842553958e+03
1.684919152285095379e+03
2.130926089811683596e+03
2.002791281565068402e+03
1.384400565340189360e+03
6.027217648128224710e+02
3.117513505808130390e+02
4.223841174768510314e+02
1.557261508485796355e+02
3.352802509849145736e+02
6.007366348313771596e+02
1.255337360580883569e+03
1.636627921800072272e+03
2.007356230888376558e+03
2.072464943803668120e+03
2.180799647773238576e+03
2.530302856085221720e+03
2.652996485456188566e+03
2.894791794121078510e+03
2.885609757997213364e+03
2.843422176730418414e+03
2.575195507837913738e+03
1.961109533777472507e+03
1.385126461489639951e+03
9.995434948035286880e+02
6.722206724381333061e+02
6.895890359407053438e+02
7.808656586138959028e+02
6.816222623417810382e+02
1.016603489169313889e+03
1.416689843360197528e+03
1.699855886290578610e+03
2.513077657931733938e+03
2.887250330790107000e+03
2.766324608152246583e+03
2.287369381687750774e+03
2.729315588353392286e+03
3.290074634348786731e+03
3.475639895178424467e+03
3.275975842418810316e+03
3.112115862985357580e+03
3.027042661280238008e+03
2.558640145965019201e+03
1.958826640683669439e+03
1.839586037278219464e+03
1.060920713010672898e+03
9.817677779046510977e+02
1.238062324668211431e+03
1.099751534762988513e+03
9.838278669709076212e+02
1.695294746828162260e+03
2.199172340267909476e+03
1.344458140048444648e+03
-1.862839084587934167e+03
-6.647669794575228480e+03
-9.077058640073526476e+03
-8.272905592109853387e+03
-8.643185690478188917e+03
-8.341025021608706083e+03
-7.825499249651131322e+03
-7.653617749660185837e+03
-7.734295698771822572e+03
-8.036552414603626858e+03
-8.158439359078470261e+03
-8.536921489501088217e+03
-8.429018906496858108e+03
-9.063603013680089134e+03
-9.201884744779204993e+03
-6.200798481839402484e+03
-5.653351927716903447e+03
-9.283522883244160766e+03
-9.290294926301563464e+03
-8.590702566932832269e+03
-7.804625547636540432e+03
-7.499050222084963934e+03
-6.780927791415528191e+03
-6.134201659378421027e+03
-5.298825560008650427e+03
-2.411759303586688929e+03
4.599980435488567309e+03
6.583410085017909296e+03
6.180607766096190971e+03
5.515533080002627685e+03
4.879286974306887714e+03
4.513831582084866568e+03
3.875220197516226563e+03
3.507561414397220688e+03
2.900859224170854759e+03
2.446124177033202159e+03
2.301427884716457356e+03
2.293742003618463514e+03
2.581201706917624051e+03
3.120974444812546153e+03
3.128082795650751450e+03
3.436613719608779320e+03
3.371622535780842554e+03
3.633170454435354259e+03
3.779195368474182487e+03
3.560673346242733260e+03
3.390690608292756224e+03
3.726418754634396464e+03
3.701930363529631904e+03
3.616316717058446557e+03
2.732619688891818896e+03
1.690856044449152023e+03
1.366034308494728521e+03
7.351848319907148834e+02
1.324038985990304127e+02
1.546765626947133114e+02
2.540742578643867660e+02
3.597071054162890960e+02
5.557073187636941611e+02
1.091193198745582094e+03
1.366178577178305659e+03
1.400684194667338716e+03
1.662817064076802353e+03
1.861648970762903900e+03
1.934266477249175296e+03
1.962833036728133948e+03
1.563564388427764925e+03
1.029407655101937053e+03
5.126149087909928994e+02
4.084367006260512767e+02
1.169950997955473667e+03
7.730987806802442037e+02
-2.422372009798619956e+02
-6.630577644737846867e+02
-6.742705951164158478e+02
-1.325775735909568766e+03
-1.442660896623016015e+03
-1.482952576109231586e+03
-8.455238361935962530e+02
-7.627132813067011341e+01
-1.853649300755438105e+02
2.821722141782984039e+01
3.948913094345427055e+01
5.105045644749078519e+02
1.037269833197580965e+03
8.337965966680379779e+02
5.251184559640344105e+02
3.932788028477856983e+02
1.333322865138703435e+02
1.373034714092100899e+02
-6.717677464324115135e+02
-1.063888175366092582e+03
-1.764019720016115343e+03
-2.416172527154827549e+03
-2.827355636619879533e+03
-3.051617221811950913e+03
-2.599889828858224973e+03
-1.780141181816910148e+03
-1.345362546807456283e+03
-6.454712348590188640e+02
2.555559804148062710e+02
2.897191820412315906e+02
5.909609978122522307e+02
6.932538368908830080e+02
5.346320747859223275e+02
3.460805271840078490e+02
2.826449325260078922e+02
2.638592250158808739e+01
-9.567733448215412295e+01
-5.136027626468471681e+02
-5.664500935367495913e+02
-8.752988929496837045e+02
-1.302190676554055472e+03
-1.371158964134625194e+03
-1.571230301524447896e+03
-1.043504109167717388e+03
-8.939797928861057699e+02
-1.011565919355870847e+03
-8.193071445713389949e+02
-6.682765713154195737e+02
-2.995062826313390474e+02
-4.940113619605281770e+02
-4.058415735274271015e+02
3.919782139983872753e+02
8.484040186913964590e+02
1.641382265040489528e+03
1.475897241707049488e+03
9.109138295677921633e+02
2.863550543478028203e+02
3.195791412011856014e+00
4.736893299872621554e+01
-6.111961697823987834e+02
-1.130586605371727501e+03
-1.313920882722736224e+03
-1.574277766280846890e+03
-1.926658917599190090e+03
-1.848152861329861480e+03
-1.529849367876434144e+03
-1.144819698479018371e+03
-5.750987087837677336e+02
-7.645407517836364377e+02
-4.679395985669601714e+02
1.631601166091292043e+02
-3.577306713608993050e+03
-7.227656919111922207e+02
1.700991478554653895e+03
2.228958103243166534e+03
2.383436571519613608e+03
2.598724334115172496e+03
2.936863537451777120e+03
2.863096775673550383e+03
2.350520591942237843e+03
1.402851417431834079e+03
8.472059908240846653e+02
6.488040285705296810e+02
7.310262539956169121e+02
5.950657901092765769e+02
6.040167339419642758e+02
1.087075922366600025e+03
1.808724099189100116e+03
2.160547059050992175e+03
2.046556789433410813e+03
2.136958946771768751e+03
2.326491118535393070e+03
2.372279235562634767e+03
2.535800020993456656e+03
2.942503479832148969e+03
3.142193970991251263e+03
3.857904424555897549e+03
3.720191577812297965e+03
3.299493071058881014e+03
2.500939614635050475e+03
1.725762052878912755e+03
1.232521482417607331e+03
8.410829122290182340e+02
6.961244558959618871e+02
7.252546034766928642e+02
8.700926949214216393e+02
1.063653818856849057e+03
2.120864115118178233e+03
2.537901295784694412e+03
2.635886177339142250e+03
2.932115249754082015e+03
3.776488028440864127e+03
4.200833976653022546e+03
4.041064112874385955e+03
4.330113245088005897e+03
4.419987021140752404e+03
3.771684340611739117e+03
2.998195477116704751e+03
2.342420411297685860e+03
1.644329007768074234e+03
1.222893936459889119e+03
1.049128503447550656e+03
5.209764979670325147e+02
-1.941544021704305806e+03
-4.767479096070315791e+03
-8.733825644300397471e+03
-8.137578813105067638e+03
-7.168735480323564843e+03
-6.773251288147735977e+03
-6.869157619909391542e+03
-7.548442116614005499e+03
-7.512019094041686003e+03
-6.754764544828647558e+03
-7.345776660167579394e+03
-7.276094042276566142e+03
-6.983659777583634423e+03
-7.003426396006731011e+03
-6.272349057585030096e+03
-4.862448455896457745e+03
-1.053744615980353728e+03
-3.091169553535369687e+03
-6.672716857713317950e+03
-7.398396267266301038e+03
-7.128230265527669872e+03
-6.689137102737340683e+03
-5.714069297313956667e+03
-5.634914720397408018e+03
-4.994652840929883496e+03
-4.586260302741396117e+03
-4.608682295295740914e+03
-4.872825029587836980e+03
-5.568633502270323334e+03
-6.288060606213816754e+03
-3.974052556426669980e+03
-4.555603265751366280e+02
-4.390543597780552773e+03
-5.936897715104556482e+03
-5.705582439443938711e+03
-5.221593722925391376e+03
-3.378854472570960752e+02
3.529630183415721149e+03
3.861977163481495609e+03
3.891204975606240623e+03
4.394368974813910427e+03
4.280452175943389193e+03
3.935558258732100512e+03
4.378840615611003159e+03
4.841391149552270690e+03
5.096205942118675921e+03
5.323342144476024259e+03
5.542892856163253782e+03
6.251976386287526111e+03
6.982673335462748582e+03
7.021024479609825903e+03
6.339099748361555612e+03
5.853970270029733911e+03
5.651700065378180625e+03
5.461385824018178027e+03
4.719062644836947584e+03
3.433775311206954484e+03
2.339632284784315289e+03
1.249635359615570223e+03
5.457782503592842431e+02
-1.698341721676872851e+02
-6.000912639124096586e+02
-7.888614002135045666e+02
-8.459188807743167899e+02
5.289643042611385226e+02
2.408870071747017846e+03
2.921908208690856100e+03
2.798156319157418693e+03
2.679579598219245781e+03
2.753243532192449493e+03
2.636274443124448680e+03
2.002687786838102056e+03
1.974520447289315598e+03
1.446823537394294135e+03
2.582523943487959968e+03
2.714771970439629968e+03
3.164571499618845337e+03
2.938858620290996896e+03
2.070673675053985789e+03
1.747935774431513209e+03
1.016786430295771765e+03
9.512303364494817970e+02
7.362288665666055749e+02
6.398690909859059275e+02
1.020158519455721148e+03
1.802087343580109518e+03
2.430684784186479646e+03
2.759793951633554570e+03
2.875093169458310513e+03
2.669226335022254261e+03
1.888955726269220349e+03
1.943093600905661560e+03
1.370664556319840358e+03
5.626050837051685676e+02
5.259831442018434018e+02
5.127467323572609530e+02
1.991106724740829037e+01
-4.645102003298842988e+02
-1.959561964968470420e+03
-2.842228944334305197e+03
-2.378581507687668363e+03
-1.869701871530300650e+03
-8.055315817808199199e+02
2.829380879031666041e+02
2.086748464498319663e+03
2.961889067029839680e+03
2.022342822684752718e+03
1.033119599742861055e+03
9.802153130087222053e+02
8.965821405550948384e+02
1.425241289858813388e+03
1.936110701845921540e+03
1.868216423347333830e+03
1.727615833919834358e+03
1.333256925872944294e+03
1.014097518734646656e+03
4.970822502824402136e+02
-5.938872322649444868e+02
-1.205792605663607674e+03
-9.516168141482260125e+02
-3.064129489821669949e+02
-2.002502547557736818e+02
-6.141503535660995112e+02
-2.722050751413261764e+02
2.045295717120071401e+02
4.030864802393568880e+02
-7.545356604864908832e+02
-4.016349996129223200e+03
-9.660348477747184006e+03
-1.136352836462024061e+04
-1.027295585502220092e+04
-8.107659476891324630e+03
-6.848805890385970997e+03
-7.042372073665053904e+03
-8.095353574940675571e+03
-9.017836576099369267e+03
-9.045931205944156318e+03
-9.985542387752399009e+03
-1.099277059829966674e+04
-5.988647382730743630e+03
-1.880264567046829143e+03
-6.357225441277508935e+02
2.995860289878243155e+00
4.928553564931683013e+02
1.481868448185929537e+03
1.868014668655733885e+03
1.494216919072902556e+03
1.305474113366382198e+03
1.785774508633779533e+03
2.169075711523132213e+03
2.147378927115986244e+03
2.364640475522307497e+03
2.410913963444671481e+03
2.477162367026871834e+03
2.846315383041230689e+03
2.339267470405152380e+03
1.271038821325071012e+03
6.446273173963763838e+02
-1.900490113705060935e+02
-8.780489692988019215e+02
-2.994278564488960797e+02
6.056971196324349194e+02
1.226285346867898170e+03
1.124437521977615461e+03
9.331252628380051419e+02
8.363648743707198037e+02
4.401782561863502110e+02
7.945551274619424476e+02
1.698446873968099226e+03
2.713827348344476377e+03
3.117718658182539457e+03
3.306133767138950134e+03
2.980051857841157471e+03
2.517489549855895802e+03
2.494441868016885564e+03
2.353873678066329376e+03
1.563777196465497582e+03
4.430689561051795522e+02
2.087459239683269345e+02
2.298438476399073522e+02
7.212899814465333748e+02
7.530500628078497130e+02
5.271579636055798801e+02
3.086953717745666381e+02
8.216846575871783216e+02
1.311099643082981856e+03
1.805943038175203583e+03
1.981094923446858047e+03
2.164688796284779073e+03
2.038771447930992736e+03
1.959323806708432812e+03
2.190593343460093365e+03
2.519423253731378736e+03
2.813844987581090663e+03
2.501883166257464836e+03
1.769514385759343213e+03
1.736770208741117358e+03
1.517694326612739133e+03
6.862569771853628708e+02
1.914366368273187788e+02
-5.318166285213304718e+02
-1.705511403298882840e+02
9.418064530748836205e+00
-2.644858085514539198e+03
-7.006407511397766939e+03
-3.882876424589622729e+03
-9.317285417773082372e+02
-2.080954119639781766e+03
-4.910384252663492589e+03
-1.399465957975116908e+02
-1.406689960820170427e+03
-5.856324948805631720e+02
-5.166435561966746093e+01
-9.447185530550798376e+02
1.090251210939681187e+03
-5.011778750781975759e+03
-6.671798347777901654e+03
