-2.275010307672866020e+03
-2.233306633870359292e+03
5.677028265679215480e+01
5.612535097126166193e+02
1.331967550865485350e+02
1.766307560018233573e+02
3.425329647541805684e+02
8.089676604647148395e+01
9.575831229677011436e+01
4.001749196724144326e+02
4.622326760539892803e+02
4.070786880260820340e+02
3.798120540564856356e+02
4.623514018700631141e+02
9.214911987165895653e+02
8.452560165345860241e+02
1.018892554261236000e+03
9.143125003238087629e+02
5.923928384122375519e+02
3.885754020959612376e+02
2.048366366947543042e+02
3.589844582451660813e+02
-1.088845766560226451e+02
-7.035961809399547917e+01
8.851929148357113490e+02
1.024724434627869414e+03
1.026509164040610813e+03
9.062180807917466154e+02
9.770485328604337383e+02
7.726905251705009050e+02
-1.305208714516675741e+02
7.680262466028020754e+02
1.116407675855279422e+03
1.159310687661428119e+03
6.415788874146660419e+02
6.178405489799798715e+02
6.054225738988365038e+02
1.309334041226935824e+03
1.594563168776910743e+03
1.506174451646250645e+03
1.341969435936056470e+03
1.329652796623376162e+03
1.451598499064457656e+03
1.211201996074788440e+03
1.077597139994206827e+03
8.541994911694948769e+02
9.147374848361475870e+02
1.020385660321388514e+03
1.046413014065905600e+03
9.295208827145588657e+02
1.240745417249611819e+03
1.378227068926807078e+03
1.190932757903353149e+03
1.157727748419614727e+03
1.301642777133528625e+03
1.230743542238825285e+03
1.078972447850230310e+03
1.212333224831920688e+03
1.167855422652721018e+03
1.245540560719754694e+03
1.376381076926423702e+03
1.295357867667508344e+03
1.400503423656623227e+03
1.149811659880318075e+03
1.042296804596926677e+03
1.104964521113092587e+03
9.357979598900566316e+02
9.187796620553497178e+02
1.004912768202232542e+03
1.259200555356510677e+03
1.332620224041600977e+03
1.413202168726809305e+03
1.091981638914187215e+03
1.039861104277701543e+03
1.048829834125477419e+03
9.669292784274557562e+02
7.791973187815109441e+02
7.295811619831183634e+02
9.080481049505881401e+02
1.125658088828366544e+03
1.139378549196190534e+03
5.362164663384915002e+02
-1.843856433698321780e+03
-5.187849541373918328e+03
-3.895743347257651749e+03
-2.663553721119225429e+03
-2.312290802809056458e+03
-1.578935748393188760e+03
4.155971218259584816e+02
-4.211813370127704729e+03
-7.335145198289813379e+03
-6.956428236745477989e+03
-7.247415265158168040e+03
-6.786287514133791774e+03
-6.395228623060517748e+03
-2.659109314618688131e+03
3.869899263038296908e+02
-8.939767768862008097e+02
-5.284933081754539671e+03
-2.515852827795064059e+03
3.227496104992694370e+01
6.224360937348653806e+02
1.497646105367066639e+03
1.139877259047655571e+03
1.028096361945380977e+03
9.353138091662042370e+02
9.495891453246765650e+02
9.318628786308819372e+02
1.366132863438963795e+03
1.448416752046320880e+03
1.119718441604764394e+03
7.820304268004148298e+02
8.623171682793878290e+02
8.326167746400656142e+02
7.258771858160303054e+02
7.441241217538280353e+02
1.091390297785303801e+03
1.274681028039835383e+03
1.941000794312294147e+03
1.859335217968207417e+03
1.355722886871428273e+03
1.047210267578606818e+03
1.022717258091392068e+03
8.983006325259834739e+02
8.249771880122953007e+02
4.337299259374651683e+02
7.065056571203053863e+02
7.913238852374445287e+02
3.322255703818730694e+02
1.418092462562022860e+01
2.982255620920611818e+02
3.943298333061579228e+02
5.815318555296950080e+02
2.477937370841873417e+02
1.011475939429851678e+02
5.295800806054199938e+02
4.060988650221421494e+02
4.797249767972221548e+02
3.284656787674456950e+02
4.273385416518009947e+02
8.334908372626449591e+01
-1.934528291778007940e+02
-4.511907427348072588e+02
-3.572668624471318566e+01
1.971085738036537691e+02
2.281321233171546794e+02
5.614791320230125393e+01
-8.783789094536041375e+02
-2.868326813688367452e+02
-2.686760611739622391e+02
-1.376523143251461761e+03
-8.181085088185420773e+02
-5.302809856513462137e+02
-1.101328813648968435e+03
-4.278298244730387978e+02
-3.479767779312213634e+02
-5.867359780372909199e+02
-5.451391897132940585e+02
-5.111908027174717404e+02
-8.408725557636321355e+02
-6.981329275902763811e+02
-1.500130563981479099e+02
-3.854314913084861018e+02
-1.603246694625872237e+02
-3.306919715786145844e+02
-5.545376124563771327e+02
-3.888997784796176802e+02
-4.357602059486992516e+02
-7.771097067813765307e+02
-1.197903239359454801e+03
-8.191311406455382667e+02
-6.047593006262305835e+02
-4.908554152258947738e+02
-4.353820274787496487e+02
-2.022752201916971728e+02
-2.105339737907191591e+02
-1.131650662926932966e+02
-1.891780639584684707e+02
9.446139768042758078e+01
-2.472301727638586044e+02
-5.672809411670964437e+02
-5.236819007739388780e+02
-3.243894708233541451e+02
-1.103898026048295407e+02
-1.686628958853352458e+02
-6.422267159416567210e+02
-6.870882688827060747e+02
-1.322065933898332730e+02
-2.963340459502693847e+01
3.465533558676591497e+01
1.607016731411302146e+02
9.549345173392174502e+01
3.296534122346069751e+01
5.017848194467700296e+01
-1.888572580521999669e+02
-2.221116252478530555e+02
4.342414062033362399e+01
2.017567714780347501e+02
1.888551197952726284e+02
3.066565249901618273e+01
1.142564767810688267e+02
2.156519546649468566e+02
4.676366485710224907e+01
2.165930549773156599e+02
4.514779461537628436e+01
2.844666784677218061e+02
3.434556537071197226e+02
3.061827698999334189e+02
1.836036483634594845e+02
3.706809647405342503e+02
3.474740650746971369e+02
3.819061058937211897e+02
3.669434330894422374e+02
2.816038480080400745e+02
-1.090702246873722174e+02
-6.021080112821573493e+02
-8.051442420907282838e+01
-1.015586735835434297e+03
-5.219818455461662552e+02
3.422690774129889633e+02
4.172105343077039379e+02
2.379905957107156382e+02
2.593540661779600782e+02
4.723415671297591416e+02
5.946973239627714065e+02
5.806476656194946599e+02
8.232661796924747932e+02
8.684663177030223551e+02
8.808376449989639241e+02
9.375293091104789482e+02
8.238285107116106474e+02
7.406602607235855658e+02
6.597635402984500388e+02
5.972667844179403573e+02
8.651297441682345379e+02
1.039844741117383364e+03
1.302126969378191689e+03
1.337733633368452047e+03
1.245643834683777413e+03
1.194346991806578444e+03
1.028513857905016039e+03
1.229177311477683816e+03
1.642666149146583393e+03
1.795127916084419439e+03
1.900379445722311857e+03
1.686720851007750753e+03
1.703009000744286368e+03
1.593396193140694550e+03
2.012919731418888432e+03
1.890972822555357652e+03
1.497094531752201647e+03
1.805006621815737844e+03
2.175019083151015366e+03
1.932834935890136194e+03
1.819456895104420255e+03
1.743978325146994848e+03
1.521290522367055928e+03
1.371441765751514140e+03
1.644288075692956681e+03
1.781796948486401106e+03
1.881919938767727217e+03
1.988595718009977872e+03
2.105717575241934355e+03
2.127254858851191784e+03
2.161202314005493918e+03
2.220558313293045103e+03
1.843293844629959949e+03
2.036401218868623118e+03
1.130857041718198161e+03
-6.563498022270582624e+02
-3.975270658226440446e+03
-4.069977512187650973e+03
1.019564933830197219e+03
1.810326204984992728e+03
-1.573669466459302839e+03
-4.970443628752609584e+03
-5.759993694179685008e+03
-5.084323816012652060e+03
-4.487457798509219174e+03
-4.597340407109722946e+03
-5.992152413699976933e+03
-6.155825677285124584e+03
-5.401354008454859468e+03
-5.171709538552456252e+03
-3.258939600132822306e+03
1.511958335294465314e+03
1.544987652430050503e+03
-3.303843866278358746e+03
-4.863617433647825237e+03
-2.557290923184546500e+03
-2.077863971564921485e+03
-4.902320250450407912e+03
-5.164680743837418959e+03
-5.250932065507278821e+03
-5.043143850327898690e+03
-4.560343907162870892e+03
-4.542521034500139649e+03
-4.486652289448720694e+03
-3.391744080007364573e+03
-8.308088372036376086e+02
2.485202366117807287e+03
1.730277164873196170e+03
-3.401582764783783659e+03
-2.271349147784010711e+03
3.986380214300206060e+00
-4.125426510489785983e+02
8.306382342095483295e+01
1.189737951025248549e+03
2.159531556070227907e+03
1.934512489647618850e+03
1.798700613360250600e+03
2.285059199402111517e+03
2.166670711557936556e+03
2.068516816603668303e+03
2.236598121057666958e+03
2.073954465629713013e+03
2.006622022526484898e+03
2.057603960771004040e+03
2.074879564823118471e+03
1.715483633836104673e+03
1.539460664613945482e+03
1.803824359074428912e+03
1.974611380368525261e+03
1.928862303651246293e+03
1.785591993650054292e+03
1.623803393759499841e+03
1.417433312087111517e+03
1.418564277632124686e+03
1.786259426414496602e+03
1.726587751917463038e+03
1.527530029276985715e+03
1.120033987424715406e+03
1.641147858724927346e+03
1.911883514149563325e+03
1.519248379946774548e+03
1.616225264152477848e+03
1.628856685433854409e+03
1.533042252527923210e+03
1.116784883246418076e+03
1.204677518005942147e+03
1.269090706383623683e+03
9.161990987696134425e+02
1.302072965717660793e+02
-1.656481771896944224e+02
7.656047966865821763e+02
7.730068216232240275e+02
7.269991688668005736e+02
2.245968862932029992e+02
1.135571832589286032e+03
1.374991100552692842e+03
8.568288715307297707e+02
7.370810539953301941e+02
5.721774753787643704e+02
3.869216331983226382e+02
1.870113193623434995e+02
-5.607711213200786915e+01
1.343487821071914539e+02
4.078408677320022093e+02
4.894957464837635257e+02
3.522528159318599705e+02
1.262270574947685020e+02
-1.314770868746622057e+02
1.761519776575732124e+02
-1.194610618193434526e+01
2.621750829513669601e+02
4.035040093636990264e+02
4.051143485712360643e+02
2.130165653241506618e+02
-4.794914573410698821e+00
1.617336192863951112e+02
-3.633499766210996427e+02
-7.800487954837609550e+02
-1.102315992650788758e+03
-1.388124079717195855e+03
-1.159463793166267806e+03
-1.273475074408442424e+03
-1.309115985682887640e+03
-9.633790124461659161e+02
-1.038314125919023809e+03
-7.509162908252466195e+02
-3.881352553141872477e+02
-5.898079868230484379e+01
3.157894656575183134e+01
-9.450173009962809090e+01
1.671114335495262893e+01
2.222122415421061703e+02
2.640212362677734177e+02
5.491291127491781481e+02
4.305301914433319439e+02
7.319424248215348427e+01
3.881070524901016370e+02
2.912878062818758167e+02
1.667646416217590968e+02
1.435846103173408892e+02
6.435558573045442321e-01
-5.046955940212093594e+00
-2.904878923145620320e+02
-1.475750173830130336e+02
-1.710286987918668274e+03
-1.966616903360698188e+03
-5.677084811637189432e+02
-7.896610915377042375e+02
-5.580483825019503456e+03
-6.994127642277953782e+03
-2.050505471075831338e+03
-7.277974513364843006e+02
-7.149649585184965872e+02
-3.998982320962979884e+02
-1.124790142564973848e+03
-3.082365421531397260e+03
1.214405733248602957e+02
2.243625790821681392e+02
7.454664737593058135e+02
6.727440462626125282e+02
5.741275340148093846e+02
3.375050486899855855e+02
3.094235149800823592e+01
-1.011539633249248709e+03
-1.079022319015519770e+03
-1.824721609078915208e+02
4.070924813311752359e+02
7.997286931187483106e+02
6.263122500921850815e+02
3.287308931684661388e+02
7.425458023709523125e+00
3.152452586426865082e+02
6.421514410623070717e+02
9.120045515845164346e+02
6.097403807157053279e+02
5.323639071274627668e+02
7.089417571890228373e+02
8.854424867775728671e+02
1.064831074031723801e+03
8.800951380250628517e+02
9.623482458274130522e+02
1.155658888296695977e+03
1.047911045750001449e+03
7.239364081696858193e+02
6.436695650184188935e+02
8.461355336293044047e+02
9.823717456490231825e+02
8.554220838093235670e+02
7.683185952071106612e+02
6.590563032544180260e+02
4.405316193376061165e+02
3.347064499348442723e+02
9.625982931943036647e+02
9.091220996434594781e+02
3.365785079396557080e+02
2.356499632527687424e+02
1.926886444677056147e+02
5.752052381125559322e+01
1.820614758085217204e+02
5.512586025571855544e+02
9.320595119457553892e+02
5.594644612360277733e+02
7.143650347738465598e+02
1.281065534598034901e+03
1.392406900387248243e+03
1.202653933642605125e+03
7.175299316694070058e+02
4.770432792800958168e+02
6.303430380203510595e+02
1.011448756435258815e+03
1.282404051516395384e+03
1.065141718404691574e+03
1.523535357848847525e+03
1.443531274050328420e+03
8.500889217915774907e+02
3.022330950265358638e+02
8.109957346253110018e+02
2.535918267252226244e+01
2.134650902386795224e+02
-2.827764288994404524e+03
-2.551061311609509175e+03
-2.402534027889587378e+03
-2.006406819129841779e+03
-1.967622073487405487e+03
6.409475521218671190e+01
-3.884002046048570946e+02
-2.811317837206326203e+03
1.329340590962678981e+01
1.533571617176721247e+03
1.132531161874730287e+03
-2.962826069859462677e+03
-4.126451235168441599e+03
-5.092925575168080172e+02
2.306686596527089932e+03
2.164457407770341433e+03
1.977995451098353442e+03
-4.726112707698858912e+02
-3.730454782240795794e+03
6.414545963688776737e+02
-1.331832902728069939e+03
-2.372890140702094754e+02
-2.958926491144311058e+03
-3.033676710551238557e+03
1.804972380762348791e+02
3.165220374846435902e+02
-1.696714234355614508e+02
-4.437027123937325996e+03
-7.524516829350599437e+03
-7.593108087306944981e+03
-7.017772090950260463e+03
-6.249483745604586147e+03
-2.355347897729022407e+03
-2.344282659391868037e+03
-5.701147908093274964e+03
-3.483044923979013674e+03
-2.903075195707459443e+03
-1.740224272417592147e+03
9.575947886830947553e+00
9.763700592931052142e+02
7.124091580847668581e+01
-1.658314731406551346e+02
2.398144862040751832e+03
3.800201378873990507e+03
4.064370499171472602e+03
3.716673758165855816e+03
3.377075626661510341e+03
2.732719556914241366e+03
2.521609751732672521e+03
2.560584688604142684e+03
2.625666483266806608e+03
2.571898912819508951e+03
2.689407551705271999e+03
2.540293206941484186e+03
2.106703418696570679e+03
1.800415053560741626e+03
1.532009828659920686e+03
1.497746558280930003e+03
1.074042564640266619e+03
8.590404950405802538e+02
7.125746691070498855e+02
7.735656121496840569e+02
1.115877538811012528e+03
-4.005023543295577610e+02
1.756978066664858318e+01
4.207321845619559753e+01
4.969064098022780058e+02
3.669875528083929908e+02
5.720625051473599569e+02
6.640823707616516458e+02
2.765765550435343201e+01
1.601711075688926655e+02
5.874380731756708656e+02
9.171804072312212384e+02
9.193988586297663232e+02
1.137641824090006367e+03
1.656654721656880383e+03
2.249896137898179404e+03
2.283456188204849241e+03
2.080667167472850451e+03
2.003677036118875321e+03
1.916552707467883920e+03
1.734818614780480630e+03
1.716252520356497143e+03
1.490419326027717261e+03
9.658980199376331939e+02
8.925220395408863396e+02
8.728258354222086837e+02
1.133356793959148717e+03
1.146248204437411459e+03
5.184337521673394349e+02
1.558015331480245322e+02
1.113746260494612272e+02
2.862610916602802718e+02
-2.455864143949376910e+01
3.278763239190383274e+02
1.524865301108043241e+02
1.245411684201945768e+01
-2.821251307097300653e+01
3.344438407402299731e+02
6.743132644033205452e+02
2.934401221918183751e+02
2.398324615605665429e+02
9.753944977844314224e+01
-8.146760625075886253e+01
1.037115190640439266e+02
3.440207816252164434e+02
7.025779486343117242e+02
1.018458513915320850e+03
4.096767617328189885e+02
3.401599002167864683e+02
8.708254690691823043e+02
1.739670223335154787e+03
2.499743847005129282e+03
2.440957024259158061e+03
2.621268814772445239e+03
2.525642009922891702e+03
2.288067338601686970e+03
1.655560724859626816e+03
1.208104408223420251e+03
-1.431269755779260095e+03
-6.022615636184659706e+03
-6.138888859929787941e+03
-3.174131722101528794e+03
-6.866378244998222726e+03
-8.711553458638059965e+03
-8.782561223617658470e+03
-9.080451540261859918e+03
-7.396336781578442242e+03
-7.078297084144409382e+03
-6.235393723188526565e+03
-5.207306868813340770e+03
-3.917308524554504856e+03
-1.990251598293831876e+03
2.689249043151771161e+02
-9.808683211218429960e+02
-5.544703468354562574e+03
-6.174548139661203095e+03
-4.674406582300642185e+03
4.856682564191092979e+02
9.176817994367939946e+02
9.195202637346275196e+02
3.592561239183929160e+02
-2.271170665440407959e+02
5.563394175401990651e+02
1.544640523275455280e+03
1.870740042160806070e+03
1.295697594959830667e+03
7.945330634069013058e+02
7.441541798767282216e+02
1.674837809580588441e+02
-9.274510504595397151e+02
-1.260639093078527367e+03
-1.241013707761536807e+03
-1.496543601828232340e+03
-1.120224478404033562e+03
1.119092748889884916e+02
1.665786953984495085e+03
2.241361176150317988e+03
2.789666730821575129e+03
3.003773198639399197e+03
2.620655178674662238e+03
2.459311488791190641e+03
2.852685356251885878e+03
3.259755816242901801e+03
3.850459722220567073e+03
4.731730522633753935e+03
4.795548301209852070e+03
4.179870923628646779e+03
3.783723014548999345e+03
3.901144286384853785e+03
3.898115651389439790e+03
3.687680208460406902e+03
2.677794684163085549e+03
1.887364809669807073e+03
2.082426210078344411e+03
2.554983193738451519e+03
1.967027006452166006e+03
1.223666830918105461e+03
6.449146882437344175e+02
1.015733092758590146e+03
1.938955887485920130e+03
3.343735199789882245e+03
4.021073883700187707e+03
3.502824955635215701e+03
2.681988435946278059e+03
2.264018300054209703e+03
2.145774056828661742e+03
1.216694801390462999e+03
1.938768416535727397e+02
-7.956082167329960839e+02
-2.927430718064579196e+03
-1.639345029383373458e+03
1.484293991080031390e+02
1.973467841093104482e+02
8.706534249868001325e+02
1.444403262121361195e+03
1.697643926714710915e+03
5.903959576019757378e+02
-1.313840438949844724e+02
-3.767125643338054175e+01
-3.414491714439014345e+02
-8.929020536805414849e+02
-1.155986761657891066e+03
-9.034119676124659009e+02
-2.340309324448097414e+03
-5.253463768168217030e+03
-2.577079244958109939e+03
-1.534189846680007804e+03
-7.618443269873650934e+02
-7.040367488491592667e+02
-1.480774697928013438e+03
-2.296982571497357185e+03
-2.235689942242994221e+03
-2.196891687278216068e+03
-2.737566261037826280e+03
-3.326668270133493024e+03
-2.450203470361095242e+03
3.178136882055763408e+02
1.657339111391018378e+03
1.019397390159089127e+03
-2.269057637333324919e+02
-1.101519905356350591e+03
-1.457470044878702993e+03
-1.420820313100958401e+03
-1.321476278907662618e+03
-7.153548274533327458e+02
-5.574519618444229536e+02
-1.211786596855916969e+03
-1.711370718977375645e+03
-3.423232914393342071e+03
-1.325287332721925168e+03
-3.223520296347202930e+03
-3.169327230972180018e+02
6.544900462256658784e+02
9.628021889398581834e+02
1.048935901509514906e+03
4.048519152722097942e+02
-5.414716039266573944e+02
-3.528926157837028768e+03
-2.624532901647305607e+03
-3.736335127016697697e+03
-1.575264579483044599e+03
-2.454285166128404853e+03
-3.869344553049156730e+03
-3.035439747137384984e+03
-1.835647197618823384e+03
2.570375161878209269e+02
1.866669218272365015e+03
2.464330883988358437e+03
2.231931090875254540e+03
1.387498244241436851e+03
5.770812648779307210e+02
-1.392950886384774378e+02
-1.809709252739519798e+03
-2.206009535226313346e+03
-2.773996215139221022e+03
-1.369286385674837902e+03
3.685394941483968410e+02
-1.255078875497934945e+02
-7.651426173766213878e+02
2.070493542830630759e+03
3.767210659246647083e+03
3.040109478767348264e+03
1.236428423352916752e+03
6.857816107862324770e+02
3.952285820122820041e+02
-2.650774202136956887e+02
-5.667791601715489378e+02
-2.740813111795432064e+02
2.996132102751047910e+02
4.803105545740959883e+02
1.842255912520569439e+02
9.503984763511856499e+02
8.470314847008653487e+02
3.632528735940755382e+02
4.784893763206803214e+02
6.621962463206326674e+02
3.840945064166538714e+02
8.885197992463440642e+02
1.754347060670799010e+03
2.054275398041980225e+03
1.588510848691724959e+03
1.417153689625203242e+03
1.412583590139135140e+03
1.315764722703741882e+03
1.662427207633694707e+03
2.139542913370027691e+03
1.678088867860172741e+03
1.517745745918277407e+03
2.800819053689324846e+03
3.586582058127555229e+03
3.101589860086568933e+03
1.809988577855187714e+03
1.032733897357047226e+03
4.927297412745051588e+02
5.969907743211787192e+02
2.616929389315811250e+02
8.779136167502485932e+00
-1.530269780832105084e+02
-9.566591757543965002e+01
1.339435848576749208e+02
-2.481481398407853760e+02
1.091037828238561133e+03
2.735462980779249392e+03
2.355465566595543805e+03
1.461833973486152217e+03
1.398495443191912727e+03
1.629462970531610381e+03
1.837732043476937179e+03
1.613348669790647591e+03
1.093356684799175810e+03
8.347587940542606475e+02
1.315446889183518522e+02
4.165716118072577245e+01
8.661415550353268600e+02
1.764974959796561507e+03
3.366116690789087897e+03
3.493572941057101161e+03
2.680298895507113230e+03
1.993480964338200010e+03
1.931977256644895533e+03
1.460832022409772208e+03
-8.599830826330243099e+02
-5.447426218438264186e+03
-7.948680062844824533e+03
-7.036521810728178025e+03
-6.669880037903859375e+03
-6.210901015694449598e+03
-5.236633889590079889e+03
-5.704143127921521227e+03
-2.410409771892042045e+03
5.816056473462843996e+02
-3.375134419271909792e+03
-6.845608906342462433e+03
-6.044860714347759313e+03
-3.275906712632037397e+03
1.405221418192268402e+03
1.894521475310753203e+03
1.548016357451480644e+03
-3.549287079039820583e+03
-5.930421040201968935e+03
-2.639537135975845558e+03
1.402664544292995970e+03
1.880975641854212427e+03
1.735492404275797753e+03
1.702426720873538443e+03
1.024579143246879767e+03
7.078478892964226361e+02
6.944007417590083833e+02
4.991304721050112221e+02
5.029907276878635116e+02
-1.244014071243102535e+03
-7.718350192336101827e+02
3.544796413483330184e+02
8.888829628253020019e+02
1.193451801175705924e+02
-5.137778764718551550e+00
1.343684177670463775e+01
3.750396601442771498e+02
6.547456490101454847e+02
1.715206605905970321e+02
-1.223726886896195992e+03
-1.427981916387854881e+03
-6.132267325544733012e+02
7.085117177456155559e+02
1.376301098185795354e+03
1.373087404910142368e+03
1.943801401389488092e+03
3.129365349497300485e+03
3.312781903031662296e+03
2.779112647117582583e+03
2.786317324797291803e+03
2.656414475526667047e+03
2.104418411027077582e+03
1.804358375910400127e+03
1.968220049144048744e+03
1.411237521451612565e+03
1.059602263324834439e+03
6.689704616511876338e+02
-1.879301577026331813e+02
-5.615882388386053208e+02
-1.370567442030639711e+02
2.445101051462535793e+02
7.630759559610746692e+02
-4.966610740770756820e+02
-2.953495528274450862e+03
-1.877312895619327492e+03
-2.658038642500521746e+03
-1.944965928853499008e+03
-8.722063985911064492e+02
-2.688604891010585334e+02
-4.736448550175595642e+02
-1.612638678467687896e+02
2.869929104385767573e+02
1.529512604822151616e+02
7.351352930998608599e+02
1.619854705786373188e+02
5.046452928734801162e+02
7.790546981890668121e+02
2.563525205128451603e+02
-1.317117163235164128e+02
-4.842187484151003787e+02
-4.380910874880006531e+02
6.387412218972838218e+02
7.662725557475953337e+02
-1.725303746748363380e+02
-1.078632125728702249e+03
-2.024992417202257684e+03
-1.681668288253682704e+03
-1.466673678471952144e+03
-9.819512504836382050e+02
-6.985753854759459500e+02
-1.260633422233203873e+03
-1.949165422282692361e+03
-2.554138033676820669e+03
-2.094539898111455386e+03
-1.233347961412880068e+03
-4.165009491226321074e+02
4.159903679805965453e+02
1.538035995379774704e+03
2.295620641380766301e+03
2.248759049348248936e+03
1.794420585832087454e+03
9.976626448269167895e+02
6.185327974332864187e+02
6.910926341490130653e+02
9.573318770616916709e+02
1.624231629413958899e+03
1.625819142969505265e+03
1.116168608721648980e+03
6.452722736615057784e+02
1.270627871678967153e+02
-4.955219175676794521e+02
2.286540528144222151e+02
1.569656669406929950e+03
2.484488959373722992e+03
1.776020662367315026e+03
1.005194190400858133e+03
1.348985975597847073e+03
1.777484542462502532e+03
7.137336909310333795e+02
8.481323750085337565e+01
2.067267621206507329e+02
-2.550710554875634362e+00
-2.020915320162124772e+03
-4.890305110092685936e+03
-3.365766417028323303e+03
9.928137839854776985e+02
1.615183293069496813e+03
5.024778621892837123e+02
-3.693165268301419815e+02
-1.502869139685919038e+02
1.965419411242609726e+02
8.654037839130975271e+02
8.512599105579662364e+02
1.000104508292974742e+03
3.449604068848945531e+02
-2.334201695106401985e+03
-4.024334229153217166e+03
-2.131426229168506779e+03
-1.784535935426434889e+03
1.143501809751279779e+03
1.645829665850406400e+03
1.596034848112770533e+03
1.449189448067987087e+03
1.373327115258185813e+03
1.086495777826083213e+03
1.058799496421846698e+03
6.702404994210677387e+02
4.237606544735480725e+02
3.433749883931143927e+02
8.301249640828356178e+02
8.170364142201631239e+02
7.309856378942669153e+02
-1.920950742462225591e+01
-1.133457903298116435e+03
-1.512591071775384080e+03
-1.222558379109165344e+03
-1.054373039197718526e+03
-1.999074837323574911e+03
-2.332669289440113516e+03
-1.726173869006225459e+03
-1.132615853685397951e+03
-1.012943152847963461e+03
-1.152088358958909794e+03
-1.033050131728274209e+03
-5.077565743648560215e+02
-5.174645980575147632e+02
-3.038592159174587550e+02
3.665953644553809454e+01
9.531938279253303108e+02
1.249838445997577765e+03
1.220585669131329041e+03
7.904919645914516195e+02
7.686073645544001920e+02
7.991291619386394132e+02
5.767755678810922291e+02
6.666857770006731698e+02
7.475639907369790080e+02
9.756533254380725566e+02
1.284053500607897149e+03
7.915788161564082657e+02
3.521892646430908371e+02
3.517615005979652665e+02
8.132818831320951176e+02
6.658026080535867095e+02
1.193394617092734080e+02
-7.778918443532354559e+02
-1.919954274627898030e+03
-3.582834611574981409e+03
-5.271391596784364992e+03
-3.719757303986971237e+03
-3.929168396325380854e+02
-1.431036810085228126e+03
-2.884184277415546148e+03
-3.512014522618231922e+02
3.449517655289608342e+02
8.960231667851757038e+02
3.280358994327949063e+02
2.581915457129609877e+02
4.155651894986356183e+02
5.121023666539076658e+02
7.077792437400991048e+02
1.168602480107166684e+03
1.198578338550557191e+03
1.046668555274822211e+03
8.748372451890361390e+02
6.930573398756877168e+02
8.083742313355432998e+02
8.127692936564722004e+02
8.092910116779650025e+02
1.180964910946254122e+03
1.367713802797977451e+03
7.864522393188998421e+02
2.674244958112100221e+02
2.854854496031681492e+02
4.655223975604148023e+01
-3.343237527016580657e+02
-2.040657122153374701e+02
4.372917945962392992e+02
9.467283402796795144e+02
6.072165877521681523e+02
5.737252634564065374e+02
6.252822659103230762e+02
2.759377175445442276e+02
4.526337312659071017e+02
3.302425789126401696e+02
-1.652008041749023448e+02
-1.055972321030644991e+02
2.511448128227350765e+02
4.079988035438345264e+02
3.289312705808799251e+02
6.699332783229687038e+02
8.580333111481544393e+02
5.872235345031310771e+02
3.634810357203112972e+02
1.897995462462858711e+02
-3.985956998895869674e+01
-7.764430081887543338e+02
-2.840103274534545562e+03
-1.818982083945450370e+02
3.993194722152518921e+02
1.226311665692595341e+02
-1.820520164930138662e+02
-4.397260069936136802e+02
-4.053982880637933022e+02
-1.220705996871393921e+02
3.363084577489800608e+02
7.627296683810225204e+02
7.282510863364091165e+02
8.748198318022325566e+02
9.143393082721669316e+02
4.367068402048157054e+02
1.827881404005305512e+02
-3.752733099801847061e+02
-6.090822163859412512e+02
-8.945894112214465395e+02
-9.351718511967912946e+02
-7.744824988419503597e+02
-5.015420859636036539e+02
-2.385189687086839967e+03
-1.561622699401354794e+03
-2.800596493955618485e+02
1.195963917491642690e+02
4.313145364778890780e+02
-1.882632645570371821e+01
-5.586187871506976990e+02
-3.047051963857228429e+02
2.199250399449072901e+01
1.112054497674926324e+03
1.450317810932692055e+03
1.448700121121174789e+03
1.186874194895747905e+03
8.836991022614308804e+02
7.862825147876777692e+02
1.029986622564477329e+03
7.099951767045570250e+02
-2.300865860079720278e+03
-1.255039313802869401e+03
-2.827645342228862773e+03
-2.994501619702499738e+03
-2.145162169141721620e+02
-2.567181254304865092e+02
-1.539069762207826670e+03
-2.945775791823634222e+02
1.467398475654862864e+02
-4.060980784849186875e+02
-1.521058490873795961e+02
4.638506430897053860e+02
6.916227688979397499e+02
5.301393972607085061e+02
5.424631373739566698e+02
7.276887695206460194e+02
3.207534437492510051e+02
-1.884677167068843460e+02
2.710754277816371314e+02
4.214545937424690578e+02
-1.692812229065606289e+02
-4.427939016072003824e+02
-1.692597624592975762e+02
-1.990328575566867286e+01
2.052187649423493951e+02
3.581921670968437184e+02
4.359966706431250714e+02
1.256095829012088956e+02
9.972340882923244720e+00
5.411520180015205028e+01
-7.486216521910370147e+01
-1.609944084213604754e+02
-1.652128238305878369e+02
-2.145251582547342650e+02
-3.299662643754269880e+02
1.104737519728031288e+02
3.129051622011440372e+02
9.230512775349217236e+01
-7.336063030737250301e+01
-3.331271864978667168e+02
4.061507283223137144e+00
1.043886850150346959e+02
-4.242029747611372841e+02
-2.903650710532490393e+03
-4.199984386869548871e+03
-3.265125573563240778e+03
-2.951565915822895363e+02
4.500016302532264234e+01
2.051930518256816072e+02
7.437681150837462951e+01
3.235635698943586362e+02
4.428391156727831799e+02
1.911802056080952354e+02
1.356640258335863081e+01
-1.915914419855426331e+03
-2.426318355864618297e+03
-1.338549388957156680e+03
-1.485693401684563241e+03
2.342115679798147596e+02
4.413097729351246699e+02
8.062047532878388267e+01
2.411062009843965654e+02
4.487397675979484575e+02
5.944081910332580492e+02
7.632137548970217722e+02
8.412680497171241996e+02
7.226190943934489042e+02
4.182987107289885671e+02
2.051775686008410844e+02
4.502604125801566397e+02
4.374755315265524018e+02
3.728781885334860249e+02
4.905682821293281677e+02
3.195469800592182423e+02
3.758377453821083805e+02
4.833415173138204750e+02
7.730325816528477390e+02
1.117903915552029730e+03
8.599314380177652311e+02
3.760610574070731786e+02
2.563021438131021910e+02
1.227491153866416056e+02
-9.356006305601643191e+01
-6.406194660524686242e+02
-4.494514258397322237e+02
8.991075825015113310e+01
2.844284051619903835e+02
5.610944216563761984e+02
8.059424119386137590e+02
8.860100703945195164e+02
9.373671048984249410e+02
4.019826442635293233e+02
3.658638274782554163e+02
8.028965253805190514e+02
1.301007548291922376e+03
9.822168601878044001e+02
4.396451059152994958e+02
1.712708117937791314e+02
4.770108258859905845e+02
2.999837499661954254e+01
-6.595900783099101261e+01
-2.532282382528599385e+00
-1.638379410184729181e+02
-6.493996749158280579e+01
4.483357630263486158e+02
4.485928966663738038e+01
-7.096440642484312775e+02
-1.724982555826557928e+03
-1.080810553367400928e+02
-4.800144924310700389e+01
-5.497559823800479535e+02
-1.624398395761604206e+03
5.802122465298639042e+01
-1.475647895817247104e+02
-4.571765351272770772e+02
2.063828355029751833e+02
3.808271208053176338e+01
2.084205466963094278e+00
2.253239891614850592e+02
1.494745029456306042e+02
2.776153812375220582e+02
1.155072389214491579e+02
1.283032533668142037e+02
-1.750193531528286996e+02
-1.904639170938170878e+02
-2.850037453306018165e+02
-2.365095791462441710e+01
-1.543587808572234898e+01
-3.928234992404239989e+01
