-8.947886480761813800e+03
-8.818910147446502378e+03
-5.508254130807837100e+03
-3.119882938715924411e+03
7.011123297156201488e+02
1.824837677977660860e+03
2.043148788571415480e+03
2.166890451888259577e+03
1.798003977458839699e+03
1.789378039560629531e+03
1.707976619170127151e+03
1.051748118093743869e+03
7.715873769715602748e+02
4.004423698992490586e+02
2.122968005107173326e+02
3.230818617773974211e+02
5.907031635425158811e+02
1.326136391552836358e+03
1.522338769778849155e+03
1.457363000641519875e+03
1.714143756113860491e+03
1.878607270227187200e+03
2.346740631360148654e+03
2.698468564841762145e+03
2.645761487519868751e+03
2.997609218433080059e+03
3.010037481778333131e+03
2.617973725177750111e+03
2.647315371110682463e+03
2.558952412445873961e+03
1.777871065374281216e+03
1.106029278092861205e+03
7.403583815107407418e+02
1.094789503653008751e+03
1.343245550041281604e+03
1.388784656613722518e+03
1.274305533261768460e+03
1.514763710151039959e+03
1.761189860766649417e+03
1.809570437919034021e+03
2.104884442983330246e+03
2.317066077856499305e+03
2.524055295725341239e+03
2.736788976630233719e+03
2.860331048903676219e+03
2.959659904898707737e+03
2.970772948606032514e+03
2.862680964907669477e+03
2.497354255155883948e+03
2.354779452737467636e+03
2.226899478208319124e+03
1.581636948020391401e+03
1.327999962305324061e+03
1.296928544014312592e+03
1.291371998884437517e+03
5.163606655657180227e+02
1.564787920744029861e+03
2.313794800090017816e+03
2.780456504704771305e+03
3.109890220731620047e+03
3.046376284760443014e+03
3.297543376720534070e+03
3.272877279163263211e+03
3.183763395013156696e+03
3.159281955598599779e+03
3.397406720195092475e+03
3.005085818811545323e+03
2.572373647231040650e+03
2.571357410426101524e+03
2.395083385052401354e+03
2.033504526959081204e+03
2.455614965210005721e+03
4.233855131354564492e+02
-3.711158193681575085e+03
-8.345050411196141795e+03
-9.087293477760124006e+03
-9.183870803195884946e+03
-8.558732656328298617e+03
-8.336793345241505449e+03
-7.711014785221958846e+03
-7.550385349081298045e+03
-7.176887232993493853e+03
-6.460533966040827181e+03
-6.532248841498089860e+03
-7.001950624094994055e+03
-6.367560006528274243e+03
-5.469033388676684808e+03
-2.952405509495132719e+03
1.733760780549851006e+02
-4.042651675482559313e+03
-6.293541406622500290e+03
-6.350286838738117694e+03
-6.468877121609751157e+03
-6.864314302423949812e+03
-7.132553077948201462e+03
-6.952477227785820105e+03
-6.089068638085895145e+03
-5.212342432372658550e+03
-5.602262172489016848e+03
-5.728832088235214542e+03
-5.412970647179519801e+03
-4.611628218236758585e+03
-7.857287339923701666e+02
4.615848459090977485e+03
4.250147541052811903e+03
-1.446831976489239196e+03
-3.120888613567504990e+02
4.289477810947717444e+03
5.011925263396153241e+03
4.865184354710306252e+03
4.895265571606499179e+03
4.417210595960518731e+03
3.930003250279646181e+03
3.677713528931758901e+03
3.451343739543603078e+03
3.189913152091872234e+03
3.085514406677367788e+03
3.174128662680487196e+03
3.240764098235224083e+03
3.432456298212219735e+03
3.785299599879749167e+03
3.683551541463162266e+03
3.919513755478706571e+03
3.584213550905779812e+03
3.495356357274414222e+03
3.547961285175396370e+03
3.827022177721846219e+03
3.666618477178488320e+03
3.570780369702237294e+03
3.553456200217643982e+03
3.268636563052416477e+03
2.822321960107708946e+03
2.122284738865795134e+03
1.102853145415243489e+03
-2.611915473776227827e+03
-1.068858538805921853e+03
1.293482650663703907e+03
1.796375709382556124e+03
1.742398136623743540e+03
2.277972055807804736e+03
2.631459874762393156e+03
2.635393655443465832e+03
3.031272339958804423e+03
2.803697180361251867e+03
2.855782522156679988e+03
2.959846017414497055e+03
2.784464446806532123e+03
2.764521210461850842e+03
2.891483484636039975e+03
2.706267180767962600e+03
2.247701073849697423e+03
1.673525958294953170e+03
9.488022913458653420e+02
6.028641474195254659e+02
3.897832781757497287e+02
-9.511126844837955119e+00
1.022108718957064326e+02
1.482378591640809589e+02
6.262684609066103576e+02
1.380857847509007797e+03
2.106869909874819768e+03
2.415190631957832920e+03
1.927845537398984334e+03
1.560812924874601322e+03
1.771106928460792915e+03
1.776742182553521161e+03
1.484727811661368378e+03
1.347068176212909748e+03
1.395738835474237248e+03
1.435688334881743913e+03
1.517899363468463662e+03
1.018385987859912461e+03
5.661178454288058219e+02
4.050479756254709400e+02
8.621754567840264372e+01
-3.924590779631799933e+02
-4.910106714923301183e+02
2.259234238529190364e+01
2.383771763649496052e+02
7.634696575595285140e+01
5.864387023340181031e+02
1.161670080070372933e+03
1.241035761319177709e+03
1.248537417746137862e+03
1.051223167364558776e+03
1.026117801729174289e+03
1.393195388336754604e+03
2.141457371499052897e+03
2.245853780675171038e+03
2.073513106800165247e+02
-3.246029716031815042e+03
-8.943284016041508949e+03
-1.030752935425201031e+04
-1.049472063998104568e+04
-9.972860288609579584e+03
-9.366961165435215662e+03
-9.313053144176559726e+03
-8.841137951628530573e+03
-6.916230853107028452e+03
-3.336326204173472888e+03
-7.019456474935628648e+03
-8.244546997315608678e+03
-7.582570376692598984e+03
-6.408562924025763095e+03
-5.907558252906822418e+03
-5.615526449977848642e+03
-1.878445104389844118e+03
-4.312323930328318966e+03
-7.431192694921252951e+03
-6.263047896165021484e+03
1.194079170233923320e-01
1.689253541383667653e+03
2.815369760374390353e+03
2.124441128515149103e+03
1.603435152497999070e+03
1.425414036094944777e+03
1.265416226717231666e+03
1.478445031788826782e+03
2.236504540012251255e+03
2.699528866168137483e+03
2.675546052644003339e+03
2.794590095195129834e+03
2.648680797946875828e+03
2.630828224124959888e+03
2.508084648005461986e+03
2.166492853427174850e+03
2.473036291499827257e+03
2.598752933618916813e+03
2.690578429082754610e+03
2.679499932372159037e+03
2.310519335542497629e+03
1.803658342134697477e+03
1.493898332737787996e+03
1.028199657794341192e+03
3.405421792856828347e+02
-4.460666484793898121e+02
-4.286443785100193509e+02
1.848535554096978899e+02
5.514826100102027340e+02
4.772549718202536155e+02
8.872390935622136112e+02
1.699493585597213041e+03
2.143004145548770794e+03
1.968783114760624812e+03
1.615826548426847921e+03
1.497177156370291186e+03
1.533800701891142353e+03
1.305695334670620014e+03
1.532770590736960230e+03
2.043981812592121287e+03
1.231472463615326433e+03
4.698348744931985266e+02
4.142985855858915443e+02
2.275227030065770748e+02
1.454214647461662402e+01
-3.916602194429298720e+02
-1.098167985021669892e+03
-1.215940992263648923e+03
-1.082900387226672819e+03
-9.493155591979769952e+02
-4.140793820929114872e+02
1.006917073797370904e+03
1.587463478647734064e+03
2.088583813253531844e+03
2.343196960114948070e+03
2.016314709927936065e+03
1.811936350269955483e+03
1.864184998979001875e+03
1.668040698993920842e+03
1.407432483040972784e+03
1.240327865425100299e+03
8.946748429582037261e+02
2.145039957468528087e+02
-3.051516775501707457e+02
-1.178333365643874231e+03
-1.249065111624608335e+03
-1.228396347872354227e+03
-8.763482820667840087e+02
-4.678556832565990362e+02
-6.199357637442841451e+02
-6.435980117209054470e+02
-7.517978906048477938e+02
1.514653374615645589e+02
8.322525481008698307e+02
1.221590632519323663e+03
8.454387231181159450e+02
7.018081805106869524e+02
4.697175977231298702e+02
5.571685746019735461e+02
3.921239204094421211e+02
1.614888877077709992e+02
4.583206941990903260e+02
-1.313726149495321636e+02
-8.776064216825920994e+02
-7.284478572595012338e+02
-5.349557387423845967e+02
-1.751399431108774820e+02
-1.009854950787771060e+02
-1.064707937885482067e+02
-1.965333780774058141e+02
9.379301670663490142e+01
3.664860737271240509e+02
6.205677796811002054e+02
6.409959473689136757e+02
6.127740398485167361e+02
9.409452241079266059e+02
1.217448812841810422e+03
1.078230408651954804e+03
1.132328470224647845e+03
8.347113759102819586e+02
2.353379851402472696e+02
-3.508156690699259457e+02
-2.175700313108602586e+03
-2.270497386395378726e+03
-1.655101046906788952e+03
-2.045556312991643608e+03
-1.853863172502570933e+03
-1.431085860273474509e+03
-9.242831794211526812e+02
-2.203369996461794358e+02
3.067828378449028150e+02
3.789938593300910838e+02
-9.579013228395329804e+01
-2.985750782064375812e+02
-1.439370535032564113e+01
-3.402220006506289565e+02
-2.960587584700581374e+02
3.869034073418262665e+02
1.964712213993278738e+02
4.188175163791544264e+02
4.375546503749430371e+02
-8.409754046332517419e+01
-7.714129866823060411e+02
-1.253520673573416389e+03
-9.884988905302996045e+02
-6.352779952004036659e+02
-5.529344142530007957e+02
-5.745556806616929180e+02
-9.671846901815694082e+02
-1.336824644816568025e+03
-7.703126022554997689e+02
-2.465885771820870076e+01
5.361373012188508937e+02
7.100112056663448357e+02
6.163959363447600026e+02
8.595433068024592558e+02
8.831399684456549721e+02
1.343968886730290706e+03
1.843632292591959413e+03
1.953041908468424936e+03
1.414163837927340637e+03
1.077874072893437642e+03
3.884607415925036094e+02
-4.618273048455644130e+02
-7.795737327157758045e+02
-1.095205789262449571e+03
-1.229546466497019992e+03
-1.563379319459633962e+03
-1.595871140595653969e+03
-9.133322127621680693e+02
-1.973297092289779897e+01
5.439386848592851038e+02
5.781753071025275403e+02
1.429833261469211493e+03
2.281962681731180055e+03
2.090427057496577618e+03
1.802974765847307026e+03
1.779438769566675546e+03
1.530830613907892712e+03
1.951258930504269074e+03
2.125788520784761658e+03
1.485278847357303903e+03
1.202692862479505948e+03
8.919133768753695222e+02
5.437497964145795777e+02
3.392893542556905686e+02
1.665543797477973840e+02
-3.535037998201561171e-01
6.386044064823493045e+02
9.923938809705419999e+02
1.157004752677055421e+03
1.166440956398696244e+03
1.137678153636851448e+03
1.333642886206475850e+03
1.453402283837156347e+03
1.284013100007612820e+03
8.024030266942125991e+02
2.578324818064642976e+00
-3.728506396857869731e+03
-4.244722864134691918e+03
-4.739062513854244571e+03
-2.276446516656371841e+03
-4.591961961881974275e+03
-3.896705607410940956e+03
-1.567385181859512386e+03
-3.812213053112045600e+03
-1.167262762093278980e+03
-4.178510958362772726e+03
-8.269689710141055912e+02
-2.540612897345265537e+03
-3.325296217941379382e+03
5.670268659869957446e+02
-4.786021193937802991e+02
-4.288087786084813160e+03
-2.575429429699667253e+03
-1.395626249543887752e+03
-1.348644419177668397e+03
-1.844462513147366849e+02
-2.607965200225645276e+03
-4.459171305680046316e+03
-2.011119971898523545e+03
7.514820745117182810e+01
-1.450296444909114825e+03
1.079543021138548283e+03
-2.921311767060773036e+03
-5.768764046367299443e+02
8.078849031161433913e+02
1.061983335009481607e+03
1.435474117258062506e+03
1.555456712564260215e+03
1.317000102813411559e+03
1.336157679278739124e+03
1.679948649743230135e+03
2.143424396149849144e+03
2.414603332493036305e+03
2.398536323700111097e+03
2.014245336563300953e+03
1.981780274256836719e+03
2.032224571007898248e+03
2.055622581713147611e+03
2.213994039329923453e+03
2.128394997142679586e+03
1.664884289788730712e+03
1.105449760189980680e+03
8.360652779436117044e+02
8.317902050888594658e+02
2.377043610743308193e+02
-1.611722339793373351e+02
-1.838349076355949023e+02
-1.062046046272088233e+02
2.408095720949050076e+02
8.552582803548384618e+02
1.138160787074492646e+03
1.486535905122710574e+03
1.470324384830062627e+03
1.294584882021215890e+03
1.401561605262388866e+03
1.463304739806577345e+03
8.790967760278008427e+02
7.260265040278759443e+02
9.084962688183394448e+02
7.259454320092311264e+02
-1.357929496287873121e+02
-6.877097820290153152e+01
-2.859587216919329080e+02
-6.580347250349120714e+02
-8.189073315076346944e+02
-5.524946941753593137e+02
-4.822480581138507461e+01
4.398450248071120541e+02
4.545115995405088256e+02
4.223197034800624579e+02
7.711338077201660326e+02
1.112306963819817838e+03
1.271809275227595435e+03
1.127912592136517333e+03
1.110601670773552314e+03
8.764678105644130710e+02
6.903993499372921860e+02
1.313594915708869451e+02
-6.226211583767366164e+02
-7.145485497923598359e+02
-8.553994405275471991e+02
-8.181710733957859247e+02
-7.308908338947944685e+02
-9.866041614346697770e+02
-1.302303488561456106e+03
-1.581935579767746503e+03
-1.835544252537189095e+03
-1.640088791897454485e+03
-1.318564026616348883e+03
-7.049757809842820961e+02
-7.029108995403714744e+01
5.654727985140760893e+02
7.453399463969237786e+02
1.036306013389216787e+03
1.253380200601468005e+03
1.481584275234110237e+03
2.079858519223075746e+03
1.898157182127972874e+03
1.629471782976685290e+03
1.505840874819969486e+03
8.262807999556366667e+02
1.070681940458436898e+01
-5.609722067386655908e+02
-8.367431303469953718e+02
-8.216104993567133761e+02
-4.916734171009833858e+02
1.910143192078864729e+02
5.564590764399600857e+02
5.426587596863947738e+02
1.130633586778495101e+03
1.386384974182796213e+03
1.338867337280275706e+03
-3.569197035309917396e+02
-3.647057812874504179e+03
-8.681620759440223992e+03
-9.198533699498962960e+03
-8.906798303282244888e+03
-9.431561130736599807e+03
-8.625880704715262254e+03
-8.506790717033834881e+03
-9.169234412219781007e+03
-9.772273262894153959e+03
-9.800970693799696164e+03
-9.822380824931946336e+03
-8.651571184345157235e+03
-3.108465976256301474e+03
-1.530213365944621955e+03
-1.248970397783477040e+02
2.913824492780896094e+02
2.546059290774012140e+02
4.117355921344789635e+02
2.211713331067874606e+03
3.376584429697967153e+03
4.042343525059806325e+03
4.146907293151834892e+03
3.569206733393647937e+03
3.537235228313882544e+03
4.164971484366346886e+03
5.016343698432359815e+03
5.250341899176407424e+03
4.506898813062567569e+03
3.588966170552575932e+03
3.281421972619528333e+03
3.039195431705611554e+03
2.543321118860322258e+03
2.107719196512578947e+03
2.038341717674104757e+03
2.497080334922404745e+03
2.964884405201926256e+03
3.409741259737490509e+03
4.037698056315338818e+03
4.240728727402364711e+03
4.489787402267401376e+03
4.530785169923616195e+03
4.092695373933223436e+03
4.429502118341501046e+03
4.899156579213285113e+03
5.201716556415725790e+03
5.154151037828348308e+03
4.432342847690327289e+03
3.293238763744710923e+03
2.497781981951224680e+03
1.893976168336046840e+03
2.225796474787392981e+03
2.374206886707014291e+03
2.339140865078085426e+03
2.787566327991438811e+03
2.835457918379639523e+03
2.979853674044388299e+03
3.633775697818924527e+03
3.976206206201318309e+03
3.814191616347829950e+03
3.689717161533410035e+03
3.614785600947202511e+03
3.371349553561932680e+03
2.979439885949266682e+03
2.455003560181439752e+03
1.492227010657474466e+03
1.996899350070248147e+03
2.112885023832438492e+03
2.496269885909997356e+03
1.905068060066312228e+03
9.272623124106903560e+02
1.391814687175343124e+03
2.633703775523228160e+03
3.382911759692453870e+03
3.722454084408976087e+03
3.637410839392945036e+03
3.183750146446269810e+03
3.697511032341977625e+03
4.481801487091559466e+03
2.685624028806872047e+03
-1.290966640995793568e+03
-6.701891926117978983e+03
-7.776230636917325683e+03
-7.534984192856285517e+03
-7.279144621321126579e+03
-7.886681118589500329e+03
-8.570559552198970778e+03
-8.411792326917086029e+03
-8.386366345712533075e+03
-9.711269234500148741e+03
-1.140149724991588300e+04
-1.275796243763134225e+04
-1.259765047573670199e+04
-1.275459790397957295e+04
-1.131675154348824435e+04
-9.517111107522941893e+03
-1.284262287733824996e+04
-1.157616747550923537e+04
-8.068726117491590230e+03
-5.077243053724639140e+03
-4.498686339922061052e+03
-4.746034615371481777e+03
-5.566195797902280901e+03
-8.034100444352721752e+03
-6.097716302585125959e+03
1.461028017556222949e+03
3.388212559134005915e+03
-1.377161468278583698e+03
-4.342059899063862758e+03
-4.087452278974786623e+03
-5.134286311589339675e+03
-6.569585320717979812e+03
-4.487314342533607487e+03
-7.213469761394263514e+03
-1.030500946694716913e+04
-9.053838230695213497e+03
-1.570960384389189585e+03
2.760659032178458347e+03
4.034166570557937121e+03
3.670631373624567459e+03
2.964103471147313940e+03
3.731678116396029509e+03
6.085338107782255065e+03
7.268132297857034246e+03
8.384178647572149202e+03
8.459474871181688286e+03
6.167086659217048691e+03
4.650081486952798514e+03
3.337433217784149292e+03
3.525071187262279182e+03
3.964996246308493483e+03
4.535244100783485919e+03
4.536324729731494699e+03
4.883688594046933758e+03
5.187745168060530887e+03
4.845046097636186460e+03
4.922994339300916181e+03
5.904943982293237241e+03
6.180952862833917607e+03
6.259244482914510627e+03
5.354635556086031102e+03
5.554449660163902990e+03
5.245603470444312734e+03
2.106178712490967882e+03
2.355905282137843187e+03
2.672173303304617548e+03
5.569808708626102089e+03
5.481903278090366257e+03
4.867497865043383172e+03
4.148952729722804179e+03
2.481029682054127079e+03
9.262571072746177379e+02
1.020461748096224284e+02
-2.956016348365779436e+02
-4.310947818787223014e+02
1.429423635196407076e+02
7.128141250816537422e+02
1.305120867313627059e+03
1.852888199274076896e+03
2.348156367707806567e+03
3.320911460568272105e+03
4.293547227366211700e+03
4.645182250611850577e+03
4.192941124870811109e+03
3.947856742674022826e+03
3.728420837075257623e+03
3.297281938822237862e+03
2.653185419253465170e+03
2.401804433397326648e+03
1.964728925284166280e+03
1.402861862102326768e+03
6.971449936929610658e+02
2.935935212287944296e+02
6.782408601754186748e+02
7.340465031335855883e+02
6.478918704832155981e+02
3.816824739753004110e+02
4.444426053617119123e+02
3.052289218548727945e+02
3.750763724830651427e+02
4.099616050379638068e+02
4.638368693895835122e+02
5.116554329790836846e+02
5.933927761001523322e+02
7.120301220639316853e+02
4.855319379273218487e+02
1.890728217285267476e+01
-5.008963663397682922e+02
-9.869407089757573885e+02
-1.062204837699374139e+03
-1.418745418309422575e+03
-1.755603681481745980e+03
-1.488805964475218389e+03
-1.220433059380342684e+03
-9.775918406443649928e+02
-4.272608786399038650e+02
-5.215129280919092025e+02
-9.293249233587372373e+02
-1.142670233225041102e+03
-3.662605581087685096e+03
-7.241156508508476691e+03
-7.146292138666963183e+03
-3.720851564910786351e+02
6.484055925109131522e+02
-5.788623506995706975e+02
-3.841799375220539787e+03
-7.460522106710815024e+03
-5.757035836510536683e+03
2.036717419141688197e+02
4.755307028531342439e+02
-3.726554625016159662e+03
-8.270664430937633369e+03
-1.828848024490077023e+03
-9.600630827181073528e+02
-2.200370596956778627e+03
-9.075853767864929978e+03
-1.087649168366939011e+04
-1.111625692417823120e+04
-7.254126410724074958e+03
-1.471123598158948198e+03
1.777464454454211022e+02
1.397461929404694729e+03
1.266078527191023340e+03
8.885720474515065916e+02
9.188777077522573791e+02
8.769795781286609326e+02
7.808202204731686606e+02
6.993645411127216676e+02
5.046347640886647810e+02
5.116230054455724030e+02
3.330337226509389126e+01
-2.993125555535181661e+02
-5.202629221373778137e+02
-1.006599533109698768e+03
-1.428372011852759442e+03
-1.427558799611793575e+03
-1.129189630712442067e+03
-7.061846922518718657e+02
2.479784564706991823e+00
9.318152489536231542e+02
1.147831987785345973e+03
1.060515513690500029e+03
7.509633751033937870e+02
7.361655590064664239e+02
8.940770994370775497e+02
9.527084758104977027e+02
7.801097745618061481e+02
9.472891602321080882e+02
9.832246511982627908e+02
5.359278705086616128e+02
1.813706027096529567e+02
-3.546638726989853296e+01
-6.245774921208620754e+02
-9.708861662207834797e+02
-7.784556471369835435e+02
-5.932482424869831448e+02
-2.301672921433689964e+02
3.794126749268407650e+01
2.302151499991125831e+02
5.290199972692608981e+02
1.243295663084230227e+03
1.244795295138075971e+03
7.582261328771521676e+02
1.096984491803106749e+02
3.747521612020607904e+02
-1.046149347982940583e+02
-5.033114607065421637e+02
-9.123888788384637110e+02
-1.778891092836111056e+03
-5.908764733385381760e+02
7.226058005427167927e+02
1.180661319669377917e+03
1.012983714448696446e+03
9.936179970914062096e+02
3.805703168736427529e+02
-5.661446131385929448e+02
-2.046300510964287298e+02
5.371421530155026858e+02
7.922604808949746484e+02
8.167939856727539336e+02
1.141843397643539902e+03
1.388407805270981953e+03
1.333455332612537404e+03
1.182978943701913522e+03
1.462017733626719746e+03
1.900698278110291085e+03
1.794045863329815802e+03
1.469041326664375447e+03
1.622725966952759563e+03
1.427155839559869491e+03
1.001317931990121565e+03
7.722262596089636872e+02
3.358309258799784516e+02
1.513189722240776014e+01
9.145517747726501057e+00
3.879023926802967708e+02
6.194391764884469467e+02
5.167579158808438251e+02
2.378797370727840814e+02
4.085976921022436414e+01
2.016920503369545088e+02
7.113790083985080628e+02
1.033936478438649829e+03
1.151374778088784751e+03
1.095766736652261443e+03
9.141789195992093937e+02
9.036183576310324952e+02
8.550404776847182120e+02
5.403919096374352193e+02
-1.535923285546969197e+01
-8.051703968837371121e+02
-1.837087631182361292e+03
-2.562106067649697252e+03
-2.980219306002183657e+03
-3.100518552606260982e+03
-2.328012127086484725e+03
-1.806662500558875308e+03
-7.014671186504566549e+02
-2.444130474714897332e+02
4.694781820621304291e+02
5.802373118360907256e+02
1.810878358175337780e+03
2.105370406504160655e+03
1.472652715044361457e+03
8.587074654755438132e+02
9.444714362677730151e+02
1.172979518019100851e+03
1.133239557205374922e+03
1.133110659280652271e+03
7.794913587692844885e+02
9.332549486785124415e+00
-6.353714164829044648e+02
-1.901650063550812092e+03
-2.595517663013935362e+03
-2.833029688774225633e+03
-2.969274358449855754e+03
-1.758083301844375001e+03
-2.292715321653706155e+02
7.823618464419595284e+02
1.572498734998389409e+03
1.695010792978071777e+03
1.592857934120766231e+03
1.664004361247720681e+03
2.024453366133996724e+03
2.489124069385609801e+03
2.617919420543094475e+03
2.295875686990404120e+03
2.232994917620411798e+03
1.800229844110158638e+03
1.309388037577529985e+03
1.345490450666616653e+03
8.403346740767238998e+02
7.576582626374329266e+01
-3.787137498473377661e+01
-1.039876332330819366e+02
-2.008572272964190120e+02
8.447928925956388468e+01
3.111096231314334659e+02
9.480894986193185332e+02
1.321405925938960991e+03
1.708156657182778645e+03
2.024969611567553329e+03
2.520265443456211415e+03
2.938334046013801526e+03
3.214670885314275893e+03
3.483125821512216135e+03
3.620436428181373685e+03
3.055673340181587264e+03
3.062804594867469859e+03
2.901549704267899415e+03
2.438279884664227211e+03
1.996003935739551707e+03
1.693369202734889313e+03
1.327721074183732981e+03
1.163171885168901099e+03
1.031812312779344211e+03
1.103741220284741985e+03
1.557996650884629162e+03
1.949406044524811023e+03
2.252797606359455131e+03
2.655318030508306038e+03
2.698895849527357313e+03
2.897617623017908500e+03
3.316667198855245260e+03
2.872961293257381385e+03
5.464797322018961268e+02
-3.208892596707556095e+03
-7.285167739319516841e+03
-5.945368435759537533e+03
1.641513083672006360e+03
1.994440103933933187e+03
-4.862590117287631983e+03
-8.205581819233957503e+03
-8.024515264628288605e+03
-7.923507442629645084e+03
-5.564517715279510412e+03
-6.355463351411049189e+03
-7.221272760609671423e+03
-7.050997353542064957e+03
-6.235542484963043535e+03
-5.927813872628496938e+03
-5.670976728309964528e+03
-5.100564137723033127e+03
-1.030076681069143888e+03
-7.123531146009752320e+02
-4.393319888989474748e+03
-4.791947429189061040e+03
-5.206122872143179848e+03
-5.517805288832075348e+03
-5.461972482395753104e+03
-5.802628441495240622e+03
-6.154754503625137659e+03
-6.218372581697537498e+03
-6.324486041489269155e+03
-6.380059986636460962e+03
-7.082063638048244684e+03
-6.820463106485412027e+03
-5.031260343101735998e+03
-9.354366729333477224e+02
-3.466922238057514278e+03
-5.954604650808304541e+03
-5.940401534376650488e+03
-6.233253081646116698e+03
-3.224112458834175868e+03
3.077080663963368352e+03
4.899351736268468812e+03
5.030750377036202735e+03
4.836326049881110521e+03
4.871185725707616257e+03
5.279377086381010486e+03
5.795876548803292280e+03
5.482754228182164297e+03
4.287039529791895802e+03
3.333800625258450509e+03
3.000095354592875083e+03
2.971975427189626771e+03
3.322472316547117771e+03
3.578618659192256928e+03
3.623515635634059890e+03
3.938211737059713414e+03
4.249740824413705923e+03
4.073191792288580928e+03
4.186642902218489326e+03
4.254194210622235914e+03
4.192882263499967848e+03
4.161719779176065458e+03
3.874777179126133433e+03
3.786113835540938453e+03
3.936757449220269791e+03
3.847739678045852088e+03
3.138086758196876417e+03
2.813806401851486498e+03
2.007817575660959619e+03
1.445121525475979524e+03
1.404784560609565915e+03
1.338066781764847519e+03
1.355382355847627423e+03
1.518906051214696618e+03
1.547479525520305060e+03
1.608603002940047418e+03
1.138634098743228151e+03
1.406786231152880646e+03
1.472368611424067012e+03
1.619476558544484760e+03
2.210746735384174372e+03
2.590784589492725900e+03
2.654956483045870755e+03
2.408794403267938378e+03
1.939576011791109750e+03
1.915077125269685666e+03
1.337487601519394730e+03
2.352471200341217070e+02
-4.220796875315943453e+02
-6.557422475520478429e+02
-6.338610911235379035e+02
-5.147894889056972261e+02
-4.194979090032771296e+02
-3.367893301143698750e+02
3.300000680045317267e+02
6.859308079257529016e+02
1.085028101068765864e+03
1.526285424280635652e+03
1.674751429733656551e+03
1.642374940613973649e+03
1.707130441123477794e+03
1.700050905003086200e+03
1.422109231280137237e+03
1.325332790629770216e+03
1.268710719346534916e+03
7.552293565457567865e+02
-9.408929200465289000e+01
-6.222861047993577586e+02
-1.542380449955999438e+03
-1.977454616959376835e+03
-2.035550436067995633e+03
-2.014718403431542583e+03
-1.841026920448479359e+03
-1.383444142863019124e+03
-3.009123973243137016e+02
6.585973511268800848e+02
1.206001231756420793e+03
1.154288011608943407e+03
1.273453014759006464e+03
1.437465015502411461e+03
1.343326093158649655e+03
1.478993438964919505e+03
1.427464298803372913e+03
1.390718062340929237e+03
9.527253845710665701e+02
8.434582713369012481e+02
2.368983137852667653e+02
-5.810241037962891824e+02
-8.863440830634948497e+02
-1.534128684150380650e+03
-3.307379498781097027e+03
-3.846158658156418369e+03
-1.422541175291402851e+03
-1.347579141232279881e+03
-6.902208941313652758e+03
-1.131739157997678558e+04
-1.014211377897413149e+04
-1.004346105113171507e+04
-9.096412703666266680e+03
-8.459035840698861648e+03
-8.672327537919629322e+03
-8.662205951308809745e+03
-3.717920615263408763e+03
4.124359177957186944e+02
1.125836192058741744e+03
1.470342551014893161e+03
1.152924489440219531e+03
8.026433340797228766e+02
6.054718326318312620e+02
7.127999200574652150e+01
-3.600636132766521058e+01
-1.113566533185193776e+02
-1.799343273237245855e+00
2.455969769591835075e+02
5.368628571799089286e+02
8.900092123338376950e+02
9.820629182135025985e+02
1.379962992542467873e+03
1.441704863996886615e+03
1.394278843647328131e+03
1.589677643784803195e+03
1.939859753580468123e+03
1.818833389540529424e+03
1.917604451823292266e+03
1.693147554095404075e+03
1.279485101090360786e+03
8.305741767994455813e+02
8.173796663301369563e+02
7.358382670350381431e+02
5.509861623333963507e+02
2.108713266920165381e+02
-2.295329520649715960e+02
-1.982413131144101612e+02
-1.126952755426532704e+01
2.443826396191696233e+02
2.377432332840844253e+02
3.077882542763861125e+02
5.425608106480099195e+02
1.008089079050699524e+03
9.483750623145547252e+02
1.129401570052915076e+03
7.901849125978403663e+02
8.397717499815455540e+02
9.201597171901290722e+02
8.103719444846104807e+02
1.023422361012904844e+03
8.013286475153661286e+02
3.410891807981075203e+02
-8.037642251037347307e+01
-3.960716869844393386e+02
-3.710170137514718931e+02
-6.581834193577248016e+02
-5.795854077547024872e+02
-2.690834890037587570e+02
-7.328446034193912055e+02
-2.688158998890930889e+02
9.114532839176690970e+01
4.031966844131254675e+02
5.902535391117355630e+02
7.103094999428473102e+02
8.344121711561301709e+02
1.138521968926324462e+03
1.045651020415893072e+03
1.048783885840410221e+03
6.928870003393834622e+02
5.352355585513801373e+01
7.844951869561769797e+01
-1.184410409891228966e+02
-4.281225773986038803e+02
-8.766873300640700108e+02
-9.172009864668165164e+02
-9.726370310552235878e+02
-8.259551135690666115e+02
-3.880939616736875450e+02
-6.329915523209105004e+02
-4.095962039109772377e+02
3.710728879838314924e+02
6.380689595713896551e+02
5.954051888499039933e+02
5.331492555942286344e+02
5.353145325120567577e+02
1.309495344086301145e+02
4.330290567202232523e+02
7.485521828038540662e+02
6.575767204411208695e+02
3.851424402332034447e+02
-1.927647326990651209e+02
-8.281314913051260191e+02
-1.021940633165595614e+03
-1.401213558603468982e+03
-1.176927076910624010e+03
-1.110112757497400480e+03
-1.183817953531791090e+03
-1.007034928505844164e+03
-6.706917431374804437e+02
-2.707911514923642926e+02
1.316798139644191394e+02
2.575188538410927208e+01
3.879147845993308197e-01
8.766405460610650380e+01
-4.133716601793829568e+02
-4.007883335268019209e+02
1.264379976838709041e+02
2.863472999452419003e+02
6.439379153916130463e+02
5.411990592249379688e+02
7.901343181333429584e+02
2.767194845966898811e+02
-2.300669887288908058e+02
-4.692054317448925076e+02
-1.240769476333564626e+03
-2.139769986488730865e+03
-1.647232446232509574e+03
-1.527192671583492711e+03
-8.766204902301785751e+02
-1.634712373310603084e+02
4.222557647599596464e+01
-5.180408262499694994e-01
-4.051046903584016690e+01
2.514378354894796246e+02
7.053819054229006724e+02
9.189416573325069066e+02
1.150529082394429679e+03
1.477531634785420010e+03
1.077532597567061657e+03
1.249324632215163774e+03
8.676288265958542070e+02
2.363558463809339401e+02
3.141243054506745693e+02
3.848196965583653650e+01
-1.235295606160562301e+02
2.310729524477516179e+02
-1.953764404829763407e+03
-4.069537071722086239e+03
-5.994495722928905934e+01
8.929386325416763839e+02
1.158917110757703085e+03
1.502105853337421649e+03
1.667544832890720954e+03
1.684214937059590738e+03
1.527061415113238809e+03
1.694459573723558606e+03
1.708860607692342228e+03
1.758106458821673414e+03
1.895395632115217495e+03
1.683859662158911988e+03
1.592089296076143910e+03
1.490344211374729866e+03
1.373485488102533509e+03
1.357716845895649840e+03
1.275419400638665820e+03
1.029018729550869239e+03
7.527206316575695837e+02
1.052354364948828788e+03
1.584300263554213643e+03
1.918931747002279280e+03
2.122941897404456540e+03
2.359810728937573003e+03
2.357916740676362224e+03
2.059201362742265701e+03
2.157974696037098511e+03
2.432949613438858250e+03
2.605990087508806027e+03
2.812039048152034411e+03
2.597103810279524168e+03
2.310268415295840441e+03
2.382503913620567801e+03
2.237741993574480148e+03
1.982939370737832178e+03
1.344048933036636754e+03
1.276046219181552942e+03
1.144924872833998506e+03
