-6.346193411709535212e+03
-5.775210384558601618e+03
-5.151224612858607543e+03
-4.506274772051990112e+03
-3.839332070906529225e+03
-2.521358887528351261e+03
-1.817339696007084058e+03
-1.374192515750067969e+03
-1.761838438239146171e+03
-2.248351272556907134e+03
-2.904769609210699400e+03
-3.808063506740075809e+03
-3.596226393293699402e+03
-3.199279858924938253e+03
-2.382188419440180951e+03
-5.157995052688486794e+03
-6.645688596928064726e+03
-5.833216539610513792e+03
-5.311671490713287312e+03
-5.570940839753324326e+03
-4.436925405066695021e+03
-5.769571667414346194e+01
1.009775034559923483e+03
-1.359386548445797416e+03
-3.617171700966280241e+03
-4.258643747862322925e+03
-3.374793100877489451e+03
-3.274498382099374794e+03
-3.391649170576973574e+03
-3.226284782754831213e+03
-2.214362666909511063e+03
5.351610278431752477e+02
-4.367835130535640928e+02
-3.086210282866073612e+03
-3.787052893285484515e+03
-4.085258401236153077e+03
-9.318668822613709608e+02
1.556115820061788099e+03
2.175753203872503036e+03
2.008100665908073097e+03
2.438134429653607185e+03
2.364911925756017354e+03
2.254473119332134047e+03
2.208880979543572266e+03
2.440282070268159714e+03
2.952672069981222648e+03
3.709117378775219095e+03
4.973616315231070075e+03
5.379295762019964968e+03
4.814060645997343272e+03
4.570816603336746084e+03
4.593620638434776083e+03
4.109562301887097419e+03
3.114648258830727627e+03
2.154877708197226639e+03
1.389264688718744992e+03
7.758334977996672706e+02
7.246727410690251645e+02
6.238566898086967285e+02
1.823951969282937000e+02
3.191891599223055209e+02
7.363685049920329675e+02
9.819924303204843454e+02
1.859227959728594215e+03
2.346203329150850550e+03
2.880930931657331712e+03
3.164380902194312057e+03
3.639462566220528061e+03
3.635222660601659300e+03
1.889809856254110173e+03
5.543362842247863682e+02
1.860793133276141816e+03
1.554956803604311517e+03
1.338759081582069030e+03
1.033364696652198973e+03
4.344621185794791245e+02
-5.388176222296647211e+02
-7.464008819892114843e+02
-8.034429378000203315e+02
-8.107601293911590119e+02
-7.474416152456107056e+02
-1.028506109392703365e+03
-6.849054129676724187e+02
3.204093938905768368e+02
5.844013172011577808e+02
6.721336260937575844e+02
1.136697533713524308e+03
1.929022074327885321e+03
2.669892957147955713e+03
2.303488735626192920e+03
2.480698234910401425e+03
2.212464121343511579e+03
1.341803791693582752e+03
9.656227860918844499e+02
6.228811875595954461e+02
2.535616621498894858e+02
-4.083760455440655619e+02
-9.290117028829791934e+02
-1.297336986075683399e+03
-1.472291766634193209e+03
-1.742936081886405645e+03
-1.102372647624483307e+03
-4.615512187109846423e+02
4.705897916252524169e+02
1.715059489866968988e+03
2.193866155305674056e+03
2.455997850695352554e+03
2.723348584123953060e+03
2.393929399553619078e+03
2.222749866367931645e+03
2.228941764987257557e+03
1.710524593621382792e+03
1.461434845616541679e+03
1.171616984801147282e+03
2.879605641617834522e+02
-5.975611965793414129e+02
-9.148970522337733655e+02
-1.503107259179937500e+03
-1.826311441145958497e+03
-1.950426405506081892e+03
-2.071462154537387960e+03
-1.800634728666958836e+03
-1.335969988991368609e+03
-1.019361055466819835e+03
-1.817936564757809492e+02
3.677248459990647120e+02
-3.846949598734655638e+02
-1.852169030540045696e+03
-3.954751349206906525e+03
-4.803504283020982257e+03
-5.435442851851370506e+03
-6.274395919275586493e+03
-6.799460696623121294e+03
-7.488697159430263127e+03
-8.085112380475050486e+03
-8.249782279227178151e+03
-7.008728246713870249e+03
-6.196963295657463277e+03
-5.333493554468622278e+03
-1.490435780534953437e+03
1.432308267978403933e+02
5.505703340950939264e+02
9.445648056403257442e+02
1.261246194855531940e+03
1.240662640459302338e+03
1.818795693319729708e+03
2.561604110873719037e+03
3.052067419290430280e+03
2.837235304484972858e+03
2.077154702722935781e+03
2.052732979520881145e+03
2.048967322005437836e+03
2.113861686078084404e+03
2.059408582794869744e+03
1.410600530829485024e+03
7.194530188756787084e+02
-1.621076546039226116e+02
-6.562180287526597340e+02
-4.218188548453245517e+02
-2.577460428403697392e+02
-2.530108056720615082e+02
-2.116914313439096986e+02
-6.788454562326043060e+02
-2.594893533848531320e+02
1.564611175795670533e+03
2.234500019419170712e+03
1.905079220299410736e+03
2.161334735223520966e+03
2.722256668436782547e+03
2.724021670909066415e+03
2.340765858520260736e+03
1.744290008419013247e+03
8.816348129049457611e+02
-1.241662913576113993e+02
-1.001197676107099028e+03
-2.005463405603572483e+03
-2.879786827934287885e+03
-2.970087776201454744e+03
-2.387566575937184552e+03
-1.418407528028983734e+03
-6.306653208622087732e+02
-4.111741425696870920e+02
-2.106302720422395680e+02
7.439598992440159009e+02
1.601429564404960729e+03
1.870804049067675578e+03
1.885147907698416020e+03
2.157575375556119525e+03
2.552188151947288588e+03
2.722190482475698445e+03
2.531539787465997051e+03
1.636928454697231700e+03
8.396617775339560694e+02
7.248385094955957584e+02
1.984375009929796363e+02
-2.846971208860193201e+02
-1.196867127386772154e+03
-2.796090755398483452e+03
-4.001210988001334954e+03
-4.413106404392537115e+03
-4.661692328625929804e+03
-4.780029752833146631e+03
-4.260267350392803564e+03
-2.528420510223143992e+03
-7.744329112869893379e+02
6.887683946609297436e+02
1.770419082705804158e+03
2.181631595782585009e+03
2.118338108480077608e+03
2.233541624170271461e+03
1.720321311818300046e+03
1.753676903193332009e+03
1.614535908284002517e+03
7.787986303375687385e+02
7.034166298443212781e+02
3.348983287448120905e+01
-7.349796482208915904e+02
-1.383033959782806960e+03
-2.042645017590350790e+03
-1.436699458622386373e+03
-1.415179279490936551e+03
-1.638039225450079130e+03
-1.217384991568042096e+03
-8.732998891129815320e+02
-3.387257880889360990e+02
-2.336346754260001148e+02
5.693671227012984559e+01
4.932692848746328309e+02
7.435271674471039205e+02
1.126524882352052600e+03
1.318280126637479498e+03
1.122774855755502131e+03
1.080048348010102700e+03
9.960535119494909395e+02
1.367724497852495688e+03
5.300652473937562945e+02
-2.467966403411667784e+02
-5.937135491007513792e+02
-1.105653118183322931e+03
-1.428994188267890877e+03
-1.233841328211505697e+03
-1.137057920624535200e+03
-4.457626168882252955e+02
7.479576902267939431e+01
9.096553054525246580e+02
1.907111191551897946e+03
2.253164283240287205e+03
2.253934461339234531e+03
2.177475100851118441e+03
2.000766408888816159e+03
1.851770674543084624e+03
1.577166332488809985e+03
1.758861332906296639e+03
1.305110517524687339e+03
5.570242448647622950e+02
-6.502486307797981908e+02
-1.272723263451887078e+03
-1.463531302305785630e+03
-1.354912339092219099e+03
-1.474897458480843625e+03
-1.175703931235100754e+03
-9.705658861143951981e+02
-1.484499202192570920e+03
-6.681083425017219497e+02
7.116615972149767231e+02
1.405940369967104289e+03
1.232401713141638993e+03
1.761271706990339908e+03
2.187501761221930792e+03
2.038096245967045206e+03
1.651492414518585974e+03
9.142924167379368328e+02
3.393754208662116412e+02
3.494932952872603096e+02
-2.574669705004936304e+02
-7.832437543959744062e+02
-8.519725683752484429e+02
-1.426724377246725453e+03
-1.649149339841318351e+03
-1.205126807388747920e+03
-5.742498010985524388e+02
-4.153743464144985751e+02
-6.434297377822988437e+02
-9.983339031616222314e+01
1.251562100216762019e+03
1.900055085301197323e+03
2.214197654492600122e+03
2.892863912776371308e+03
2.699139631710612775e+03
2.181872789275084870e+03
2.103411459796577219e+03
2.325714456730913298e+03
1.940535802503974310e+03
1.084563280755601227e+03
6.066956726212578133e+02
5.309260074924810624e+02
-5.433982888340273121e+02
-1.359256052469184851e+03
-1.632587471218581413e+03
-1.569535237997646163e+03
-1.008340229666163395e+03
-4.993686689110462567e+02
8.436524951085013768e+00
1.055232452525574672e+03
3.030978835453136981e+03
4.491637495124248744e+03
4.394079356986856510e+03
4.153334403132240368e+03
3.752652172491294550e+03
3.759003073853430578e+03
3.852613935249808037e+03
3.639715069731190397e+03
3.378136646747427676e+03
2.729547410373919774e+03
1.161671267206467519e+03
-2.229576259803476205e+03
-5.870060054190399569e+03
-7.033491975252621160e+03
-8.176808625194443266e+03
-7.872171522668499165e+03
-7.015830204966141537e+03
-6.158725818671246998e+03
-5.916807022506275644e+03
-6.771063718669689479e+03
-7.734638904167985856e+03
-7.096439165645970206e+03
-5.121191078392292184e+03
-3.172782922721345130e+03
-2.268508822575111026e+03
7.536170383640788941e+02
4.607847561637024228e+03
3.453549286634053715e+03
7.905316039267505630e+02
-2.602884506648759952e+02
-2.376042493997131714e+03
-2.308963952801125743e+03
-2.769997420588476871e+03
-4.062114178470945717e+03
-5.010230920923242593e+03
-5.197287811002327544e+03
-5.665317622442080392e+03
-5.592226581857929887e+03
-4.618111544206134568e+03
-3.806066049035106971e+03
-2.477690236958584137e+03
9.345886930237919614e+02
2.505151256853751420e+03
3.232716213603462165e+03
4.121782074175050184e+03
4.251284154067390773e+03
4.557848275120148173e+03
4.052522601630889312e+03
3.787962660719191717e+03
3.172750702612083842e+03
2.196599843979830894e+03
1.613573411343897988e+03
1.411024928163694540e+03
6.760517507649000208e+02
5.306853166545091653e+02
2.678004807517571066e+02
8.727808521742393566e+01
7.431756770362903808e+02
7.813710834445439559e+02
1.516673723846929889e+01
-8.011838571131460185e+02
-1.946737088612031812e+03
-1.138450252157443401e+03
5.176379144471518430e+02
1.711755313095769452e+03
2.136007221289879453e+03
1.226482449856986705e+03
7.805057321547626543e+02
1.564948339477497711e+03
2.089649887513077374e+03
1.367350305269880437e+03
1.940095048540565585e+03
2.702229619245317281e+03
1.429003130354703444e+03
8.406271146489503110e+01
-1.337441809102976151e+02
-2.886073124664425791e+02
1.912649402815484621e+02
1.929939823418874994e+03
2.457412039815434582e+03
2.388922923193626048e+03
1.728568704587294178e+03
1.075390636131059637e+03
2.706595212040451315e+03
3.392426859113938463e+03
3.005979016167819736e+03
2.733072953829806011e+03
2.500659835920643673e+03
2.061640239304938405e+03
1.849342345463451920e+03
1.640136216192008533e+03
3.445869216473169558e+02
-1.001659220541478476e+03
-1.520536368906221696e+03
-1.503730000737791215e+03
-8.652896767578924937e+02
-1.716747737829253424e+02
3.642152860341953442e+02
9.614386487137212001e+00
-2.534434362845055091e+02
4.208293881550611673e+02
1.146271467682546472e+03
1.613170572920601217e+03
1.999928604547501436e+03
2.017473398971541201e+03
1.717475113294423409e+03
1.708079911014381196e+03
2.051018832333605133e+03
1.416073153060893219e+03
-6.203816511265196141e+02
-2.134590640651574176e+03
-1.335463262125241954e+03
-1.407029253623522038e+02
-6.610697715696197463e+01
-1.402713277159239851e+03
-3.184364451561941223e+03
-2.598453659340969352e+03
-1.554212546898507526e+03
-1.501693488395563463e+03
-1.903005632899719558e+03
-3.123202833419651597e+03
-2.854929851736216278e+03
-7.738777408798750912e+02
-4.510836636723046240e+02
-2.166990238601955809e+02
1.744386885452467482e+02
-6.286333080836205909e+02
-1.897024314932383504e+03
-6.077403693336617607e+02
2.140147835636599666e+03
2.825350013684426813e+03
1.220879168960253537e+03
-1.958842743574081396e+03
-3.721564979350301201e+03
-2.277474310679287555e+03
-5.655958768313297469e+02
-7.749692543084485123e+02
-1.663924194229555269e+03
-2.706462852286297675e+03
-3.282901776278465150e+03
-4.986410065857819063e+03
-5.835598469289474451e+03
-5.314048265268913383e+03
-5.162825742108386294e+03
-2.581442907612170075e+03
-3.760386501570271776e+02
2.887933498716969552e+03
5.448461163415832743e+03
4.228754144098316829e+03
1.233706600700963463e+03
-1.496915684986556130e+02
1.903664341774168349e+02
1.978809521774194536e+03
3.225704883452208833e+03
2.717805024357861384e+03
4.889955723213641363e+02
-1.647675211030285027e+03
-3.357214049331837487e+03
-2.918438100747794579e+03
-6.574086565455947948e+02
1.856728571730781425e+02
8.416748854858433333e+02
2.161810997349239642e+03
3.078522813869713900e+03
3.355574987465219237e+03
2.996949951527912162e+03
2.204740036050703111e+03
2.453648665007473483e+03
1.941591231363103134e+03
6.816371307879325059e+02
-4.120973767123532525e+02
-4.457105245643868443e+02
-1.603289430041419337e+02
7.770697640884965267e+02
7.514647749859984742e+02
-3.732442385493159236e+02
-8.179446308236613277e+02
-1.496447985768154695e+03
-3.987669843545858384e+03
-4.335725345881147405e+03
-2.135858900742527567e+03
-1.260146489544702490e+03
-8.615527366562563429e+02
-9.137976869079044491e+02
-7.357793058757019935e+02
-1.297671131317097888e+03
-3.011513204491273882e+03
-4.534481931168270421e+03
-4.193437294269211634e+03
-1.285236203050474842e+03
3.076946535021813816e+03
3.488135417747160318e+03
2.694148787983960119e+03
3.876952966043561446e+03
4.558759637889411351e+03
1.369400082595940148e+03
-2.030192081051996411e+03
-2.530105199100556092e+03
-3.072164983867353385e+03
-2.234346640057494824e+03
-9.180946432061161033e+01
2.171568538759225703e+03
5.039834777305914031e+03
3.573941192765976666e+03
1.179036341180194682e+02
-2.523024381948193877e+02
7.313935707803333344e+02
3.115108096827259487e+03
5.189846620735107535e+03
5.817422881621300803e+03
6.284702123027675952e+03
7.105678658911726416e+03
5.610359672807137940e+03
8.397283843744851310e+02
-4.176051419730652015e+03
-4.901923760896878775e+03
-4.814206969210980787e+03
-3.371020123532728576e+03
-6.201129488608308748e+03
-6.544341599900938490e+03
-7.859838490577572884e+03
-7.950604968277806620e+03
-8.845171475311352651e+02
3.554163115575989195e+03
3.601462293804539968e+03
1.329450502313909510e+03
-2.526182148786629398e+02
1.930587060891493820e+03
2.421698078153252027e+03
4.269458713063456344e+03
2.139849779013080024e+03
-1.364184335947760701e+03
-3.626826535122612313e+03
-4.591039373972236717e+03
-2.938428603793448474e+03
-4.721889408826930776e+03
-5.178495264674083046e+03
-1.169522189889395577e+03
-1.790209975615872509e+03
-2.861615456541458116e+03
2.032150657685009776e+01
-2.066084590973784088e+03
-1.697984923534384052e+03
3.363763842857668465e+02
1.000285127202042190e+02
1.314257928563063871e+01
-1.101947513219988423e+03
-3.973167807929107767e+03
-3.074741311770777884e+03
-5.318829709387401863e+02
3.484312081116092031e+03
6.895859295194996776e+03
8.199817493762437152e+03
5.186182621684328296e+03
2.867923076755545026e+03
2.941027453011550733e+03
3.604404661167323866e+03
3.419943501930052662e+03
3.506212369022641724e+02
-2.768368075794289325e+03
-2.707089819352060204e+03
-3.579470262075060873e+03
-2.041342002226978366e+03
3.259311439647804946e+03
7.788331885326815609e+03
8.947590341723507663e+03
7.107172109299060139e+03
3.536389280205046362e+03
5.255827642086665037e+02
1.574655770740336493e+03
4.366350969700914902e+03
5.593702914309558764e+03
4.459615848846448898e+03
3.645012875487232577e+03
3.559913123040126266e+03
3.416389872753117743e+03
1.404564180144898728e+03
-3.926287941053683426e+02
-1.063469671463619534e+03
-3.948932035702831058e+02
-9.617284473591942060e+02
-3.763054087956575586e+03
-3.823394219092323965e+03
1.162383304621112984e+03
4.202805650491527558e+03
6.122944062164180650e+03
7.241805657259892541e+03
5.230351789451515288e+03
3.302514603071720558e+03
1.099260454518281449e+03
-1.206176464227005681e+03
-2.863860838446590606e+03
-4.840814811877451575e+03
-7.022389900699977261e+03
-1.182045786307146773e+04
-1.936696810348885992e+04
-2.320094148780240721e+04
-2.006046620070971767e+04
-1.204764486532538649e+04
-5.613276807029929842e+03
-5.585357001942129500e+03
-7.779993765100864948e+03
-1.394005710839491940e+03
7.219603967922669653e+03
1.291486925457366488e+04
1.340175602890393930e+04
9.511333737794400804e+03
5.126677227142629818e+03
4.463713161217507150e+03
4.528445733940569880e+03
5.847883482395558531e+03
5.571023456190364413e+03
3.666991083289946346e+03
2.349843949841814720e+03
-2.206571190019892583e+03
-4.251246733609898001e+03
-3.541116664294029761e+03
-4.616180479061972619e+03
-5.753311456534273020e+03
-8.114547282799423556e+03
-8.995993075084008524e+03
-8.889638962828377771e+03
-8.053433401307925124e+03
-3.482260323648764370e+03
-1.240781273681779737e+02
1.965042187002979972e+03
2.113568470363089347e+01
-2.041681029461419939e+03
1.794905259648899118e+02
6.392639858428499792e+03
9.448956128445557624e+03
1.124749042008096330e+04
1.047918021489948660e+04
6.906015904297432826e+03
2.831951961090435816e+03
-4.419126333595977485e+03
-1.183613541415209875e+04
-6.935007367315270130e+03
7.273342409996184870e+02
-1.285031684612741174e+03
-1.008288987638500430e+03
6.516018519180867088e+02
-4.223695609623899259e+02
-2.843908674774520478e+03
-7.308943112687411485e+03
-6.715544589654516130e+03
-8.568538846082379905e+02
4.773153216238674759e+02
9.640764889279963654e+02
6.895464314201233265e+02
3.713556732193577773e+03
6.878057569191086259e+03
4.085967579967750680e+03
1.448233665203117198e+03
2.094860970689794158e+03
3.686981555623053282e+03
2.375576274929921510e+03
-2.644398111797090678e+03
-5.876936832957521801e+03
-3.587966931413022849e+03
-1.807539033882799231e+03
-4.421627156267525606e+03
-5.943153132726255535e+03
1.984916483089300755e+03
8.771575635163191691e+03
7.910901777338145621e+03
3.405052046689810595e+03
-3.399823239237067583e+02
-8.793941164884387263e+02
1.236774349294084914e+03
3.483566542105592362e+03
8.126091440412102202e+03
9.440412609669734593e+03
9.768359547197693246e+03
8.550844157962976169e+03
4.311899139690483025e+03
-1.314446811400155411e+03
-2.911117778982501477e+03
-9.811919784637856310e+02
4.941806566168421000e+02
-1.898715005956329378e+02
8.386374957021276941e+02
2.344731170304283296e+03
2.638503870687402923e+03
2.604007208113433080e+03
1.492053973776500470e+03
-3.388522086925365784e+03
-8.625591118599124457e+03
-8.466987255542069761e+03
-4.428553351512643530e+03
-2.345392143843946087e+03
1.502177007903845549e+02
3.998218358298790918e+03
4.452720294729781017e+03
4.669757608676201926e+03
1.673332509599662217e+02
-7.750586599881480652e+03
-1.200292538332168442e+04
-1.148272902684508517e+04
-1.216913355528949251e+04
-6.758073635066012685e+03
-1.802658636004358414e+03
-1.264972371988123768e+03
-1.155174111049686189e+03
2.171721084466199045e+03
4.445970526612382855e+03
6.329770972185205210e+03
6.219037481821798792e+03
5.969577028624228660e+03
7.014247180545798983e+03
5.096034514569098974e+03
1.975062032645080535e+03
6.124387322017316819e+02
-4.797928232732563174e+02
1.169368428137737510e+03
2.566699808181585922e+03
1.063000284946578176e+03
-3.156694765045575878e+03
-5.127391789880953183e+03
-1.794136817558241773e+03
-2.119129614055163984e+02
1.558319611763063449e+03
4.483616546802192715e+03
4.863021079067172650e+03
3.530429407593157066e+03
2.706908777487773477e+03
3.496560894730834207e+03
3.082359468006208772e+03
2.338188003874875449e+03
1.332962888310171820e+03
-4.003847323951874841e+02
-3.194802458862555795e+03
-4.985268491669106879e+03
-4.034843737033078014e+03
-1.798548261784492524e+03
-1.581899407289475334e+02
-1.200915706242515853e+03
-3.649987296234228324e+03
-5.947353248274916041e+03
-4.822983708757043132e+03
-2.180836332509039494e+03
-1.038921383881898919e+03
-7.213214835674891390e+01
-7.153397770593463747e+02
-8.085278752878210753e+02
1.154142225901277470e+03
1.602404796967697166e+03
2.391024922514978698e+03
9.842614980953870827e+02
-6.147936816469474479e+02
5.126599070535152123e+02
4.336327217761096335e+02
-5.265737051379774130e+02
-2.396905501639328122e+03
-1.684550327481636032e+03
-8.375011485039339050e+02
-2.344882791957016252e+03
-2.520885236939446258e+03
-2.122540554896651884e+03
-2.251907129774303939e+03
-2.313674828139662168e+03
-2.164618881096815130e+03
-1.615924912166373133e+03
3.933218268775131605e+02
2.379002175308135975e+03
2.736077370450299895e+03
1.717594412873813098e+03
7.705758669094983588e+02
-4.999999839984581058e+02
-1.782908582996383529e+03
-9.568987480406653958e+02
1.820728128278064730e+02
-1.358312541498563633e+03
-4.054107612430082099e+03
-4.514276613473944963e+03
-3.110371598820928739e+03
-3.049608921644597103e+03
-2.654956601218470951e+03
-8.604359595584197677e+02
-2.683686092497621758e+03
-5.181584779377315499e+03
-7.363815549761394323e+03
-5.814161976322676310e+03
3.723835148292232020e+02
3.014515243280741743e+03
3.237385055713868951e+03
2.703987697109914734e+03
1.609517357973841627e+03
-1.597094430105639731e+03
-4.743716497232077927e+03
-3.350279333016622786e+03
-3.489537262004428158e+02
3.527233988653310462e+03
5.848948524110912331e+03
4.960076464796193250e+03
2.848041263808286203e+03
1.662890072293773756e+03
3.941295442431310676e+03
4.297667731130772154e+03
1.665847991008702820e+03
-8.803323762356707221e+02
-2.326684689623913528e+03
6.182106167463719260e+01
4.588395948384927578e+03
7.685216903923865175e+03
7.352866208002772510e+03
5.661129157184561336e+03
4.274749150573268707e+03
3.814725147727546755e+03
3.937192860818075587e+03
3.838469046754454666e+03
3.792561835313537813e+03
3.328310607970018282e+03
2.675631952643118439e+03
1.461572211922359429e+03
1.186393567686292045e+03
-3.498259571127195500e+02
-1.549325735530113434e+03
-2.389922241906641318e+02
1.819992037980577379e+03
1.787277033058620418e+03
-3.031722158677064840e+02
-2.375114102454446311e+03
-1.885303447565950137e+03
9.294680283557249822e+02
1.829190217743382846e+03
1.363572645592117397e+03
1.000505701980414528e+03
7.110682178131243063e+02
6.242826233280464265e+01
-1.964420632757822887e+02
4.040844751972776550e+01
8.139975872550197664e+02
4.924215031681016512e+02
-2.260257131331066830e+03
-2.942133823727224808e+03
-7.513243243861733163e+02
1.453145754513527947e+02
-3.456014186999259437e+03
-4.282517113046265877e+03
-3.040592079818766251e+03
-2.813115090433378555e+03
-1.230060002287555562e+03
-1.542364792944608553e+03
-8.377568389097974659e+02
-1.170179430453763644e+03
5.584238304225522143e+02
1.841110731808335231e+03
3.835841271983721981e+03
7.557187745842295499e+02
-8.682486949742254865e+02
-1.128807141488373873e+03
-1.798655973300440564e+03
-3.184991240477423617e+03
-3.547334341131708243e+03
-2.598195574378954461e+03
-2.111587484822436636e+03
-2.865080603744706423e+03
-2.110508380038587347e+03
-1.139551095758838983e+03
-5.725222060237069854e+02
-4.143116737147911408e+02
4.745484919758187914e+01
8.691624657250994233e+02
8.449823313579831847e+02
9.696964983666614444e+02
2.752355780776098868e+02
-3.614859913479413080e+02
2.316964286486621063e+02
1.651865981463008666e+03
2.040997865226261410e+03
1.823434115044355394e+03
1.242044033038218686e+03
-5.040474381827251449e+01
-7.837342329965927092e+02
-3.468877493982732858e+02
-2.357808412516545218e+02
-3.094998428973430578e+02
-5.621001600508648153e+02
-1.069612248022649965e+03
-1.075343876681835354e+03
-9.522811694483469864e+02
-6.623493794992341464e+02
-3.142413808518508631e+02
-1.818360168024854033e+02
-3.247343669335830185e+01
2.504131641367283407e+02
6.139233209030471698e+02
9.551372060087848013e+02
1.014339558331537205e+03
9.419331110778816765e+02
6.763177712773772328e+02
2.465698342539729424e+02
-2.035237379449082482e+02
-7.336626338698807785e+02
-7.270576680887938892e+02
-9.350209614633598676e+02
-1.638671885487693089e+03
-4.193098321176921672e+03
-3.430099479132917168e+03
-1.681471930865487138e+03
-1.072963381015721552e+03
-2.461917779058776887e+03
-1.830743199047315557e+03
-1.051037581898430290e+03
1.017190201570162799e+03
1.699932150546138018e+03
2.223010535537803662e+03
2.356171535538350781e+03
1.853842352549261477e+03
1.122083032969968372e+03
9.656494208353195745e+02
3.344368491974823883e+02
-1.373386901056879026e+02
-5.603326811215714542e+02
-2.986047054646082870e+02
-8.185807297036601540e+02
-1.623239112290478033e+03
-2.068244124172696957e+03
-2.003624143402207892e+03
-1.683112128724776994e+03
-1.408749092973442430e+03
-8.449599380595936964e+02
-2.503723208481070230e+02
1.780847920312834560e+02
8.322015259030658854e+02
1.200709291697940671e+03
1.458540535558082411e+03
1.750441985443178055e+03
2.175602827283839815e+03
2.237120593968795674e+03
1.865109682239123003e+03
1.272813116790713593e+03
4.864204195403621611e+02
-6.730046065140633971e+01
-5.026319681268980162e+02
-7.725869898631686965e+02
-1.294004880239195245e+03
-1.291050094046693630e+03
-1.262737520336569105e+03
-1.232988578872938433e+03
-9.227740867852262454e+02
-5.889657218195334281e+02
7.809900657186435780e+00
5.626778013270186420e+02
1.191293351936620411e+03
1.522333794204346077e+03
1.647851699071918119e+03
1.921734746069580069e+03
2.105789116441556871e+03
2.083221010598357680e+03
1.821008067113580410e+03
1.475536579326208994e+03
7.311763692389112066e+02
-9.625481775774514404e+01
-1.429102507914992202e+03
-2.296278679940880011e+03
-1.610392507453315602e+03
-1.449505855416773556e+03
-1.348275807003655473e+03
-1.184720531392600378e+03
-1.146089621312220061e+03
-6.933326790758935658e+02
2.951497862452234244e+01
1.595816936722575576e+02
4.349070403490244985e+02
6.483674656662803955e+02
1.050196856274569427e+03
1.007474948700099617e+03
1.259101244812717823e+03
1.766041694218120483e+03
1.682069807983908277e+03
1.375144945662321561e+03
5.924401510595457694e+02
-2.718116801087916770e+02
-7.897463928551278514e+02
-1.129818851818171424e+03
-1.339929422839843255e+03
-1.341151852207539832e+03
-1.182630521121538777e+03
-1.198261959717938225e+03
-9.398558911855673159e+02
-2.245400850246935676e+01
8.368065251310813437e+02
1.514042284009806735e+03
1.802292783782982269e+03
2.331571577287620585e+03
3.059966058119208810e+03
3.125568294269235594e+03
3.091298748482246083e+03
2.546931804495094639e+03
2.351266520159741503e+03
2.204243408487649958e+03
1.598060703669930717e+03
7.378781683864810930e+02
-9.228303102403540947e+01
-8.247044069565230302e+02
-1.469558830326476027e+03
-1.470767648617343639e+03
-1.066319803732508717e+03
-3.861515342416655017e+02
2.727008856017848188e+02
8.390503040983483061e+02
1.048019045733416306e+03
1.467550746638854207e+03
2.052811493559899645e+03
2.320846824398822719e+03
2.644478332757845692e+03
2.798742590495693548e+03
2.673673845800732124e+03
2.615368103997031085e+03
2.576602315295205244e+03
2.447293046777722338e+03
1.541596955298526836e+03
7.863795007976916622e+02
4.725928831237880559e+02
-9.173960661298045238e+01
-5.135790366073646283e+02
-8.039611186381255266e+02
-7.568925906599426980e+02
-3.134548368918161145e+02
1.428377478578029702e+01
-1.375451670888539297e+02
-5.380146219328988622e+01
2.915319870371503725e+02
1.245571965254024690e+03
1.444357014768897443e+03
5.626111932471902719e+02
-1.226752009425672213e+03
-3.494557077994717929e+03
-4.138688064943796235e+03
-3.499223027680574432e+03
-3.498345515962549143e+03
-4.399020582178782206e+03
-4.694312731280087974e+03
-5.255293346461236979e+03
-5.514708596185008901e+03
-5.644480877512083680e+03
-5.730580137014460888e+03
-5.624257479645589228e+03
-5.679884110569695622e+03
-5.149241462784048053e+03
-2.723104221322866579e+03
-1.407359445433685551e+03
-3.228868601714911620e+03
-3.173470720501786673e+03
-1.110120788046670214e+03
2.149816997614401316e+03
2.027132789592066047e+03
-1.915321249974098009e+03
-3.077511888112184806e+03
-3.193203919645635324e+03
-3.482204124518689696e+03
-3.939539882136920824e+03
-4.131460297168997386e+03
-4.237824892919212289e+03
-4.657342574837728534e+03
-4.831949421274910492e+03
-4.574724187937321403e+03
-2.553943874684308867e+03
2.613678546676505476e+01
1.234560919700742488e+03
2.047615751904063018e+03
1.987465357746494192e+03
2.283181665786456051e+03
2.898765293681815365e+03
3.083124876626781315e+03
3.374279095953085744e+03
3.747284317406174523e+03
3.754212628907267117e+03
3.506066872214259547e+03
3.209900276065279286e+03
2.960653756374331351e+03
2.287488921072542780e+03
1.895386846438756493e+03
1.560140588169205557e+03
1.298636379105792457e+03
9.930357410639204545e+02
1.066569370926596321e+03
1.131365580240066492e+03
1.392302746924611256e+03
1.160180021763543664e+03
8.861173955830008708e+02
1.446469308236647976e+03
2.089414452777591123e+03
2.640978815656520055e+03
2.956142304986664385e+03
3.293826780099253483e+03
3.846158297203129223e+03
3.466338154882493200e+03
3.534409619988808572e+03
3.110605411582173929e+03
2.367656255169086307e+03
2.087095476119364776e+03
1.617794102757496603e+03
6.580759706294758189e+02
5.599726971790246921e+01
3.342130838390279735e+01
-2.299737261954568339e+02
-2.213714822866477618e+02
-2.737076235696391535e+01
4.600515881847604192e+02
9.019675882277758774e+02
1.468195822185344696e+03
1.716782830811817348e+03
2.629678951367953687e+03
3.073295088540618963e+03
3.366585991633730373e+03
3.228457982614383127e+03
2.814983849210308108e+03
2.636235510601787155e+03
2.288128820748837370e+03
2.103559944188195004e+03
1.851376260327356249e+03
1.108519471528694567e+03
5.869462556028508970e+02
6.368283049811899588e+01
-2.962799838396793461e+02
-4.589283121964788847e+02
-7.234362331524851015e+02
-5.408467709659573757e+02
-1.650336943820167619e+02
-9.992689268857763807e+01
2.244688150323291609e+02
1.249089272667076557e+03
1.455824288063411132e+03
1.398628803280370448e+03
1.633653369534287094e+03
1.787962016899054333e+03
1.427492790287300068e+03
1.389203304404775963e+03
1.680901310812728980e+03
1.289525963258672846e+03
6.421360054291861843e+02
-7.024725916322537955e+01
-5.406332545546194979e+02
-6.790620503980481999e+02
-9.705122801336959810e+02
-1.035958493676962689e+03
-1.374458801460077666e+03
-9.420548708385919099e+02
-6.217160780318205298e+02
-9.214801967282701298e+02
-2.295453692120537653e+03
-3.886591447357691777e+03
-4.850845255278309196e+03
-4.345183125624110289e+03
2.205813668755787944e+02
1.708320125066311448e+03
-2.082104664130823494e+03
-3.708700638198522483e+03
-4.021459058688619280e+03
-4.735322572119271172e+03
-5.280329024783051864e+03
-5.626448655256700476e+03
-6.394439096136180524e+03
-6.694521685030092158e+03
-6.956898270806955225e+03
-7.333699475479495959e+03
-6.999782798273949993e+03
-4.926194148349736679e+03
-3.252876630422714243e+03
-2.221967124298096678e+03
5.326743842294977185e+02
1.293095266274714731e+03
1.625354845780477035e+03
2.135586286082564584e+03
2.524795717456418515e+03
2.776947478032210711e+03
2.866056023601598554e+03
2.728022368015295342e+03
2.382863724634634764e+03
1.778468155335113124e+03
1.275732523740608258e+03
3.266955028527535205e+02
-7.685818989672635553e+02
-1.261131031881759554e+03
-1.700880200155399962e+03
-1.823846554991896255e+03
-1.643035142976779980e+03
-8.544380443165269980e+02
2.686409214775836318e+01
4.378724796641546959e+02
7.266786971181114723e+02
1.085325502099656205e+03
1.331806364720182046e+03
2.108151289570906556e+03
2.804453912427711657e+03
2.928759296194758008e+03
2.766043045245183748e+03
2.672348849579227135e+03
2.515723372199068308e+03
2.149225791741543617e+03
1.712869190039899195e+03
7.646708401939389432e+02
2.705644579391324100e+02
