-6.432816621276415390e+02
-1.825931108602284667e+03
-4.018213595829068709e+03
-6.059077820965676437e+03
-5.144855922733894431e+02
1.468534047473920054e+03
1.722929130900188511e+03
1.834759671731103026e+03
1.482965596464758619e+03
1.141443516533513503e+03
1.180161003202931170e+03
9.301200720030943785e+02
-5.058272700329269469e+02
-1.336677916623495094e+03
-1.128453169907418214e+03
-6.462199476792052337e+02
-5.891159481907274085e+02
-3.371178874199847542e+02
4.285091393335344634e+01
-1.892649557539031093e+02
9.044212557023035970e+01
4.449176311857711426e+02
8.862534953918290057e+02
1.421463485791596895e+03
2.196438037802700819e+03
2.826123251022184377e+03
3.153496970800690178e+03
3.522498926045987901e+03
3.318183928177550115e+03
3.180629710668005828e+03
2.879795163336877977e+03
1.811534027975310664e+03
7.847999051463368687e+02
-8.747808251019213799e+01
-4.762972309236646424e+02
-7.506880273001115711e+02
-1.218696342098155810e+03
-1.048415794171312655e+03
-8.258264095634201567e+02
-1.439777963497779467e+02
5.390814988581436182e+02
9.963491017605506386e+02
1.048792057611836753e+03
1.470339541737298077e+03
2.370034683809331909e+03
3.003892454489971897e+03
3.024964906957642143e+03
3.060228982387078304e+03
3.331705872278881543e+03
3.627414044106810252e+03
3.944293223488037256e+03
3.533227401043905047e+03
2.583202075276152755e+03
1.718139511310202352e+03
1.097016146946461959e+03
8.638453402718135976e+02
8.346433523976447759e+02
5.183677197746413867e+02
3.439927518968141840e+02
2.375238726140770780e+02
-1.004218078389662949e+01
5.702813750495648719e+02
1.148492773252914503e+03
1.319608408794385923e+03
2.106642822792965489e+03
2.816633543169638415e+03
2.812661023736266543e+03
2.742788097255383491e+03
2.763013611165804832e+03
2.457302013608251855e+03
1.562600582161988086e+03
8.278834210816210089e+02
-3.808214304022344550e+02
-1.303526936561213006e+03
-2.579221958133280168e+03
-4.124895787756959180e+03
-6.822544390444126293e+03
-9.200231844534364427e+03
-9.237987176412074405e+03
-9.562745402523749362e+03
-9.310431089362593411e+03
-9.305086055122046673e+03
-8.719718055648518202e+03
-7.783263992565070112e+03
-6.630710639604543758e+03
-5.596014085255330428e+03
-4.409160336630919119e+03
-3.242035820206565859e+03
-3.092526476077250209e+03
-2.357577508438363566e+03
2.343756978056637763e+03
2.952525784259045849e+03
-2.863560930194119578e+02
-4.132952088795401323e+03
-6.140178958201934620e+03
-6.062034918938362352e+03
-5.963522663975747491e+03
-6.837623681130702607e+03
-4.480265611368102327e+03
8.087025725317043907e+02
1.363256890318558590e+03
-2.682675323181679687e+03
-5.222036817598263951e+03
-4.692805642047718720e+03
-3.978938912789183178e+03
-3.342356308039672058e+03
-2.958983391415714323e+03
-7.887524031114591025e+02
4.286359244394334382e+03
6.349388621534134472e+03
6.692333090543392245e+03
6.162190708979567717e+03
4.984974355856391412e+03
3.388763136691811724e+03
2.686572475081157336e+03
2.236418280394243538e+03
1.660289187330387449e+03
7.061828900504232251e+02
5.311706472228128177e+02
2.774572743594636108e+02
5.601067067098028929e+02
1.091925084990149116e+03
2.517732113899794513e+03
3.286551063615640487e+03
3.252772935649579722e+03
3.762198870391691344e+03
4.532176891932394938e+03
5.579601871613830554e+03
5.601568178329955117e+03
4.776582607189730879e+03
4.219368841402122598e+03
3.670670066408456933e+03
3.311803197604308480e+03
2.765689489072718061e+03
1.872323823310993475e+03
8.607110831191200759e+02
2.208859020907035529e+02
-1.153047172283630516e+03
-3.662545349534716479e+03
-7.265629595508855800e+02
3.292272516045469501e+02
7.916439080586339969e+02
1.590869986758347522e+03
2.024016685767418721e+03
2.748363305290866720e+03
3.492940746065507483e+03
3.991881905189954523e+03
4.095205233286527800e+03
3.493755770297930667e+03
2.829339246514448860e+03
2.565688325291263027e+03
1.508895414247739154e+03
-2.630067223035028405e+02
-2.749739449073652509e+02
1.420784809846658447e+02
-1.041170515429334529e+02
-2.491935666498659145e+02
-2.364075848730777807e+02
-7.756622351929306660e+02
-1.046416132290495852e+03
-4.247340857637437352e+02
3.695735597914094228e+02
8.705153580097402255e+02
1.178091559127839901e+03
1.374329488311528394e+03
1.921200779539747373e+03
3.143736240440051915e+03
4.142906557650323521e+03
3.906711295111854270e+03
3.026185858880291562e+03
1.482283578086994794e+03
7.393835819283223998e+01
-7.268679329254682671e+02
-8.082071679714637185e+02
-5.901099747146924983e+02
-8.986405951595507986e+02
-1.736860876563587681e+03
-1.057774221940836469e+03
2.415845953247878697e+02
2.932441749756778222e+02
-1.728766282033645041e+02
-8.480791742924569121e+01
7.427659647582682823e+00
1.638768383115381653e+02
1.289588470221086709e+03
2.497608549346428390e+03
2.960906260482955531e+03
3.248492407199309582e+03
3.067315799648279153e+03
2.871363070877738664e+03
2.667564784628769303e+03
1.931916590525210268e+03
5.514487215309151225e+02
-3.749665878175027274e+02
-2.470425718265128580e+03
-5.800909360834722065e+03
-9.436524113135925290e+03
-1.011130830793361929e+04
-1.074329843020718363e+04
-9.943509191895076583e+03
-6.848957276571661168e+03
-7.756849855394623319e+02
4.692136898095018296e+02
-2.247894517674401413e+03
-6.249071664994924504e+03
-6.420449130710509053e+03
-6.566008114380818370e+03
-5.757737333815608508e+03
-4.947582604060520680e+03
-4.402570922022880040e+03
-1.152745573441644183e+03
1.170864974174703775e+03
1.910220690845954323e+03
1.893315100079492368e+03
1.213064879347611395e+03
4.544470889942240319e+02
-1.015166411579422316e+02
-4.368803589454486200e+02
-3.147550428983195729e+02
-4.111432571933086706e+02
-7.879973383034869130e+02
-2.102737441326753753e+02
5.649693530305548848e+02
7.257540370387928306e+02
-1.218640315384746060e+02
6.262084020680918002e+02
1.527003405094895015e+03
1.755632764945640702e+03
2.277072761712508964e+03
2.418218990192093770e+03
1.565023051708029016e+03
9.574460265460164692e+02
7.894837301874041486e+02
4.671809036600957938e+02
-1.694619868169453980e+02
-3.285054917299088970e+02
-1.628698520948517512e+02
1.514524467983434306e+02
2.004529882633516706e+02
-8.598160710956049968e+01
-9.718069165616586815e+02
-7.410008198819949712e+02
-1.465108626447591575e+02
-3.722894420240439217e+02
1.596971732577447085e+02
9.104875276964202158e+02
1.794151289790250985e+03
2.637740823555376210e+03
2.391311884313039172e+03
1.605863427240708688e+03
1.187372753500647605e+03
1.013819649899628075e+03
4.332017889822446364e+02
1.235358493120972554e+02
-3.491425291500338517e+02
-1.127831144908964461e+03
-1.392686879549212108e+03
-1.816718290194351994e+03
-1.970633992006431299e+03
-1.886078461401495360e+03
-1.184051123729351275e+03
-7.508564479177312023e+02
4.873606477995632957e+01
1.751556936979555076e+03
2.325721440420009458e+03
2.092259721119422466e+03
1.667260025489129930e+03
2.141637492739024765e+03
1.767345973742341357e+03
1.467568075767510436e+03
1.895371156772571567e+03
1.703669951536115150e+03
4.829585940573437597e+01
-1.071744878327653169e+03
-1.037505297593784235e+03
-1.267990217198090477e+03
-1.792096052256677694e+03
-2.347778833473916166e+03
-1.936040265961650675e+03
-1.014854582983208616e+03
-9.312324086989191301e+02
-6.891770036445034293e+02
-3.626436956401904013e+02
-4.115663269532875574e+02
-2.268894967393477486e+02
6.384273149035939241e+02
1.511370842169715843e+03
1.434050359165497866e+03
1.259546107526487276e+03
7.758843040589761131e+02
8.190636043035048033e+02
9.861141327339820464e+02
7.350165131058259931e+02
-2.352574006158072564e+02
-7.428765556561836547e+02
-7.148360848577686966e+02
-1.024055790685363263e+03
-1.230653692185591126e+03
-1.221651742324221914e+03
-1.100953072181751850e+03
-9.975760010251858603e+02
-7.676178317076684152e+02
-1.350110595814775252e+02
4.022271273704105283e+02
1.097116849782317558e+03
1.769784853207237347e+03
2.332234650595276889e+03
2.278368297404560508e+03
1.919290949027772058e+03
1.718049662503717855e+03
1.163508636475874937e+03
7.856398053366311842e+02
6.774450342134924767e+02
3.339707369220695909e+02
-2.937168580879671254e+02
-7.586083395667448031e+02
-9.998223783952854546e+02
-1.185377108168737323e+03
-1.295329799850750305e+03
-1.338712601454600645e+03
-1.290549437587841794e+03
-1.275955093896245899e+03
-7.639085241336316585e+02
3.297002247391716878e+02
1.148864971908917369e+03
1.378525619029629070e+03
1.459672159288191096e+03
1.493256018760260304e+03
1.358228648028575662e+03
1.092604740855203318e+03
9.502866508222880384e+02
1.284228415609387866e+03
1.327442085058519069e+03
8.351522284239765668e+02
2.016226746118317124e+02
-2.713176360250832886e+02
2.319550569657715400e+01
-6.494907395518572457e+01
-3.628368848715266495e+02
-3.695381013396506091e+02
-3.939963364952943152e+02
-4.852721525663980060e+02
-7.945283381832788336e+02
-7.817779971882710015e+02
2.729864989496883823e+02
1.677850552738387478e+03
2.115967359437544474e+03
2.930746387742539355e+03
3.250242502975790558e+03
2.687619152833207863e+03
2.221917216021242893e+03
1.614143915987751598e+03
6.121373938420324521e+02
-1.471283080016097244e+02
-2.717238878956254666e+02
7.330226913652981011e+02
1.323958094875827328e+03
1.073474563249080575e+03
9.109178384682284104e+02
5.180347574179197636e+02
3.474705281291158485e+02
4.390917566637034497e+02
1.064789835963501218e+03
1.775861997741865707e+03
2.386196449685031439e+03
2.798079598420427374e+03
3.131522135746791264e+03
3.246748521082594834e+03
2.751991766356465178e+03
2.367225212886608460e+03
2.581493388919504923e+03
2.986687179253255636e+03
2.941726118602484803e+03
2.193565984067108275e+03
1.598069630066505169e+03
1.274055950294060494e+03
7.865930142193233223e+02
3.465287387590521462e+02
1.278982314570918675e+02
-5.152745142880444291e+02
-1.965960211238537795e+03
-3.489153986366929075e+03
-6.364057271538088571e+03
-6.711693979552544079e+03
-6.183979214322759617e+03
-5.258810220071342883e+03
-4.562169773452240406e+03
-3.937035425348594345e+03
-3.200380775554272986e+03
-3.286192008335351147e+03
-3.420428589633373576e+03
-3.669050819667790165e+03
-4.100097318074353097e+03
-4.127751672703801887e+03
-5.041935134825462228e+03
-5.673550916663263706e+03
-3.296960956937261017e+03
-3.936010159046499666e+03
-6.131686519150369350e+03
-6.029015354307841335e+03
-3.456908401849529582e+03
1.623625017455138504e+03
-1.495002248183903646e+02
-4.928166751618159651e+03
-4.657245090591425651e+03
-3.866608008519648592e+03
-3.183232925228739077e+03
-2.754162009401152773e+03
-2.255346255952004412e+03
-2.520707173944159422e+03
-3.072324950291470032e+03
-2.859244195227917317e+03
-1.482383011227419729e+03
2.063381073391056816e+03
3.100084481265704198e+03
2.674729899902456964e+03
9.383464720333524838e+02
7.278577936572816043e+02
9.961725189482752967e+02
1.167285178434036425e+03
1.495327723811627948e+03
2.060445435578415982e+03
2.870644876368579844e+03
3.294880879588311473e+03
3.472250515151860782e+03
3.418946439949721480e+03
3.867056363502678778e+03
4.467669825609209511e+03
4.665861959053361716e+03
4.525645406148746588e+03
4.440071519081672704e+03
4.025212663221680941e+03
3.161159644379727979e+03
2.623905973002675182e+03
2.030408468410589421e+03
1.889711358527344146e+03
1.365922417626691640e+03
7.350805276196164186e+02
-6.381224025877163086e+01
-6.677139802661304202e+02
-9.225427717801215977e+02
-8.093582179874716758e+02
-6.517259203556172054e+01
1.056076510266196692e+03
1.984491306121344223e+03
2.409151854860581352e+03
2.488990750343644777e+03
2.691074245595608772e+03
3.557551375717062001e+03
3.837119120500980443e+03
3.515580533758748516e+03
3.468578232208993541e+03
2.889438839031930456e+03
2.070643987624845977e+03
1.118031602260615045e+03
3.506461375419137312e+02
-4.856484324537108819e+02
-2.017970408040626353e+03
-5.104487477682960161e+03
-2.960920390966704417e+03
-1.794187377482335251e+03
-1.504342535454670497e+03
-1.032364927015239800e+03
-6.289394316497046020e+02
-5.103939351261044521e+01
4.253188170632244578e+02
4.441307413322815023e+02
5.834979892908600050e+02
1.046371638196492995e+03
1.448662356986688110e+03
1.439352952590241557e+03
1.124437787975374931e+03
1.225915797342672022e+03
1.108818617657961340e+03
2.291170869006149644e+02
-9.451836199551187292e+02
-1.553111224687441336e+03
-1.634599462003563758e+03
-2.615673765963681035e+03
-3.649328306963232080e+03
-3.874516648776049351e+03
-3.461086296879288057e+03
-2.599152889099002095e+03
-8.506993605500522335e+02
5.682947460804358570e+02
1.136809175640795502e+03
1.438861080098964521e+03
1.674486430217777524e+03
1.372662960903066278e+03
9.794046561788098870e+02
6.187094781647793980e+02
-3.884091376267848545e+02
-7.009564898770591981e+02
-4.830029772898319038e+02
-9.554108559855554006e+01
-6.126060135818777326e+02
-1.210255653270126459e+03
-1.814514111169310809e+03
-1.919465414969887206e+03
-1.998184476397549133e+03
-2.533635177398396536e+03
-2.398849129205920690e+03
-1.951804184460578426e+03
-9.524236386026583432e+02
3.730969181017760405e+01
7.084912103979254425e+02
1.167179405949063494e+03
1.475345470885553141e+03
1.320023582340822031e+03
1.248182038738715391e+03
1.287660211334194173e+03
9.072714451860024383e+02
-1.644128882863963554e+03
-5.217620180145158884e+03
-7.955203253758513711e+03
-8.349994756428919572e+03
-9.733032642159816533e+03
-7.177392340375046842e+03
-3.798102376047775124e+03
-3.963266939074100264e+03
-2.988975107449337884e+03
-2.245245996603486219e+03
-4.520110439898685399e+02
6.476408686938815435e+02
6.708828829571356209e+02
1.430554372706150389e+03
3.438818720273749932e+03
5.590539733738698487e+03
6.031652683114636602e+03
6.010214120209465364e+03
5.188122066150082901e+03
4.004213717573782105e+03
3.022387764477478868e+03
2.699625281313803953e+03
2.146907429633515676e+03
1.740104921792467167e+03
1.020104678123259191e+03
2.178811070922362489e+02
-4.136040360096823179e+02
-7.534245897924948849e+02
-5.106073127436579284e+02
-5.081788340360322991e+02
-9.442358373165008061e+02
-4.038263767589498343e+02
1.621020318926262860e+02
8.085593916689454090e+02
1.339524899552606939e+03
2.689908927365271666e+03
4.070642063906099338e+03
5.022744770081068964e+03
4.379228041934690737e+03
3.671034920129298371e+03
4.551107854819179011e+03
4.121339554167790993e+03
3.117624503830337744e+03
2.828921852640808083e+03
2.663234962749641909e+03
1.751519017561057126e+03
1.487705818733399383e+03
2.867657052500552481e+02
-9.463024533440685673e+02
-3.385700665739042847e+02
6.579603568629823940e+02
6.823637264572246295e+02
1.495640079735078416e+03
2.527788592073159634e+03
1.814779937598097149e+03
6.745863829623394849e+02
-3.037705438917606671e+02
-5.202847752166873079e+02
-1.098562743655988605e+01
1.099114890349691450e+03
1.066964998209277383e+03
8.013863978319376429e+02
8.886497677331357181e+02
9.907234415308665803e+02
7.164037494942697322e+02
-1.752410012551268323e+02
-5.722112537058941371e+02
1.464018511089045091e+02
1.245512504743891668e+03
2.248206174747570003e+03
3.374516339877828159e+03
3.671489428445686372e+03
3.706170716569053184e+03
3.576556609473455865e+03
2.432733909617402333e+03
-5.251459748702490771e+00
-3.269444850305396812e+03
-5.693857663563950155e+03
-4.854476039648174265e+03
-3.435254270900943084e+03
-3.425166886470753070e+03
-3.834337663315092868e+03
-5.303706207222890043e+03
-6.927230018926446064e+03
-7.003923637906652402e+03
-6.865792785716615981e+03
-8.334812528215252314e+03
-9.376861627511079860e+03
-9.743934968988965920e+03
-9.391129230433372868e+03
-5.303480605686638228e+03
-2.755888339962239570e+03
-1.963351649190593434e+03
-2.777755797029480163e+03
-4.433974416564686180e+03
-4.661002506390801500e+03
-4.633783593550998376e+03
-4.316250040772438297e+03
-5.572372267522345282e+03
-7.515126882354957161e+03
-7.205608921492027548e+03
-5.014815591552948717e+03
-2.319689908435053439e+03
-1.237196667384647753e+03
-1.244275741406025872e+03
-2.225919566530767042e+03
-4.419139156078525048e+03
-2.454903945075457159e+03
1.454836350312162722e+03
9.800939642522107533e+02
-1.363067241513113231e+03
-2.256597828915213995e+03
-5.754290191879754275e+02
6.445380195181213594e+02
2.424354236399290585e+03
4.253017840594843619e+03
6.010547702268268040e+03
7.798034826253384381e+03
7.879551521447279811e+03
6.466107318948804277e+03
5.887724885379710031e+03
3.887416699311193497e+03
2.559189438465197782e+03
2.825027702167861207e+03
3.468007047959202737e+03
3.827242849947235300e+03
2.246775892214876876e+03
5.258082460111359069e+02
2.942034655088821751e+02
6.218385814643169169e+02
3.087434328369378704e+02
4.149369516021786239e+02
8.537818666149242972e+02
1.764261731734269915e+03
3.240449999439043040e+03
5.170427339894456054e+03
6.723189003992582911e+03
6.232835744751025231e+03
5.616102926988397485e+03
4.337149308569389177e+03
3.615028237614990303e+03
3.339511413890732001e+03
2.594060055591796299e+03
1.679667412422112875e+03
1.376727186849185500e+03
1.138930894756058251e+03
-4.356413251323001532e+02
-1.131234063917814410e+03
-8.037101858711190516e+02
2.794418939150372694e+02
1.410376945953161794e+03
2.222097644449998825e+03
2.521619633352209348e+03
2.439939386970056148e+03
2.511137445715109152e+03
2.090237719595020735e+03
1.583209236291757179e+03
2.338929740340082844e+03
3.559088296794385769e+03
3.997944971747763248e+03
4.702843678768770587e+03
5.074510560135104242e+03
4.101512180978652395e+03
2.059847555481539075e+03
6.659998367959128700e+02
3.326447441004992243e+02
-1.263784341250155308e+02
-1.009097329941059684e+03
-1.332420331451459333e+03
-9.203550216341749319e+02
-7.189024216162395078e+02
-9.891148466319328918e+02
-1.248037226071156510e+03
-1.761603033325605793e+03
-1.706800863095458681e+03
-9.326674584501704430e+02
6.577223570698653532e+01
-2.464459697825665216e+02
-3.043404729971607026e+02
5.490876084988435650e+02
1.278796829195947566e+03
1.398788922935513710e+03
1.420011815009189604e+03
1.352465459617111037e+03
1.840089155958758056e+03
2.154863770478658353e+03
2.077724056963320891e+03
1.532571463561002702e+03
1.475343684162154204e+03
1.289046349465006415e+03
-8.022899119350548744e+02
-3.403640886407406015e+03
-6.143010970553911648e+03
-1.248457034331442856e+03
1.641039941593390267e+03
-2.406507862150376241e+03
-5.805064215621486255e+03
-5.206606422096301685e+03
-4.725124135384150577e+03
-4.209634875529287456e+03
-4.476164181685269796e+03
-3.928749328794330722e+03
-1.463343116392284173e+03
8.442454620901270346e+02
-3.054931343993712289e+02
-5.669581642457613270e+03
-9.130989488229148265e+03
-9.545731649531087896e+03
-9.026778601911526493e+03
-8.859121713224389168e+03
-9.303769101154410237e+03
-5.162755524791796233e+03
-1.154061494179241436e+03
9.763422222367055383e+02
2.355478282923192182e+03
2.848304427255662631e+03
2.843857672644231570e+03
3.046133503886624112e+03
2.729151703049490152e+03
2.642977130876522551e+03
1.647619549926973377e+03
7.280329079311414944e+02
9.117132481921136389e+01
-3.959316696467532211e+02
-1.071254482880494834e+03
-1.102842125490237095e+03
-1.151835694189717969e+03
-6.322866630240941959e+02
-3.292490856745150722e+02
1.663193579944742737e+02
7.034969754711684118e+02
6.842724253897388280e+02
4.206997303712876715e+02
7.318991740628354137e+02
9.428500100303837144e+02
1.025570086752919451e+03
1.631162948971295464e+03
1.929549389204832323e+03
2.877735141429793657e+03
3.573739007297375338e+03
3.459621103248685358e+03
2.366416158168261063e+03
1.183101879249870308e+03
-6.143506872354862480e+02
-2.997938945663900995e+03
-5.338571450677758548e+03
-7.299297866133121715e+03
-8.000137269072239178e+03
-8.116111930205461249e+03
-7.676203040438256721e+03
-6.644400750944843821e+03
-5.080656098669187486e+03
-1.896916523529647520e+03
1.695849390955267381e+03
4.723632305869413358e+03
6.189418571944402174e+03
6.036365832957900238e+03
5.735972474945857357e+03
5.702527080400922387e+03
4.826158682656487144e+03
4.064313155995614579e+03
3.467917070523329585e+03
2.815592183505945286e+03
1.715862788559634510e+03
1.062636442796695974e+03
-3.572523450075408391e+02
-1.410834731919565911e+03
-3.765173742682685315e+03
-2.571197746171239032e+03
-3.693782900473433074e+03
-2.084948178099901270e+03
-4.608111327132498900e+02
7.226124043916526034e+02
1.855486999663575261e+03
2.757888059270179838e+03
3.446935003023043009e+03
3.276704022434685157e+03
3.089256638385874339e+03
3.134558581349749602e+03
3.141634172569203201e+03
3.030482976108748971e+03
2.448144086638294993e+03
2.096625202186714887e+03
1.458957214449270850e+03
5.571266982195795663e+02
-2.191308791920281251e+01
-5.791078867978985727e+02
-1.077413020628992399e+03
-1.275889355648868786e+03
-9.015270348870442376e+02
-5.493208982126122919e+02
-2.552235382963008874e+02
-1.122635684002484311e+02
4.845305091808141356e+02
1.006153476308667109e+03
1.742748975939765387e+03
2.983347501580850803e+03
3.161845947444595822e+03
2.439361900785617763e+03
1.657950371509422439e+03
1.361544613617950517e+03
8.271153346479038646e+02
-2.062357583722680658e+02
-9.495523561745646930e+02
-1.448815454584759436e+03
-2.400053766785501466e+03
-3.139417534823737242e+03
-2.606929170918479485e+03
-2.240520307482282533e+03
-1.903252340744975754e+03
-1.531117452264875965e+03
-1.724992133459742263e+03
-1.360824181249595767e+03
-3.376085737592066494e+02
4.316120907009567986e+02
9.778187353535864759e+02
1.126943276125184866e+03
-1.007975271794329615e+03
3.510298286364525779e+02
1.816879395142262865e+03
8.715198280503716433e+02
8.389655713896487441e+02
8.192502043246130370e+02
1.303050525084310607e+02
-1.124040649634638157e+03
-1.555860277526388245e+03
-2.213197192193669252e+03
-2.606069117878770612e+03
-2.609455106293391054e+03
-3.023389582903046175e+03
-2.656010020678929777e+03
-1.598080174336432719e+03
-5.041541506489780886e+02
2.714875979000619850e+02
5.849400659135026217e+02
1.105978716704456929e+03
1.939405323508642368e+03
1.799440783937326614e+03
1.833833762233281732e+03
1.922943595096069885e+03
1.812407783961088626e+03
1.240336750269824051e+03
4.304193917233184266e+02
5.009147371789156296e+02
6.237527601437252542e+02
3.289166119491600284e+02
-2.241077426755559259e+02
-7.235386887244965237e+02
-1.198155078670642752e+03
-9.947022215083584342e+02
-4.023243591616247841e+02
-9.597899741146784436e+01
3.149508332784199638e+02
6.555594143380618561e+02
1.054005623099252261e+03
2.024442851196893798e+03
2.825550645469236770e+03
3.180303884557441052e+03
3.063606746186089367e+03
2.959172044012502738e+03
2.848023557631402582e+03
2.467179279937266529e+03
1.573513669594809244e+03
1.052443996525115153e+03
8.754136531737825635e+02
3.570370387559633514e+02
-7.145955094357089088e+00
-2.939806499513484255e+02
-4.037091343432812209e+02
-4.144888536798871428e+02
-2.461682323637398042e+02
5.302406879067477519e+01
4.848768212989578501e+02
1.387395058374977452e+03
2.172522120197775621e+03
2.794344910814907962e+03
3.616982931747670136e+03
4.082396400207209354e+03
4.236714554517549914e+03
3.911868487851810642e+03
3.543698491230037234e+03
3.092172987189914238e+03
2.156274189999730424e+03
1.307134854085654069e+03
2.267625478887559041e+02
-2.332981955314217885e+03
-4.924124774799707666e+03
-8.428594243694204124e+03
-7.906446595931947741e+03
-7.523704950413266488e+03
-7.159390615082841578e+03
-5.931542812128807782e+03
-4.916222273463019519e+03
-2.707438253807020374e+03
-3.614972105262353580e+03
-3.855759975844076507e+03
-3.511678704891205143e+03
-2.913747467442370635e+03
1.308956958052422351e+03
4.359443266440836851e+03
1.598763097280875627e+03
-3.409149406194311268e+03
-4.824312749386500400e+03
-3.018628352040615027e+03
-3.208188311316695945e+03
-5.634055548973433361e+03
-5.807229320817879852e+03
-5.946690904905211937e+03
-6.062417905840523417e+03
-6.072344542150915004e+03
-5.749385482439998668e+03
-5.418485276077731214e+03
-4.581503990278818492e+03
-3.661377959627366181e+03
-3.753227836760323498e+03
-2.149182892301925222e+03
3.533820696599488656e+03
5.187840945785389522e+03
2.558898277768677872e+03
-1.498605135390530734e+02
3.605750801476190645e+03
4.158712151616387928e+03
3.124953649014913935e+03
2.075502853532773315e+03
2.021444048032173669e+03
1.863758077823376652e+03
1.620416222290132737e+03
1.396415461666120336e+03
1.007826712840665778e+03
1.380829356649511965e+03
1.899523886822331633e+03
2.315838936740716690e+03
2.299710403840626441e+03
2.373185874938944380e+03
2.648484849538233902e+03
3.055661039279672877e+03
3.696596629779303385e+03
4.341348484276270028e+03
4.448994257388820188e+03
4.524578115867747329e+03
4.090140186249380804e+03
3.870638036282876328e+03
3.380025144257813736e+03
2.492437878443352474e+03
1.471882086781442240e+03
6.383800615796714055e+02
-6.105126838544477152e+01
-6.382323950949459004e+02
-9.840164569071241658e+02
-1.069191190259585028e+03
-1.131330997305851952e+03
-1.469381950317493647e+03
-8.548278907173325933e+02
-1.666096873998442049e+02
6.579057268874457804e+02
1.320264707504409671e+03
2.034623720684441196e+03
2.372624410108155644e+03
2.635983136789745458e+03
3.611820028654043654e+03
3.526542605863277913e+03
2.749239497885561832e+03
1.666012961073489578e+03
5.995378637852537622e+02
-8.005027378328452414e+01
-2.886313586897536538e+02
-4.561778911237487364e+02
-1.478667996692682209e+03
-2.218360039958460220e+03
-2.162155124380440157e+03
-1.583265606623580425e+03
-1.773733471582627999e+03
-1.793411272453815855e+03
-1.368246492844874865e+03
-7.143179343140719766e+02
1.234158644169177279e+02
7.619367593388699333e+02
1.347367591848394341e+03
1.982750386489924949e+03
2.153052050522493573e+03
2.365297592916383110e+03
2.747485904587846562e+03
1.940595059471219656e+03
8.336394663343635330e+02
-2.646453182514041558e+01
-4.877291628871280409e+02
-7.062238912861525932e+02
-1.457976593579911651e+03
-1.779953590246441991e+03
-1.212109274753220461e+03
-1.165489284007898959e+03
-1.103080624149562254e+03
-6.348612747004469838e+02
-7.978574563496022165e+02
-5.380182088883261713e+02
1.456308092917444412e+02
6.350686121281565875e+02
1.289273597546626661e+03
1.382309222874473562e+03
1.296248918694964686e+03
9.681616153620731211e+02
1.007078439761581308e+03
7.560504357120707937e+02
3.041433419745250717e+02
-6.672710057929448624e+01
-3.087307495438899423e+02
-9.420420242864296370e+02
-1.484772780335611060e+03
-1.857028554592785213e+03
-2.788910554638849135e+03
-4.497448180587594834e+03
-7.241695140919169717e+03
-9.482580330881097325e+03
-8.440947420940445227e+03
-5.362854078082687920e+03
1.746363946305887964e+02
1.074548751427004845e+03
-5.650940320832366979e+02
-3.916216125177205413e+03
9.831242350399304541e+02
2.060817515575970901e+03
2.108915477327125700e+03
1.359410706916154140e+03
6.843243497167001124e+02
1.308609928717481523e+02
-2.133178660372068123e+02
-3.670656440403171814e+02
-8.476969598187665724e+02
-1.324340506976706820e+03
-1.512981410538585578e+03
-1.543641030265374184e+03
-1.292308447655759437e+03
-9.709993058331285738e+02
-1.306333941316553080e+02
6.468014356224978201e+02
1.270265682250008467e+03
1.764751021329001560e+03
2.140248143820698715e+03
2.119809887894600251e+03
2.249436319531653226e+03
2.145094353636161031e+03
1.723763757496359176e+03
1.498474346722846803e+03
1.066205283967265586e+03
5.238463682982264800e+02
-5.064915445070440825e+01
-6.523836014618811987e+02
-8.894068174306577248e+02
-5.847422786733529847e+02
-3.443657511054630618e+02
-4.263026249449325178e+02
-3.665655676062048087e+02
-2.682148691043640270e+02
5.869697829292032054e+01
6.742722773135142234e+02
1.324603199235935790e+03
1.751706882293617582e+03
1.912567545596637046e+03
2.594209191613454095e+03
3.420633299133048240e+03
3.522842606071742466e+03
2.895801821530128109e+03
1.971527855467716336e+03
1.228989275019254819e+03
4.170616349396959208e+02
-3.982604582718270763e+02
-6.889756247101579447e+02
-1.067038567561308355e+03
-1.408461289502676209e+03
-1.738403088602226489e+03
-1.902934167732994183e+03
-1.296968087455540399e+03
-3.344647975576822887e+02
6.085970521169606400e+02
1.317435466819266594e+03
1.757808425250356777e+03
1.913654186463573069e+03
2.219149164615266727e+03
2.595219645346930520e+03
2.834947721749622360e+03
2.363391413043284501e+03
1.794588819074318963e+03
1.037459750804556506e+03
6.709745115745422481e+02
1.821112178565136333e+02
-7.961949995703844252e+02
-3.891842506731031790e+03
-5.376891976511628854e+03
-2.313434796859530707e+03
-3.819491329126713026e+03
-3.767009444722790249e+03
-2.968945905132101416e+03
-3.302268747591301690e+03
-1.313997147797215348e+03
-2.416063250492267798e+03
5.515597020782275877e+02
-9.781217700721924757e+02
8.239304772811656221e+02
-5.252675619228519963e+02
1.563056941692763360e+02
7.926213751466586928e+02
2.632671754259658883e+03
-1.048517570757654539e+03
-3.423918007307433527e+03
-3.368497644812040107e+03
-4.132446773510368416e+02
8.077235568476254457e+01
6.514795547701991154e+02
-2.270101822327536865e+03
-3.787938512594510939e+03
-2.406010934066550362e+03
3.407114197883869906e+02
-1.457792794878462473e+03
-1.182506058959573238e+03
9.475948851437270832e+02
1.427572907345807835e+03
1.732503397098587129e+03
1.896364572265612424e+03
-4.467943401993784391e+02
1.365086545040633382e+03
8.050401606687380536e+02
-1.964982797794653152e+03
-1.620959599836506868e+03
-9.918679449632486467e+02
-2.108691053859821295e+03
-2.353514643157788669e+03
-8.134322751042982702e+01
1.016823225422135465e+03
3.219808977256134312e+02
3.151443576068175503e+02
3.662796732877530417e+02
3.323659177916093768e+02
4.044762652354971237e+02
8.276273617437773282e+02
1.514867589949940111e+03
1.907215065869803993e+03
1.969704800268354802e+03
2.379388092270229663e+03
2.676166902892595772e+03
2.790063089411164128e+03
2.556080458932674446e+03
1.765474382339016529e+03
1.142483463362694465e+03
7.651506056104009303e+02
-2.339482460724605062e+01
-8.714595863341316999e+02
-1.519078558258054954e+03
-1.938263790565540830e+03
-2.389095345196060407e+03
-3.104487581548844901e+03
-3.112693661388110286e+03
-2.633505432923346234e+03
-1.386851191132876920e+03
1.393040213397145521e+02
1.201020963050176988e+03
1.855754751551233767e+03
2.858595188456898541e+03
3.537020653804518133e+03
3.957915225847964393e+03
3.957031392122851230e+03
3.053428834691605516e+03
1.841234048357498068e+03
1.104632356663997371e+03
5.295045300367047503e+02
-2.761011496775335559e+02
-1.118109637921889771e+03
-1.728593974324427563e+03
-1.919995100720952451e+03
-1.122629728338726636e+03
2.095759801704535050e+02
1.240939015101568430e+03
1.084589431905691754e+03
7.343220429345057028e+02
1.152784871160378543e+03
1.301437210964679025e+03
1.538556151568040377e+03
2.424969117469509456e+03
3.024031626824740215e+03
3.252929335756484306e+03
3.216754890312217412e+03
3.244493612558293535e+03
2.974067098181359597e+03
2.566473222747280488e+03
1.337682766942643411e+03
-2.883316142103082598e+02
-3.525521152513616698e+02
1.049646557334410062e+02
-3.058493807410879981e+02
