1.158113106377273198e+03
1.412117156656786392e+03
1.608872955602253796e+03
1.710415665650279834e+03
1.861790276935169231e+03
1.826008000273549897e+03
1.770165252392675256e+03
1.994331694660704215e+03
1.992476626965150672e+03
2.166591383405127999e+03
2.259721364350672502e+03
2.201933738378967973e+03
2.047276054505779939e+03
1.932793137930846569e+03
1.741534375635774268e+03
1.265498137632374892e+03
7.076690402897307877e+02
6.500868749979144923e+02
2.317524347494521351e+02
-4.104157941463233783e+02
-3.544829894372424519e+02
-1.532921073417343223e+02
1.348199768470044191e+01
4.390046422033848330e+02
7.973679810639683865e+02
7.488188648248839172e+02
7.792877480576552216e+02
9.996680218966638449e+02
1.353998474490316084e+03
1.128309906457401439e+03
7.306517992921146742e+02
-2.374292380095554108e+03
-3.823116555133772181e+02
1.233744120280541665e+03
1.254116060502868777e+03
7.935957327380677953e+02
8.268408644051079364e+02
1.005718873989750477e+03
9.522884746668840990e+02
6.940880431341727217e+02
7.818390928717648194e+02
1.201698626432352512e+03
1.041563126640535984e+03
8.144568157639256469e+02
6.959303419431856810e+02
9.694651346510675012e+02
9.469512140057502165e+02
5.881978724787555848e+02
5.921175980325878072e+02
9.046721327117645615e+02
1.131862205583728155e+03
1.401795894543202394e+03
1.468409252814371939e+03
1.303655065623099517e+03
8.265698614962502688e+02
5.601246355774978838e+02
4.023089801517104434e+02
7.708033819973501011e+01
9.343634380608224888e+01
1.154088374546093974e+02
-1.805979895520491141e+01
1.409946659325396183e+02
2.625750688267918349e+02
-3.536933297413178678e+01
-2.917980328502349607e+02
-1.897002309165220595e+02
4.090451156308584757e+01
5.089842066455366307e+02
7.975318808193674158e+02
1.032575255519838947e+03
1.231066103035397646e+03
1.270951663699923984e+03
1.116276627264129274e+03
7.009888345702153174e+02
3.170429020086231731e+02
-1.653549992927867862e+01
4.326398676639097118e+01
-7.759324294373371345e+01
-4.911522232445550458e+02
-5.414782170033603279e+02
-7.425234201840557944e+02
-7.783415878218422677e+02
-9.399265770907435353e+02
-7.773499115344363872e+02
-6.006938029823421630e+02
-2.109050408367419607e+02
-1.628970551497859560e+03
-4.028913273889142147e+03
-7.913774305822401402e+03
-8.544542701530635895e+03
-8.239228035158781495e+03
-7.812924665775988615e+03
-7.914565413204903052e+03
-7.311136835252880701e+03
-6.476750839426093080e+03
-2.239276284367432254e+03
-1.098176773055949269e+02
2.985646489529613632e+02
3.808728753286271171e+02
1.099642365720823562e+02
-1.401399363830457219e+02
-5.904241166122092181e+02
-1.759253216771885207e+02
-2.426965025780953340e+02
2.724152548338423330e+01
1.269095634533281896e+02
-3.327033612168825698e+02
-2.146100069958414736e+02
4.522159152149515080e+02
1.187737274520519804e+03
1.305881983005665006e+03
1.612672771578388847e+03
2.016152299656123205e+03
2.025260935865074089e+03
1.947004628857795296e+03
1.873404132212376226e+03
1.795498385245303325e+03
1.748229105342436696e+03
9.535361414866836185e+02
6.934207654101588787e+02
3.988322510979068625e+02
6.488033211298072729e+02
9.763303797580676928e+02
8.114504640876996291e+02
8.751423368019385407e+02
9.934338546261843703e+02
1.326313573880360764e+03
1.306728453884094051e+03
1.244788527824155608e+03
1.339501002329272751e+03
1.420820008700638482e+03
1.825733409541344599e+03
1.911301359211057616e+03
2.110561943592023454e+03
2.133509285242083024e+03
1.828085601583692323e+03
1.403320994754112917e+03
1.102224841640896557e+03
1.083755356763393365e+03
9.929270607139139884e+02
8.067482459542097786e+02
4.892263288513874500e+02
8.083850189123295422e+02
5.512537182555895470e+02
3.158575057030149651e+02
7.261661752378624897e+02
6.471998090840974101e+02
8.709806148980358103e+02
9.845634802296367525e+02
8.199978095828261075e+02
4.972646995805968118e+02
7.434112303692920705e+02
1.018460738764097869e+03
1.392416790831595108e+03
1.352289885984309194e+03
1.016077296499480099e+03
5.097904990962492207e+02
1.124284312473436387e+02
-6.209555049153808568e+02
-4.851457824588886979e+03
-4.208977190991388852e+03
-2.828489823701871046e+03
-4.910528584069246563e+02
5.593821090550337658e+02
9.884796209891183594e+01
-1.993662605320970215e+03
-2.668120105295720805e+03
-8.244271673919710111e+02
-2.768547132144177795e+03
-2.679488589927810153e+03
4.567564225711962536e+02
7.652451640011546488e+02
-1.610017447328801609e+03
4.479965783010209179e+02
-1.823713981013583407e+03
-2.101610235912336009e+02
-2.840372324341170952e+03
-2.858361180067809073e+03
-1.409139527742809378e+03
-2.890608894052430969e+03
-5.997397708001359433e+02
-1.025428374529940925e+02
5.199932623332545063e+02
-3.261003415124064304e+02
-4.660884669353939898e+03
-3.065336924595276741e+03
4.335872463601151026e+02
6.069403956573665937e+02
5.167160589346402730e+02
-3.578076153136979428e+03
-2.659391652336500556e+03
-5.511400366543563223e+02
-2.214282431697452012e+03
-2.252949060746068426e+03
-7.101383479579229743e+02
-1.824786997131499675e+03
-1.596582828832481837e+01
-2.507698518620971299e+03
-1.919930683862872911e+02
5.110778606887664637e+02
6.856162869846779131e+02
1.546192869044783151e+02
8.309181770723736804e+01
5.290319943066582482e+02
8.734480509515873337e+02
9.843188568118994226e+02
1.001584877099908113e+03
1.149263800308713371e+03
1.402566222658566403e+03
1.784389916538684020e+03
2.066573604464950222e+03
2.039001847396665653e+03
1.609733649895483950e+03
1.739033584951018611e+03
1.445251875637517060e+03
1.208030420707167650e+03
9.890431325269635181e+02
7.443777564430762368e+02
6.297920878481540967e+02
7.291477355224527628e+02
7.511749836947955146e+02
9.980773265215651691e+01
-8.628754299723151462e+02
-6.102520405100999596e+02
5.012969031631489543e+02
1.181627189299383417e+03
1.684518961582766906e+03
2.009677920059934877e+03
1.901843177946543392e+03
2.133392017198632402e+03
2.216698556807579280e+03
2.504524270448775042e+03
2.595778383478446358e+03
2.141312029384682774e+03
2.041537696799562809e+03
2.156471746294437253e+03
1.912413566535786231e+03
1.262443960985375043e+03
1.216672351383087062e+03
9.363396729686296567e+02
7.793524765520528490e+02
1.100355101875772561e+03
1.180307920261236177e+03
1.321933889309427741e+03
1.652731742243773169e+03
1.971240636491489113e+03
1.538187774546076980e+03
1.635310072420424376e+03
1.749026058137263590e+03
1.708757533913227007e+03
2.089564806006325398e+03
2.364048019053317148e+03
2.132104328549659385e+03
2.131750292095853638e+03
2.129976139967348900e+03
2.232724432787153546e+03
1.855780644853909052e+03
1.598114520396148009e+03
1.416771900657514834e+03
1.325679077038471178e+03
9.697909144277557516e+02
5.911981629017097930e+02
6.917485696901762822e+02
1.146350897720985358e+03
1.097939645140536641e+03
1.334401936788625562e+03
1.511713492560221994e+03
1.329068270032207920e+03
1.158417807698109073e+03
1.320517870493293231e+03
1.502189398160897099e+03
1.778659372298862309e+03
1.905143770260209749e+03
1.875615997419287623e+03
9.800845874173074890e+02
-1.397452448439217733e+03
-4.596217585013373537e+03
-7.575956123361484060e+03
-7.955612009442717863e+03
-7.863483977323821819e+03
-7.821205969034058398e+03
-7.249511338616364810e+03
-7.315517446660843234e+03
-7.321564398500414427e+03
-6.872817160238693759e+03
-6.179382358711244706e+03
-4.304391488315185597e+03
-5.597591182523020507e+03
-6.460446078779410527e+03
-6.067548989738648743e+03
-1.260959730313152477e+03
2.180233035152778029e+03
1.000925134976315121e+03
-2.392406309756773680e+03
-2.518625504875140450e+03
-5.853717705156331249e+03
-6.347898547998627691e+03
-6.286523153541059401e+03
-6.184563886696953887e+03
-5.848848396168018553e+03
-5.262216574408238557e+03
-4.644082277984641678e+02
2.407687447850805256e+03
3.125037010457967881e+03
3.208711570306305930e+03
3.063625854102637732e+03
3.133660650047684157e+03
3.449724900936902031e+03
3.254899918256453020e+03
3.010390084331436810e+03
3.276134266961888443e+03
3.284140633621313100e+03
3.381465380884473689e+03
3.160042978484912965e+03
2.944905445522219907e+03
2.851076383642950987e+03
2.700625744318835586e+03
2.451646594565778742e+03
2.266147250426031860e+03
1.852181442927501621e+03
1.530862483513568804e+03
1.478281153305892076e+03
1.459497873462760253e+03
1.287468825128021308e+03
9.771001943145231508e+02
9.685756637073418460e+02
1.116024900376797405e+03
7.414663108527506665e+02
1.045813842322028222e+03
1.140130821114402806e+03
9.517847456587854822e+02
9.509088653725136737e+02
9.914472664010074823e+02
8.991756105449439929e+02
7.180342576009370532e+02
3.031828737336133486e+02
4.908607327659035491e+02
3.621282182934003657e+01
-2.907127652737208905e+02
-3.330186787590794211e+02
-3.428692640527357867e+02
-4.961628877178316088e+02
-6.460169051959325088e+02
-7.920905477665683065e+02
-9.348944192220654941e+02
-9.040245110804530668e+02
-8.466574532988375950e+02
-1.106767431810375683e+03
-7.433397593888012125e+02
-3.623899914554260704e+02
-8.429581118060834797e+02
-3.127961279293150199e+01
2.977456066935185390e+02
5.141188347002084811e+02
7.938091249566421084e+02
7.297145369217449797e+02
6.708651282477501354e+02
3.075334843172740307e+02
1.677267084056019257e+02
1.393316781486207958e+02
-7.775399387532186779e+01
5.649178366223949155e+01
-5.986836722564815716e+01
-2.206733957699405835e+02
-1.929388873919216394e+02
-1.377544007730830344e+02
-1.600191580656548354e+02
-3.442737805172892962e+01
1.229109631182357987e+02
-2.841489675508152004e+02
-2.535028432426690586e+02
-3.181695926612769085e+02
6.663217295633978665e+01
2.359653985408335188e+02
2.819242113143909023e+02
1.944984550170556190e+02
2.769933333187854174e+01
-3.424748037423936466e+02
-9.171051536512846951e+02
-1.153228524699089121e+03
-1.034788983156203130e+03
-9.727951378492385857e+02
-8.873108921084885878e+02
-1.312404413328788905e+03
-1.331016872215851890e+03
-8.932022448782026913e+02
-1.014009566935514272e+03
-1.194423101879160413e+03
-1.215398909557030493e+03
-3.999489836747700906e+02
3.479064012095451517e+02
5.161578234957565883e+02
6.888466633107848338e+02
1.058881267886387150e+03
8.581084937600414833e+02
4.094855031093184152e+02
2.293177872740782277e+02
4.058221355431917488e+01
-3.508258206133408663e+01
2.812716516059889571e+01
-8.174836194562452363e+01
-3.886867963045649503e+02
-2.828369325545066886e+02
-4.283296299956568873e+02
-3.722277658070718758e+02
-8.592849984650839588e+02
-3.206021913472240499e+02
-3.327258028937222178e+01
2.696263196226522609e+02
7.401903728638667417e+02
1.005233756876998882e+03
9.527202069272863127e+02
1.210645785496275948e+03
1.128951034586091055e+03
1.203594698129544213e+03
5.716046291249555225e+02
5.740703317633222014e+02
7.304953949884913982e+02
7.647579666825187132e+02
6.008733940002384770e+02
4.949005882028016572e+02
3.697776800838896634e+02
-2.644637282142981007e+02
-2.689666684616427119e+02
-6.032727917937608098e+00
6.480330449108954838e+01
2.344685444794097009e+02
8.823244017045526562e+02
1.513258635154833883e+03
1.906666037176336658e+03
2.714294407921693164e+03
3.245429146230072547e+03
2.921668052355521468e+03
2.358224820250105495e+03
1.731748575689248128e+03
1.757060325154700877e+03
1.699325313884384286e+03
1.564226294546228701e+03
1.628840305023430346e+03
1.895141309760162130e+03
1.537258775004103427e+03
8.952999272708451599e+02
3.887124397149031552e+02
3.644076430478158954e+02
4.281124035068585698e+01
-4.010767373777979401e+02
-4.910570671537924454e+02
5.363058542952803691e+02
2.313735065296411449e+03
2.870557406921967868e+03
3.250649433192317701e+03
4.012795493384225665e+03
4.185244845541693394e+03
4.327799832221153338e+03
3.814711597820270981e+03
2.805585552620557792e+03
2.315474160366758042e+03
1.828350244732482452e+03
1.659203032054997266e+03
1.464003372313714863e+03
1.206752715307398375e+03
8.504385685752409927e+02
1.919709582655028726e+02
-1.345756167806182191e+02
1.204803294416099106e+03
2.034016711138448272e+03
1.559164448623316503e+03
-1.278647075085500319e+03
-5.179483350893078750e+03
-5.821338159938538411e+03
6.798061907389553653e+02
1.909974377825049260e+03
-2.182827510837121281e+03
-8.240585494825891146e+03
-7.579270748881742293e+03
-5.210811110193150853e+03
-4.499253672431219456e+03
-4.308636599507242863e+03
-2.918812211423072768e+03
-2.555660096684188375e+03
-5.918284306294650378e+03
-6.411720342452011209e+03
-6.863947470848918783e+03
-6.907984246852939577e+03
-6.546642738219408784e+03
-4.188882190588845333e+03
-2.486747403410468451e+03
-3.477238305092399514e+03
-2.203243623054222553e+03
-1.820668277133626589e+03
-2.942542965025864760e+03
-5.531825765297849102e+03
-7.361429488877990480e+03
-7.669272306616634523e+03
-6.566262314340175180e+03
-6.054326743455212636e+03
-5.662350813961198583e+03
-4.138264116700497652e+03
-3.921067351448268255e+03
-2.897758392653767714e+03
2.780640211447726870e+03
3.907096611082947220e+03
1.667718880585724946e+03
-4.380193342803568157e+03
-1.151164780680086369e+04
-1.078566096125895638e+04
-3.310127753319054591e+03
-1.502048915108448455e+03
-7.243953007640485566e+02
4.319728791090296909e+02
2.177144213142917124e+03
4.122163810844543150e+03
3.644968502022270513e+03
2.864783642611822415e+03
3.703927896734704063e+03
4.159496869786397838e+03
4.464417200625869555e+03
6.741499857467344555e+03
7.698820274045102451e+03
7.996480660229351088e+03
8.190470052258277974e+03
6.956888207793193033e+03
5.605769677662775393e+03
7.031242717382037881e+03
8.362426348739158129e+03
6.684327935892219102e+03
2.164978617576794932e+03
-2.305707878965003488e+02
-3.471964626534152103e+02
-9.248650594040005899e+02
-8.645278887508046637e+02
-1.114062684206120139e+03
-4.987382732133682111e+03
-5.416389673331268568e+03
-4.826851150248167869e+03
-8.377661097225860431e+03
-7.140824851488723652e+03
-1.486325597437858278e+03
3.797886508805971971e+03
5.828877866343590540e+03
6.378639015732588632e+03
5.827226587215101063e+03
2.548640115122304906e+03
1.730825668686565223e+03
4.924872855807388987e+03
6.001808615839027880e+03
6.609539242248909432e+03
4.437763755730350567e+03
-6.650716778844968076e+02
9.911297475877260865e+01
3.136245091739089730e+03
6.896969034431798718e+03
8.158571829269386399e+03
4.733197816667892766e+03
9.059439360370502072e+02
-2.445036383318911703e+03
-4.912080210364729282e+03
-4.569675492797632614e+03
-2.389887850539454121e+03
-7.333877548471713226e+02
1.644598185880805204e+03
3.457078695235971736e+03
4.064114172070495897e+03
3.078724643040489809e+03
2.684869172341848753e+03
4.557520056313655914e+03
5.345612028865706634e+03
5.560054342916576388e+03
6.313851156981756503e+03
5.887019692060854140e+03
5.020630787848437649e+03
4.047674512128769493e+03
3.265135448575794271e+03
2.843935305375732696e+03
2.157082447150345160e+03
1.435501440421349116e+03
1.023151535471899706e+03
1.141043123105089535e+03
1.919100807258866325e+03
1.816271346619243332e+03
-9.478424609908442378e+00
-4.651971998337414220e+02
1.610542646424130453e+02
5.502341803101677442e+02
-1.095652221009708455e+03
-3.295728458790866625e+03
-1.871017210761350725e+03
1.122471104623356496e+03
3.416688974697894082e+03
2.781575384239320101e+03
1.310744348556561647e+02
-2.117795752168408853e+03
-1.908040511939752832e+03
-4.437966831079065173e+02
1.603940330598793253e+03
1.868100683346297046e+03
-5.543443533355050477e+02
-2.857469157272467328e+03
-8.005328015567871262e+03
-1.267694793611289060e+04
-1.401034189466167845e+04
-1.318658865449528821e+04
-1.237672395246269662e+04
-1.058180671648110547e+04
-8.412880764602219642e+03
-6.981050476904635616e+03
-5.393382996502892638e+03
-6.879787132080754418e+03
-3.186421799999579889e+03
-3.383131992171972229e+02
8.145237078277035607e+02
2.106878071125701268e+01
-1.476732831421916217e+03
9.603574444238140018e+01
1.490348355355942658e+03
2.233177828699745533e+03
8.165469029688292721e+02
-6.396219635552495220e+02
-2.096437768946454980e+03
-2.641842890223916584e+03
-3.281857441311325147e+03
-4.985582502447365187e+03
-5.705051273491662869e+03
-2.956304699420628367e+03
-9.383393760695678338e+02
-4.121849900112240448e+02
1.282154511144760363e+03
2.993672795331820907e+03
1.899356458428473388e+03
1.330127059663568616e+03
1.977003286860357548e+03
1.690945003464901220e+03
1.981907787408578315e+03
2.288963206737907512e+03
2.215124341250409998e+03
1.885377757781933042e+03
1.900747235954647067e+03
2.229205063344267273e+03
2.018717579544970022e+03
1.292241284544770679e+03
1.121761373520088227e+03
3.262832639250701732e+02
-9.431630728176843377e+02
-2.027528261247036198e+03
-1.997791465758711411e+03
-2.060002863802433239e+03
-1.871211789303865089e+03
-1.510366822016140077e+03
-3.933119354903310523e+02
-5.305140195218782395e+01
-1.326667520979775873e+03
-2.807292435218591891e+03
2.481368300929371742e+02
4.345758061692271440e+03
4.766665450979305206e+03
3.829806842224473712e+03
3.251106997537233838e+03
3.497587996532224224e+03
3.125359252858920172e+03
9.394147372752088359e+02
-1.720271413921898557e+03
-8.616530859553184882e+02
-7.936695642275076352e+02
-1.554397736968208392e+03
-2.250773958466718341e+03
-8.137794135361739336e+02
-6.493830285811037584e+02
-5.545218402156085631e+02
-3.015464619063492790e+01
3.226802460867697846e+02
1.051113081752107746e+03
2.766171861003004324e+03
2.483930054624730019e+03
7.954100478543791723e+02
-1.092432564800988303e+03
-7.155421241249301829e+02
6.141343640908621637e+02
7.136050392755300891e+02
-1.907272019093022664e+01
-9.358068484197094676e+02
-2.580597897550423568e+03
-1.287435290606984836e+03
2.319660629123789477e+03
2.519737666528316822e+03
-6.841787303137322169e+02
-1.518097341301153619e+03
-3.869436254235750994e+02
1.187276377249316965e+03
2.556590066090678647e+03
3.362073607417805761e+03
2.720808261533884888e+03
2.025850293171846943e+03
1.044224134538076214e+03
3.689787483276471107e+02
-2.098766558018916157e+02
-2.633603363835889013e+02
6.095285386808820931e+02
-7.291055880579549466e+02
-3.510209029672937959e+03
-4.795797918063951329e+03
-2.800846748354461852e+03
1.317051384091941486e+02
2.282874892632710271e+03
2.655615550796284879e+03
1.481855340097021099e+03
1.084548394818804809e+03
8.917646491356640581e+02
7.551370745917450833e+00
2.188296970004348196e+01
1.028794371234602067e+03
1.419348438106055482e+03
1.989603728315226363e+03
2.471632349026220709e+03
2.544442796125903442e+03
1.900013285768408196e+03
1.317316101264314284e+03
1.447387935173043388e+03
1.614214806693755008e+03
4.398283199086718014e+02
2.224015090260117944e+01
-2.215675063713638053e+02
-1.685739090158305771e+03
-1.897293699259892037e+03
-6.731223704253458209e+02
-4.568861870942376981e+02
-7.385421470185610815e+02
-4.023043586409568206e+02
-2.997721484476617775e+02
-3.106580513738106220e+02
-4.155183757816813568e+02
-5.060771604941361375e+02
2.282062907158535836e+02
3.931035965369131304e+02
-3.983091105264053340e+02
-5.190181635170880554e+02
7.179530959713167704e+01
1.411048860584722036e+02
4.231603286324391320e+02
3.587718247921760053e+02
-5.758071993432614590e+02
3.244505247733338251e+02
1.025439023775116539e+03
1.051958271498894646e+03
3.029752585674048078e+02
5.757390075897853876e+02
1.456312766524669769e+03
7.300545179864814145e+02
-3.100366678482479799e+01
-2.663375683533107576e+02
-6.020218006988206980e+02
-1.110206716700820380e+03
-9.499892884414358605e+02
-2.190106650926478551e+02
9.862602308371867821e+02
2.252218244776707706e+03
2.841359552936175987e+03
2.493563857526081847e+03
9.520262534680293811e+02
-3.016897036290074539e+02
6.726789481645508886e+02
1.440522327672938673e+03
1.299020055582411942e+03
1.546622950474373965e+03
1.431897676148866822e+03
7.200164331296324463e+02
3.047655900316050293e+02
3.219667346694820935e+02
2.453353944410964615e+01
-2.154620846598701974e+03
-3.254373955079522148e+03
-9.266718456474927734e+02
2.571301577968168658e+03
5.167533551040141901e+03
4.462998999044935772e+03
3.614479409459686849e+03
3.628010459421857831e+03
3.078631314238628875e+03
2.429289752158189913e+03
1.563091424111509468e+03
1.446061129979834050e+03
1.769928481483786982e+03
1.406652268023599845e+03
9.364481396684491301e+02
3.236188979973242112e+02
7.230666975510342809e+02
8.296118626923848751e+02
7.472397067680292366e+02
5.558734735730556622e+02
-1.346483718803479178e+03
-4.871516514664399438e+03
-7.396421395753732213e+03
-7.284304054587772953e+03
-7.333827395196587531e+03
-7.774320938965381174e+03
-7.468211355166075919e+03
-7.274606879703636878e+03
-7.603350073273152702e+03
-7.069359480389763121e+03
-6.358561173216007774e+03
-4.879707543460477609e+03
-5.555925677556923802e+03
-6.208568893975105311e+03
-7.376548297192490281e+03
-7.767773384436433844e+03
-2.260963342336648566e+03
8.941648351911746886e+02
5.111748932613199372e+02
-2.156163213473700125e+03
-5.710954908575778063e+03
-5.592954308456517538e+03
-3.459770179322231797e+03
1.691704522857019811e+03
3.842489652403260152e+03
-2.243618902610768373e+01
-2.321882223713463986e+02
3.457080908684047699e+03
3.129332448049408868e+03
2.397495049140636183e+03
2.260587113445971227e+03
2.837712277801047094e+03
3.578980140525796287e+03
3.847394700448868207e+03
3.415801644750853029e+03
2.431322174423433808e+03
1.301028832911137442e+03
5.629005235987115157e+02
6.440127449692776054e+02
9.484741095169692926e+02
1.642379691460269214e+03
1.744751787967085647e+03
2.312638567919561865e+03
2.453115272328117044e+03
2.211216631195080481e+03
2.598942348740504713e+03
2.817298328351725104e+03
2.938291944382014208e+03
3.014015274833708190e+03
2.790628995305709850e+03
2.545095288862708003e+03
2.465384952173029887e+03
2.473484049330505059e+03
2.108616027856914116e+03
1.805950392279967900e+03
1.613244578169376609e+03
1.549342116886593203e+03
1.327274170021857572e+03
7.653485948140827304e+02
8.777948665828967023e+02
1.313668908466309631e+03
1.250794927491679573e+03
1.196101879741956509e+03
8.615573304027402628e+02
1.017331025681984329e+03
8.956061654398356495e+02
4.884625500722306128e+02
2.581310882497033390e+02
4.649877488689272127e+02
2.649629131809682576e+02
3.899103393560464497e+02
4.508177232312556271e+02
2.046022290325130371e+02
-2.176384214608085870e+02
-9.330337775391946025e+02
-8.416684126993402515e+02
-8.662038625120882216e+02
-1.013025197998703675e+03
-8.328757428769862372e+02
-1.205488712366255726e+02
2.487653280217301983e+02
9.010506704345620221e+01
-3.317836937973780778e+02
-5.328667992168325327e+02
1.999792142251260145e+02
2.948958927950395150e+02
-2.781008369080543616e+02
4.697486477493661283e+01
5.671075634440868498e+02
4.163609203585270393e+02
2.228556765404148621e+02
-2.935209745246943385e+02
-3.290442945166399227e+02
-3.576756570015294301e+02
-7.872920488613747239e+02
-6.630200635339454038e+02
-5.048668168402929268e+02
-6.066081242698815004e+02
-3.642571127403129481e+02
-5.149042441622110573e+02
-1.318512161107150632e+03
-1.253117677056577350e+03
-1.129643254235508039e+03
-1.407077754173077892e+03
-1.030447353310389417e+03
-4.587695465862251467e+02
-1.690456310963060389e+02
-3.282133489300061342e+02
-1.363213888287820510e+03
-2.229088965421218290e+03
-2.350854083520614495e+03
-2.426481610511516010e+03
-2.406993908058200759e+03
-3.070514230619072805e+03
-3.707978294551354793e+03
-3.774378874977664964e+03
-2.259776097249566192e+03
-4.852862440584124215e+02
7.161145680748627456e+02
-5.264241213779653208e+02
-1.844849268890228359e+03
-1.581587838927473513e+03
-1.958580869676102623e+02
6.346156571154475614e+02
4.559142126719685848e+02
1.997863025435302475e+01
4.407284916747478860e+02
9.922003539764667721e+02
6.675273312701129953e+02
7.657232353553523581e+02
7.075003409499577174e+02
2.749227653690329589e+02
6.502517710382863925e+01
-2.642077435239351644e+02
-3.809816199291970520e+02
-1.982852688701676982e+02
-1.671571035183773404e+02
-7.995944533297380303e+02
-5.656916968134236186e+02
-1.794587236459747146e+02
-1.987534075207233242e+00
6.808709570771287645e+02
6.001852465419630107e+02
6.888807671844657534e+02
8.197216766387780353e+02
6.135926261846195757e+02
6.135936101944473648e+02
7.527896585502559219e+02
1.037146905269861691e+03
1.399691233437732308e+03
8.891413823765119560e+02
5.692225587052234914e+02
6.921421904174197834e+02
3.851528889106976408e+02
4.571110323276428744e+02
6.088210050704692549e+02
5.861912124234537487e+02
2.231585945722346196e+02
4.070277208863467422e+01
-1.070737886948939490e+02
2.458194936359393807e+02
8.694054406813038440e+02
1.255621290809831635e+03
1.278459235532898902e+03
1.185865051092220710e+03
1.473709846448880171e+03
1.777119802286843424e+03
1.548220932811162129e+03
1.753902738174580691e+03
2.194891063543029304e+03
2.457052929467203739e+03
2.140321751936793135e+03
1.819767903567907297e+03
1.746536270282392934e+03
1.372579770736704177e+03
1.268856690382868919e+03
1.125403276980005330e+03
6.860947985369402886e+02
8.388467677667864564e+02
8.927193352612690660e+02
1.050672024181917322e+03
1.602683070850076092e+03
1.732756575292299885e+03
1.660926847326052666e+03
1.950200859037452574e+03
1.927482297007249599e+03
2.128772649762141555e+03
2.056179955025413165e+03
1.948663078622138755e+03
1.780209950710920566e+03
1.067934991915163209e+03
3.607549786226922492e+02
1.310501648131343700e+03
1.058238364511652435e+03
7.889958762857207830e+02
8.676973870491076468e+02
5.053761235012617021e+02
2.140444882819421366e+02
3.347166435849671871e+02
8.863986096355627069e+02
9.560366061752749829e+02
1.045660658245329387e+03
1.223405507346446711e+03
7.272273547189922738e+02
-8.919670620040153608e+02
-3.715034495890740800e+03
-7.143035998283345180e+03
-7.604961481319512131e+03
-7.043760833931050001e+03
-6.982533475435773653e+03
-6.756265964545132192e+03
-6.690936869478501649e+03
-5.508459460081203360e+03
5.410778286835873274e+01
-2.515259278447330871e+03
-6.780412328404433538e+03
-6.381325069369455377e+03
-6.288040342217675970e+03
-6.464538541535903278e+03
-5.869742960935603151e+03
3.203057969520009465e+02
2.016598488605737657e+03
-2.560861449278984310e+03
-1.865132810015047880e+03
-1.070132985002939222e+03
-5.036771817619513058e+03
-5.582932280458441710e+03
-5.981570229025247500e+03
-5.889795085554407706e+03
-5.834602499997691666e+03
-5.241928512649219556e+03
-1.274788715021486269e+03
1.907893545007871126e+03
2.670206386378695697e+03
2.315111163439996744e+03
2.238605177922702751e+03
2.166774864975388027e+03
1.820820575202581267e+03
2.117666318067494103e+03
2.138087310459253786e+03
2.199958076454573984e+03
2.305371378673912659e+03
2.307566064379373984e+03
2.220572283959519609e+03
2.504354117411073730e+03
2.425001998435123369e+03
2.437575518394191022e+03
2.639130833534974499e+03
2.444656271400229798e+03
2.205148627845613646e+03
1.855688793940062851e+03
1.951283667060886273e+03
2.316979294954811394e+03
2.678708108812516002e+03
2.591502897459566611e+03
2.278504274995248579e+03
1.793667453001681224e+03
1.279966507149206791e+03
1.262610109387684133e+03
1.112905320464481065e+03
9.167813000263090544e+02
1.166273320129902913e+03
1.508450053947088463e+03
1.733281447621271582e+03
1.808822729026435354e+03
1.843136082905779631e+03
1.729173629712618322e+03
1.522861486598176725e+03
1.578094381667300240e+03
1.379030338016910491e+03
5.867533936256397737e+02
5.114405611525312452e+02
1.011267265954134018e+03
1.248336601889292297e+03
1.080475265828805277e+03
5.178046371712313203e+02
-8.824839255704628727e+01
4.206905350484910855e+02
8.963785716935683467e+02
1.285637906855545680e+03
1.308178955255853907e+03
9.291197711536848374e+02
1.418995015934533967e+03
2.061721183926852063e+03
2.043855089752395997e+03
2.114668591335601377e+03
2.137016649991589475e+03
2.320790831688697835e+03
1.909906891346370003e+03
1.508358330299770387e+03
1.120161742047891266e+03
1.122335341687070468e+03
1.225932560668851238e+03
1.333959184654579985e+03
7.814115708144793189e+02
4.502031802658532911e+02
4.993409127317797243e+02
3.167514023598163249e+02
4.914769800097775487e+02
8.214721525857494271e+02
9.727381829645396465e+02
8.083113023023007599e+02
7.011374110109705953e+02
1.013191658093731121e+03
1.309482907616916691e+03
1.233006041672967967e+03
1.244775474553066488e+03
1.541772765241335492e+03
1.039980806576582381e+03
5.893792054398002165e+02
7.249856557560357260e+02
8.137675895242150546e+02
5.307100106115206017e+02
3.780336066961919528e+01
2.300415312524587534e+02
4.594064600257931374e+02
7.268430478325091144e+02
4.363297603170761363e+02
1.509020172371126591e+02
-5.843710227319299122e+01
-9.364853191143933486e+01
-1.422815088784043382e+03
-3.117963344189509826e+03
-6.867028662435161095e+03
-7.655031691123238488e+03
-7.265030395453105484e+03
-6.968002596423667455e+03
-6.968987422105224141e+03
-7.098014737319562300e+03
-5.212061918251249153e+03
-5.393135847822200049e+03
-6.663204487464719023e+03
-7.253302199728682353e+03
-7.837490195457759910e+03
-5.191770004652255011e+03
-4.271676225108770382e+02
4.142553878004302987e+02
5.785382391277920533e+02
2.617003036999338974e+02
2.897635588889740461e+02
1.424722615399129154e+03
2.123503405487220334e+03
2.529148285807658795e+03
2.175728593693552739e+03
2.028151918459295302e+03
2.308388898079367664e+03
2.725459994532106066e+03
2.238434729893722761e+03
1.722303379949689088e+03
1.394997290060682417e+03
1.347514358047638098e+03
9.888822700811566619e+02
8.510806347627129753e+02
7.561068933075484892e+02
7.109606827449910043e+02
6.666532763111677014e+02
9.823738775731884232e+01
-5.542328466447114579e+02
-1.658523271423416361e+02
1.003772252606889310e+02
-2.794737217188965701e+02
-6.504003978412760034e+02
-6.914089047526920240e+02
-3.605294012284762744e+02
2.923310171636722430e+02
1.144243845429469275e+03
1.299202669613315493e+03
1.216180370357837319e+03
8.231855848173744334e+02
-1.797724314108669432e+02
-4.206278676789368660e+02
-7.838142743944814583e+01
1.695456957524699249e+01
-2.147576671609502341e+02
-5.585647425448009926e+02
-5.034284182653211701e+02
1.085772257199641722e+01
1.593648860632222863e+02
-2.580101232346632401e+02
5.069532262097439457e+01
3.304645613920422988e+02
3.453479243484423478e+02
4.313391135800125085e+02
7.233852646419064740e+02
9.855084021506197587e+02
6.651945917974596796e+02
2.056508954076342945e+02
2.356559489444219935e+02
1.860492508636458524e+02
2.188496144783617581e+02
2.700574676749417335e+02
-2.343513931622204893e+02
-1.016393514242365427e+03
-9.210311606664296278e+02
-1.771220400226157608e+03
-1.943924963584570605e+03
-1.541184376098081657e+03
-4.089194672865382927e+02
6.568599289548499200e+02
6.851507986871655476e+02
1.399874256612797296e+02
-3.916100447091025103e+02
-2.816099044745753872e+02
2.920177532558360554e+02
6.062982691612583039e+02
7.132270517029164694e+02
5.677616974034716577e+02
2.579801200256234210e+02
9.486529248430369421e+01
-2.485431997443736805e+02
-1.902051250002939184e+02
-1.801661361893835931e+02
