-1.218251527176221600e+02
-3.070325827459056711e+01
5.928213671578180310e+01
-9.488544054658662219e+01
-3.316793370382357153e+01
-1.376017323247836259e+02
-3.821553182544221841e+02
-1.398362718487635448e+02
-9.963472066966677687e+01
-4.655086683995006638e+02
-3.774624227518715998e+02
-9.649560026258747314e+01
5.736165273792386188e+01
2.201275742568551834e+02
2.487939017780240363e+02
6.541645411674426214e+01
1.340118537480701946e+02
4.858191922629205095e+01
-3.339254409797882772e+02
-1.824620514286303319e+02
-2.830360614213913095e+02
-2.436109547799276811e+02
-2.211624064791912474e+02
-2.916325459445444608e+02
-2.670596090458482195e+02
1.595530256656710151e+02
1.502425493662525184e+02
-2.279641253030442556e+02
-1.360744337387589837e+02
-3.410961653167384497e+02
-6.380161741754259310e+02
-5.388088818242038087e+02
-2.084618257163790531e+02
1.830095572993961923e+02
1.126215298636964661e+02
-8.369420171991092161e+01
-3.338706885854124948e+02
-3.678887883067928897e+02
-1.927649622022183280e+02
-2.744405355215383224e+02
-2.029121241815330734e+02
-1.471917339883633247e+02
1.870532363405014564e+01
-8.619437732409700459e+01
-7.184931275757142544e+01
2.907120402411016471e+02
3.604987301659359105e+02
3.425128734552667424e+02
3.487974966558199412e+02
5.433050002517936719e+02
7.160368941946683208e+02
8.050363081265368237e+02
2.522816551381676788e+02
2.087755828625413983e+02
5.134705597325286135e+02
5.784149338004192487e+02
4.116420510515216620e+02
1.621612242892630888e+02
1.749675433402720728e+02
-9.930343237648147081e+00
8.445782576883011927e+00
9.508629228956333179e+01
1.820114599728661062e+02
1.782557306300783182e+02
-7.624195714503325405e+01
-1.554832715854997502e+02
-9.345168687049080347e+01
-4.512841200067370551e+01
-6.652549988799241021e+01
-1.066431503802533456e+02
3.705254389447451899e+02
4.629810781840266714e+02
5.707280093376178911e+02
6.187508207274327106e+02
5.770516415607110048e+02
2.376515489278114899e+02
-3.449423833839082221e+01
2.145699901100215925e+02
-9.310552650707302291e+01
-1.655222619537666731e+02
-9.072055028009602040e+01
1.829676235993902012e+01
7.490732764196430082e+00
-2.150845923829513140e+02
-4.402477844323321676e+00
1.014648359767753050e+02
-1.914804197580193090e+02
-5.919285808128410054e+01
2.812870585294845682e+02
2.459225668543901122e+02
-2.935839633493998591e+01
2.064444069152752661e+02
4.034828193598186203e+02
4.879139406837575166e+02
2.097538903280635623e+02
2.716479265152780727e+02
-4.042375340632770531e+01
9.363635154884829603e+01
3.077818550850429347e+02
3.231269645943197588e+02
7.364781030006988658e+02
6.288806895492666627e+02
3.845436259370662242e+02
5.550600679046306141e+02
2.435145810439710772e+02
1.989414418276856509e+02
2.145652482514111270e+01
4.009888028341677568e+01
1.126196503498530888e+02
3.700370750902351915e+02
3.925513323223415796e+02
3.478609746683266621e+02
5.770689172930561881e+02
5.792939518269537302e+02
3.313059162341576211e+02
4.992226641609724425e+02
7.142119145019647704e+02
7.842723511021341665e+02
1.020940044549952177e+03
1.002236409947535321e+03
4.603027633400049581e+02
5.791377740999570278e+02
9.235856192388444015e+02
6.689178242782985535e+02
6.060683380327465102e+02
8.188643521078345202e+02
5.372515710595785094e+02
3.054834999458593643e+02
3.883071375945636419e+02
3.617784334910737698e+02
7.159154711799247934e+02
7.868410645267363179e+02
9.844227759429717253e+02
9.166041145074749465e+02
9.323728493408452778e+02
1.047709332080713011e+03
7.356418422001198678e+02
5.761800059101458373e+02
-2.072340111683942609e+01
2.208890800891402080e+02
1.940439397853662626e+02
4.073987781129410735e+01
-9.400515587846215340e+02
-4.057289792784200017e+03
-4.898014948923862903e+03
-4.141229427481900530e+03
-3.979833293840954411e+03
-2.496032584109340860e+03
1.592380172850090787e+02
7.639756899778714114e+02
8.262191475194929353e+02
7.379510297275525090e+02
9.193024657037606175e+02
-1.280871151326314248e+03
-2.618655875159626703e+03
1.640103471137869064e+02
6.191525725297454983e+02
7.258180539283262078e+02
6.890379748485746632e+02
7.448840344430758478e+02
8.011230493709523444e+02
-2.671800375014768179e+02
-3.027961170824829878e+03
-3.599262350428060472e+03
-3.497081211111199991e+03
-3.311415495330024896e+03
-3.283227370980252090e+03
-3.291487935587205811e+03
-3.596219401364624900e+03
-3.214380403888256296e+03
1.600394228960507803e+02
7.800329077550512693e+02
-1.005408686824190909e+03
-3.278304145616222286e+03
-3.066584436500300853e+03
-3.238249893017894919e+03
-2.842296472659937535e+03
2.462809652106923579e+02
1.640488131844668487e+03
1.893364855614051748e+03
1.663927793882736978e+03
1.546222268155357142e+03
1.724216143829271005e+03
1.574915781347388929e+03
1.733400602966031784e+03
1.775643506231609990e+03
1.791618938926220835e+03
1.810362490508179690e+03
1.352920803046321225e+03
-4.197102320584596100e+02
1.170492492414595745e+03
1.487580779697024354e+03
1.321531998306511468e+03
1.343376955498050847e+03
1.424114822094237297e+03
1.539750242511438501e+03
1.483325971552923193e+03
1.251837380243555572e+03
1.261287658929144982e+03
9.617257183305506487e+02
8.041957475319236437e+02
7.287378203514191455e+02
7.723267615939265625e+02
6.689812226825742982e+02
8.717059342443945980e+02
7.085244235384203648e+02
7.444612296391369455e+02
4.075605699060195093e+02
3.778256028803721165e+02
4.462464790176446172e+02
4.858058337109282547e+02
4.265488953878008829e+02
6.825604411482278238e+02
5.929331368549966328e+02
4.798824264963533324e+02
4.730946608991607718e+02
4.615924164164070476e+02
3.746382955994491795e+02
1.660575289237784204e+02
-7.906098614481176412e+01
1.984025678250027340e+02
-1.716647350070295204e+02
-1.872484135910639509e+02
-1.433419950154700473e+01
2.713601372652442834e+01
-1.238184987254282845e+02
8.189657696196664460e+01
2.312476055140174935e+02
3.402739735869779736e+01
1.214511730103406251e+02
2.637193374959776406e+02
3.575928729194365019e+02
2.239887787067189322e+02
-6.091030371434878816e+02
-3.488658283411644788e+03
-1.113646909348507506e+03
1.639280144047024805e+02
2.400575651123783132e+02
1.898003136277719136e+02
2.511148844520600960e+02
2.740343086485978006e+02
9.153228127060074826e+01
1.205875324461397753e+02
1.723640484840960241e+01
1.144981124966402746e+02
-4.863521901672798720e+01
-2.081858691101979844e+02
-2.891380026166826269e+02
-6.750230494640717893e+01
1.618312122575333660e+02
-6.932374739946787656e+01
-6.398458896075028690e+01
5.898204200197225688e+00
-2.976379059785507479e+02
-3.684701722088082079e+02
-1.337085113346153378e+02
-2.705044323455678068e+02
-3.447515293812297159e+02
-2.844971297368909902e+01
-9.160809038377367131e+01
-3.229460746205103927e+00
-1.023197230504683546e+02
-2.179091238136423954e+02
-2.979649847004450862e+02
-1.895762686883109893e+02
9.322893001518767164e+01
2.944628604757663766e+02
3.411274860982130690e+02
2.202038132602106089e+02
8.866720845485417613e+01
-9.647116617933424720e+01
-3.230569460231541346e+00
-2.663543706136372435e+01
4.628998136404207031e+01
-3.484535437466493590e+02
-2.788609140096148735e+02
-6.889546109797472582e+02
-9.197158916792255923e+02
-9.981860624923396017e+02
-7.743790737401953947e+02
-5.243005419232226814e+02
-2.989461429604863838e+02
-4.153759039584739412e+02
-4.555685383776099684e+02
-2.665163476720853168e+02
-1.122928886771800734e+02
-7.790476417574598145e+01
1.286406368053200708e+02
3.532998053548294024e+02
3.460715497914526395e+02
6.359484021036508921e+02
1.479389379259658313e+02
-1.139867875262316375e+02
3.711212167015663255e+01
3.319913818368384284e+01
1.842927759491066411e+02
1.013806537538942365e+02
2.954546189216036396e+02
5.452052478319616569e+01
-1.984538612520001948e+02
-1.114888562477532759e+02
2.240334141395117129e+01
1.516236134183684925e+01
3.680733053483229611e+01
5.043593543886717612e+02
4.297738017226515126e+02
4.670223554543156865e+02
7.100870908484093889e+02
8.009498468765627877e+02
8.676214619194507804e+02
3.230219045769363220e+02
7.516227936038974633e+01
3.080774663405696856e+02
3.918003011796978399e+02
6.173150804654247850e+02
7.895465262675537588e+02
5.315152101759354082e+02
4.371920342222601334e+02
5.666126831204813925e+02
6.557872298426141242e+02
7.117182275476495761e+02
5.563563523155439725e+02
4.346602339625269451e+02
2.877055058317523617e+02
5.150813407042384284e+01
-1.294725687876172593e+01
1.843360750552134277e+02
1.563191988944314517e+02
-5.947030553395397767e+00
1.455248296988230834e+02
4.876023826454297705e+02
7.542213527320366211e+02
6.436364644436772551e+02
5.227579772889808964e+02
6.814999592823767216e+02
5.378106417613651047e+02
3.186494115316423859e+02
2.370347704403621947e+02
-2.140297189948922210e+02
-2.165015635554811979e+02
7.666414573281923595e+01
-1.964966188522399477e+02
5.200633650659565888e+01
3.811662581904764124e+02
4.500051551496821389e+02
6.186026817694682904e+02
-5.399971695136943026e+02
-1.988785590281801205e+03
-1.856897563190037772e+03
-1.265396377941050105e+03
5.437198739669945553e+02
-9.945114900302796457e+01
-1.299909938652578376e+03
1.653706686237964618e+02
-1.615660585982636121e+03
-2.210303922133871311e+02
-1.922689264614846479e+03
-2.166652053866133429e+03
-5.719361133217767019e+02
-1.572651444055379670e+03
-2.685830769998350661e+03
-3.154329605875918332e+03
-2.138152404722897700e+03
-3.233274373440648901e+02
-1.161902547150262762e+03
-2.015857365510194541e+03
-5.118838327798084720e+01
-1.368824858596422473e+03
-1.625795705302937904e+03
6.089533653336879837e+01
-1.118691652250852258e+03
-1.094498544091553867e+03
2.935198863035927275e+02
1.280345014769527779e+03
1.286978438189368489e+03
7.138161419490823789e+01
1.953787323711949497e+01
-1.015469035425922186e+02
-1.893954446223515333e+03
-1.227085146901897588e+02
1.138267828837270599e+03
6.859800090010963913e+02
-1.191565861126475511e+03
5.827061118017803665e+02
-4.631978594810111645e+02
-1.052320949750377622e+03
-1.031652685593889828e+03
5.367748398573469331e+02
9.409808703270632577e+02
1.195994740527344902e+03
8.948621178711463244e+02
5.615618439718464288e+02
6.741157063759430912e+02
1.037577934722791952e+03
1.058918926968212190e+03
9.751868782027036104e+02
9.223472598612933098e+02
9.514341383176157478e+02
9.974685739170214447e+02
1.181542327232366688e+03
1.134832598341880839e+03
9.991662406957638041e+02
9.755109693690633321e+02
5.729360341140237551e+02
8.883172186647469744e+02
1.018536934167815730e+03
9.626988455901276893e+02
1.030852900356719374e+03
9.509122521465455975e+02
7.447823684089919425e+02
9.219224472039419425e+02
7.023702131368701203e+02
6.788590027562066780e+02
6.663529778767439211e+02
5.049788854802719129e+02
6.867468405088743566e+02
6.196683183171139717e+02
4.577487215938643317e+02
6.902438629989840138e+02
8.820005688684645975e+02
8.169664172616036240e+02
4.962366514033000726e+02
2.757704397668844649e+02
3.166100299446866870e+02
8.483882447145592209e+01
2.882908310701037067e+02
4.268626342837870311e+02
5.994626663845946268e+02
7.514709199852505890e+02
4.208548778692023120e+02
4.834165389296964577e+02
6.011034544093395198e+02
4.461067755586731209e+02
1.323886960321989648e+02
-4.017490976838461592e+01
7.510062577262494266e+00
8.934300152237979376e+01
2.413338426869779312e+02
1.654751562863476408e+02
4.772406187350398454e+01
2.991118752462995189e+02
5.056080948061545541e+02
4.122205973455908747e+02
3.309367992969368970e+02
5.437822409353591411e+02
5.557644966577732930e+02
6.890495522064665010e+02
9.773631287781839774e+02
1.002775156280798228e+03
1.136330597928872521e+03
8.510003840607229222e+02
7.927835771503957858e+02
8.496715116247499964e+02
7.606955292018865293e+02
5.858507734898029184e+02
5.041132559372451283e+02
4.525356293505048484e+02
5.600679377882727294e+02
4.406894519129745618e+02
4.064366160165415067e+02
2.093347517460432528e+02
1.453220573420124140e+02
-2.558326901148515375e+01
-3.338863876334872316e+01
9.994906207160714473e+01
-4.935893271359292385e+02
-1.870044785528619059e+03
-3.135452576823156051e+03
-4.005828614342695346e+03
-4.100965207629574252e+03
-1.144949288354642022e+03
-2.045856956898772523e+03
-4.297647904703298082e+03
-4.163345117011298498e+03
-3.543932453237581740e+03
-3.500423524867303968e+03
-3.959813410878626200e+03
-3.698134779570845240e+03
-3.737346557813243180e+03
-4.160426500374045645e+03
-4.091450931477573704e+03
-3.984409272848178716e+03
-2.703277087287086488e+03
-1.480067973114863662e+03
-3.201790420753856324e+03
-2.769434767983155325e+03
5.559568339961577976e+02
1.390382700581842300e+03
1.427875984842727803e+03
1.132444355574908968e+03
1.023121321487367709e+03
1.232108087454819270e+03
1.187998399240879280e+03
1.124859567826883222e+03
1.336777725448813726e+03
1.145744209500861871e+03
1.244736542698054791e+03
1.331746784672059675e+03
1.062815128852151702e+03
8.899606046977258984e+02
1.109147310301599191e+03
1.350339332963936158e+03
1.524547037222418339e+03
1.866785646822906301e+03
1.561048678543313372e+03
1.432291470804568689e+03
1.168535589509831880e+03
8.138331243922965541e+02
5.231393662738162220e+02
4.404494889670295947e+02
5.637889802216390081e+02
5.541374702999514739e+02
3.464830804413938381e+02
3.228426891044881586e+02
4.961903441765049934e+02
7.344830005862567077e+02
8.427998045494041435e+02
1.271113925220971396e+03
1.333401557448396943e+03
1.843690691425803607e+03
1.921975018133219919e+03
1.594262350023838962e+03
1.010502936069266866e+03
9.426314721950067224e+02
1.039767076122307799e+03
9.137792520151241433e+02
1.169708902942234772e+03
1.294761806644492026e+03
1.034903094190772663e+03
8.201608174477411239e+02
5.845243045872692846e+02
1.550474035489058622e+02
6.067325994962542524e+01
1.544161772392467640e+02
4.231501577374395850e+01
-9.268202989849596918e+01
-2.365651720450794642e+02
-2.532877352014917705e+01
1.281858906459852108e+02
4.417864254996821956e+02
7.214234816928080818e+02
7.400497936863362156e+02
5.546629184043455325e+02
2.692721390125778385e+02
-7.313826007305743815e+01
4.040802049852386801e+01
5.029358515185245437e+02
9.954152990024912242e+02
1.256941943816794037e+03
8.424781641898814541e+02
2.139587058791837251e+02
1.734233359710235050e+02
-1.061431003641391442e+02
-1.817237817409337595e+02
3.962799856835875545e+01
2.419592709051391921e+02
1.302747872335314980e+02
1.525539258870387016e+02
-3.322670072618302584e+01
-4.904651368248673293e+01
3.600772217126117880e+02
4.670857632060356650e+02
6.400211249806926617e+02
8.319061788997296389e+02
9.526918656504168439e+02
6.523813712071682858e+02
-2.430049684111625652e+02
-6.294380565494769826e+02
-6.708959622954013184e+02
-3.614342399958633791e+02
-1.920436504546424032e+02
-6.667670464433475672e+02
-1.089586683696426689e+03
-1.726480006682149451e+03
-1.806480741635682080e+03
-1.614602415384399592e+03
-1.302823471063378747e+03
-1.844149840135306022e+03
-2.909543911899805607e+03
-2.927039342506363937e+03
-2.627644321872028286e+03
-2.460328550134194302e+03
-2.244142684072514839e+03
-1.803098851504774530e+03
-7.611727429556534616e+02
5.306435064199281442e+02
2.802864107324790552e+02
-1.038251390552393332e+03
6.680868894885422833e+02
1.606305251375894386e+03
2.215416897376369434e+03
1.650343144414370499e+03
5.731225336243281845e+02
-3.532240909158209092e+02
-1.421720728322370860e+03
-2.304316763989990250e+03
-3.078006698287249947e+03
-3.074870655799699307e+03
-3.313884670535068835e+03
-4.247092151568265763e+03
-4.715529158716070015e+03
-3.884134228673450252e+03
-2.583922135389631876e+03
-1.123756233364571926e+03
-6.716170445606322801e+02
-1.035726285938259707e+03
-1.615125604803511351e+03
-1.424690312384128447e+03
-8.793081031280596562e+02
-2.880031456188278298e+02
1.591785640050896973e+02
4.403378788334881619e+02
1.292248159549770889e+03
2.656115773948762580e+03
3.576823931934359280e+03
2.890217601327232842e+03
1.923523627885840369e+03
2.163767117580110607e+03
2.599910005868638109e+03
2.497826301854177473e+03
1.788390193926958318e+03
1.163668178112319083e+03
5.778265679087979834e+02
5.387611720339288013e+02
-1.213165694929064102e+02
-8.015038365110464156e+02
-1.141144594190577209e+03
-1.168780803789200718e+03
-1.875311505901536293e+02
8.135692848671463935e+02
1.909336941951415383e+03
2.902786730895372330e+03
3.592135153266328416e+03
3.795369900605519433e+03
3.453350869610909740e+03
2.888338231395166531e+03
2.508962446627775535e+03
2.157366490413669453e+03
2.016554284040173798e+03
2.261729173309993712e+03
2.538640260325317286e+03
2.488420405491114252e+03
2.347959373408668853e+03
2.062365861162845249e+03
1.592536641103437432e+03
1.475476563247715376e+03
1.585182530163854381e+03
1.374712740473581789e+03
1.428077370805114242e+03
1.649240716671661175e+03
1.476187123907171099e+03
1.219935639711683962e+03
1.162480966208790733e+03
1.191829833542280312e+03
1.246008553753710657e+03
1.431014777634408574e+03
1.104826124430499249e+03
4.444137964415507724e+01
-7.413025362459262624e+01
1.641509671194727957e+02
3.213236207821940411e+02
6.683081901202788231e+02
6.810432450717354413e+02
7.986939617399962117e+02
-6.296938221655233292e+02
-3.698185683927629270e+03
-4.091800547605144857e+03
-3.724524698857271687e+03
-2.348340044943812245e+03
-3.396233437450627207e+03
-3.332203455918060172e+03
-3.384265689876795932e+03
-3.300414888642578262e+03
-3.217614471122210944e+03
-8.838516536562142392e+02
-2.735156607940726190e+03
-3.991538060279629917e+03
-3.590967813373844365e+03
-3.604399536782608266e+03
-3.210861869434437722e+03
-1.557360745599568872e+03
-2.292863376938712463e+03
-4.024381289489793289e+03
-3.673926119889786605e+03
-2.154963359792631366e+02
8.189052394903877712e+02
-1.970689501979784382e+03
-3.861282332251869320e+03
-3.960857555037142447e+03
-3.991396101019893649e+03
-2.264908389286612874e+03
8.265640932565823107e+01
5.662695676539468650e+02
7.739206336557151644e+02
9.976260753390279206e+02
9.954019875421305414e+02
1.077250686344231553e+03
1.084158150011982343e+03
1.104108837553796093e+03
9.211488988861613052e+02
1.069265531641705820e+03
7.614391096246907864e+02
9.726741805478098968e+02
1.049984134036215210e+03
1.026355295547594096e+03
1.141804982080549507e+03
1.072353910917961457e+03
1.069020710616082624e+03
1.024803254627694969e+03
1.261655688783537244e+03
1.275637864856162651e+03
1.207760084319365205e+03
1.526989244451773857e+03
1.329334227617090619e+03
8.568048951107763287e+02
9.454174428950358333e+02
1.292162547317183225e+03
1.234043861956488172e+03
1.050083141020906623e+03
9.482480250922097866e+02
1.017579442576191695e+03
1.164033999164437773e+03
9.106249571983308897e+02
8.251914858467951319e+01
-1.315149626944137026e+03
3.624634788705122332e+02
9.274875894878877034e+02
5.214986423243032050e+02
7.369210763058052862e+02
7.138715159725171588e+02
8.661773047486274208e+02
7.246842539610524909e+02
5.494021342737100895e+02
4.916513897998932521e+02
3.110621343368110274e+02
8.025256391722057288e+02
6.044830028276076064e+02
4.327025497427709411e+02
3.791438309089592735e+02
5.737208594480027841e+02
7.373696919635146969e+02
7.345434273694946796e+02
4.638882885370443319e+02
2.273236223729602727e+02
4.308842061251486371e+02
5.825421177626963072e+02
3.663338945201044794e+02
1.922311724687279764e+02
-1.581958442160201450e+01
5.219817419400305880e+01
2.782726259244221296e+02
3.403874890162499582e+02
2.555392134540234963e+02
3.074125129431349635e+01
1.050276260316782952e+02
7.383709834313507372e+02
9.057717472629981330e+02
8.601827493748410234e+02
6.806194778488380734e+02
6.620654883788648704e+02
6.305250135858947260e+02
3.310209421772985934e+02
3.665418028475516508e+02
6.811114032690128397e+02
6.957033442653411157e+02
7.573320038782062511e+02
7.770018970268782823e+02
7.396755549155718654e+02
9.193559856785025204e+02
1.017076204567512946e+03
8.258204194267387948e+02
4.485554584792139394e+02
7.492486288116888318e+02
9.409201140636095033e+02
6.385475560580073306e+02
6.231235962026910329e+02
5.356150362002637166e+02
7.730714021860753746e+02
6.195016163808494412e+02
-5.610651990084363661e+02
-4.776637504562477829e+02
-2.514326584912059843e+03
-4.637001232609981344e+03
-4.500729311646352471e+03
-4.567513837867452821e+03
-4.396320299412635904e+03
-4.244154764374326987e+03
-3.864012753704096212e+03
-3.747905779144291955e+03
-4.008811833195573854e+03
-3.680773307507451136e+03
-3.903755084428968985e+03
-3.688742709984324392e+03
-3.229744905141029903e+03
-2.347849248154240911e+02
4.621278826298898821e+02
7.319803158026278425e+02
7.017326837839780183e+02
6.694291412070492697e+02
6.860724355627851310e+02
7.406835848047087438e+02
5.772830913218984961e+02
5.268314987546956445e+02
4.302936362566507569e+02
8.216670583413459781e+02
9.539285860904433321e+02
6.551525611551350039e+02
7.344026533976298197e+02
8.506362694412746350e+02
1.029863030481973738e+03
8.490820497755112228e+02
8.402392125711842255e+02
8.503085188499326250e+02
9.673801067887533236e+02
9.054507872528961343e+02
1.030492987631367214e+03
1.018515214834840435e+03
7.654913318829259197e+02
5.344389875535036936e+02
7.353468426958726241e+02
5.912113154889973430e+02
3.650722549446279572e+02
4.049396662949570214e+02
1.488459383171579873e+02
4.017724551891302553e+02
5.047224675983781594e+02
6.976841413759885882e+02
5.706364891565647213e+02
7.116344323589439682e+02
7.656958974514659531e+02
5.178664965892085092e+02
3.030999915161648914e+02
3.733573463036146336e+02
4.046395486908194243e+02
7.890347222536271374e+02
8.366332615980202263e+02
7.573236827002003793e+02
9.930688898959631388e+02
7.559138256399128295e+02
6.418150229544698959e+02
6.707265455323720289e+02
6.926221281628232873e+02
1.914855536515760264e+02
-2.296099744506775551e+02
1.103890650775455669e+02
2.433507935083269729e+02
6.083036157076124937e+02
2.912852545046272894e+02
1.453500023732837576e+02
1.635576574876948541e+02
-1.309193799770169875e+01
4.243613559114834999e+01
6.901838121176072036e+02
7.821818886305159140e+02
6.563468519278873146e+02
4.937103057602092804e+02
-2.867654495329312070e+01
-1.833535474248528807e+00
-8.747813950199671007e-01
3.791335113640604959e+02
4.751555257776533381e+02
-1.013735586797494761e+03
-2.893459672576066623e+03
-1.706027595803323038e+03
-1.123481378795954470e+03
-1.621829958300406588e+03
1.869229492467995044e+02
2.857514144841969141e+02
6.976611517174964092e+02
7.186180301622864590e+02
4.445471061896135438e+02
1.584510416989953683e+02
2.814861268364692819e+02
4.006905973816550954e+02
5.399426569933718838e+02
6.972599372943985827e+02
4.296571544325930745e+02
-1.819807893326548992e+03
-2.555115166217331534e+03
-1.635264862024684362e+03
-9.832764093778627057e+02
-5.800940946657551649e+02
-2.684708285618566606e+03
-1.877125306837776861e+03
-1.376343224924203469e+03
5.435467674131176636e+02
2.264983892226623254e+02
-9.565080575429166174e+02
-9.054788308370862069e+02
1.096272561296853922e+02
-7.612203495716810266e+02
-2.729935110336061257e+02
-1.017631654195443389e+03
-1.710856844601612892e+01
-5.334412999713605359e+02
-2.196637050005780907e+02
6.432284082816493083e+02
5.762222123600166697e+02
-8.906658452007015967e+02
-6.054398385034957073e+02
2.319316638358366163e+02
3.184515816632879250e+02
2.711027999079543065e+02
3.768348883030851653e+02
4.847332417442124779e+02
5.297894144965529222e+02
6.689678350701610725e+02
7.442525993621547968e+02
5.776587561399053357e+02
4.162128695327415926e+02
6.248878907282687578e+02
8.306711512110699687e+02
8.975313902921920999e+02
6.545123864926332544e+02
2.726688256586617740e+02
3.939525363027128151e+02
5.473115714737175495e+02
3.086258932115542848e+02
-1.138935598940868886e+03
-8.733136206958624825e+02
2.064134232785279721e+02
3.853967912202555794e+02
6.569406218035388179e+01
2.032383165480893297e+02
1.000514545120929171e+02
2.617479703602567156e+02
4.146005030913732980e+02
9.860679457624132738e+01
7.494919340014483566e+01
2.272802161590961134e+02
3.827498357177431672e+02
5.161719173677332719e+02
4.906784319528238711e+02
5.094011413143767300e+02
7.780184251183937931e+02
6.517308332696699154e+02
5.884357331370169959e+02
5.641108684447757469e+02
7.758230820823428076e+02
7.746647794894006438e+02
7.994499719206537520e+02
7.307720148026347715e+02
4.450088918250449979e+02
3.732879477879717456e+02
5.186008900165755904e+02
5.869382372274103545e+02
1.850514547440997717e+02
4.219392592417158312e+02
4.624721592831542125e+02
3.438838504773333966e+02
4.741799380267549395e+02
5.572002760587587318e+02
5.499709531935034192e+02
7.084696554094887233e+02
6.336635225479046767e+02
8.225724577108541098e+02
8.001899575828585967e+02
7.744986506151500407e+02
5.465447120493817010e+02
5.442636975700938820e+02
5.166664399987380420e+02
4.167505711380636626e+02
6.774898873267202362e+02
7.259345597734917419e+02
9.090521804670453321e+02
5.458083764849438921e+02
7.312192713296798274e+02
9.353098957042363963e+02
7.320723843178383277e+02
5.674715922910505697e+02
6.465550962140036972e+02
6.843472134949188330e+02
6.307805329137303261e+02
3.548374775407323796e+02
3.955364100588955694e+02
-2.231153423670847076e+02
-2.960930530905487785e+02
-8.854185135895359053e+02
-2.401132852611010549e+03
-3.146211626817344040e+03
-2.438585763667697847e+03
-3.698158467274298800e+03
-2.688177878282869642e+03
-3.705579943609457587e+03
-2.889265816772138805e+03
-2.136281796541788935e+03
-1.264586245381163053e+03
-1.706196778161188831e+03
-2.670072626248686447e+03
2.107847694034630877e+02
-6.606549738890167873e+02
-3.673376494372394973e+03
-1.541406033364740779e+03
-1.628701085860176590e+03
-2.214251153813613200e+03
-2.634061203790878153e+03
-3.771145352040768557e+03
-1.972501491437770937e+03
-2.529121499831386700e+03
-4.889852863553560383e+02
5.009443386442294468e+02
6.426405705014927889e+02
9.981089027369670248e+02
1.251381510968539260e+03
1.230475411948445753e+03
1.242424536192397227e+03
1.105219359929717712e+03
1.084850993781935358e+03
6.033841381851927963e+02
5.518236353283497237e+02
1.060156063277682733e+03
9.393873697394476494e+02
8.924618143809821049e+02
6.524026917903079266e+02
7.232346853846668182e+02
6.150086169548362705e+02
8.637285992232998524e+02
8.403675527077139122e+02
8.329552424636884780e+02
1.017538563349035826e+03
7.270801850734222853e+02
5.965762890043861262e+02
7.370715607639872360e+02
6.705894860855695470e+02
5.531671454879003704e+02
6.877880538029185118e+02
8.674419675505050691e+02
9.221547075174544261e+02
7.069980825895097496e+02
6.849196988797913264e+02
8.289567623622624524e+02
6.111096814263881924e+02
4.843496954350549686e+02
6.858078585091839159e+02
6.143933634665914951e+02
5.591944788091168448e+02
5.102575493210947002e+02
1.993334866127463272e+02
3.477629745311114675e+02
4.217770114526977068e+02
4.152369636985658872e+02
4.861306199223606086e+02
5.005610746119399437e+02
5.255984015925547510e+02
9.496390002377631845e+01
1.965687229998962380e+02
-5.258416875081307751e+01
-7.031029041416678638e+01
8.251753250838467579e+01
1.258486254375020650e+02
2.826076576872441706e+02
3.606211825933834803e+02
5.431503377864542017e+02
2.610070350295353023e+02
3.031685368074933535e+02
1.466109196074793317e+02
7.334248159921500587e+01
1.263889873910431021e+02
1.077782001469225719e+02
5.550432986392675616e+01
1.285728827309094982e+02
-2.800826357616406312e+02
-5.294451381938669101e+02
-3.334619263969264580e+02
-1.471738959343933004e+02
-9.858559390928327559e+01
1.203048702821621276e+02
-4.448210130476817170e+01
-6.199328192088416927e+02
-4.070613678690004917e+02
-6.087333703028935616e+01
-3.073343024631608387e+02
-3.644641177515091499e+02
-3.062850982546911496e+02
-2.717690807869078640e+02
-3.129137648035554662e+02
-3.827933526293099931e+02
3.864737305281907709e+01
1.804037468811225153e+02
-6.453303127848823806e+01
-3.081236033442073108e+02
-2.844537670643069873e+02
-2.351663609255613707e+01
-1.243310968364795883e+02
-2.748500677546795146e+02
-3.260971232122859078e+02
-1.660788716988116676e+02
-1.467785494898967613e+02
-4.061733409550196257e+02
-5.553289536685690564e+02
-5.052245763822245976e+02
1.210997616151919232e+01
4.765075546275993190e+01
-7.557497902606996831e+01
3.183740700340579792e+02
2.725310856482352051e+02
-1.420988460959657971e+02
-1.945468017984424307e+02
9.016987869109208020e+01
-1.299302666715022667e+02
-1.153861134337866361e+03
-9.606878947145490883e+02
-8.403844061313320708e+02
-3.459598607421518182e+02
-3.224084417027272593e+02
-3.217583302563098755e+02
-5.230015284702103600e+02
-7.971856903511951487e+02
-6.702864679588096806e+02
-2.193719359563058617e+02
-1.254259276170049304e+02
1.205782666672515262e+02
1.976392108399791709e+02
3.107665987793706677e+02
3.098916883029334031e+02
1.779858531412228331e+02
5.502535871305449433e+01
7.302624265227215972e+01
3.191136034458385211e+02
5.330534876799642774e+01
-1.196083758580290208e+02
1.138918199254221797e+01
3.193364960920503677e+02
2.930685367806691488e+02
2.246530331625586712e+02
4.190916625179437460e+02
4.433762899425902333e+02
2.965260142682266746e+02
5.435510060804361956e+02
8.023936895363702888e+02
5.680642618707894371e+02
8.054993008687356451e+02
7.167119986754134970e+02
5.887332802942703438e+02
5.737258022216660720e+02
3.786329222007949511e+02
3.432797559957542148e+02
2.766627610353038449e+02
8.779316872479236622e+01
-2.512120790381390734e+01
1.546938871594657030e+02
3.442071753843902684e+02
2.262889259113102867e+02
1.991096282863543934e+02
2.547267222888234528e+02
8.220439028705247893e+02
6.629662510235773425e+02
2.006615834969542220e+02
7.902250796020770451e+01
3.641257489227474480e+02
3.968498508694621592e+02
1.043085466928091165e+02
2.464090819215179238e+02
3.611048201097083279e+02
4.174563133591806832e+02
3.065876029698197840e+02
4.083946799452123173e+02
2.757965356761245062e+02
1.908395116577072486e+02
-3.794641947596799696e+02
-2.141025193764984067e+02
1.898827803877985616e+02
4.645024789152171820e+02
1.837892413526335247e+02
-7.426347323841062575e+01
2.143306015370377224e+02
3.415751881604077766e+02
4.214777715065553707e+02
3.130482138771841392e+02
2.752835102355778645e+02
5.017537063202799885e+01
2.778343999297065281e+01
-2.579482798354744091e+02
-2.361992261730042628e+03
-2.237290663026677521e+03
-1.454761176440978488e+03
-1.376504537014398466e+03
-9.285893302297356513e+02
-1.963981439978541175e+03
-1.630623784036560210e+03
1.364695765761511836e+02
-1.700678192182282601e+03
-2.670091768034114466e+03
-2.707733636255549754e+03
-4.960331418025140238e+01
-1.417686904754811394e+03
-8.040003744229763925e+02
3.534806544352451851e+02
-7.792555981284048130e+02
6.480672988594052697e+01
-1.653298622300267652e+03
-1.178603471400190529e+03
-1.391083379163674863e+03
-7.370999087305392550e+01
1.825346537844839645e+02
5.306392645198660603e+02
5.976099199165272466e+02
-1.005548618786972611e+03
5.421924212173502156e+02
-8.214444487169082265e+01
