-5.338373980564161911e+02
4.467594859950517048e+02
1.355869887661310258e+03
1.912472523002378466e+03
2.277607015491172660e+03
2.757264945767360132e+03
2.450391460735384499e+03
2.386996497644378906e+03
1.837970108735445365e+03
1.210248949558291770e+03
9.767953680210025595e+02
3.513726339525732101e+00
-1.031574612490216850e+03
-1.350455251004894990e+03
-1.669237522941983343e+03
-1.447894551282667408e+03
-1.246428083345637333e+03
-1.378825261871014618e+03
-1.263034186285518672e+03
-9.300253424873681070e+02
-1.388555973678223268e+02
9.774495816716818126e+02
1.841916793300276822e+03
1.680507252921774125e+03
1.637093472485096299e+03
2.501556328148311422e+03
2.415114499730649641e+03
2.239894225038539389e+03
2.014850352731987869e+03
6.179983479588884165e+02
-1.006782898486005934e+03
-1.449491565396149781e+03
-6.971036411932312831e+02
-1.028682385935385582e+03
-1.565259611419792918e+03
-1.972817803674262450e+03
-1.809368241371666954e+03
-9.538423118925990138e+02
-2.771910262033624690e+02
2.572880272044899286e+01
2.885702202196657140e+02
1.355288622512452548e+03
2.692110794862319381e+03
3.338081014835971473e+03
3.528229427559367195e+03
3.867612250328830214e+03
3.984420632490514890e+03
3.503215763457295452e+03
2.755593992219531629e+03
1.884838781803597158e+03
1.038100873627923193e+03
3.314003848616764571e+02
-2.173125193830080093e+02
-8.729625780913105473e+02
-1.343330289089390362e+03
-1.411679969373622043e+03
-1.361101474177649379e+03
-9.696016343796534329e+02
-4.761602393588627251e+02
4.032632316716150171e+02
1.197661727885148366e+03
1.959117160441943952e+03
2.990665140322815205e+03
3.459281608583821708e+03
4.032964524523920772e+03
4.096755608974692223e+03
4.069643300547996660e+03
3.923616938636334453e+03
3.293674010991596333e+03
2.107819145091180872e+03
1.537015570663533936e+03
1.075303924480858996e+03
5.826491475115984713e+02
5.100539028747730868e+02
5.255705832888112639e+01
-4.208203633563314838e+02
-3.190236065826995286e+02
-1.556006904403371891e+03
-3.834750918973792068e+03
-6.913180442917883738e+03
-6.085251748901289830e+03
-5.468896447974500006e+03
-4.606078913714369264e+03
-3.753761869595778535e+03
-3.390921989715933705e+03
-2.825539558341400152e+03
-2.315559514829661566e+03
-2.481005258096628950e+03
-3.620825349687813286e+03
-4.783015779347763782e+03
-5.889606827482396511e+03
-6.404594944096519612e+03
-5.553965964170553889e+03
-3.302701660592890676e+03
-3.945704477596157631e+03
-9.929500438681819787e+02
-7.764476459832018236e+02
-5.677117192609631275e+03
-7.423872960348691777e+03
-6.126614926347455366e+03
-5.169315044263225900e+03
-4.423900356155841109e+03
-3.566356503480236370e+03
-3.083639921235391739e+03
-1.286689673874592017e+03
3.921528422003405012e+03
5.738136437644441685e+03
5.802122547125930396e+03
4.855429433630253698e+03
3.967050477544923979e+03
3.110979872049083951e+03
1.974257688981891079e+03
1.415956840493948221e+03
9.900176481998073541e+02
2.544637027225111297e+02
-3.496177672307848638e+02
-6.231505867409669008e+02
-5.470675650715418215e+02
6.446925324818807894e+02
1.446204436536296043e+03
2.195517652921445006e+03
2.811680908805684794e+03
3.802712489760184326e+03
4.782699027584453688e+03
4.992664158950199635e+03
4.831618745650163874e+03
4.720598792728624176e+03
4.695603689904747625e+03
3.834679582408768965e+03
2.561803175309438302e+03
1.543962192524779084e+03
4.881290856029605152e+02
-3.736242288251273180e+02
-6.612981969283498529e+02
-1.151879654599720197e+03
-1.012334263231190448e+03
-1.132611440552726663e+03
-1.255655333038536583e+03
-6.433928822772885496e+02
3.052021609837304368e+02
1.186191533764011865e+03
1.515676991021917729e+03
2.252613416936845624e+03
2.930001394423918100e+03
3.387850562127022840e+03
3.797201360818899502e+03
3.312061385061709188e+03
3.212460765752828138e+03
2.715362691084711514e+03
1.217606128529194848e+03
-1.984445385323529365e+02
-2.102951710663286576e+03
-2.163954356828167420e+03
-1.848551676136050673e+03
-2.299557411603205765e+03
-2.495117734852470221e+03
-2.270160644974352635e+03
-2.108578495861684132e+03
-1.331595243648256201e+03
-5.551937595901347322e+02
-2.703210806525319754e+02
1.970470743904482731e+02
1.312930131373422228e+03
2.204312534731170217e+03
2.691191319347475655e+03
2.626558755618526902e+03
2.428486805754437682e+03
2.306018166992066199e+03
1.683067042361863059e+03
1.068539837278137838e+03
-2.185915909746717318e+02
-1.499358526020712361e+03
-2.167827946870124833e+03
-2.762002764201248283e+03
-3.028970445309221759e+03
-2.978775530468984925e+03
-3.023416307330322979e+03
-2.785916351533055149e+03
-2.467348723220507054e+03
-1.776707227746371473e+03
-1.408932526847554072e+03
-8.230514218556088508e+02
1.143850240273011423e+03
2.109790142847227798e+03
2.720827750784997988e+03
2.834948975672555662e+03
2.620177989359705862e+03
2.207488056821018745e+03
1.574829482439736239e+03
1.010054372690565060e+03
1.570910250529809673e+02
-9.280757255883104335e+02
-1.802548918412521971e+03
-2.590459042198643147e+03
-2.848812113126789427e+03
-2.983682437590192876e+03
-2.871062547875296332e+03
-2.924015522320952186e+03
-2.508594327311131565e+03
-1.863823877412944512e+03
-9.246850369615351610e+02
2.482806144151666317e+01
5.107029359973794271e+02
-1.250927920554165524e+02
-2.430607579691450155e+03
-5.391789471731670346e+03
-5.179660356318488994e+03
-2.309231159136801580e+03
9.703816173072448237e+02
9.550861040867198426e+02
3.058206143203118472e+02
-5.425502192617956325e+02
-7.609922911491570403e+02
-1.559609050491808148e+03
-2.886594885086997692e+03
-2.887949102668433170e+03
-2.906591280485043171e+03
-2.536614799459672213e+03
-1.641219608352977048e+03
-8.553942656674161071e+02
-1.710882178356795293e+02
4.686921431949123189e+02
1.401972275931566173e+03
2.553721250455857444e+03
3.702914500694520939e+03
3.935517175575032979e+03
4.209497215433079873e+03
4.420910574126928623e+03
3.714717403354436101e+03
2.497845068425661339e+03
1.275154161396677864e+03
5.565458188985943480e+02
-2.300245601201276884e+02
-4.136399201607275131e+02
-7.623778221878303611e+02
-7.683088522250928918e+02
-8.234154820699834545e+02
-6.007203573921204907e+02
-2.252343549392030297e+02
-1.620139762932444114e+02
3.839328497744947981e+02
1.469593028469929322e+03
2.500972091721402194e+03
3.092138023058244471e+03
3.288117734595308775e+03
2.820885827102057647e+03
2.722410310623410624e+03
3.170704117063938156e+03
4.049691081815036796e+03
3.801404324285379062e+03
2.372771902378919094e+03
1.103671649289185552e+03
4.521018062128277393e+02
1.897005754420381152e+01
-4.947947682251427750e+02
-6.461373806252468057e+02
-1.780836555387932663e+02
-1.766582730867586122e+02
-3.678642593431648606e+02
-6.086785737585112201e+02
-1.304076206033879970e+01
9.650702879691746148e+02
1.759630463317240810e+03
3.280729591342458207e+03
3.980352736010188892e+03
4.301549072179509494e+03
4.508340004528886311e+03
3.701649305681458827e+03
3.296536510348891625e+03
3.303048269231831910e+03
2.004152147153910846e+03
1.005817638831370687e+03
-4.001857083989425234e+01
-9.463656597080664596e+02
-1.105193327235633660e+03
-6.284821556272069074e+02
-6.071920754547802517e+02
-7.213644599081153501e+02
-2.480412483704641602e+02
1.790439360599520668e+01
-1.309420480475751674e+03
-4.611989195830220524e+03
-5.514836038794221167e+03
-4.672916677878501105e+03
-4.098172767050908078e+03
-2.975489947473491611e+03
-3.163744095294571707e+03
-3.248842705595699499e+03
-2.879888286771470575e+03
-3.219960120655061473e+03
-4.030984545206427356e+03
-4.740928420612740410e+03
-5.761746936364543217e+03
-6.020488112041663953e+03
-5.587249821087925739e+03
-2.858013955948460080e+03
-4.393659277154141819e+03
-7.031096327729701443e+03
-7.110358495612212209e+03
-6.569488517633341871e+03
-5.433367250249573772e+03
-3.132866310556868939e+03
2.700051276006718581e+03
3.831423068386097839e+03
-6.546484809407738794e+02
-2.324072256870987530e+03
-2.312805700492651795e+03
-2.057753015929770754e+03
-2.531923268082124196e+03
-2.116330161731234512e+03
1.594142311765314616e+03
2.443455564905269057e+03
2.142575753531691589e+03
1.557504794988604772e+03
9.852903848504221287e+02
7.139701307809483524e+02
1.145333788111327777e+02
3.899651254429224991e+02
1.110331252433546751e+03
1.519711627751730930e+03
1.841280024657406557e+03
2.688137860947318586e+03
3.424341930917464197e+03
4.022875758541892537e+03
4.554783613482336477e+03
5.097108447599825922e+03
5.029995729902723724e+03
5.302443859613939821e+03
4.883466127005298404e+03
4.105066335863263703e+03
3.375155215384314488e+03
2.424636541573356681e+03
1.666466412470819705e+03
1.007660319939286978e+03
6.961794135579357601e+01
-4.224502352888565042e+02
-8.144694011453593703e+02
-7.236721794824138669e+02
-4.980457729536852298e+02
-7.951843149574047231e+01
3.780875755235151132e+02
8.278544208396427848e+02
1.786753053551340145e+03
2.244818029098646093e+03
3.155060955414397085e+03
3.950792075000515979e+03
4.086194804240354642e+03
3.854420006975973138e+03
3.290064465502203802e+03
2.338828560117425241e+03
2.044842897904614347e+03
1.513286492604274372e+03
1.608355733194433412e+02
-9.534048576762755829e+02
-1.686870950588651340e+03
-1.721955158297996832e+03
-1.918558649889821936e+03
-1.663631898040741135e+03
-1.688670478370225737e+03
-1.647617905341126971e+03
-1.263487848535490002e+03
-8.262424917071663231e+02
9.881121606664632964e+02
2.627683500790414655e+03
3.377505132693752785e+03
3.724442516687032366e+03
3.560121378998186174e+03
3.408388711234050334e+03
3.760232517967378044e+03
2.805533432600843753e+03
1.375292901678133831e+03
2.595257609974798356e+02
-6.156810949429983566e+02
-1.313440771012076993e+03
-1.868859212023023701e+03
-2.037063143787796207e+03
-2.069090111899205112e+03
-1.927922059177039046e+03
-2.003501147659883600e+03
-1.339936100669334110e+03
-6.321589241221950033e+02
-4.110198397096363010e+01
7.852432195247050686e+02
1.391841976381932454e+03
2.420639308168381831e+03
2.988679860165221726e+03
3.133944026308829962e+03
2.512372640692094137e+03
2.372032068414308924e+03
1.795882440238058734e+03
8.597611918283031400e+02
-2.273287610547748443e+02
-1.266470358277735386e+03
-2.159700530512401201e+03
-2.600040855290428681e+03
-3.132643182276696734e+03
-3.247488516215174059e+03
-2.207549182721895249e+03
-1.814764393271145764e+03
-1.568207084561329566e+03
-1.358940486550256765e+03
-7.219125317538627087e+02
8.848090492266427631e+00
1.220424150965418221e+03
2.093844122085442905e+03
2.436097340191463445e+03
3.105218661925284323e+03
2.001299675893898893e+03
-6.206169017859830319e+02
-5.119687872322845578e+03
-7.574942351757139477e+03
-7.623371626290782842e+03
-4.493084054298084993e+03
-2.277047686113083728e+03
-2.514269109739868782e+03
-2.642769102897889297e+03
-2.373588134264969540e+03
-2.139799196814725292e+03
-1.933324806166964208e+03
-1.324146966058780663e+03
-9.132506474961332970e+02
-7.516252378465541142e+02
4.878194979180648261e+01
1.094008391424865295e+03
2.017015925537441490e+03
2.701929486410808749e+03
2.891813934672369214e+03
2.460767700976749438e+03
1.678928050285211384e+03
1.601253706315942509e+03
1.246698512694993951e+03
1.311263751693421966e+02
-6.166300873091695394e+02
-1.050584341899034598e+03
-2.321726262882845276e+03
-2.861999115883554623e+03
-2.646483875251963582e+03
-2.329047479360753641e+03
-2.301675486465367612e+03
-1.956461861918155137e+03
-1.452295432190577003e+03
-1.132162604573574299e+03
-2.979004644650638625e+02
1.093576317206850490e+03
2.194370885234644902e+03
2.481565451116308395e+03
2.711149580612727732e+03
2.662158827972038125e+03
2.499715516970756198e+03
1.646816143144870921e+03
8.313449099358832655e+02
-3.738320430699153576e+02
-1.326723317245536464e+03
-1.985279910510992295e+03
-2.911514788390247759e+03
-3.553416380299499906e+03
-3.621912470295889761e+03
-3.419000173346001247e+03
-2.648669933537963516e+03
-2.375924458404486359e+03
-2.214678773563684445e+03
-1.373666980907298694e+03
-2.505822712158884258e+02
9.675997998853766831e+02
1.738671542468984853e+03
2.148776181306499439e+03
2.128248521316761071e+03
1.863007377635588682e+03
2.397003225795615890e+03
2.227045044748248529e+03
8.111539995666829554e+02
-8.465016434727293415e+01
-1.659472392801681053e+03
-2.398266668913925059e+03
-2.572050372153475564e+03
-3.098911575475574864e+03
-3.305894917842306768e+03
-3.303879749415587412e+03
-3.000794300013530119e+03
-2.518704773426597967e+03
-1.827667343082051957e+03
-1.140572558938838711e+03
-5.072667519131583163e+02
6.072300768842346770e+02
1.704888007191152838e+03
2.688811703356363978e+03
2.988105865905306473e+03
3.004932589357691995e+03
3.134318583687142109e+03
2.547251875635341094e+03
1.465545498727452468e+03
3.891234667920493848e+02
-6.671000374422778805e+02
-1.338025746257335641e+03
-1.498659834823948131e+03
-1.801085548422514876e+03
-2.059329411064497890e+03
-2.316336508329423395e+03
-2.205160397271793045e+03
-1.596829048185125430e+03
-9.533572880657227415e+02
7.026871116627037850e+01
7.641334056820249998e+02
1.884320245892381308e+03
2.552773505675686920e+03
3.502344074594609083e+03
4.013042649114670894e+03
4.076018118091204087e+03
4.041289199991008900e+03
3.124738149111769417e+03
2.003199323106518932e+03
1.110512127913547147e+03
2.146317144976015925e+02
-7.454287138935299026e+02
-1.563731695248884762e+03
-2.063280595189124597e+03
-2.013103538856263413e+03
-1.752274521332755057e+03
-1.568779549569832170e+03
-9.596399455387993385e+02
-2.590024998077777241e+02
6.210904734191665284e+02
1.697676923859773069e+03
2.168778206432122261e+03
2.490534116498796266e+03
3.075866856045158329e+03
3.821605183800591931e+03
4.078771466064863944e+03
3.901310353075115017e+03
3.371208824545796233e+03
2.525313357940196966e+03
1.738467513593812100e+03
1.344580739704884081e+03
6.117006201295135952e+02
-6.362933671957829347e+02
-7.425688601474288362e+02
-7.641772206575230939e+02
-7.031647187496546394e+02
-3.862360898532968463e+02
-7.371576869080740835e+02
-9.341770626793025940e+02
-8.943775935800201182e+01
7.757328445002717672e+02
2.079569491430407652e+03
2.845130260163839466e+03
3.628973039306576538e+03
4.086362882565626023e+03
4.327874789893332490e+03
4.830767489176022536e+03
4.910938836763590189e+03
4.021294483109592420e+03
2.637402278894227948e+03
1.804386604586576823e+03
1.523461050591302183e+03
1.217857010328213846e+03
2.714631029824017787e+02
-3.063407936143148618e+02
-1.853556139933768634e+02
1.361645595892310041e+02
2.838052942813621939e+02
6.075365934976712197e+02
1.248926918355568660e+03
1.700291620323886718e+03
2.857937460304672186e+03
3.556811591272781243e+03
3.666964583674705409e+03
4.643232381710569825e+03
4.818997479526582538e+03
4.368689006512984633e+03
3.385341816451801606e+03
2.706771668064826372e+03
2.064057839930394039e+03
1.149164228433916378e+03
-6.920680992522425186e+02
-2.515807461483364932e+03
-3.738033152976872316e+03
-3.796791095775384747e+03
-2.706104809909393680e+03
-1.533895796078166541e+03
-9.320810790484446215e+02
-2.214907797648899361e+02
1.170597545661656369e+02
1.269526768408550197e+03
2.691572693688124218e+03
4.242971687352361187e+03
5.702675255898415344e+03
6.269721418401277333e+03
4.664318027648401767e+03
1.367616626028858491e+03
-2.498361809801974232e+03
-3.745763781969310457e+03
-4.387690747925596952e+03
-6.223139923006452591e+03
-8.251160931015127062e+03
-1.107376239173461909e+04
-1.353288781701560038e+04
-1.421046440407874979e+04
-1.459945451667064117e+04
-1.549196459664613576e+04
-1.636101307590213037e+04
-1.835318932016718099e+04
-1.796557939942728626e+04
-1.537013048079932196e+04
-1.022291998259558568e+04
-9.173925755636924805e+03
-1.070701947502260555e+04
-8.757203356318155784e+03
-6.699550944136893122e+03
-4.329860384994624837e+03
-2.337934167988570152e+03
2.065257466887248484e+03
4.754779828932924829e+03
-1.466409334655786779e+03
-8.738196386588262612e+03
-1.061450398676854456e+04
-1.173939158250035507e+04
-1.352075927652808605e+04
-1.330159541049708059e+04
-7.974816940597999746e+03
-2.115374996101292709e+03
4.499940199009657590e+03
1.011015807201813368e+04
1.200538201646575362e+04
1.235473193411430293e+04
1.240149175380850829e+04
1.151462889086137693e+04
1.080301774671498788e+04
9.988626431278475138e+03
1.059859270917465255e+04
1.041700599568534562e+04
9.441781598109735569e+03
8.226012738978091875e+03
6.379818125252724712e+03
4.840184676446343474e+03
4.154134386712147716e+03
2.724856968784442415e+03
2.541435324634685003e+03
2.976930641268788349e+03
3.631259467874909660e+03
4.373394286668338282e+03
4.998530938876948312e+03
5.776719007323682490e+03
6.111010197062779298e+03
6.034623077474775528e+03
6.985776613720114256e+03
8.005667846375432418e+03
7.860521227220808214e+03
7.807493639491969589e+03
7.622616448650629536e+03
6.968694297872269090e+03
6.173627572047801550e+03
4.208459339975422154e+03
2.924274335744016753e+03
2.204054376668190798e+03
2.034934065725773735e+03
1.668120354937650745e+03
6.804445330467127633e+02
3.399833567169206390e+02
-2.182396274848438793e+02
-5.470203265177260619e+02
2.822994638600942352e+00
2.052217630308358025e+02
-2.886337668177386035e+02
2.523171817625293443e+02
7.009165515709923966e+02
9.675315836290955076e+02
1.527600923485859539e+03
1.641076823595431961e+03
5.219392838979381395e+02
1.450411202623836289e+02
-3.606973341879167378e+02
-4.012325504330792683e+02
-7.679004421422386031e+02
-2.711832364564781074e+03
-3.787804466430969569e+03
-3.980479127396476088e+03
-4.034661839554460585e+03
-4.303299175627815202e+03
-4.567515634408601727e+03
-4.694599603753997144e+03
-5.550618699217092399e+03
-5.689708444607956153e+03
-5.285880136257661434e+03
-4.569173450619165123e+03
-2.185318215417623833e+03
5.331287038084603864e+02
3.113029889483405441e+03
4.540073395926665398e+03
4.082041630921798969e+03
2.985856782049386311e+03
1.844579508152890185e+03
1.132325937305674188e+03
-6.838959513457215280e+02
-1.594086665424516923e+03
-2.500455214602814522e+03
-3.453125267515817541e+03
-4.147057047472035265e+03
-5.441173454804333232e+03
-5.624336535954798819e+03
-5.455631209276250956e+03
-4.500100428807525532e+03
-2.915882590055524361e+03
-1.568160975725374101e+03
-2.829925632530053008e+02
2.203644907641803911e+03
4.920672058135918633e+03
6.197254670066451581e+03
5.940387720540235932e+03
5.166043222985911598e+03
4.759195241507985884e+03
3.438887855472950378e+03
2.051985903879023226e+03
1.290421635296737577e+03
4.562408127925382360e+02
-6.717525481187112746e+02
-3.000037738309549695e+03
-6.617632775516833135e+03
-1.031349713253335358e+04
-1.269747858832787279e+04
-1.275053192915971704e+04
-1.290386450782895372e+04
-1.011955866695826444e+04
-5.361528070313584067e+03
-1.684899438803957310e+03
1.470111078047474848e+03
2.908367085670269717e+03
3.891902183329241325e+03
4.176886379955561097e+03
3.982873129103598785e+03
4.065663261755541953e+03
4.105890265025720510e+03
3.348332407780294943e+03
1.524818663166792476e+03
7.322222561959445102e+02
6.056295674386367409e+02
-2.627933494519742794e+02
-1.957919394198583404e+03
-2.502948284492582843e+03
-2.081020722539904455e+03
-1.984278821272772575e+03
-2.564840407858144772e+03
-3.153642066239497126e+03
-3.479954775765305840e+03
-2.078820573867129951e+03
2.766213339763112344e+02
2.760393542066479313e+03
3.720488001078576417e+03
3.553954079513493525e+03
2.408596841065785156e+03
2.340334273656236746e+03
2.549128194635159161e+03
1.921902510564232898e+03
5.020033964054922535e+02
2.114726184426586713e+02
2.504483898503501038e+01
-2.412597781890033275e+02
-9.227528466181453268e+02
-1.781857068209333875e+03
-2.277658408321769912e+03
-1.142908624428523126e+03
4.364777411088980443e+02
1.261610661353423666e+03
1.597774719210833155e+03
2.964270630672967400e+03
5.181015922252337077e+03
7.183270652467378568e+03
7.909063597372923141e+03
6.752994933013092123e+03
5.429970226319441281e+03
5.209613719463854068e+03
4.093053199970508558e+03
2.913702228016914887e+03
1.426642181248740371e+03
9.713156149266735540e+00
-3.423193113511505885e+02
-4.411172427427881644e+02
-9.269785605064316769e+02
-2.162952244648514807e+03
-2.855707364519991188e+03
-2.846244236161147455e+03
-1.353251877204968196e+03
4.214658526727434378e+02
1.347762432312619239e+03
1.948624307387149656e+03
2.700119620542300709e+03
3.943428456600440313e+03
4.005439418896211464e+03
3.339268186501661603e+03
2.790041401204008253e+03
3.215966741445393836e+03
2.710887413209017268e+03
1.198536903957131017e+03
-7.702133664920629599e+02
-5.143402001326641766e+03
-8.589197748302514810e+03
-6.624560218426027859e+03
-4.830096797656949093e+03
-3.792554872041691851e+03
-5.480671775478926975e+03
-4.662498719431828249e+03
-1.738822863055439939e+03
-2.975282632384454246e+03
-5.393612975783564707e+02
-3.437383309555506912e+03
-2.566419624962456055e+03
-2.629354628996146403e+03
-2.486285874219945072e+03
-6.949192331447376091e+03
-6.905782441862464111e+03
-7.548944859892550085e+03
-5.997826979819747066e+03
-2.202606082534502548e+03
-4.754926025781588578e+03
-3.313427606418630148e+03
-2.471167238363763772e+03
-1.372289826456389392e+03
-3.959033914192294105e+03
-5.154723620599521382e+03
1.011589861320175373e+03
1.241250623691097644e+03
1.846382169159481464e+03
3.261882123457795387e+03
4.433080762804385813e+03
1.947021631158682112e+03
3.115021801411482102e+03
4.535201132580284138e+03
3.797575877073557422e+03
4.424733274815179357e+03
5.480699591892460376e+03
4.524663755398192734e+03
2.238739977460755199e+03
6.748704780631583162e+02
-1.838044343751197857e+03
-5.117834986858557386e+03
-7.173600968264045150e+03
-8.291277831002998937e+03
-7.011004095695559954e+03
-2.356935218259518933e+03
3.392983263110440930e+03
5.415814576672802104e+03
5.266762428889092917e+03
3.632297699588227715e+03
1.518436761393347751e+03
1.675710086347510014e+03
3.597377293484786605e+03
6.344480871227996431e+03
7.614502504477567527e+03
7.140542337365244748e+03
6.765236123571793541e+03
5.389483158651888516e+03
3.802479854306564903e+03
2.549592652150896356e+03
2.044081063865855185e+03
1.807077908039591648e+03
-3.085793024412467389e+02
-2.954195022007704665e+03
-1.149902484961333130e+03
1.595651617409136520e+02
2.252972208676113041e+03
2.666371030103304292e+03
2.514317864628359985e+03
3.101712821869290565e+03
2.523290008938116898e+03
5.809004559161066936e+02
-6.557923075292039528e+01
5.165027250939381531e+01
-2.070414244456329413e+02
-1.901621509819945572e+02
-8.981798459159306276e+02
-1.175280995611049093e+03
-7.008733144122526255e+02
-2.114262556790381950e+03
-3.293424234732808600e+03
-5.125404422409581457e+03
-7.061264594121388654e+03
-7.933269855048934005e+03
-6.672526656493583687e+03
-6.310528415808520549e+03
-5.677297534464153614e+03
-4.719712882264107975e+03
-3.786517346946982912e+02
4.352000866331613906e+03
6.027174080551089901e+03
5.801682321653632243e+03
6.499873830123069638e+03
7.691769916654201552e+03
6.944306835759048226e+03
6.307475073268508822e+03
6.550381385038553162e+03
5.775033251501366976e+03
4.271404766568706691e+03
3.834503042038487365e+03
4.382371866082736233e+03
5.210816864366603113e+03
4.063766669755904331e+03
1.579277321486793880e+03
1.172884732364458671e+02
-1.423309102455819129e+03
-4.074584924804210459e+03
-5.809532245037087705e+03
-6.927080851494210037e+03
-6.162179700764605514e+03
-3.562851745327040135e+03
4.349009932033710584e+02
4.614022572749669962e+03
5.937674759071627705e+03
5.132994736042534896e+03
4.129973592035654292e+03
2.925721549800281082e+03
5.811122120166423883e+02
1.060160268401504169e+02
1.153440772717014170e+03
-9.046827659559514814e+02
-3.272372284837011648e+03
-6.236679418436105152e+03
-7.610610745590446641e+03
-6.698221741005941112e+03
-7.414621995242168850e+03
-6.755731140666485771e+03
-5.234529091777633766e+03
-8.441115277111686737e+03
-1.021749295373878522e+04
-9.959556464667186447e+03
-9.646356989256955785e+03
-7.692030563920731765e+03
-3.687395826092753850e+03
-3.335286553145719495e+02
1.755450556993443342e+03
-7.905172184232491190e+02
-5.926331257991257189e+03
-9.624821353620998707e+03
-9.756086168721989452e+03
-6.768170704745387411e+03
-2.407175978391408535e+03
1.047870219647483964e+03
2.033870634782068009e+03
2.790752173664566726e+03
1.867517475003111940e+03
4.241700741239018839e+02
-2.512440670847844558e+03
-3.107396494049791727e+03
2.117207921506203547e+03
7.675224460149262995e+03
1.009261019876957471e+04
9.149445022192592660e+03
7.167956661425948369e+03
5.948235385400581436e+03
5.163242417715718148e+03
5.165919428764877011e+03
6.361235692115975326e+03
5.433040368014103478e+03
2.537377275803348311e+03
2.082962119086504345e+02
-9.322701704625459342e+02
-3.328026470133715442e+00
1.205895299278189668e+03
3.646263832578810707e+03
5.373749573862158286e+03
4.761453320949211047e+03
3.722344457178658104e+03
3.006316418490932847e+03
1.348289956064171292e+03
1.319217992409792714e+03
1.647187653765294499e+03
1.583438283584053806e+03
1.785957847209890588e+03
3.534572368710186765e+03
4.034220877674701114e+03
4.570909121783992305e+03
7.329723864587295793e+03
9.218713520895347756e+03
6.261875641408784759e+03
2.588201699404943611e+03
-8.241686579677482314e+02
-1.260357445722981311e+03
2.858790892500165342e+02
5.236240351743749670e+02
2.278388747246584103e+02
1.710223071411507590e+03
2.161707807425426381e+03
5.703490554209331265e+01
-2.926885998930186815e+03
-6.281837377335018573e+03
-9.044701808601794255e+03
-3.428588838138980918e+03
6.024353836129116644e+02
1.897395371022026893e+03
1.686317041573151073e+03
-7.677679615760157503e+02
-4.742730223096304144e+03
-7.622581472368012328e+03
-7.735405707858451933e+03
-4.890162488462490728e+03
-2.926680847943231583e+03
-1.449070015473397007e+03
-6.954886996602234603e+02
1.460950329649481318e+02
3.275886513675685364e+03
4.300917140986143750e+03
5.182127519455515539e+03
4.737417624063628864e+03
5.371705664267749853e+03
5.897954717293097019e+03
7.197351583614831725e+03
6.382004099824732293e+03
4.486020946547850144e+03
2.285315568287140650e+03
-6.280554822391403604e+02
1.058076565199374954e+03
4.425769737863046430e+03
5.396956619866528854e+03
7.945727640062760656e+03
7.907068496279603096e+03
2.360993396035034948e+03
-4.991437279539471092e+03
-1.064621317285696932e+04
-1.569139763820335429e+04
-2.066604583964021367e+04
-2.220510420456700740e+04
-1.991349199391463117e+04
-1.845827401876716249e+04
-1.269645980672040969e+04
-5.769023279876125343e+03
-3.020829083960236403e+03
-6.786523220205488087e+02
-3.269376902779254124e+03
-4.941055111104887146e+03
-9.485956226071400579e+02
5.801127387521764831e+03
1.300724194001119577e+04
1.946482161091971284e+04
1.831374879773715293e+04
1.322999227224972128e+04
6.326629724960325802e+03
2.739750059659685576e+03
-1.420608911604395416e+03
-2.763501733656295528e+03
-1.760994127393062172e+03
-2.306144862632752393e+03
-2.982865820742455071e+03
-3.450060264975052178e+03
-2.087639961084224069e+03
-2.696609023810026883e+03
-2.587908097790097599e+03
-9.974055386975683177e+02
4.185978624811736154e+03
7.842197559411832117e+03
7.561238897836551587e+03
6.183530191522658242e+03
3.649202580553594544e+03
-2.342427230782305287e+03
-9.559593281872579610e+03
-1.435456867073669491e+04
-1.724625151887653192e+04
-1.633075801312365547e+04
-1.612695563196058174e+04
-1.239379642099598823e+04
-2.974621054653593546e+03
1.954073380628746690e+03
2.958939009036119842e+03
2.644367327628902785e+03
3.918298735778040736e+03
3.284988699935432578e+03
1.063102972863913237e+03
1.089242169020113579e+03
2.592121421183833718e+03
2.364970968608798557e+03
-1.154578779739134234e+03
-1.897757651176187437e+03
2.150079992194091574e+03
6.861450567905711068e+03
1.072457033920356844e+04
1.168929683310188011e+04
8.006807150357359205e+03
2.508836619941219851e+03
-1.131997732587199863e+02
-1.169531047684230089e+03
-4.859262148534739026e+03
-5.910457198615849848e+03
-6.062227898693536190e+03
-2.895869954531139228e+03
1.684996026935471036e+03
6.550355515389682296e+03
6.402515733186794023e+03
5.976245138788632175e+03
7.214492086953294347e+03
8.601356807710513749e+03
8.610048222078772596e+03
6.986618868000993643e+03
8.146131915056880644e+03
9.297710243703091692e+03
1.183522293797326165e+04
1.235859903022581238e+04
1.071660273140456229e+04
8.752885012861224823e+03
7.918243239271925631e+03
1.016886527361634035e+04
5.479913976280108727e+03
-4.674896857989778596e+02
-1.557301844172087158e+03
-2.277655583612552164e+03
-5.758630780302098174e+03
-5.367311047854548633e+03
-1.549618929846048786e+03
-1.925463887554142048e+03
-6.011940502621786436e+03
-9.594935786508527599e+03
-1.083939266005980244e+04
-9.319342781559891591e+03
-4.057826078289477664e+03
3.670951504625987241e+02
7.046287377925953024e+02
-1.191155081737316777e+03
-1.546690337056720864e+03
-3.092066472979412083e+03
-1.412382911202038485e+03
-1.756604889648167955e+03
-7.571774522668243662e+03
-7.464860460290627088e+03
-5.578747651319230499e+03
-4.318430593141796635e+03
-4.716021100308470523e+03
3.714516832455751683e+02
3.157013975886705794e+03
-1.122376403830918889e+03
-5.569658744802751244e+03
-5.954911153058925265e+03
-6.203220902471058253e+03
-5.756426548703498156e+03
-7.029546017056929486e+03
-7.488569613232035408e+03
-5.231520753504403729e+03
-1.498491418924673781e+03
-1.135679436943054498e+03
-2.920906515603901425e+02
-5.677872539919037536e+02
-5.958644345166576386e+02
7.373111234248711980e+02
1.906348716407281643e+02
-3.340801674748875030e+03
-3.169879000657297638e+03
-1.040638423747482875e+03
-5.416234746483449669e+01
1.965440269407752893e+01
1.124825294968933804e+03
1.548334911499428244e+03
1.645247704787614339e+03
2.636611035506792177e+03
3.539363221329736007e+03
3.189363975852775184e+03
2.599542637219037715e+03
3.255030136179679175e+03
3.712907411974015304e+03
2.952067507503422348e+03
1.502514704887870494e+03
-4.576354532224576133e+02
-2.246413930003159294e+03
-2.350918661056571182e+03
-2.294295101464946129e+03
-3.306741517042027226e+03
-5.229425835031282077e+03
-5.380406582387312483e+03
-4.054653869122755168e+03
-2.659024414824557880e+03
-7.624176993657697494e+02
3.764138525402206028e+02
5.636888352139883409e+02
1.718202113534662885e+03
2.201936409204752636e+03
1.977180375605619247e+03
1.802872290767692903e+03
1.439937197078588042e+03
6.301916046279138754e+02
-6.465790639569707992e+02
-1.054093996603017558e+03
-1.782457557991210933e+03
-2.653250146265815147e+03
-3.443369538271941110e+03
-2.661613609283745973e+03
-1.582065146394219028e+03
-2.240526423747338868e+03
-1.621236969231876856e+03
-9.327572062704887230e+02
-1.711898166573268554e+03
-2.758386733942180399e+03
-2.677924336574470999e+03
-1.820552243150436425e+03
-1.203349151605777706e+03
1.983871525131355611e+02
1.105327646207638736e+03
2.044246376281608491e+03
2.225037697667732573e+03
1.953842795625104145e+03
1.126665700849026052e+03
1.251520202148604312e+03
3.234160124355809671e+02
-1.103567638940992538e+03
-1.531633005586698573e+03
-2.707300874360072612e+03
-3.849763879997708500e+03
