-2.006120702676710835e+03
-2.842217264078596145e+03
-3.044261235151147957e+03
-1.296335075694888928e+03
3.034836242288737935e+02
-9.862340636379492764e+01
-2.749530346297617143e+03
-3.143330891717237137e+03
-9.005403153536806826e+01
2.449278702900722237e+03
2.824683952723469702e+03
2.126078137999802948e+03
1.082509996951477433e+03
1.059962519594993637e+03
2.221400505213929137e+03
2.561897140902133287e+03
2.979503851524021229e+03
3.367203519835144562e+03
3.037993297329563575e+03
2.052871596766131006e+03
9.838355538093683208e+02
7.379430556748727668e+02
-4.982996053144930926e+01
-7.952346126205435439e+01
7.748808125915521714e+02
-2.666545761708711737e+01
-3.569082295934341801e+03
-5.474366324208985134e+03
-3.157546799455140899e+03
-4.353647904134054158e+01
8.324859110998137339e+02
1.229945471531603289e+03
7.852073701185119035e+02
-5.870030868862671447e+00
-1.156219668031777701e+02
-1.080301945982380403e+03
-1.759558734940145996e+03
-2.185484186306805441e+03
-6.844263250770426339e+02
1.094303277445971844e+03
2.108973741820460873e+03
2.044562471614828837e+03
-9.496660935161771988e+01
-2.572208494672152938e+03
-3.004171399552856201e+03
-1.389046010514872023e+03
1.564184574134919103e+03
3.235599037349115406e+03
3.780210123265067978e+03
3.536934306732875939e+03
3.237736413561379322e+03
2.667618985104240892e+03
2.157710835103766840e+03
2.013002197052055863e+03
7.355895151868122639e+02
-1.566423515666362619e+03
-3.333332439838207392e+03
-5.826513824647082401e+03
-7.348992246998653172e+03
-6.278619515291931748e+03
-4.403197679923648138e+03
-1.681670205820721549e+03
-5.912812476187776412e+01
1.041430266898522859e+03
1.020951693512616885e+03
-9.064174491369748239e+02
-8.586092415330815584e+02
1.101279535254224811e+03
1.532343931994072591e+03
6.594812997991335806e+02
1.616504151992302923e+03
2.640449964959027966e+03
1.487335010728439556e+03
-9.417103078724477427e+02
-6.046316412798453257e+02
4.995482694981802183e+02
-1.317153383242102564e+03
-2.127848364615256287e+03
-1.694529527133785223e+03
-7.731911048859166158e+02
1.876124707941004772e+03
2.764501324134226707e+03
1.916992893130079892e+03
1.495470455248720555e+03
1.899008915602803427e+03
1.412489568480226808e+03
-4.397078999367732877e+01
-6.751774786781254534e+02
-2.628230717759784056e+03
-4.724271118056535670e+03
-1.680383097938908804e+03
-1.076523936761573623e+03
-4.026219467363033004e+02
2.572211426977141286e+02
-2.640790474434369912e+02
-7.394390357267235458e+02
-4.997701653129099668e+02
-5.489176150734264183e+02
-5.140250133998437150e+02
1.487834997877484057e+03
2.251642884644221340e+03
8.694635735491872310e+02
9.275770668196678059e+00
8.171677393200284314e+02
1.700190493015323682e+03
1.193254794237314400e+03
6.482249521613309753e+02
8.611100610021924240e+02
1.476890464115167333e+03
1.087674949424747865e+03
-4.173399494068528952e+02
-1.912075614432596922e+03
-1.695630893821094332e+03
1.674785434858359423e+01
1.437018885331436877e+03
1.806178724209278926e+03
2.210280797898602486e+03
1.482514735833643044e+03
-4.381518673132883350e+02
-7.268663936856086139e+02
-1.427733015816183979e+03
-1.207632168538296128e+03
2.665423877850680583e+02
1.084746828991720804e+03
2.428681019484282047e+02
-1.712094276027377646e+03
-1.989100974484490280e+03
-1.020731880160113292e+02
1.211934610213447513e+03
1.962901401184434462e+03
2.786785246512680260e+03
2.935529108439460742e+03
2.398103204328228003e+03
1.551548247727353328e+03
-1.950837153394734287e+02
-1.389761257921270726e+03
-9.520975654467534355e+00
1.119781103492334523e+03
1.229126144029608895e+03
9.784375170407608948e+02
-9.832672420911819700e+02
-3.084846503506160843e+03
-9.593640636824594594e+02
1.036164598308568202e+03
1.061786674001089068e+03
1.006300765232283766e+03
6.765304435132256913e+02
-4.163671528241491160e+01
5.219660537881605933e+02
2.031495465997049450e+03
2.189051201165824750e+03
1.500561112345040101e+03
2.620170634489817303e+02
8.934502812954906403e+02
1.044866405361217403e+03
-1.427815391904160833e+02
-7.284540189586939505e+02
-4.010313007406912220e+02
-1.087545838423942314e+03
-1.542078071379833091e+03
-3.665599121633338200e+03
-9.144104394682826751e+03
-4.950690639812806694e+03
-1.071303741022263011e+03
-3.168895471296143114e+03
-3.223361222087968599e+03
-5.218396958421612908e+02
-3.067607389569495808e+03
-1.901801198459664420e+03
7.471262230569816154e+01
4.194347855263836777e+02
2.211341569225855892e+02
-8.822291454681874256e+02
-1.236577717557147707e+03
-2.014032278089688134e+03
-4.012638759875762844e+03
-5.913838612594258848e+02
5.988897262992412607e+02
-7.876665181671625078e+02
-3.034120265715435835e+03
-2.194627739344029123e+03
-2.313041565309805314e+00
2.108998157782058570e+03
2.665374093480247666e+03
1.975598318049176669e+03
2.248644545805901089e+03
2.716568217747156268e+03
2.556275343818763304e+03
1.657881649890176732e+03
3.384574330818300609e+02
2.480331914417864709e+02
1.195693452540758244e+03
2.742315778504876562e+03
3.736871169737165928e+03
3.310347804240260757e+03
1.961549765765529173e+03
8.855804354590341063e+02
8.336319121017784255e+02
1.718601235975171448e+02
-2.712870990247021382e+03
-1.569588976065500447e+03
-1.868144472883201843e+03
-1.816680675475040971e+03
-4.345357291331380338e+02
6.512658838391689642e+02
1.503950506245402721e+03
1.896604625910099685e+03
8.172252880301282403e+02
9.580370377882155708e+01
3.954013216008530662e+02
5.750666782268450561e+02
1.075776998120430108e+03
5.746129240977974177e+02
-5.153690115717062099e+02
-8.551012765135967584e+02
-6.176165405097451639e+02
-6.460057979074713330e+02
-1.785319852060982555e+02
8.177836636580467484e+02
8.970935143109409182e+02
-2.487437481632728709e+00
-2.320075947163917931e+02
5.935202646889628113e+02
1.017412213777475131e+03
4.008682381032676858e+02
-6.095843515467583984e+02
-1.464235331003663077e+03
-2.494335678688622920e+03
-1.815992500216719236e+03
-1.151105220901174704e+02
-3.885773876549903889e+02
1.218274584054554879e+02
1.813214424844350560e+03
1.529579141279695250e+03
4.219799253433933472e+02
2.165570641109914618e+02
1.266399518275847413e+03
1.417458896124425564e+03
6.376673865546825937e+02
1.229081916891831980e+02
-9.605434585585281582e+01
-3.941346345403761688e+02
-5.112172385252607683e+02
4.558454502706080120e+02
5.826297732813079620e+02
1.414424077468357268e+02
-6.534813847195567860e+02
-3.756732754872760779e+03
-1.974897672207419873e+03
1.127966024457748091e+02
1.110465787766470839e+03
1.679226471739488943e+03
1.925102692420515723e+03
1.198966950532100100e+03
-2.112093510835751431e+02
-1.275256208623107341e+03
-1.935201914590765227e+03
-1.439163683316812467e+03
-3.830655692013100406e+02
-3.389680581931552297e+02
-1.996005167679179976e+03
-1.683182464309345278e+03
-1.283902950733606190e+02
1.018586181880869162e+03
1.352605513302517693e+03
1.079390340912445026e+03
1.067937234571689260e+03
6.393267111602526711e+02
7.486511483729600513e+02
9.049940018252260643e+02
1.005291548994748496e+03
1.194454350483534654e+03
1.143480268079497819e+03
1.060347359181947240e+03
1.066050100957494124e+03
1.049622934398606276e+03
3.600993440824610730e+02
-1.984735815904404035e+02
-2.411327330237344881e+02
-2.428625309206666714e+02
2.270508705648498715e+00
-3.007879614383790567e+02
1.509666536877872112e+01
6.721881136651797988e+02
1.007403493637665633e+03
2.344197933533295100e+02
-4.565934765997062641e+03
-6.588472900918087362e+03
-4.267093493935698461e+03
-1.247906595464883139e+02
6.824896644671789545e+02
5.746727490354360270e+02
6.248266326450782344e+02
7.969495307463155314e+02
1.033013767912484127e+03
4.778623229985315106e+02
6.839871901337170357e+01
-7.534055015356838680e+01
-2.899262693833392404e+03
-1.173215596121873205e+03
-2.571134324608501629e+02
-6.710904686177166241e+02
-8.363128222447556936e+02
-9.529092485110547841e+02
-7.688322865303557592e+02
-6.130418795270957162e+02
4.480818471607426190e+00
5.792735109791836479e+00
3.969374347193123640e+02
7.329498216784471651e+02
9.597936869312235331e+02
1.501578812376115366e+03
1.400386476461400434e+03
1.191246357513889279e+03
6.662412114256469522e+02
2.463838577890733745e+02
6.974562864684540955e+02
1.063322967762799635e+03
7.368767541191366490e+02
4.341713956083403900e+02
-4.527707803209291342e+02
-6.009029875330450068e+02
2.589503462215720333e+02
3.837083155760273030e+02
4.452193668089173002e+02
-5.342913303920042267e+01
-5.281393941200360587e+02
-6.290845462534514354e+02
-4.342409169625066170e+02
8.755169627754875705e+01
4.174010363915813855e+02
2.451444459853277351e+02
2.667193040486471887e+02
4.623332961161386834e+02
5.319550270962388367e+02
4.774861139325881823e+02
2.738926613667857168e+02
9.600905371652891063e+01
9.878614305644715543e+00
-1.734125741598683703e+02
2.170415996409836339e+02
3.432200971643207481e+02
1.084694007759686514e+02
2.796218871886279800e+01
3.296426491109900212e+02
3.256727869791426997e+02
-1.898863155289195390e+02
-8.533415719690831338e+02
-8.513378570069055513e+02
-6.702519800312396683e+02
-4.511759014806372079e+02
4.842148631973267059e-02
6.037232604942985148e+01
7.046899771253265499e+02
4.760491371022304747e+02
4.314332639828678566e+02
1.356843957436422272e+02
1.968666503086457169e+02
-1.628308825420880623e+02
-3.504308362263880667e+02
-6.700690540521072762e+02
-8.138142181399736046e+02
-9.235725984144614813e+02
-1.521268270597158562e+03
-1.799910536949944117e+03
-1.296522855448050223e+03
-2.780447906538368557e+02
2.162380673430997291e+01
-1.874723435931417157e+02
-5.564520573556079626e+02
-6.114675263863435930e+02
-3.455174660898203456e+02
4.952619103344017759e+01
8.246336683551812712e+02
1.567895911762319656e+03
1.378426423459658508e+03
7.850950529425109607e+02
7.049579019545601568e+02
5.309243651370081807e+02
6.158826542247094267e+02
3.558716298025744891e+02
-2.103367722652624394e+01
-1.266531984827010859e+02
-1.050670808126292712e+02
3.034908024114272393e+02
2.789725403861875748e+02
-9.658965509500552571e+01
-9.016262439234510850e+01
-1.464342243488580664e+01
-3.479777921431547156e+02
-2.281756748733887150e+02
2.468991976563180231e+02
-1.457730754778415587e+02
6.355816220257120364e+01
5.689261349654017295e+02
6.604135522219664836e+02
6.120345083398302677e+02
6.949264590682478229e+02
5.331490697835429273e+02
-8.623805257800903235e+00
-2.224613304175102257e+02
-6.442634496681797600e+02
-7.759095051130545926e+02
-5.873872981709059786e+02
-1.596805941891898897e+02
-5.009112824904551076e+02
-2.282015442685908795e+02
-8.741622537999739961e+01
3.450220214231038796e+01
3.116515975373626475e+02
2.059292092854478540e+02
-1.796815032778462751e+02
5.979311346292521421e+02
7.357533489952382979e+02
5.047362249677188402e+02
6.289623603861452921e+02
4.713806872619464912e+02
3.440752122948236433e+02
1.113151850935928877e+02
4.373302714176130053e+02
1.053291562170962550e+02
-7.183183232283565189e+01
1.475141727031678442e+02
1.282072981007502221e+01
-1.437766656956349834e+03
-3.300516121134437981e+03
-3.580390695078336307e+02
2.976839531628848476e+02
-4.203553392886116740e+02
1.301740665315133150e+01
4.987674398575440478e+02
8.059022534084156177e+02
5.565391098295834809e+02
8.972233279008842146e+02
1.475079351794017384e+03
1.408341770929350332e+03
1.178339476295816667e+03
7.137598197421956456e+02
6.111179459182358187e+02
4.052260201976919234e+02
-1.099154585614270871e+02
-1.790349588984310287e+02
1.957665272678016377e+00
-1.979075361784837810e+02
1.040608786851941581e+01
1.109847674866873177e+02
-1.041056031570893197e+02
-2.429542164941434805e+02
-3.596475462023825571e+02
-2.212975866646223722e+02
7.712209547803038276e+02
8.662744326962480272e+02
8.886414963136893448e+02
8.531749954165235295e+02
7.087213909888116632e+02
4.133405542484662192e+02
-5.376071581396315224e+01
1.181495228495465000e+02
-2.390324084287244943e+01
-3.110312784010828295e+02
-5.323250186281445622e+02
-8.817691522912601840e+02
-1.217399243657255283e+03
-1.287192852991527616e+03
-9.780028025378981056e+02
-8.038204357503718711e+02
-8.537529669797144152e+02
-8.398278749316107223e+02
-4.620570835487219483e+02
-1.931686710651739958e+01
1.754400439583490368e+02
3.891876972329670252e+02
8.479071112511611545e+02
6.285762261814979865e+02
5.061123854229047652e+02
5.244361684409750524e+02
4.345778645639716729e+02
4.246105307314458059e+02
4.195171130688308381e+02
6.918999433568355073e+01
-5.382195037768723545e+00
-1.236074642030920586e+03
-4.886886921223076570e+03
-4.079827745750140366e+03
-4.958444614817594811e+02
3.191423901585423195e+01
6.439517480604465050e+01
-2.643188659228294455e+02
-2.528489743230134934e+01
-1.157005666603616589e+01
1.599439738165424671e+02
4.583543534741712620e+02
7.305751021230473725e+02
1.032470798707631275e+03
1.437116838302668839e+03
1.328602799684234242e+03
8.179077810616245188e+02
4.190339636743490814e+02
3.179912808131550719e+02
2.177382307603002403e+02
-1.058409792925087771e+02
-3.966115540907519232e+01
-1.325651392626812822e+03
-2.979732351646174266e+03
2.043208031325936815e+02
2.509099166241117729e+01
-2.034931706920118302e+02
3.596330711400538576e+02
6.484987270643293868e+02
7.311623198045713252e+02
4.866959254235919730e+02
6.131901222794411979e+02
8.646795967711395861e+02
8.201109220225301897e+02
5.734134287708487818e+02
5.545356391182183486e+00
-1.634266501419152462e+02
-6.340114744208710817e+01
-3.794932239998498744e+02
-6.098074004048306733e+02
-8.003594099205646444e+02
-7.111532956428198986e+02
-3.330831021148129594e+02
-6.611102453026156809e+02
-9.792175513838905090e+02
-7.904374939070064556e+02
-4.367511677298923018e+02
2.778632070950788489e+02
4.994267426258880960e+02
7.029536092990515499e+02
1.007449642401319238e+03
1.128905067055047766e+03
8.603617307222193631e+02
8.358439667054478832e+02
1.049292707983214086e+03
8.246154861894390251e+02
3.449513853427060326e+02
1.044802035976007772e+02
-7.471763267908727357e+01
-1.746669311278317593e+02
-4.094191665830454099e+02
-4.959429215270531017e+02
-1.346111787217982737e+03
-1.615586672355813562e+03
-8.044068123368915622e+02
-6.159748513289885068e+02
-1.314830148604676197e+02
7.332287683465419548e+01
2.367887346671243449e+02
5.448494949482900438e+02
7.089306085097315417e+02
1.031049847338106701e+03
8.826886431849115979e+02
7.997320777323968741e+02
9.813605026002486511e+02
7.585699546178051378e+02
6.710079094991076545e+02
5.186556316936934081e+02
4.366008054489459482e+02
6.838049085348795870e+02
9.392987783103011452e+02
8.910779825323348859e+02
2.211160729586669049e+02
1.237931797617933860e+01
-9.306181179772424628e+01
1.577854825553905584e+02
2.378843607352080198e+02
4.172601415611457583e+02
1.079210857118526832e+02
1.328624985888783954e+02
-8.687926834986872393e+01
3.477502902218690792e+02
6.397704155712428928e+02
4.201000127250968035e+02
2.336998811359234480e+02
1.716030680314434278e+02
2.058397657284915567e+02
-2.245470737144140401e+02
-7.246140219238487816e+02
-6.284533701355888979e+02
-2.840250187759335176e+02
6.647395868564501598e+00
2.046313802970342977e+02
-4.109457323628303982e+01
2.994899201541199432e+02
5.143803495482982271e+02
3.064956536483302330e+02
4.358334594619662425e+02
7.214223393050001505e+02
6.342370430622693220e+02
7.582793086110845024e+02
7.875518115839345228e+02
1.038073399401913775e+03
1.381856615069262261e+03
8.998661605627893323e+02
-5.449006400694545391e+02
-3.633445288635885390e+03
-7.159826658578674142e+03
-7.823055767435294911e+03
-7.706130322396285010e+03
-7.901033855522057820e+03
-7.814847647485789821e+03
-7.704546814942966193e+03
-6.151066003367725898e+03
-1.221418250134484879e+03
-1.796780362468922476e+02
-6.893127176515608312e+01
1.005949573743989845e+03
1.525943109490031247e+03
1.368910537754478582e+03
1.512880503938154561e+03
1.495907728467786455e+03
1.652974189846450372e+03
1.735049383819151217e+03
2.005113624915347600e+03
2.219172250884093955e+03
2.344239286503589483e+03
1.774250258996671391e+03
8.061654297117316901e+02
3.909890111093223481e+02
4.617413611284115973e+02
7.243992272212924490e+02
7.658306230868428202e+02
6.610344866636226016e+02
6.850510639371707384e+02
6.879107464568020305e+02
4.095331846050557374e+02
1.499148075085827543e+02
7.040478314409414224e+02
1.076904741079584483e+03
1.493441528219003885e+03
1.887639413408183600e+03
1.980530385499836939e+03
2.280168047410219515e+03
2.296482386766697800e+03
2.344472501148126412e+03
2.549105134150893264e+03
1.980382767227586100e+03
2.172325051894014905e+03
2.817889212645496627e+03
2.930000270437680228e+03
2.180630881386732199e+03
1.317806142525958649e+03
9.665533873918152494e+02
1.355845392128114099e+03
1.771705036149773605e+03
1.561171994759863992e+03
1.844222527865237453e+03
2.092783332514662106e+03
1.713904297603439545e+03
1.794507736051311667e+03
2.121574084172960738e+03
2.305151519738767547e+03
2.264221873675191546e+03
2.321742267917787558e+03
2.458742488016767311e+03
2.102251806326659334e+03
1.153219800201323778e+03
1.593689873441205464e+03
1.966636952689000054e+03
2.085986964007166989e+03
1.893759233172106860e+03
1.237996968528839716e+03
1.068664748560095404e+03
6.277598535411152625e+02
5.623312634045153118e+02
1.011309262905634114e+03
9.147380015689634547e+02
7.406851274345207230e+02
7.380290401871483255e+02
1.033836039594566500e+03
1.436147640211912403e+03
1.320935355160250538e+03
1.292289189150522759e+02
-2.417992198065856883e+03
-6.157695666904963218e+03
-7.066919450001178120e+03
-2.192627279814565100e+03
1.281208024195401549e+03
1.347540398346876145e+03
-2.388612679603322249e+03
-7.144132762137543068e+03
-6.182944797494759769e+03
-6.186429825606805935e+03
-6.937408822842059635e+03
-6.592772336515728966e+03
-6.023591732933602543e+03
-5.823831075651541141e+03
-5.635490737015398736e+03
-5.633540035504624029e+03
-5.635996226449003188e+03
-5.148881029104007212e+03
-1.149124221574770672e+03
2.857285502549827470e+03
3.025368045844894368e+03
1.117110689949650350e+03
-2.688472489020777175e+03
-5.055328057995988274e+03
-5.746429940022543633e+03
-5.856835958936949282e+03
-6.128476517585285364e+03
-6.208367315047713419e+03
-6.141479184058428473e+03
-6.144750249775463089e+03
-6.069213486791736614e+03
-6.529882979286961017e+03
-5.501764481150443316e+03
-2.519370804061008471e+02
2.052673327732170947e+03
2.925138927106559549e+03
2.914456557157598581e+03
3.099714852920679277e+03
3.437969125208816877e+03
4.436223661351667033e+03
4.742448362601513509e+03
4.004685509636819006e+03
3.609049015909295122e+03
3.496468719849002355e+03
2.978892508238526261e+03
2.413326642823208658e+03
2.165661286277827003e+03
2.221860796514533831e+03
1.934967743884484207e+03
1.200392024969595013e+03
6.420875829437015909e+02
6.879305639487826056e+02
6.239945069936667323e+02
9.052718740670622992e+02
1.747879140206240891e+03
2.357208083163890024e+03
2.678886470299790744e+03
2.863740501570037395e+03
2.762817281059459674e+03
2.558232457061854348e+03
2.737036868079898795e+03
2.779019899802361579e+03
2.480994476086312716e+03
2.794199147046582766e+03
2.589921245850457126e+03
2.175482584646041232e+03
2.011590040600746761e+03
1.595168286712991630e+03
1.881600321460958639e+03
1.487686564949460944e+03
1.122117954681241372e+03
1.389014973632540205e+03
1.458329871340992213e+03
1.852950057421025804e+03
1.962834297633947017e+03
1.701118202809868762e+03
1.639033497269489317e+03
1.724846229665533883e+03
1.642249025770368235e+03
1.801633745095292852e+03
1.990900720329525711e+03
1.770567080341189921e+03
1.140881424159262451e+03
7.602402195603140171e+02
5.820129601892315350e+02
8.962649148771829459e+02
1.358873568169401324e+03
1.196462755895352757e+03
8.432764932727758378e+02
5.072774297758426769e+02
1.762891061881822168e+02
2.842804264421575340e+02
2.144244034438169990e+02
2.667904403300309468e+02
7.922721668790738931e+02
8.177667363797789903e+02
1.041192099806252827e+03
1.520721111609247373e+03
2.053503117924210073e+03
1.963417460716021878e+03
2.127425155456938228e+03
2.425358179519898385e+03
2.426121706779764736e+03
1.544797618388569390e+03
1.150445006337656196e+03
1.334890877786721376e+03
1.148086748406090464e+03
8.571934809660044721e+02
7.092540763159039443e+02
6.642733495994995110e+02
9.112589933651312322e+02
1.031103415654115224e+03
1.057783461726919995e+03
8.772520939414614531e+02
1.070469677403399601e+03
6.345604094214129418e+02
-1.016432821194827056e+03
-4.217650488732041595e+03
-6.495345424336528595e+03
-6.700474175150983683e+03
-6.639923707039784858e+03
-6.433672603403178982e+03
-6.605541275417378529e+03
-6.806185189749166966e+03
-6.760717703942044864e+03
-7.375442758631089418e+03
-6.774697732049194201e+03
-7.061585636085427723e+03
-7.367011759310546040e+03
-7.276813946002676857e+03
-3.168862913128598393e+03
1.245041796549604442e+03
-1.462115993698118018e+03
-4.731454123417598566e+03
-2.974096433842094029e+03
-2.501423545190122240e+03
8.914102455819357829e+02
1.631644597194910830e+03
2.390430032978335475e+03
2.517891377469489726e+03
2.473086632819295119e+03
1.993078772504849439e+03
1.791754647417621527e+03
1.778971589857502522e+03
1.351908204527673206e+03
9.078242747457393307e+02
7.187101532970572180e+02
8.384652711333891375e+02
4.629548961143158294e+02
2.758726592955912338e+02
6.041178342052335211e+02
2.628761362640746597e+02
1.631764156423798227e+02
3.513165919945394080e+02
8.573293681859207709e+02
1.335210077083672786e+03
1.422807348420586322e+03
1.259062472336642713e+03
1.456043464557776588e+03
1.537784045703091351e+03
1.555288314600815056e+03
1.543617998906386447e+03
1.490805301086597183e+03
1.096021651202042676e+03
9.422604693219187766e+02
3.824382468595986779e+02
3.844391823288161163e+02
7.703328538795306031e+02
6.601051449476753987e+02
4.937611122361649905e+02
2.523222147829397102e+02
-1.250979687144698573e+02
-2.433717452673086541e+02
-3.442406477891973964e+02
-2.135076185584389066e+02
6.268050949736255717e+01
1.095238403144975869e+01
1.163389819455962737e+02
2.329345233894592866e+02
3.668358995107240048e+02
3.182583339392384119e+02
2.519448482402229317e+01
1.898746356475106154e+02
-1.477704886576656804e+02
-3.476940442633541579e+02
-1.267013080774017055e+02
-1.908722454738037300e+02
-5.146360644341117450e+02
-1.776616538951352595e+03
-1.232750846249712822e+03
-2.708230823802155101e+02
-1.241219227926590747e+03
-1.100866476762780394e+03
-8.488673408997846082e+02
-4.113609925694188973e+02
-4.222363250896091245e+02
-1.364742514823620922e+02
4.926243101772131538e+00
7.380882065816717841e+02
7.432875697586852084e+02
5.305066859286433782e+02
5.535865145186437530e+02
4.545218620731733381e+02
4.572810146306734396e+02
-3.170709058561828897e+02
-2.835192132209813849e+02
-4.497594788872252991e+01
3.675099111123082594e+02
-3.330592683160573415e+02
-7.816069054081465310e+02
-8.641894293685866160e+02
-9.198980738393205456e+02
-8.247183418016484211e+02
-5.886451836276310132e+02
-6.086058232895708215e+02
-2.385650397990989688e+02
-1.165400207497141309e+02
6.955661553087647064e+01
2.899841105633500433e+02
3.726590757286807616e+02
7.204219811963507709e+02
9.590551010412428923e+02
4.695498303315546309e+02
1.050556723720749375e+02
-2.822213236683238620e+02
-7.002896028948050571e+02
-1.125348573146691251e+03
-1.117435544832334472e+03
-9.044777225106168999e+02
-3.665642076136733749e+02
-1.327883817057672786e+02
3.601124567903125495e+01
-1.221352570673079754e+02
-7.038970754268946450e+01
4.131593543497492078e+02
7.026282317038824203e+02
6.780581619187465776e+02
8.625319317262832328e+02
1.055928659317012716e+03
8.841118389222773430e+02
1.021014413698898238e+03
1.127642625906946932e+03
5.890506944905469027e+02
5.721792127945047923e+02
3.359511179415166566e+02
2.093346935501530197e+02
-8.654514081935818126e+01
2.594473928700387546e+02
-1.036406518603631071e+02
-3.709962808052380865e+02
-1.568200716900650207e+02
-3.282235771192347897e+02
-2.283776435296922216e+02
7.830931865305738704e+00
2.115502810668391760e+02
5.064593087055453680e+02
4.915948986398527722e+02
6.822569124852650475e+02
9.294167112402130897e+02
9.256082278306496391e+02
1.313375058473615127e+03
1.485941204639224907e+03
1.455604014103622831e+03
1.289651608337821244e+03
1.085308571498170068e+03
7.517820454048187457e+02
7.393101851490951049e+02
5.948708933441531599e+02
4.695154297755248081e+02
8.683713602593218184e+02
1.120170576597911349e+03
1.086731533123932650e+03
1.292993311545973484e+03
1.459073331312827122e+03
1.850045509519772850e+03
2.089178341683086273e+03
2.114523892370172689e+03
2.084187548255806632e+03
1.878992552386817806e+03
1.726048214531753047e+03
2.126508608403734343e+03
1.885399366774669716e+03
1.944539079360163669e+03
2.042622493523092771e+03
2.305601993921958183e+03
2.964258190456441298e+03
3.152881335872246837e+03
2.962564361433059730e+03
2.710060300674967948e+03
2.143125173828632796e+03
1.399376808167496165e+03
1.192260689314544379e+03
5.624216019224128331e+02
6.549657872731731914e+02
1.110892116600696681e+03
1.218214400203755758e+03
1.372825311802525903e+03
1.616673545187819627e+03
3.170818793218922110e+03
3.952258416978495916e+03
3.770984907150865183e+03
3.349854427730446332e+03
1.227879616812918812e+03
-1.797907069659508352e+03
-5.421543997490010042e+03
-4.557141260242053249e+03
-4.280715511293330565e+03
-5.506125267112227448e+03
-6.047295726139570434e+03
-7.288209591661780905e+03
-7.333170389155653538e+03
-1.423153520725661338e+03
-1.559414227052762385e+02
-1.178694888407780809e+03
-1.824492138779663037e+03
-1.240220441287418680e+03
2.141755863824915025e+02
-1.129366075263669700e+03
-6.233837614781636148e+03
-9.255119404488179498e+03
-1.063230557432998285e+04
-1.134347514646113996e+04
-1.203554563778431293e+04
-1.030141127712431080e+04
-5.364914384479984619e+03
-2.436128356118762440e+03
-3.693004197856170777e+03
-2.931512626451792585e+03
-2.878693895998968401e+03
-4.270540893860105825e+03
-6.483060634053560534e+03
-7.312231110561158857e+03
-4.841041396540692404e+03
2.582652979825390958e+03
7.256922848070417785e+03
3.915805260530880787e+03
-1.807676364893525943e+03
-1.244528569622721989e+03
3.257282723856644225e+03
7.814802073289162543e+00
1.800103311587085273e+03
3.526264881576647440e+03
3.284313754675124528e+03
3.411230888664405029e+03
3.979008197898193430e+03
4.257697211186183267e+03
3.187540271896162267e+03
1.356801935698329316e+03
1.555414409897714904e+03
2.650309163402902868e+03
3.133519103015858946e+03
2.669909936163199745e+03
7.656119538825716972e+02
7.847719888892368090e+02
2.754291012153712927e+03
4.128149793634275738e+03
5.904589543058623349e+03
5.494626479870138610e+03
3.845282890833709644e+03
3.155792240981562372e+03
3.702263279765094467e+03
2.517721220981860824e+03
-3.028677156731240530e+02
-1.454451351530092325e+03
-1.532862495796766552e+03
-1.072190731074033465e+03
4.405632723137396738e+02
6.155139009029362569e+02
7.637829836248641868e+02
6.683572004707106089e+02
1.715416799849878160e+01
7.352438341344129640e+02
2.746144371155274712e+03
3.801061490973542277e+03
1.131019584977846080e+03
-1.925960602000675863e+03
-3.916684393592795459e+03
-6.055905582461711674e+03
-6.021661953521943360e+03
-9.622359477255110960e+02
4.226426922135710811e+03
5.646376204474104270e+03
3.181648433327179646e+03
-7.387550226048432478e+01
-3.363967237796973222e+03
-4.727247177276851289e+03
-4.749789183497982776e+03
-1.752357264999759536e+03
2.215804644221896069e+03
5.631200573284268103e+03
8.602313973597663789e+03
6.418117745281205316e+03
1.388844636600367949e+03
-1.283050279649079812e+03
-3.030416677198628349e+03
-3.396406834238605825e+03
-3.185041644631953659e+03
-1.998206477633025770e+03
-1.793781159592889708e+03
-3.640747711998741579e+03
-3.831143019485737568e+03
-1.174949187096011201e+03
2.437786110639549861e+03
5.643078590526372864e+03
8.185969621488953635e+03
6.742434860240226953e+03
3.420503755531351089e+03
1.117322921583674997e+03
-1.290115155951975339e+03
-5.269398596058905468e+02
1.532898522071708612e+03
3.891517780454534659e+03
3.941708852947910145e+03
2.898359292240080322e+03
2.417550864248888047e+03
2.147329487985896321e+03
9.947781799128014200e+02
-9.814390872469654425e+01
-7.194053914931141662e+02
1.052869331950599644e+03
2.990594258723888743e+03
3.938787009501063039e+03
2.625562839013350185e+03
2.301965826624895726e+03
1.261806115580970072e+03
-8.749844452019760865e+02
-3.361422979931011469e+03
-5.099472396267586191e+03
-6.317127398229758910e+03
-4.280513042616054008e+03
7.693764615625557326e+02
5.069587364841499948e+03
4.988030258060191954e+03
3.978690501223962201e+03
2.256495494987213988e+03
-1.545571851946755942e+03
-5.241531503519290709e+03
-7.928318781896332439e+03
-7.629991627578725456e+03
-9.063635412995143270e+03
-1.036113707766371408e+04
-9.541566481709101936e+03
-8.164115669656986029e+03
-8.273885173298132941e+03
-6.856957698563421218e+03
-5.417088049684165526e+03
5.315759244377983350e+02
1.789907453092447213e+03
3.418923485556492778e+03
4.019567070883998895e+03
2.231775997492398346e+03
1.420517935577043545e+03
2.448147221457929845e+02
-1.357449216743937541e+03
-1.973365746887817750e+03
9.099801430260748702e+02
3.218620944195116408e+03
2.888595249434839388e+03
2.533839041901323071e+03
1.846288651568987461e+03
1.931923597688358996e+03
1.808778890054594285e+03
2.542669899391193212e+03
2.697433367261299736e+03
2.717048925686696293e+03
3.330677655226285424e+03
3.073325228645408515e+03
2.220871689796198098e+03
1.114264709221715520e+03
-2.224814746318641028e+02
-9.254665873279360540e+02
-1.721747282365357705e+03
-2.836328553116652074e+03
-3.384273051186014072e+03
-3.026277963887059741e+02
2.648624904862514541e+03
3.175484912490352599e+03
1.467833353619113268e+03
-2.183751697787010073e+02
-6.800561725726383884e+02
7.197941601226058310e+02
2.117105129019575088e+03
1.496815177576426095e+03
1.121975401276603179e+03
2.009523448585235883e+03
1.321393300594558923e+03
-2.004954641723234658e+02
4.389262528156542658e+02
1.187686160828540551e+03
4.877033749923068626e+02
-1.140048761994287815e+03
-1.368636396536776829e+03
-1.018052082990539361e+03
1.081728225463357376e+03
2.483662102854134901e+03
2.048776773102020798e+03
-1.490297142479148818e+01
-7.014636426508079694e+02
-3.469151783700449414e+02
-5.651705921360920684e+02
-1.931241915982864157e+03
-4.408091585339824633e+03
-4.908757678636536184e+03
-3.494234967577704992e+03
-1.015968278977236992e+02
2.741208542155043688e+03
3.474167889748064226e+03
3.240219925184572730e+03
1.178495476291080422e+03
1.160955072555590959e+03
4.180573900094239434e+03
3.451357494565290835e+03
2.260289625824103496e+03
3.687431142641734823e+03
3.498793562993806518e+03
-3.646170638649163038e+02
-4.177762442457622456e+03
-5.501682629510865809e+03
-5.567372062928756350e+03
-5.676781803129317268e+03
-4.275880390968598476e+03
-7.464695864184690436e+03
-8.343190951771524851e+03
-1.008037142124173624e+04
-9.673195551734303081e+03
-6.129637755986535922e+03
