-2.727458101555150279e+03
-1.222715699957093193e+03
-5.348260387139532668e+02
-9.048021656031839939e+02
-1.496643081385673895e+03
-1.580312015164520744e+03
-1.597814157879175355e+03
-1.291165207948842635e+03
-1.095365764773147930e+03
-1.020403131981660863e+03
-9.352667240009118359e+02
-7.669106130646698603e+02
-5.912842785454799923e+02
-6.523680820502739834e+02
-6.151090332869038093e+02
-6.105528056824368832e+02
-7.997534151942795688e+02
-7.936993337042283656e+02
-4.372825022169608360e+02
1.018558124241095015e+03
1.859816390849285881e+03
2.053511277777776741e+03
1.405609707976790560e+03
2.601857108482014951e+02
-4.667859350713263780e+02
-9.033555509874454401e+02
-8.016840442769445190e+02
-5.527838785171024938e+02
-2.135316025739292911e+02
2.170502004009955499e+02
3.000011688183719798e+02
2.903327612774001523e+02
9.650267770823547835e+02
1.105116304576960147e+03
1.057586425845217946e+03
8.904370941046445296e+02
1.063648304155513642e+03
1.418270630215288065e+03
1.462287213981243440e+03
1.365701633789720745e+03
1.240545914518734207e+03
9.558120446293938812e+02
1.885029365723293893e+02
-8.613931050633457289e+02
-1.375915017573503746e+03
-1.807149914940830968e+03
-2.271175802087309876e+03
-2.178987936820745745e+03
-2.115538115932651635e+03
-1.296760257511644113e+03
5.042909527039153090e+02
8.995722901222337669e+02
8.762004145761444533e+02
1.350197601016193175e+03
1.410681533769708494e+03
1.271767095371080586e+03
1.501118058239089351e+03
1.526495189215021128e+03
1.160282542686007218e+03
9.606778980202237790e+02
2.211798873509917769e+02
-2.702776240770260756e+02
-1.145031007821223739e+02
-1.213360911150905622e+03
-1.648089270457572866e+03
-1.666173004444782691e+03
-2.055148949049550083e+03
-2.106755243462447197e+03
-1.514415505211997925e+03
-7.629253456147350789e+02
7.358680683688857016e+02
1.362296085480903685e+03
1.513122779282113697e+03
1.488266082542834056e+03
1.465416897560698771e+03
1.767510113309210283e+03
1.333708150011818134e+03
1.181123541921989499e+03
8.016916126173447310e+02
6.054762504072371030e+02
9.235228624571971068e+02
4.518761382328014520e+02
-4.128756851122342937e+02
-8.919891585658867825e+02
-1.615956097612576514e+03
-2.148935337744882418e+03
-2.202045913216866211e+03
-1.878305400175988552e+03
-1.232694206447810302e+03
-5.042134644254455793e+02
3.431398678537190676e+02
9.784227488479692738e+02
1.249545739118939537e+03
2.228359067968680392e+03
3.520732066166177447e+03
4.038579483030646770e+03
3.919898572212757244e+03
3.471652446133261492e+03
2.815826927419224376e+03
2.326453120573200977e+03
2.471475495255865553e+03
2.401848214521811315e+03
1.718528618867725299e+03
1.056535913903522896e+03
6.768099288348428217e+02
1.277289533512672051e+03
1.543924782064305418e+03
1.336705907314783417e+03
1.732682986074848714e+03
2.057843155697689781e+03
2.263156802138275907e+03
2.164673593408846045e+03
1.883440608393129878e+03
1.673405373806690704e+03
1.638518211477989098e+03
1.455785958682866294e+03
-8.878473365391332095e+01
-1.625154020048379152e+03
-4.070335344834468287e+03
-3.731378226440510389e+03
-3.016313072249163724e+03
-3.469174612605242601e+03
-4.301960688164079329e+03
-5.139574481841113993e+03
-5.667044106273188845e+03
-5.827444773839634763e+03
-5.889792187879112134e+03
-4.937150128161551038e+03
-1.009437593461784445e+03
-2.814879078335574150e+02
-3.964390645711411707e+03
-4.646129087389054803e+03
-4.131674971009838373e+03
-3.331056481283049379e+03
-7.842397340133139778e+02
-2.983272711273094046e+03
-3.832187620902526305e+03
-3.198932673199325109e+03
-3.484462796443620846e+03
-3.497778046601786627e+03
-3.126849571562988331e+03
-3.236641297626997584e+03
-3.085163424202553415e+03
-3.060397834543041427e+03
-7.094179775270904429e+02
1.602780126643771155e+03
1.477219177661124149e+03
1.199970958189904650e+03
1.701089496234585340e+03
2.256530667545223878e+03
2.323327030679241489e+03
2.221563745466443379e+03
2.004312880337409524e+03
2.007507123700356942e+03
2.411272218924114895e+03
2.549634677837730123e+03
2.476578510130463656e+03
2.306146928764619133e+03
2.378349281180700018e+03
2.962218667431839549e+03
3.254772979059810496e+03
2.879002820368434186e+03
2.487990984599216063e+03
1.566740718168303601e+03
2.701931428545887002e+02
-2.196299917340613206e+02
-1.287703537690427709e+02
3.567696279805084032e+02
1.587108016525450012e+03
2.104310381657631751e+03
2.694425126844062106e+03
3.032477652813070563e+03
2.660586888568326231e+03
2.439802959185637519e+03
2.247131577870771707e+03
2.429563325313684800e+03
2.287116612156576139e+03
1.844901903451518137e+03
1.522954375479256441e+03
9.392652567594450375e+02
7.718594115235858908e+02
1.136754379995696581e+03
1.075924706912052443e+03
3.933195597859835857e+02
-4.758798750995716773e+02
-9.695584241159430121e+02
-1.208622255176295994e+03
-1.492960518170973955e+03
-7.494111890815569268e+02
6.396500896794658786e+01
8.381557588990001477e+02
6.782668159481401062e+02
6.312076783779878042e+02
-5.619568892220795533e+02
-2.419105390324083601e+03
-1.072056423743621281e+02
7.156290451047810848e+02
5.481766545618752389e+02
7.535148033682336290e+02
7.426461565277786576e+02
5.545827059528946847e+02
7.234426086785340431e+02
3.251700506522697651e+02
-7.112314806540520067e+02
-1.788779521231792387e+03
-2.276509083850966817e+03
-2.420477905801753877e+03
-2.368674687497765262e+03
-2.556032113341080276e+03
-2.244483788243026538e+03
-1.694030354225474639e+03
-1.201671013900559046e+03
-1.128342601469372312e+03
-1.320044217094406804e+03
-1.290776518082309394e+03
-1.010489645023758158e+03
-1.041230624070944714e+03
-5.650027945607630500e+02
-1.137669234169013635e+02
-4.684435447172499494e+02
-6.920583164733131980e+02
-5.077264031943116152e+02
-8.414467080886018948e+02
-1.307066280637937325e+03
-1.888581187505658590e+03
-1.856068121738345326e+03
-1.949583079036479603e+03
-2.219082157638486478e+03
-1.948642613300389257e+03
-1.427318510623553266e+03
-8.850681899534621380e+02
-3.219136497698362973e+02
-1.618425510122471280e+02
-8.308368654364360282e+02
-1.288908883545116623e+03
-1.286027641493395549e+03
-1.672580748486331288e+02
7.274391602999733095e+02
7.880750620758335572e+02
1.514652646191680105e+03
1.696142451054378853e+03
1.365527688993700394e+03
1.711806756197616323e+03
1.611915647797676229e+03
7.468560202241685602e+02
-6.638158012069641245e+01
-4.838468342096945776e+02
-9.565654912520402604e+02
-1.084602122618723797e+03
-2.589105030309954714e+02
4.595376307173357873e+02
9.196802194902251131e+02
1.043512920781405683e+03
1.326008545091856831e+03
1.355182495409917237e+03
6.430272338130872640e+02
1.250541512750882703e+03
2.458971225882717590e+03
2.545920040980897738e+03
2.125286501472445252e+03
1.581129249512206343e+03
1.547390008901385727e+03
1.583997231836355240e+03
8.270379556020960763e+02
1.544144734554153899e+02
-3.198011156667589105e+01
-4.762034002155007784e+02
-7.442756046826795000e+02
-8.512058044930276992e+02
-4.499327467592281096e+02
1.075504834197406296e+02
1.972443738102258806e+02
-9.886051239885466657e+01
-5.508442867144716502e+02
-6.357381685656515629e+02
-7.576195377959766120e+02
-1.173669074958218289e+03
-9.638610799710394303e+02
-6.292074532576297088e+02
4.932988466057337291e+02
1.618685281965146942e+03
2.332911125266036379e+03
1.762987707509799975e+03
9.908604231185561275e+02
8.845001799163876512e+02
3.558562389214000632e+02
1.317752918940122697e+02
2.812691144892062880e+02
5.443789336648310382e+02
7.640880244395190175e+02
1.057400987386883116e+03
1.535253550660605924e+03
1.935641655398746252e+03
2.400552023610386186e+03
2.782921385998302412e+03
2.594732047670284373e+03
2.418988613451461333e+03
2.337634322025866368e+03
2.186640384843003176e+03
2.181066525776480375e+03
2.206003563827777270e+03
2.031416999011938742e+03
1.735166296022951883e+03
1.171261670417291270e+03
4.456083902927709914e+02
3.208681750858598747e+01
-5.034063546298293659e+02
-1.301980117469175639e+03
-5.385563280911989068e+02
-1.201355725442093529e+02
4.302997214825976471e+02
1.030804156096443876e+03
1.129369797461701182e+03
1.351022023320129847e+03
1.775769768613999076e+03
1.885621762303175956e+03
2.175550918190514949e+03
2.352479196434924233e+03
2.392377497931582639e+03
1.642198866239540166e+03
1.653130336609653796e+03
-3.199775963723003315e+03
-6.077488490825564440e+03
-6.735926843446024577e+03
-7.255144335111684995e+03
-7.421206966431274850e+03
-7.443183915508444443e+03
-6.826057854460891576e+03
-6.442577601612883882e+03
-2.981631046524134490e+03
1.036770195747654043e+03
1.246003200272936198e+02
-4.224111224476469943e+03
-4.730290518408327443e+03
-4.733012903006102533e+03
-4.600316650271578510e+03
-3.579185871711488744e+03
-4.146471244254957469e+02
4.637149260807711215e+01
-3.175109909769558271e+03
-3.691074190036929849e+03
-3.830520386606093780e+03
-4.584435795576335295e+03
-5.273793048396391896e+03
-5.703499961261686622e+03
-5.693507636997497684e+03
-5.980874200996719082e+03
-5.822422906062437505e+03
-5.147061200684664982e+03
-1.628978109508956777e+03
1.994502789399494759e+03
3.054338644920318075e+03
3.352625076107014138e+03
3.430410784238127235e+03
3.604721767097521024e+03
3.607543564594217059e+03
3.546846502881173819e+03
3.881594556526076303e+03
3.701787087409177730e+03
3.731475596275370663e+03
3.472632080347957981e+03
2.917188551305466717e+03
2.264024027681524331e+03
1.561107626533939310e+03
1.091492900190637101e+03
7.531450354883951377e+02
5.100343362407830341e+02
7.990929671231072007e+02
1.428351795507709085e+03
1.627862985751136421e+03
1.924565197512153190e+03
2.513434340728879761e+03
2.798515491741407459e+03
3.384159919563468520e+03
3.350428775697398123e+03
3.185521097079227275e+03
3.065167593547846081e+03
2.938255749543567163e+03
3.080950931031729851e+03
3.259327265646710657e+03
2.992457245676040202e+03
2.515458783550521730e+03
1.637437797802761452e+03
5.300529773482895735e+02
5.898095532958257792e+01
-3.068177010825992284e+02
-7.719639253968870207e+02
-5.820091022774539624e+02
2.954924909902567620e-04
3.017030717414347123e+02
1.126116907161519066e+03
1.314295475478771777e+03
1.273608793900429191e+03
1.785097801800546677e+03
1.981648471689697089e+03
1.687278763595238615e+03
1.682961377655097522e+03
1.633711339506946388e+03
1.651592731978003030e+03
1.867631217411601256e+03
1.501894917473882742e+03
8.793501706806579250e+02
4.997551113270148448e+02
3.061711320592444849e+02
-1.539379617265336719e+01
-4.400192731679101144e+02
-7.457309499432673192e+02
-9.674540945094659037e+02
-6.191340806809333799e+02
-6.686922634108726697e+02
-9.610890705943852197e+01
7.055864631634209445e+02
9.634599543553615604e+02
9.146092410120555769e+02
1.008054406753413105e+03
1.343810955987542002e+03
1.409810106604441899e+03
1.169141254535146345e+03
1.416935800625268712e+03
1.883116154240880860e+03
1.527723852831536306e+03
1.284863840983791761e+03
5.255746905416982599e+02
-6.211356118440464797e+02
-1.336300084856824242e+03
-1.580996747909037595e+03
-1.675191040821578099e+03
-1.937865012214282615e+03
-2.078932831117991554e+03
-1.577284078736936181e+03
-7.418283735048822791e+02
-3.515289408294149212e+02
-1.143299381977188034e+02
5.477837622230293846e+02
1.142820002014845386e+03
8.927837558431689331e+02
2.257144293784627962e+02
-8.634017761635797115e+02
-2.510574116552353644e+03
-5.104736529537365641e+03
-6.054791931311840926e+03
-6.022700070755178785e+03
-6.425436765637015924e+03
-7.595043008650292904e+03
-7.905514817313115600e+03
-7.593884406314350599e+03
-7.694203827392660060e+03
-6.993462291617138362e+03
-6.984538311120591061e+03
-7.030439951880845911e+03
-6.498070630609143336e+03
-4.701278849549556980e+03
-1.888364776926319109e+03
7.778077923442638166e+02
1.571304997556335138e+03
1.915102939154562591e+03
2.013217724072228748e+03
2.087574813889602410e+03
1.756158340109251412e+03
1.624020661792608962e+03
1.610209509836306779e+03
1.967746621194619593e+03
1.528565179359117337e+03
6.356731653060880944e+02
-6.790740881738122425e+01
-7.412019076301131690e+02
-1.261295725731109314e+03
-1.117280710882048197e+03
-5.171640260368669715e+02
2.141088641897026719e+02
4.585261170818902769e+02
8.730576788707295464e+02
9.237272742479334511e+02
1.345572947304157879e+03
1.884517795530357489e+03
2.198511699683226652e+03
2.223552242900507736e+03
1.825576453789897187e+03
1.318568979745280330e+03
1.246535866837874664e+03
1.611424725163515632e+03
1.430226506394202715e+03
7.338612324171177761e+02
4.292820170489075622e+02
-1.495258560568513531e+02
-8.036280941992812359e+02
-1.036149124392745307e+03
-9.651750752673990519e+02
-8.207543783680897604e+02
-2.698616203073167981e+02
4.035733604688821856e+02
1.255526336955330635e+03
1.518908374727049249e+03
1.661567468597990683e+03
2.167459284487329569e+03
2.464615349775766845e+03
2.597900758397332083e+03
2.652261964107366566e+03
2.316693104822882560e+03
1.620091541429691006e+03
1.186433192713076551e+03
8.617412436145654056e+02
6.169220024479366202e+02
7.385557589422263902e+01
-7.793811690682734934e+02
-1.168925424380939830e+03
-7.159333777122492393e+02
-6.094984761217505138e+02
-6.787166264579843755e+02
-1.135577113147943010e+03
-1.030075175683620273e+03
-5.132529595817643440e+02
1.498523053256841138e+02
1.801136811752078756e+03
3.162546797969016552e+03
3.261034471184515041e+03
3.524572806098222827e+03
3.047128109641658739e+03
2.296624546366237610e+03
3.120979102731959301e+03
3.627167344473132744e+03
3.118122103717445498e+03
1.965805166011183474e+03
6.551185629886927018e+02
-6.079926586872506959e+02
-8.485743034020869118e+02
-8.787389646940138164e+02
-3.625600827829017589e+02
5.839518988195899283e+02
8.317862087180775461e+02
1.345950729945192961e+03
1.788440216942611414e+03
1.688245984511272809e+03
2.026327597326758223e+03
2.140574526031176447e+03
1.788941755502085698e+03
1.323300980388854214e+03
7.425986154599850124e+02
7.428591211977309285e+02
9.351563075170970478e+02
1.407527851651982019e+03
1.891803129200206058e+03
8.939384470645106830e+02
-1.511008255730994563e+02
-6.093217513956601579e+02
-1.856901565089683004e+02
3.146973592479027957e+02
1.787710978879255208e+02
1.294894624960780050e+02
6.139525598753065196e+02
9.441929716914270330e+02
1.154208719167281288e+03
1.658040717898103139e+03
1.733766566818957244e+03
1.478368903899449606e+03
1.624822677493689071e+03
2.869117136292994019e+03
4.677233650438009136e+03
5.230248116377207225e+03
6.254158050939372515e+03
7.094991375486270954e+03
6.727815544320296794e+03
6.024640912896355985e+03
5.299524749941798291e+03
4.471505924715917899e+03
3.175496911374901629e+03
2.581485449194494322e+03
2.393466128321755150e+03
1.944519172742416913e+03
2.313736915646497437e+03
2.860167317695520978e+03
3.317851205401948391e+03
3.729863993127443337e+03
2.446229486636377715e+03
5.210279611127920134e+02
-1.935598671253757857e+03
-3.932720567540766297e+03
-5.230410760602661867e+03
-6.058065957573935520e+03
-6.465534176958685748e+03
-7.508833680921402447e+03
-9.084934489074537851e+03
-1.186784879328917486e+04
-1.416444835959209377e+04
-1.428173680010748103e+04
-1.338067537382436967e+04
-1.274125586735766046e+04
-1.247677785675067207e+04
-1.146324252652898576e+04
-1.009695279127992944e+04
-9.373895117421338000e+03
-9.515958386053682261e+03
-9.520978765782439950e+03
-9.492896530738502406e+03
-9.513238528109057370e+03
-1.008886017601066123e+04
-1.053714111181923181e+04
-1.176819507118190631e+04
-1.335892358405679261e+04
-1.477622870629404315e+04
-1.500504887592020350e+04
-1.428632509036510965e+04
-1.413200986978938090e+04
-1.116004337160264731e+04
-6.137304277749320136e+03
-2.843706485026419614e+03
-2.492379718179047359e+03
-2.120532713776354740e+03
-1.001051655874428093e+03
3.441948638608806732e+02
1.863284724111489595e+03
3.081330094328677660e+03
4.118433217401870934e+03
5.496662487857098313e+03
6.938083370528612249e+03
8.658729540965212436e+03
1.022163590387299882e+04
1.134688250168302147e+04
1.211958801615859920e+04
1.234987142338232297e+04
1.283478393729751951e+04
1.360132544007746037e+04
1.411253788736302522e+04
1.363346129629385177e+04
1.303707746313556527e+04
1.265742893372033723e+04
1.114359289914591864e+04
8.841589830201137374e+03
6.143464212169684288e+03
5.816274506108981768e+03
5.655046591671093665e+03
6.569870050797257136e+03
6.504858306348077349e+03
5.187058641265289225e+03
4.436479634513519159e+03
3.737081931786653513e+03
3.450889492248599254e+03
4.788962176016266312e+03
8.250336207859452770e+03
7.632094210333857518e+03
3.172242905748452358e+03
7.296743117624217803e+02
-7.834035037405797652e+01
-2.958612251582279100e+02
1.261971975416460964e+03
-9.588418356383904211e+02
-3.337272571263434202e+03
-3.424369055168781870e+03
-3.791107735140337809e+03
-2.886479460378277963e+03
-2.025500442072489932e+03
-1.944197406099029195e+03
-2.277548585850659038e+03
-2.299533549454602507e+03
-2.204126147974262949e+03
-1.704393360074486964e+03
-4.724067946267052776e+02
3.375847931199295090e+03
5.181381796894128456e+03
5.670126501120536886e+03
5.887028076831055841e+03
5.616088528493860395e+03
4.790219955672479955e+03
4.021401769491869345e+03
3.285624126096030523e+03
2.957754796678216280e+03
2.686765338071715632e+03
2.055545095641601620e+03
1.615057162356880781e+03
1.874298610806048828e+03
1.980250648827749728e+03
2.232907806988187076e+03
1.851245860750154861e+03
2.088134848297549524e+03
3.173537269638592079e+03
2.924334100039187433e+03
2.025436827054282048e+03
1.260888283299531395e+03
1.120624567425744544e+03
1.297574510848914997e+03
1.217696048931083851e+03
7.098928171216323335e+02
-3.728857290674058049e+02
-1.654697267755125040e+03
-2.602571366828085502e+03
-3.430621706794443071e+03
-3.491063619846106576e+03
-3.451997220403727169e+03
-2.529422316904953277e+03
-1.843388965400770530e+03
-1.625978169341623015e+03
-1.592263991310565643e+03
-1.737220449529112329e+03
-2.086844934926577480e+03
-2.349176993367280375e+03
-2.462230906276859059e+03
-2.294991215273014859e+03
-2.208655324849730732e+03
-1.769445312018326376e+03
-1.859415402004624411e+03
-2.271453025617583080e+03
-2.241454535531567217e+03
-2.857523932557340686e+03
-3.502748625586859362e+03
-3.720422486487068909e+03
-4.206473759341948607e+03
-5.086011725422451491e+03
-5.365128014153822733e+03
-5.427855201118753030e+03
-4.845255715738388972e+03
-4.247684179715786740e+03
-3.465095440996563866e+03
-2.478520031471343827e+03
-2.559032685203722849e+03
-2.498682927353711875e+03
-2.320482461945327032e+03
-2.298479770343416476e+03
-2.252764256802362524e+03
-2.649368177260130324e+03
-2.632282605032386527e+03
-1.932549542486798146e+03
-1.526144355963624321e+03
-1.477123382955219085e+03
-2.158560189588444700e+03
-2.840496890526214429e+03
-3.085045651395654204e+03
-3.652279008467700805e+03
-4.339162437501937347e+03
-4.261714798692187287e+03
-3.610878094349899584e+03
-2.917620665420040496e+03
-2.288005296734825151e+03
-2.038042130834155842e+03
-2.179735286689232453e+03
-1.703067010762775908e+03
-1.163022767584933717e+03
-1.034620140644216917e+03
-7.949288781011205174e+02
-5.189420858467977951e+02
-4.615898698627530052e+02
-2.958927876815325249e+02
1.571773079852882802e+02
-7.933346598250935244e+01
-8.604747967378460771e+02
-1.781224042442471045e+03
-2.331552719209755651e+03
-2.403544419265648685e+03
-2.127236509890769867e+03
-1.944590540630200394e+03
-1.808526629631765218e+03
-1.538006968424012939e+03
-8.229732382089031262e+02
-2.773488502800802848e+02
-1.131210070732806372e+02
1.478196478435283154e+02
5.085172587874226906e+02
9.149824103327265448e+02
1.542199750544957851e+03
1.575209296391392172e+03
9.220096294829929775e+02
1.829711639049948189e+03
2.119403117324465256e+03
2.228084090937187284e+03
1.934738935834126551e+03
8.434308345162011165e+02
1.001949224857698795e+02
2.590882824930700394e+02
4.080904143606172738e+02
-9.770491066027695126e+01
1.672135564367335547e+01
1.140321620498098810e+03
1.600158681065748169e+03
1.958372896365869110e+03
2.431007660471423151e+03
3.218167608694682713e+03
3.888926335624315016e+03
4.166191745072497724e+03
4.197006810045457314e+03
4.880487804751154727e+03
4.700766954209248979e+03
4.508941509484206108e+03
4.457058202975360473e+03
4.083104514539768843e+03
3.542073151983741809e+03
2.924006793786068101e+03
2.139855651878649496e+03
1.574650639487831768e+03
1.714489419959111956e+03
2.289433708551194286e+03
2.598524550361153615e+03
2.614807816383914542e+03
2.733350428270377051e+03
2.626243601309737187e+03
2.513545079543130669e+03
2.975281581069149979e+03
3.624497817579243474e+03
4.984180437835845623e+03
5.239274515197648725e+03
4.692844681539265366e+03
4.024043895217392674e+03
3.752908255040520999e+03
4.352433865240853265e+03
3.947558672315813055e+03
2.732286436577696804e+03
9.977188331493888427e+02
3.508541886103514571e+02
2.406333429291624668e+02
1.070460847001245810e+02
-1.208526799341114781e+02
6.249783737093131322e+02
1.316593577550826694e+03
1.610007490874934774e+03
1.824238490340369481e+03
1.679201190109873096e+03
2.140873897118513014e+03
2.242321164195811889e+03
2.065414801966298910e+03
2.137165006821097904e+03
2.227682494715296798e+03
2.538032641700430304e+03
2.614191836896626228e+03
2.784173394506087789e+03
2.143034609292824371e+03
1.019748832803075061e+03
4.242742141332896608e+02
-5.039943715110752720e+01
-4.003362756733466767e+02
-5.875532483658646470e+02
-6.991057878439031583e+02
-9.599747076860477364e+02
-9.390299565224119078e+02
2.688430534493931532e+02
-1.034234238732534095e+03
-3.906277985622275082e+03
-5.947329826958160993e+03
-6.160378625019828178e+03
-5.591481216304491682e+03
-5.332721503933833446e+03
-5.795101110990490270e+03
-5.299521330897754524e+03
-4.832987347535958179e+03
-4.737686280983796678e+03
-1.347761865256938336e+03
-5.922133713815301235e+02
-5.883052400230347303e+03
-8.308395201025627102e+03
-8.683291767019836698e+03
-8.126872166957151421e+03
-5.902139355707160576e+03
-2.010064767446416909e+03
-2.721679136853636919e+03
-5.187992116620888737e+03
-5.015979496934745839e+03
-5.057642588265890481e+03
-4.439954183213359102e+03
-4.141924896155748684e+03
-4.092615940477804997e+03
-4.123158941338509976e+03
-4.107653247853206267e+03
-4.671143513367532250e+03
-4.194858295394261404e+03
-2.645090205097618764e+03
3.120465874460031728e+02
1.232709840058254258e+03
8.168552690516818302e+02
4.834031866752710016e+02
-5.864433252551374665e+01
-1.139204435262321979e+01
3.491207468131755149e+02
7.217905897752839337e+02
1.665574051663817500e+03
1.837459588585469874e+03
1.828326103515992827e+03
1.685170603998844626e+03
1.863034550587097328e+03
2.660885851982126496e+03
3.329716013637494598e+03
3.457444651004719617e+03
3.471066975098775856e+03
3.328547156358790744e+03
2.744926123041435403e+03
2.419198347391958123e+03
2.063323353798262815e+03
1.407342754976229571e+03
1.022374842208334826e+03
5.326987142149456531e+02
1.432049362526943241e+02
-2.551714117109860069e+02
1.665201515098462437e+02
9.053684723754115566e+02
1.472471459679848067e+03
1.502854268536872951e+03
1.583585098945874734e+03
1.680623043317184283e+03
1.658089666247385367e+03
1.894620934160922616e+03
1.491088126214570593e+03
-3.462078667250646618e+02
1.101924324956065220e+03
1.738518964705540157e+03
1.136657258553084603e+03
8.638708172844918636e+02
7.575128262353933906e+02
6.947450516313435855e+02
4.404059963636511270e+02
9.353480351693742989e+01
2.340345600152134580e+02
-7.412676466766633609e+01
-5.409005199678033478e+02
-3.292267197396993765e+02
5.429158439592717968e+02
1.071634570231154385e+03
1.314986694358974546e+03
1.540129108261048486e+03
1.976717424971930541e+03
2.129609285669184374e+03
2.162806429524944633e+03
2.552276613482802986e+03
2.104051896551869959e+03
1.851234186071020304e+03
2.034852541999465075e+03
1.664937427901060801e+03
1.046480136225745355e+03
1.165191686329431917e+02
-4.339218318991307797e+02
-9.088088865214027692e+02
-1.358174050972296527e+03
-1.063032118556739078e+03
1.246360449627625542e+02
3.429190416354007880e+02
5.598646657767649231e+02
5.324196632099993849e+02
4.516968366377224697e+02
9.728267285401534537e+02
1.686823434623719550e+03
1.780650494831937067e+03
1.528259028101979311e+03
9.886997033016675687e+02
9.501007237111870154e+02
1.197539780779273769e+03
1.877031271351899704e+03
2.214575725571721250e+03
1.324236423601228580e+03
3.269836370054442796e+02
-2.482232299186262594e+02
-7.794357739967273346e+02
-1.010554516348717925e+03
-1.267584930530511429e+03
-1.118541956681210422e+03
-4.853731121129642361e+02
2.704411485748626376e+01
4.587360853603004784e+02
5.596688277683352908e+02
1.779456202544116366e+02
-1.565409180816806156e+03
-4.168447613289805304e+03
-6.012137176281765278e+03
-5.124465383850733815e+03
-3.801452776895721854e+03
-2.827034988826013432e+03
-3.919150430376056647e+03
-4.015795467845830899e+03
-4.896997658784289342e+03
-5.754781141975345236e+03
-4.662847487276458196e+03
-1.432353382713632527e+03
-9.734196105904389924e+02
-5.380260560632325451e+02
8.250237421221122691e-01
1.231216028161996121e+02
2.639786914325591169e+02
4.573929333847395924e+02
8.153775193398644205e+02
7.109563945628232204e+02
1.187188037902063797e+03
1.592182683024898552e+03
1.328836450190378855e+03
1.857001759965128258e+03
2.045724736259958036e+03
1.681055282755634153e+03
1.744091835062134123e+03
1.223888185013357770e+03
2.034041414696663708e+02
-6.953270964265161638e+02
-1.561292231964082930e+03
-1.932564259341650086e+03
-1.237170110168199471e+03
-8.001185106352324965e+02
-3.634086540863701771e+02
-2.202844346645457208e+01
2.261289772781169063e+02
5.580596140589630068e+02
1.173759500282141289e+03
1.494247939337376010e+03
1.384482712714535865e+03
1.490475318551320925e+03
1.537203278495037694e+03
1.451647956607906963e+03
1.609839408298592161e+03
1.266845712523140492e+03
1.287690449307800691e+03
1.633432095256767980e+03
1.170071545665184658e+03
5.346315678653723324e+01
-7.224043272510130009e+02
-1.425511272566953949e+03
-2.260906348952700682e+03
-2.402610213313660097e+03
-2.032677022411968210e+03
-1.969092799701677222e+03
-8.337617018153591744e+02
2.902869598036338630e+02
8.121003822605683808e+02
8.576714369085883618e+02
9.679730739541045068e+02
5.290291418648643003e+02
5.528878554166117283e+02
7.203626755132509061e+02
6.825169328783238143e+02
7.703512430299253992e+02
8.819302919995155889e+02
7.143217464859288839e+02
1.664695462578645504e+02
-9.177141302457683878e+02
-1.049235948188631028e+03
-1.279024148471950866e+03
-1.496099946975871262e+03
-1.445623476753652994e+03
-1.268563016006504768e+03
-8.899200390833208303e+02
-4.726764660163970007e+02
-7.484000688682866098e+01
1.765853606473169748e+02
2.475983062934724046e+02
1.622135646037139338e+02
2.913743783607404794e+02
6.331309588076620685e+02
7.424691963603719387e+02
9.743615326130426411e+02
7.078378157484193025e+02
1.041890193556523172e+03
8.105118387959583970e+02
-3.032291473906748251e+02
-5.323241186799426714e+02
-4.949531436004892839e+02
-1.044182166629779204e+03
-1.162964301684394059e+03
-1.127215392009838069e+03
-8.990191028564245244e+02
-5.784191574674122194e+02
-6.103899502972219580e+02
5.998417911341375941e+01
4.786949294538235904e+02
1.456746403872843985e+02
3.539842353455396164e+02
6.506694834277684549e+02
7.797250976281868589e+02
9.400673429615693522e+02
8.686299123279161449e+02
7.074680751059662498e+02
9.916026001928888718e+02
1.098111615469733351e+03
7.529253254481659496e+02
-1.750278252496670177e+02
-8.877800982949249828e+02
-1.002327300483116574e+03
-9.778074738270405533e+02
-1.343257438514056048e+03
-1.282709225526407636e+03
-1.152163606079337796e+03
-3.325529298869235504e+02
4.790442026895706249e+02
3.136226048944026275e+02
2.292138954311205055e+02
3.627872102301195127e+02
9.033194261912882439e+02
9.937813724508156383e+02
9.610890007065872851e+02
9.412080527562156931e+02
1.109193065197299575e+03
1.153052952596205159e+03
7.817654703664156841e+02
4.183205050434518171e+02
1.936441693911329480e+02
-7.003302426537679821e+02
-1.322604494368304586e+03
-2.101210867618045086e+03
-2.431276847966219520e+03
-2.093019273836859611e+03
-1.749072601729525104e+03
-1.282177331627127842e+03
7.647107704212774593e+01
1.705884415081279712e+03
2.072082911329471244e+03
1.979932118086184346e+03
1.765476015908333693e+03
1.728369094398718062e+03
1.615928174131366859e+03
1.213914577765459853e+03
1.220897909555892966e+03
1.359274059998105031e+03
1.479587317586092695e+03
2.272451955609328706e+03
1.565654503097404358e+03
2.971411276259997294e+02
-1.959975907206013517e+02
-6.504259384326850295e+02
-8.357005687943067187e+02
-8.404800739219211891e+02
-2.603363189444108912e+02
3.689767004484723429e+02
8.313434331376452064e+02
9.287977669582088538e+02
8.953718280299725620e+02
1.219008091623756172e+03
1.130730695789472293e+03
2.011606754781332029e+03
3.042306841778463422e+03
2.567626145603178884e+03
2.011583871163841195e+03
1.301289713551757586e+03
7.989773482514593752e+02
1.302449540448980770e+03
1.513579641620304301e+03
1.722368819817652366e+03
1.017017184744952601e+03
6.043427116807823722e+02
7.562394542110232578e+02
2.917003560314407764e+02
2.537559277960227746e+02
9.864601099589647220e+02
1.587779862379488577e+03
1.990696813527627000e+03
1.923250568829170334e+03
2.451467708233716166e+03
2.658349610886096798e+03
2.523921030872566462e+03
2.073158743801576293e+03
1.071061330724222898e+03
-1.155342741305210438e+03
-3.762008245328936937e+03
-4.227943882501299413e+03
-4.174157491973510332e+03
-4.948626289785121116e+03
-5.358327733510257531e+03
-5.620329224661049011e+03
-6.227657025523533775e+03
-6.381319136761935624e+03
-5.813280508200515214e+03
-5.437525790565004172e+03
-1.201976028337690650e+03
2.021395452293568269e+03
-4.943042008932050635e+01
-3.616207542529533839e+03
-4.292771807583493683e+03
-3.410438257219706429e+03
-6.571138298842182621e+02
-1.878761336218203496e+03
-2.836334555567999814e+03
-2.717850722089824103e+03
-2.833291972165871357e+03
-2.941635064885018892e+03
-3.127870370490511959e+03
-3.798960176918412799e+03
-4.900847171856719797e+03
-6.176495019121886799e+03
-7.448917460165011107e+03
-7.613156571566324601e+03
-6.673214823636924848e+03
-2.262994547112585678e+03
1.939586248854241148e+03
3.582549903125238416e+03
4.336937338087792341e+03
4.381821279777294876e+03
4.079212332660837092e+03
4.114227186296056061e+03
4.136879978261322321e+03
4.149186035872575303e+03
4.065156156145977093e+03
4.217877537771918469e+03
3.929467940272508713e+03
3.824898322182039919e+03
3.700226113293814251e+03
2.897476655015786491e+03
2.045630795618686307e+03
1.172618147546869977e+03
1.100557188864469481e+03
1.057529358742796376e+03
9.144957022120629517e+02
1.389492396389294299e+03
1.777550679688836453e+03
1.990704280268055300e+03
1.583095348862560058e+03
1.184809534671174561e+03
1.644901578108049762e+03
2.161371417458715314e+03
2.141231940111233598e+03
1.861434441167165232e+03
2.004023846302198990e+03
2.210147965824889070e+03
