-2.290585737828944275e+03
-3.048943936512216169e+03
-2.886890872941263297e+03
-2.591580209427927457e+03
-2.116974802741971871e+03
-1.335213032103741170e+03
-1.458598333025027387e+03
-6.942114364487792955e+02
2.508354994994592460e+02
8.834338400955459747e+02
6.314004997692807137e+02
7.296280018235217995e+02
1.050930395902117652e+03
1.393151187794823045e+03
1.679152210700279966e+03
1.581877681913658762e+03
1.537126122253850781e+03
1.123681926991243927e+03
6.104728950686518374e+02
2.824443261390167663e+02
-3.045090346882217887e+02
-1.261579455513127186e+03
-1.623987709171353345e+03
-1.155863968838907113e+03
-4.653470938983037968e+02
6.406139435962677986e+00
3.353762277463944770e+02
4.714366122420324814e+02
5.515060461751257890e+02
1.037463365342873885e+03
1.051151334660788734e+03
1.387472827528440121e+03
1.314279819586051644e+03
6.254027144427020630e+02
5.777761936414218553e+02
1.293307779285634524e+03
1.829957485703096154e+03
2.197627900967394908e+03
2.563246169059249951e+03
2.164728716693747629e+03
1.110038717988523103e+03
1.080813346660519159e+02
-4.612609197080846570e+02
-5.581299915950495460e+02
-7.816006811645668222e+02
-6.367186261998893997e+02
-4.325430326045602101e+02
-9.320465490638666495e+01
6.472814840353205454e+02
1.164878303099070990e+03
1.521520730169634362e+03
1.752206486590898976e+03
2.109879472124206586e+03
2.365526580334206301e+03
2.083072613281854501e+03
1.638430412516556771e+03
2.204611261041774469e+03
2.919625359257054242e+03
2.794490363061947392e+03
1.652177621761220053e+03
1.268605084470763131e+03
1.532740494898502902e+03
1.467547241224031495e+03
1.153944962099670420e+03
1.628942215367669633e+03
2.045565933017119733e+03
1.853815357591789962e+03
1.250772927391009944e+03
2.941279348351289968e+01
-2.578231334412690103e+03
-4.759116394332079835e+03
-4.839225143730578566e+03
-5.276483633125098095e+03
-5.386925475100537369e+03
-5.233564596322230500e+03
-5.149311443939925084e+03
-4.851026156550040469e+03
-4.215689629330030584e+03
-3.729241541019951455e+03
-3.508584781236253093e+03
-5.116882234710516855e+02
2.085518001223050305e+03
-5.699070738946124948e+02
-3.102909498395972150e+03
-2.901472931304149370e+03
-5.235814402492071622e+02
-3.511799153012816532e+02
-2.428209158287528680e+03
-2.846568610137921951e+03
-3.010079052172310639e+03
-2.839631828337932347e+03
-2.856199521761200685e+03
-2.808760540227161528e+03
-2.853239905706534955e+03
-3.452510510241250813e+03
-2.598470260230485110e+03
-1.793980647657478585e+03
-2.212887208051797643e+03
-1.466083269525733158e+03
1.644480044773318696e+03
2.246929970154871171e+03
2.368351708806216720e+03
2.326748708642180645e+03
2.425236068893209904e+03
3.390933157792205748e+03
4.190884030800252731e+03
4.718250281586113488e+03
4.660201472483902762e+03
4.446799843541684822e+03
4.222169960996214286e+03
3.653466668667648719e+03
2.932832400338395473e+03
2.562390500956175856e+03
2.487290477128265593e+03
2.321594758876056403e+03
2.162349228916301854e+03
1.796743490252272068e+03
1.498834495346011181e+03
1.791746942397270686e+03
2.335640370282895219e+03
2.750986747999095314e+03
2.966791556158393632e+03
2.677122063133050688e+03
2.273044379677799952e+03
2.588691504937497029e+03
2.507038305281595058e+03
2.657267053533406397e+03
2.727541877942968767e+03
2.485048133301439066e+03
2.818885927346222161e+03
2.705255978016428344e+03
2.688251877881405562e+03
2.437931555732796824e+03
1.593214150785860056e+03
4.811071240060113610e+02
-1.783128927826941663e+03
-4.185545444342716337e+02
-2.122120589875787289e+02
-2.924321086741129534e+02
-5.311957980169555640e+02
-4.404734884866295488e+02
-8.215262317722761054e+01
3.628433021226551887e+02
7.665772452317092700e+01
-1.866117533726302327e+02
6.099686879272542939e+00
8.384869196198052066e+01
4.107080291580978155e+02
7.917100031402850391e+02
1.271953121324265794e+03
1.992422398099288557e+03
2.569147448913722656e+03
2.165172548878066664e+03
1.839564057886069804e+03
1.602376984722084671e+03
1.446645855178314605e+03
1.474477078136538921e+03
1.108982956102888693e+03
5.162032394828349879e+02
9.116564050276613784e+01
-3.100673758683307142e+02
-5.294230797982287413e+02
-8.798009593747809731e+02
-8.471375278333795222e+02
-1.180397474776300669e+03
-1.686534804197955509e+03
-1.579615903142777370e+03
-8.585099889066116248e+02
-1.111245565567616183e+02
3.975840868494632332e+02
3.856939235120500484e+02
-2.487488467965370091e+02
-4.247200568797956635e+02
3.278337644884999804e+02
6.399823245109616892e+02
4.228022562178461499e+02
2.712947028069650628e+02
2.554809623924445532e+02
-4.076001498936703342e+02
-8.149231762700088666e+02
-1.318441797986749179e+03
-1.240063915047350747e+03
-1.024758327265175012e+03
-9.795518527371672235e+02
-1.024447068492820563e+03
-9.754554257736948557e+02
-1.134575483066735160e+03
-2.797763271648186219e+03
-4.604990906588483085e+03
-4.873229568075515999e+03
-4.385452122248256273e+03
-4.307625891688443517e+03
-4.517795212964657367e+03
-4.607985270668118574e+03
-5.088165489995136340e+03
-5.222226076742771511e+03
-6.086129097755995645e+03
-6.505845071077964349e+03
-6.178380428305592432e+03
-6.606816699638928185e+03
-7.635177142762927360e+03
-8.561408493466447908e+03
-5.676491428328441543e+03
-1.784548898948835813e+03
4.584375925750765077e+02
5.173889018663148818e+02
-7.275924043478845249e+01
-2.269413426411999808e+02
-2.181426055675206328e+02
5.835589260024853502e+02
8.761277871131055690e+02
3.205563256799834448e+02
8.286639492960465248e+01
7.701808472235603631e+01
4.099859700402857925e+02
7.097072601210816174e+02
9.961367683795212997e+02
1.012283941248664974e+03
1.044095737278068327e+03
9.895350194369993915e+02
1.043488199667889830e+03
5.158681364403644238e+02
8.326939162180631229e+02
8.608833332119793340e+02
1.012311573117304306e+03
1.360895102006988054e+03
1.689588816662931549e+03
2.307412861703589897e+03
2.669217018682216349e+03
3.108810310596604722e+03
3.351158881939954426e+03
2.859198783069357432e+03
2.351846643750280236e+03
2.384021195556606472e+03
2.360697746019235638e+03
2.067697325701804857e+03
2.099847325291877041e+03
2.668110630177394341e+03
3.037417707823346518e+03
2.890531185278194243e+03
2.173318088026950591e+03
1.517740504049996161e+03
1.154740038949393238e+03
9.432525700211787125e+02
9.980515104444311874e+02
1.001099418945284242e+03
7.373613042279919227e+02
1.194707850968631647e+03
2.174039740989217080e+03
3.407317472586994882e+03
3.783643520763191646e+03
3.166057629298833945e+03
2.790230367954242411e+03
2.703989485425950988e+03
2.610375571885513637e+03
2.168182086647964297e+03
1.936208847086435071e+03
1.400419183180833443e+03
3.367505765477591240e+02
-1.411001998111049488e+03
-4.091433302320631071e+01
3.198866645824169268e+02
-3.877672729319313021e+02
-8.608737834843461769e+02
-1.108589469775617772e+03
-1.071129168619796019e+03
-5.546007865338353895e+02
2.819971596489911008e+02
8.059954090776273006e+01
-1.228501336386617169e+02
-1.575268959378042553e+02
4.514723263974738074e+02
2.021460704053199890e+02
-7.186140719684597116e+02
-1.198897979361454873e+03
-1.024725042035306160e+03
-3.562238407484608729e+02
3.956093056463610083e+02
4.677635305974478683e+02
4.190432918622777834e+02
2.032969969753385726e+02
-5.585986748668700557e+02
-9.666067173339757801e+02
-1.153736706081393322e+03
-9.640184930800870688e+02
-9.135190250237657210e+02
-1.094383259840280743e+03
-9.296351785532718850e+02
-8.553942841350057051e+02
-9.616610284291822381e+02
-9.944055320141169432e+02
-1.180743516369474946e+03
-1.446788426582502780e+03
-2.070514476713196473e+03
-2.529889955481501147e+03
-2.541986078227022972e+03
-2.078792908663659091e+03
-1.400311700499358267e+03
-1.132569057284469636e+03
-1.176656647251479171e+03
-1.247652908511876376e+03
-9.145328230737022750e+02
-4.313475641308763784e+02
-7.471451059666800347e+02
-8.289374764964337601e+02
-7.638383804374238935e+02
-8.360161935763708243e+02
-5.564828379901551898e+02
-1.071057213862763291e+02
5.201238279561221134e+02
7.641826604933417002e+02
-3.695532793207186018e+01
-5.463904109637829833e+02
-4.662152781682662521e+02
-2.264444072286850940e+02
-2.491250732208177681e+02
-1.032036954478107305e+02
4.072471333352876854e+02
8.161516208684074627e+02
6.336129473366996763e+02
6.526470681998268901e+02
6.591381893210598264e+02
4.680053197935116600e+02
8.551708388415779609e+02
7.087694523900851209e+02
6.597769664098809699e+02
6.293513112774561478e+02
3.094746312309874838e+02
5.081116745213640797e+02
4.830860507969047717e+02
-6.555492011313094558e+00
-4.489546468103216625e+02
-6.798301733320671474e+02
-8.003393850552671438e+02
-1.074232487598355874e+03
-1.372718951484603167e+03
-1.694857135417216568e+03
-1.591657366482643738e+03
-1.164299583334662884e+03
-6.461235325570042960e+02
-1.942699251935533198e+02
-1.530790996084500932e+02
-3.717234185484120985e+02
-4.067961245891850695e+02
-6.181769450913492392e+02
-2.100900858682660157e+02
3.345401307173298164e+02
6.524648491995268387e+02
7.672351392356870292e+02
5.907485588026451069e+02
9.178326993380337626e+02
7.298970271449480833e+02
1.266582118521864260e+02
-6.632547219383159387e+00
2.562393325682222667e+02
-2.050453505343134566e+02
-3.093646098305649730e+02
1.662561260956346132e+02
4.950250788829789030e+02
8.631878585820288663e+02
1.193690378795842662e+03
8.065488728649887662e+02
5.848474568249135928e+02
5.917204785485716911e+02
7.993121322573410907e+02
8.617287994627710077e+02
1.235040115476100254e+03
1.681409076238627904e+03
2.402975617582461837e+03
3.452846980859329051e+03
3.830115592991553513e+03
3.184892508203568923e+03
2.989304552634576794e+03
1.879483699697374277e+03
-4.846894713321530901e+01
-2.242486016915937853e+03
-2.614489853892751398e+03
-2.900394841180824642e+03
-2.907068255686774592e+03
-2.865335600360315766e+03
-2.536107817345081457e+03
-3.302331652565343575e+03
-3.610847561741684331e+03
-3.315525206736355813e+03
-3.237247667552669100e+03
-3.261900129192850272e+03
-3.035461264567251874e+03
-2.547751211267736380e+03
-1.160626494603531910e+03
1.407067315655747734e+03
3.240466339069585956e+03
3.152793132695424902e+03
-1.607776718904350730e+02
-3.122437840819031408e+03
-3.025018720915141785e+03
-2.890415030516339357e+03
-2.740516634293253446e+03
-2.668219235476828544e+03
-2.717534702263925283e+03
-2.377376243215551767e+03
-2.216566948876446531e+03
-2.287054324745639406e+03
-2.268772888424925441e+03
-2.217653898809791372e+03
-2.029673269417327674e+03
-4.007729802744090080e+02
2.698078547393698955e+03
3.892946723874842064e+03
4.191896754175204478e+03
4.550105523287466895e+03
4.896668669950554431e+03
4.346643852635688745e+03
3.887067282524250913e+03
3.474923395297596926e+03
3.344236455507362280e+03
3.209115425952078567e+03
2.965608888299174851e+03
2.646749847043998670e+03
2.701603003872888621e+03
2.914181034672700207e+03
3.168534067199743731e+03
3.623679622286467293e+03
2.926629917870141981e+03
2.563367958265167090e+03
2.156818193377719126e+03
1.806939798721322177e+03
1.710730246404871423e+03
1.981285991826413238e+03
2.054676043335984104e+03
1.899853526034780543e+03
1.756742564547230131e+03
2.241375438801902419e+03
2.006842441892679972e+03
1.521109031621374697e+03
1.073097478546135790e+03
4.397966182501253343e+02
3.551646308895224138e+02
4.571795874861676907e+02
4.117798383583583473e+02
4.481159291212176754e+01
-1.757312021070817991e+02
-4.177681336877825515e+02
-8.119854867457707996e+02
-1.248601151349364955e+03
-1.391890588279579106e+03
-1.426736592459822532e+03
-1.739093822011321436e+03
-2.047093519590556980e+03
-2.196756873203069063e+03
-2.485099130577622873e+03
-2.698177795615707964e+03
-2.607063141815230665e+03
-2.816811892378775610e+03
-2.788425410686439591e+03
-2.520994954659262476e+03
-2.688673137654197035e+03
-3.279490354973968806e+03
-3.383449289217363003e+03
-2.803834835922782077e+03
-3.016967260008781523e+03
-3.095987232502074221e+03
-3.408070629475184433e+03
-4.194189787019686264e+03
-4.202398116970914089e+03
-4.045810895013064510e+03
-4.013521089462260534e+03
-4.280720013666093109e+03
-4.751476803064156229e+03
-4.640789381408120789e+03
-4.751741739096984929e+03
-4.612485940518596180e+03
-4.241140631816068890e+03
-4.312767147322138953e+03
-3.989443046022800900e+03
-3.746286302833964328e+03
-3.056454913065716028e+03
-2.603064432572800797e+03
-2.301204401321690057e+03
-1.605911059111763734e+03
-1.045340033228433640e+03
-3.085866415560626024e+02
2.042392235521824944e+02
8.560391749708367115e+02
2.254774358594686419e+03
3.244336951444379793e+03
3.275604009825019602e+03
3.381477512080582073e+03
3.299898331461876751e+03
3.197838830913821312e+03
3.234237558749362506e+03
4.664964220625027338e+03
5.281957138315999146e+03
4.823210842071151092e+03
4.433616643086606928e+03
4.732051454852109600e+03
4.953472554943039540e+03
5.339873640145094214e+03
5.971206837752661158e+03
6.436374668111627216e+03
6.879361172806869945e+03
6.473103779904646217e+03
6.445553546408967122e+03
6.568657431018407806e+03
6.129368488412006627e+03
4.438570103402397763e+03
2.004157606952968990e+03
4.040739063802022315e+02
3.293053397156240862e+02
9.439491617017644103e+02
3.153965591128502638e+03
5.597314336208721215e+03
6.509016537299508855e+03
6.156127144704963030e+03
6.006624625722986821e+03
6.101477700978151006e+03
5.686811379229281556e+03
5.771655502256122418e+03
5.844781506161810285e+03
5.502238518724906498e+03
5.646084270977951746e+03
6.124380724355065468e+03
5.512118844165813243e+03
4.452265537371516075e+03
3.564799381306992473e+03
3.238637764302565756e+03
3.698916940900659483e+03
3.218658024704581749e+03
2.554886181628472968e+03
2.601697600764380240e+03
2.426179907350910526e+03
1.684341086389318434e+03
1.468235751028237246e+03
6.438998708998713028e+02
4.433056485258219936e+02
6.015015623129802407e+02
-3.763856123065056067e+02
-1.720332279279105705e+03
-3.698280227158355956e+03
-4.675091112864665774e+03
-5.037710728773748087e+03
-5.036098161285250171e+03
-5.013198712098111173e+03
-5.557893401819387691e+03
-6.102055316686947663e+03
-7.198628393367223907e+03
-8.142552741993280506e+03
-8.862727991204843420e+03
-1.002404869474737643e+04
-1.140640285251725800e+04
-1.204970464528306911e+04
-1.171679883709829483e+04
-1.149654235253330262e+04
-1.124087725088659317e+04
-1.121770983813629391e+04
-1.116597906605593926e+04
-1.154756007936192873e+04
-1.213836249584982033e+04
-1.213427675580967116e+04
-1.190120434908322932e+04
-1.163804599316804706e+04
-1.071063957256765570e+04
-1.005888390968272142e+04
-1.129866233516184911e+04
-1.271479166667287609e+04
-1.226217588084245290e+04
-1.094374815135582867e+04
-9.247448610628363895e+03
-7.718174615084254583e+03
-7.194707180403917846e+03
-6.410888161605081223e+03
-4.970675565997772537e+03
-4.429957838456156423e+03
-4.078553460759771497e+03
-3.857286640945238560e+03
-3.792071576785438992e+03
-2.383854304862209119e+03
-5.304359559127080956e+02
1.213280587652791382e+03
2.444278123773005063e+03
2.294630236245526248e+03
3.533447283223855266e+03
3.812850873944321393e+03
4.331925592513093761e+03
4.491831300179049322e+03
6.227786768893468434e+03
5.341781857102329923e+03
5.092860741989078633e+03
2.862154651393192580e+03
3.915791294012668004e+03
3.070878401044381917e+03
5.974524282653981572e+03
6.408822916397438348e+03
5.630854689126442281e+03
7.830725822540998706e+03
8.060507087997416420e+03
1.167818128021159464e+04
1.325878834101115172e+04
1.266338241032027327e+04
1.178505356637822479e+04
1.401490540133891045e+04
1.529998481712788816e+04
1.464536921526691185e+04
1.454607480978318563e+04
1.050012776840065635e+04
1.252750551744911536e+04
1.303532923635562656e+04
1.030668125575404338e+04
1.130151129285971729e+04
9.304819215064320815e+03
9.762670194090596851e+03
1.129810719576401971e+04
9.046125415765782236e+03
1.026180055511528917e+04
8.130191149198577477e+03
6.923222757503411231e+03
7.704886816386413557e+03
6.957168463861758937e+03
6.213054923935373154e+03
5.355635622282683471e+03
4.864892629675595344e+03
4.472707708764872223e+03
4.003016705104325865e+03
3.001801142148124200e+03
2.225997413548299392e+03
1.525563183596086901e+03
1.028437691245295582e+03
5.935359600370019280e+02
8.384903485245845900e+01
-2.075380078530993160e+02
-4.276670879325980081e+02
-7.285336559185581109e+02
-9.421660890923574243e+02
-1.165529609613002549e+03
-1.716741573132740541e+03
-2.142662698821489812e+03
-2.255472006164250161e+03
-2.873326020120556677e+03
-3.631365875439894353e+03
-4.241648570255980303e+03
-4.395242380157951629e+03
-4.487234244135335757e+03
-4.854715169071389028e+03
-5.898752478553289620e+03
-6.636468598804547582e+03
-6.936020271699735531e+03
-6.892544367995226821e+03
-7.199075002108097578e+03
-6.413996833007227906e+03
-6.118486634740019326e+03
-5.970120416853817915e+03
-5.794105103744994267e+03
-5.717600104435419780e+03
-5.594592546879967813e+03
-4.881173470031203578e+03
-5.070552196260432538e+03
-5.105867596996902648e+03
-4.619290447753693115e+03
-4.500901419598804750e+03
-4.063748726516697843e+03
-3.734023808053829725e+03
-3.731929720243616430e+03
-3.800596168466905965e+03
-4.247280253556767093e+03
-4.442121346001151323e+03
-4.709144009100215953e+03
-4.517582556372318322e+03
-3.805652514414101461e+03
-2.891510495057249500e+03
-1.962184334725320923e+03
-1.571769892811539194e+03
-1.944325942307664263e+03
-1.915002771161838382e+03
-1.760931353729607281e+03
-1.761195769424696437e+03
-1.228914987364796843e+03
-1.073247925670941186e+03
-1.703581423353161313e+02
4.186575124975849462e+02
7.156994183678015133e+02
1.226774927982596409e+03
1.388757710360243891e+03
1.074439012623254257e+03
4.086967210439723317e+02
3.514861442287516411e+02
4.377148228825129763e+02
2.672582806727084517e+02
1.339828820749754925e+02
1.927672763581162769e+02
1.159483228563974990e+03
2.132091851488422435e+03
2.640511619585375229e+03
2.602726648029866283e+03
2.430777466385159187e+03
2.046610416839481786e+03
1.699177220836850893e+03
-3.285249918701582601e+02
-2.688490664457132880e+03
-4.120893822826199539e+03
-6.329954121336675144e+02
1.095127927501122258e+03
-2.023567473569629556e+03
-4.293209752831577134e+03
-4.328881886803934322e+03
-4.576574574436313014e+03
-4.722300378463262859e+03
-4.573066683207444839e+03
-4.177851881433985909e+03
-4.236753201759186595e+03
-3.803820827864955845e+03
-3.164079015409310159e+03
-2.230544929632777894e+03
-1.247240829348828584e+03
-8.014768787595426147e+01
1.755748396017391769e+03
1.062363034395889372e+03
1.444677388390064834e+03
3.404764120660035587e+03
3.748576835885061882e+03
3.806126285511435981e+03
3.641517503389211925e+03
3.506708415943976888e+03
3.533675358017624148e+03
3.197382149034474423e+03
2.744858747875514382e+03
2.603127425194786611e+03
2.864139550303520537e+03
2.635886271429540557e+03
2.478413984044386780e+03
2.880699944218115434e+03
3.790744100223595979e+03
4.428551024383441472e+03
4.410210981373305913e+03
4.031724739178142954e+03
3.788166338638428897e+03
3.633570115919176260e+03
3.499908694851320433e+03
3.052211547719506598e+03
2.410476726472824794e+03
1.798733176774281674e+03
1.862050507042068375e+03
2.159400872301645450e+03
1.891882003160288377e+03
1.587663062121266876e+03
1.447765675065529649e+03
1.200261672522333129e+03
1.000259697212912101e+03
5.348744103414823030e+02
9.609047226362469019e+01
1.959563277469299010e+02
1.325626273888788091e+02
-1.703465265787875538e+01
7.720137776719836609e+01
5.173909271770801297e+02
5.316191705441955264e+02
-1.280237108208277732e+02
-1.764644218227930992e+02
-2.516653631003325415e+02
-3.481444490891245636e+00
2.311170022435551630e+02
2.001831615294005928e+02
-4.619040407273595861e+01
-4.878072921567370486e+02
-7.273054659308330656e+02
-1.491505066862854846e+03
-1.793428888444076165e+03
-2.263042044961529427e+03
-2.873253079681354393e+03
-3.109008293665450310e+03
-2.853399480281032083e+03
-2.513230345992602906e+03
-2.860432913147273666e+03
-2.219895968967771751e+03
-2.104586565737886303e+03
-1.792450737453585816e+03
-1.597381805606618400e+03
-1.866274207933643311e+03
-1.352069492205406959e+03
-8.537247954743098717e+02
-6.320438093351772295e+02
-3.089374898108243315e+02
-8.774244144415378059e+02
-1.100419999717427118e+03
-1.598924003388563506e+03
-2.228730673779809877e+03
-1.360747227367008009e+03
-4.780009625426162074e+02
-8.174424993096815797e+02
-8.589243776984859551e+02
-4.204098405374027152e+02
-3.577738551913083143e+02
-9.296038984554898832e+01
5.751103373173750697e+02
7.175620172428104979e+02
5.454422984370472705e+02
5.608619431624666731e+02
5.418086551681731180e+02
1.742805764433248896e+02
-2.167571770868023577e+02
-2.892755939946385979e+02
-3.219462962925192073e+01
2.504998299266397055e+02
1.228829052872318499e+02
-1.229751722232087729e+02
-2.080670296124661434e+02
-2.943715411965586100e+02
-7.527994196728943734e+02
-1.086382070845710132e+03
-8.921747826539468633e+02
-8.751666198872094355e+02
-4.113547210033678994e+02
-6.772749043839054650e+01
2.887246669318500949e+02
1.329545816622913037e+02
-1.510182724941223000e+02
-2.322687960419369517e+02
-2.658536419726007693e+02
-5.168142458740948086e+02
-8.642649494737007672e+02
-1.163292380338092926e+03
-7.497601957662296854e+02
-1.066280102610147082e+02
2.699579175408973128e+02
2.529169926663423951e+02
-3.289124216673635601e+02
-9.095723748619866456e+02
-9.620510892086444983e+02
-1.563411653110246789e+03
-2.229831799066775147e+03
-2.444336719959070251e+03
-1.662926970089409679e+03
-5.926556280999921000e+02
-9.655530739421176634e+01
1.146194649826823479e+03
2.736503826657741229e+03
2.897308729227489948e+03
2.315432973697566013e+03
2.280908887475738993e+03
1.872748461128953977e+03
1.110933844944673865e+03
9.524305863752103960e+02
2.087195996724386077e+03
2.520936915064030018e+03
2.069871317420813284e+03
1.402682605916238572e+03
9.617047000536931591e+02
7.844095002124947769e+02
9.320708592547372291e+02
1.022138821953038132e+03
1.001866517840362349e+03
1.260419961419866013e+03
1.984205794056434570e+03
2.058398669008392062e+03
1.969672964969318627e+03
1.744211014628263683e+03
1.447161996270118152e+03
1.375245252268642162e+03
1.306040035134318487e+03
1.330669598873597124e+03
1.609102647124515443e+03
1.977433810451689169e+03
1.359592171758705717e+03
1.595182780919414654e+03
2.247699812003376337e+03
2.487009889082329209e+03
1.809695733208548972e+03
9.312141341002695754e+02
5.432176696340553690e+02
1.885854912684304452e+02
-2.155559376242386804e+02
3.095026273776534254e+02
5.382420847295200019e+02
6.423889198234343212e+02
7.446800504553086739e+02
8.431728934928405579e+02
1.610835557072879965e+03
2.659657770939072634e+03
2.787578547478573000e+03
2.607566748702197856e+03
2.366587382658723527e+03
1.980679318698613542e+03
1.554801077792657225e+03
1.136854913752413950e+03
5.678181793486369315e+02
-2.363217076524599065e+02
-5.705956702019296927e+02
-5.120649755914701018e+02
-8.397458351783542412e+02
-2.255601554996208051e+03
-3.627678229353908137e+03
-4.498003552753515578e+03
-2.566548285276644947e+03
-1.355320349459401086e+03
-9.073392289038861236e+02
-8.495340442785177402e+02
-1.725908859072965015e+03
-2.252497720104925520e+03
-2.227313168931540531e+03
-2.389415423255877158e+03
-2.322866063480567391e+03
-2.304539034002010794e+03
-2.732462254167670380e+03
-2.506690911338826936e+03
7.637993594896174727e+02
7.040511145439812708e+02
-2.377029145069973765e+03
-2.771389598655031023e+03
-5.286025195796116350e+03
-6.190938992199482527e+03
-5.430103787601967269e+03
-4.024499105348844751e+03
-3.616143071428444728e+03
-3.520960662320574102e+03
-3.657927657834771708e+03
-3.371035752402180151e+03
-2.155223525126995810e+03
-1.481433828605310055e+03
-1.716572313755288633e+03
-1.896616046797397075e+03
-2.147525593106897304e+03
-2.762403526824650726e+02
2.106263443083337734e+03
2.787029588163869903e+03
2.499112863016627216e+03
1.736589238641312249e+03
1.091430433664757629e+03
5.956437631495535925e+02
8.072728335722389374e+02
8.984443975601146803e+02
8.212174314007324938e+02
1.069677463454070221e+03
1.223945834361148400e+03
1.212104148287740827e+03
7.272978919270000233e+02
4.855580138814831912e+02
7.140138812024561048e+02
1.413626057945796674e+03
2.318400425927590277e+03
1.861502398721522013e+03
1.002054262224959416e+03
1.007155600514977777e+03
1.626852424871125777e+03
1.920287938648453974e+03
1.519560031579898805e+03
6.017805692913727853e+02
-3.279514669181467639e+02
-1.562614260258915920e+03
-3.483089400534921424e+03
-5.074254130644398174e+03
-5.725996396767038277e+03
-5.687218363214010424e+03
-5.010759416065828191e+03
-3.242444586811977388e+03
-2.220123460470865098e+02
2.265692080110723964e+03
2.571728653637002481e+03
2.546823704027037365e+03
2.633148771866249717e+03
1.994144517109217077e+03
8.747962117931779176e+02
-2.992816904619895269e+01
-7.488217533763429401e+02
-9.976437659058877898e+02
-5.912444398882382757e+02
-8.995415249093038028e+02
-1.170418194956088200e+03
-1.756821685857355533e+03
-2.090652113247756915e+03
-2.148879179157621820e+03
-2.093479184682591949e+03
-2.130371489939937419e+03
-2.732517368046572756e+03
-2.746695212010090017e+03
-2.406890428567897743e+03
-2.448022762498150314e+03
-2.624059847362619621e+03
-2.008999282457821892e+03
-1.090727606102379696e+03
-1.052176128620182709e+02
4.155390871969734121e+02
1.002692236611774319e+03
1.557363400147442235e+03
1.942594930352263418e+03
1.783374307581288804e+03
2.236792215367413519e+03
2.474900508670385989e+03
1.913743277389398372e+03
1.289272641559158728e+03
1.304512140667887252e+03
1.446555031820956856e+03
2.041510715589612118e+03
2.638445576362315933e+03
2.950336814562269410e+03
3.123220192532754027e+03
2.972184162017341350e+03
2.344273248376317952e+03
2.057532618725270822e+03
1.562927966711694580e+03
1.330435664182138453e+03
1.616106418868424271e+03
1.414993035411282108e+03
9.720873112017012545e+02
8.893735731838522725e+02
1.540843511651780545e+03
2.882500612684768839e+03
3.590339075224804674e+03
3.484258833788273478e+03
2.948275809519628183e+03
2.375422251926199351e+03
2.176628571771806492e+03
2.217848910606875961e+03
2.783142798643422339e+03
3.305566963974688861e+03
3.366980801890108978e+03
3.321260276821030857e+03
2.759340420832158998e+03
1.678174572786634826e+03
-3.973007334320399195e+02
-3.318128981843545262e+03
-4.614403133323842667e+03
-4.650216622774670213e+03
-4.874536495479557743e+03
-5.109462731579469619e+03
-3.125021303654759777e+03
-8.828414971966408586e+01
-5.632819358600760751e+01
2.127360795726775677e+02
4.328038945469607484e+02
1.361871642328229882e+03
1.165704807787100208e+03
9.912483545040801118e+02
1.127409755841220885e+03
1.140091729219738454e+03
1.365259113843046407e+03
1.607717023270532081e+03
2.412318889609341568e+03
2.900006167068239847e+03
2.086651279607510787e+03
1.693230126642044979e+03
1.087564699071860787e+03
1.260575163444789268e+03
1.509187928763433547e+03
1.223119927567738614e+03
4.052552924635406271e+02
-1.404304670091542846e+02
-6.860841682164257236e+02
-1.208839269105232916e+03
-1.264817241756064277e+03
-4.761247108113608988e+02
2.681065641951914245e+02
5.367285356289088440e+02
7.126483729893170675e+02
9.397273920959225961e+02
1.239824228662289215e+03
1.052870779292487441e+03
8.817774201802961898e+02
7.663753570078299617e+02
3.585200208336138985e+02
-2.038805359772036070e+02
-2.419141533767478336e+02
-3.387000769468193084e+02
-1.059363520717387928e+03
-1.383050993731927520e+03
-1.741816583744943500e+03
-1.919819625177650778e+03
-1.963183953668339200e+03
-1.750994660050244875e+03
-1.372410801345253503e+03
-4.915095182070486430e+02
-3.434572002958536814e+02
4.270968716372563989e+01
3.729125959694397920e+02
6.470092824946822248e+02
9.229006462120291872e+02
9.935266122857074151e+02
2.127994055578438690e+02
-5.393549316365921413e+02
-9.780282575336663058e+02
-1.119349754589933809e+03
-6.073936442218163165e+02
-7.922601800403917878e+02
-6.919377808446070048e+02
-5.485212911073698479e+02
-8.907784895432095595e+01
-2.976727764917950481e+02
-9.324393139989217616e+02
-1.090426061693177417e+03
-1.366816251697385496e+03
-1.548651375161755595e+03
-1.855959250732874125e+03
-1.762883232551183710e+03
-1.331571865117140533e+03
-2.687004456510690488e+03
-4.571102542120367616e+03
-4.252940336053164174e+03
-4.136544003811755829e+03
-3.244893608208559272e+03
-2.156066001239687921e+03
-2.092186017341729894e+03
-7.812389710494012434e+02
-2.296221329015385436e+03
-1.070094817906971457e+03
-2.755892260939037442e+03
-2.117644300324260712e+03
-3.864367374679247860e+03
-3.810069107451228319e+03
-1.810718076707388036e+03
-3.419354622794043735e+03
-3.918026262583910921e+03
-4.007670449578181888e+03
-2.103229560703912739e+03
1.108276886226587976e+03
1.479817534450566427e+03
4.093965832950289041e+02
1.155063403755375475e+03
3.768197011776653653e+02
2.132674969456992130e+03
-9.623094865131768074e+02
-3.327050058703283412e+03
3.544172646124105768e+02
-7.690211359904714072e+01
-1.986920083297393603e+03
-5.185371639376483017e+02
-3.667226743612644668e+02
3.645352219366246800e+02
-5.207150398913062190e+02
-1.400426707283787209e+03
1.309418058178357569e+03
2.083912950069389353e+03
2.156091825964027066e+03
2.057972376894965237e+03
1.930612588273850633e+03
1.918013663013368159e+03
1.879182652432317582e+03
1.992264941587141720e+03
2.027363748127093004e+03
2.420529723497209488e+03
2.900864113277778870e+03
2.517413576136584652e+03
2.287269701874004568e+03
2.259546541569096917e+03
2.039345687298176244e+03
1.450747086260436618e+03
8.927681635353736738e+02
9.504854328137495258e+02
7.500491583716885771e+02
3.545546382079977548e+02
9.808272361072090462e+01
-6.735641025394184567e+01
-3.266435067953221250e+01
6.002576756746683486e+02
1.200536482523865971e+03
1.623324835642202515e+03
2.555686191175373096e+03
3.042692155994337554e+03
2.475413528496663275e+03
2.670856541115322216e+03
2.626120832759142104e+03
2.097377749887639311e+03
2.087702738288265209e+03
2.187008537088925550e+03
2.149530241625754570e+03
2.314370457198011081e+03
2.305296099704924927e+03
2.091578078044538415e+03
1.859419087836038443e+03
1.620792623891744142e+03
1.481720767055664737e+03
1.039351069593115199e+03
5.086795508900001437e+02
1.097779940399963863e+02
-3.782716323329446482e+02
-3.064906409782861374e+02
5.472193980005823732e+02
1.006982762463672884e+03
1.397874229408546626e+03
1.556008946326108799e+03
1.537354584082948577e+03
1.202723899964858902e+03
1.252132478016348841e+03
2.300723102698661023e+03
2.816565367746513402e+03
2.943743177143681805e+03
2.341338778031415586e+03
1.520326318312890180e+03
6.577722756786033642e+02
-1.442623129432599001e+02
-7.018062147732549647e+02
-7.158003949938216692e+02
-1.301858261422616749e+02
8.651094593731345412e+02
2.672131077546719553e+03
2.948875297245598176e+03
2.445348140077113840e+03
2.587593067694237561e+03
2.635752187176393818e+03
2.221892282486522163e+03
1.536015803553244950e+03
1.491056188747328633e+03
1.112071791596705452e+03
7.911682476712345533e+02
