-8.304189189267748361e+02
-1.046440206693546315e+03
7.794381246704614341e+02
1.676029383752787680e+03
1.536240629273252807e+03
1.327317471778520712e+03
1.111610665778551265e+03
7.889343476427798123e+02
7.486889722287349969e+02
1.242917963821017338e+03
1.296250084891129518e+03
1.259643530193567813e+03
1.219832612488863333e+03
9.888464644346089472e+02
1.017624344270144547e+03
7.781651193940588200e+02
4.094959843344004753e+02
1.588835337291432381e+02
-4.257959990186068211e+01
-7.911460369827457271e+02
-3.578202163369150185e+03
-4.689319535522367914e+03
-6.853881256743741233e+02
1.855516444418086621e+02
-2.358927400355307782e+03
-3.091417471863490846e+03
-2.988471605118016328e+02
6.526905212675328585e+02
7.491235700366278252e+02
7.345669358126233419e+02
8.561791731897371847e+02
1.226659218510685150e+03
-1.211116869875119619e+03
-1.475161724133087091e+03
3.206773173108962283e+02
6.843573367995675198e+02
1.227091297465252865e+03
1.159998620445048118e+03
6.448972099996188945e+02
8.056445957706582703e+02
9.122570540605099723e+02
5.627850397515584291e+02
3.642956383837554313e+02
1.947763510883304434e+02
2.371174158604296451e+02
5.662532694048145459e+02
-4.178167825605604548e+02
-2.754129321151579461e+03
-1.523632755883620121e+03
-3.566261788592078119e+03
-1.566927680767038055e+03
-2.416685792958098773e+03
-2.198593581404429187e+03
8.313040130417679165e+02
1.425070034253402810e+03
1.158800633685700859e+03
-3.585480753235459588e+02
-7.970593907530110300e+02
-8.196834117688158585e+02
-1.943297145480085646e+03
-4.388869370850642895e+02
1.747566705879400388e+03
4.949782512679587967e+02
-1.992677509754567154e+03
-2.752690081439855021e+02
5.090846380022068729e+02
5.584116108443067787e+02
7.736962991827535916e+02
7.939850997168426829e+02
8.693534796141373135e+02
8.116849487129646832e+02
6.799367989805880370e+02
4.781712473824048288e+02
3.441779216380499662e+01
4.197350977180597056e+02
6.421157335335938114e+02
5.324382543068501263e+02
5.607845817309827225e+02
6.932906694658593096e+02
5.499318121287932399e+02
6.118345641580326628e+02
6.451388490517213086e+02
4.743949805489888263e+02
7.019204618728610967e+01
-1.166147214984332408e+02
1.887082134837525018e+02
-8.522331553394151342e+02
-8.263669529842485417e+02
3.988676314479344143e+01
-3.582881558601513348e+02
5.929658528204552113e+02
7.913672423035644670e+02
1.850640974278538238e+02
2.362589962732562583e+02
1.926523063113814942e+02
1.105887411035135983e+02
-1.895221327761199248e+01
-9.213563627427994618e+01
4.581242376104669916e+02
3.947522295525700997e+02
5.646642192925334029e+02
5.714122532359031084e+02
9.454566357106788246e+02
8.285995888415657191e+02
7.428753625081211567e+02
8.781791025639561212e+02
6.145672307585464296e+02
3.321650322544231244e+02
1.079253445182754518e+02
9.581985365293151347e+01
-9.617911639023596138e+01
-5.268893518762492931e+02
-5.923086551687956671e+02
-3.452624738738572319e+01
6.114668486797720561e+02
6.346864664964248277e+02
1.170688743063878263e+02
3.415932056626797362e+02
2.926911674403857688e+01
-1.378483992012120325e+02
-5.075959799507655390e+01
1.384818038245738308e+02
2.380218106377269294e+02
-1.193080204493740482e+01
-2.713592273674429407e+02
4.559551016392158118e+01
1.508497972581039335e+02
-9.967376102868605869e+01
-7.199089415152779736e+01
5.796493484852018696e+01
2.852625480965025986e+02
1.928001019234074818e+02
1.146607062722199402e+02
3.388983792432362208e+01
1.523854451895591069e+02
1.852446085527307673e+02
4.244254896456848769e+02
4.799306889213719387e+02
5.197875278301595472e+02
4.750829177758463402e+02
-7.869914667303927445e+02
-2.563414263200374535e+03
-6.042401514647105614e+03
-7.524100384218293584e+03
-7.062572369198968772e+03
-6.971892819818590397e+03
-7.120102370496673757e+03
-3.625847002417223393e+03
3.421278388800205903e+02
-3.281815002984968714e+02
-4.986948524767443814e+03
-2.565031931525957134e+03
-1.516495464469655190e+03
2.436360547149786271e+02
7.111280831530511932e+02
8.279443211400334803e+02
8.640664565320139445e+02
7.195179330240573563e+02
8.772562184243943193e+02
9.313007454570349637e+02
8.537535904402010374e+02
7.345790733922167419e+02
7.716728324747042507e+02
5.890879186026884327e+02
8.550046912952057028e+02
1.227255484615226578e+03
1.208656600799693933e+03
1.363015259994565668e+03
1.319761356678853872e+03
1.166744881590280102e+03
8.777105107251120444e+02
3.677705086521687576e+02
7.099708149643709021e+02
1.365384172619679930e+03
1.123055257988653921e+03
1.164921926836175317e+03
1.352911919103462196e+03
9.719715885134417022e+02
1.210341665830334478e+03
1.272682604663443954e+03
1.052036531391840981e+03
1.091434714701674920e+03
9.329581537267296198e+02
9.727516522828564121e+02
8.248223119993016326e+02
8.699538424475841794e+02
1.612050572125968529e+03
1.884609310533403686e+03
1.905342192776702632e+03
2.167164465259568260e+03
2.202196360729610205e+03
1.866363299826573439e+03
1.623426884157868244e+03
1.327262880036184015e+03
9.948776994634174571e+02
1.134445275225340310e+03
6.832260329392905760e+02
1.137051516899312674e+03
1.478747208935645176e+03
1.141226672095622689e+03
3.235952641353766523e+01
5.270537830183639016e+02
1.098485534574912435e+03
1.314049972193588019e+03
1.429725797480387655e+03
-6.247026497554488742e+02
-2.183375950257280238e+03
-5.043360268668699860e+02
9.304885542741970994e+02
1.139454538533782170e+03
1.571879631845434460e+03
1.186724484451434591e+03
3.596455862429224339e+02
-1.787274621441458294e+03
-1.332263702734383287e+03
1.123662776093120101e+03
9.743654679429349699e+02
3.467208511548176375e+02
-1.628295891361135617e+01
-5.578328495145991610e+02
-1.214055657491720922e+03
-4.078905814869364349e+03
-6.285401693138364863e+03
-3.188579311595375202e+03
-1.486368326771290867e+03
-8.075262433013281225e+02
1.462364895894766903e+02
3.495068125797331504e+02
3.112761757587081206e+02
1.447053547290142319e+02
-1.989484200266677817e+03
1.927324218491698105e+02
2.848430879785767956e+03
3.155629305531510909e+03
2.346267540034346894e+03
1.723239057933581307e+03
1.117595529471829877e+03
4.913058823715105063e+02
3.004798235127792054e+02
-2.475809793802525007e+02
-1.452786551998416599e+03
-3.568446058045101381e+03
-3.693660786936590739e+03
-3.946424544316862011e+03
-2.787643406311917715e+03
-9.830465718179765133e+01
-1.407589059375392935e+03
1.308591887888617975e+03
2.543220240153609666e+03
2.875204732964635696e+03
1.876604145887489949e+03
-9.797169089407140063e+02
1.377225988158825885e+03
2.167444055778326401e+03
1.806865272568183173e+03
1.798635140622121753e+03
3.787385459095093552e+02
-1.992754438731061782e+03
-4.467245489622173977e+02
-1.770124654316920896e+03
-4.771978497475261065e+03
-5.120564911839826891e+03
-7.259708621620878830e+02
2.481966851000107908e+03
-1.337847020128561553e+03
-5.923431630607825355e+03
-3.272734389275375179e+03
-7.746936005214187162e+02
-1.024183587601166209e+03
-1.029021233836095234e+03
-2.096287696741321270e+03
-3.414983222503306934e+03
-4.936130324194990862e+03
-3.206789220056848990e+03
7.603380012245394255e+02
1.794321501960175965e+03
-4.108276247902766954e+03
-3.982564753653359730e+03
-2.135131184804311488e+03
-7.088925998842873923e+02
-4.391075343571420490e+03
-4.210812424806924355e+03
-2.530821438554111410e+03
-1.843402938178048544e+03
-2.186597366177319145e+03
-1.131258381710162666e+03
2.738777974047529824e+03
2.702678425796405463e+03
1.082524663791375588e+03
-3.945444437339432966e+02
-9.031228291850515006e+02
-2.440407616757581309e+03
-1.473964430319733992e+03
1.530509785009689040e+03
2.924076325206827732e+03
2.449712520403430972e+03
2.037491638638189443e+03
2.196167396218743761e+03
3.324507325063179906e+03
4.876827545977486807e+03
5.315159576394736177e+03
5.144485127954424570e+03
4.559397698977490109e+03
3.267920551198993508e+03
2.480797056575528586e+03
2.282794193581496984e+03
3.450828897097164827e+03
4.001641144315677138e+03
3.340556482333455733e+03
2.393460128464555510e+03
1.785078575104279025e+03
1.882578711637665037e+03
2.054979125578697676e+03
9.633290008985505892e+02
-1.774658287524415812e+02
-1.093232046310894390e+02
4.058866665117085404e+02
1.450987877514922275e+03
1.409021829392702557e+03
9.561944357728438035e+02
2.066507253895346366e+03
2.086616890197183238e+03
1.840641707659217218e+03
1.701601012042554885e+03
2.189405903006367680e+03
3.079322518694720657e+03
2.863518235042549350e+03
1.902100646006902025e+03
1.554846511429375141e+03
1.316556914798748494e+03
1.652402515040860180e+03
7.385422499013926654e+02
-1.230276503889974038e+03
-1.498949715892875474e+03
-5.732688001706856085e+02
3.463890005976411146e+01
-8.292954369207706122e+02
-1.323246959349502731e+03
-8.072264907166193098e+02
-1.420615034502963852e+02
8.419600473317700562e+01
1.115001818337093056e+02
-6.710112543873323148e+02
-4.806598141546610350e+03
-7.470924712739084498e+03
-7.588796190274862056e+03
-6.420112470976444456e+03
-7.112791350380525728e+03
-7.527958507044154430e+03
-7.789773797027351065e+03
-5.989284999301114112e+03
-1.812336819623113570e+03
5.430764306702694739e+02
-4.091862553894408165e+02
-8.403535368031095913e+02
-4.325808762016824289e+02
2.441351367076272254e+03
6.904552344411771401e+02
3.192682372650727757e+03
3.455196459185274762e+03
3.685114726694506317e+03
2.509077799381844670e+03
1.487395994879903355e+03
1.971228128649760720e+03
1.759614200322062743e+03
1.315584496825312272e+03
2.449299656727206980e+02
1.110417493209336271e+03
2.243966715787838439e+03
2.099672486473127719e+03
1.980403631412634240e+03
1.879204225224669699e+03
1.619110439536388640e+03
1.219205738143346252e+03
9.746977720027625480e+01
-7.620463032993610568e+02
-1.818375920141723554e+03
-3.813609401237821658e+03
-4.003732382786058224e+03
-2.169707833032372491e+03
2.585392181330323638e+02
1.873054191428198465e+03
2.440736935411774994e+03
2.030505224502885767e+03
1.243463482593515209e+03
4.946321621933399229e+02
5.359855218338437908e+02
-6.034881214346622755e+02
-5.355707275399005312e+02
-2.272799834292474657e+02
-1.365814736592610643e+03
-1.447238987779041963e+03
-1.553530231984826059e+03
-2.414837909546688024e+03
-3.806906336372897840e+03
-4.363657075596217510e+03
-2.397163945737642280e+03
8.146666322421338009e+02
1.866898191011706103e+03
6.806041625752542359e+02
-1.327248737788695280e+03
-3.944837591093039009e+03
-7.717322976672139703e+03
-9.740838692178875135e+03
-8.560358912326484642e+03
-5.864459622886365651e+03
-4.749037327817682126e+03
-2.253068162120084253e+03
-6.643731730423525050e+02
1.483941614994074598e+03
2.507567128625003079e+03
2.773655131377601265e+03
2.456145028404960613e+03
2.329268414880391447e+03
2.499691112135881667e+03
2.375129474284995467e+03
3.313566276415549964e+03
4.544044943564698769e+03
4.824540722182437094e+03
4.907127297497080690e+03
4.906006969469925934e+03
4.237223328987237437e+03
3.656730821259450749e+03
2.910659130996598378e+03
3.332695216254819570e+03
3.143713565193578688e+03
2.457560123967783966e+03
1.579354523511284469e+03
6.575070814525537344e+02
6.961162134155694048e+02
1.584959827325601736e+03
2.027730631491300528e+03
2.285478017209798963e+03
1.634332338563768644e+03
7.013147141825264725e+02
-4.295267553822293394e+02
-9.943166078710439706e+02
-2.556004426688442891e+03
-3.532496072953823841e+03
-1.969004326840838985e+03
-1.585960201071139295e+02
-1.019144245484785642e+03
-3.555568116560549697e+03
-3.939934161165071146e+03
-3.123249368200946265e+03
-1.355502887259273393e+03
7.523148245083120855e+02
2.998137947525928212e+03
2.781945939260851901e+03
3.847533667308213126e+02
-2.035338397531281771e+03
-2.281308517608429156e+03
2.847815253091018235e+02
2.907015902320956684e+03
3.581289430286292827e+03
3.182577769922582775e+03
1.328848357853718881e+03
-2.776889170403645039e+03
-5.574588628695347325e+03
-3.665218827192868503e+03
-5.738143677489053971e+02
1.315600852122714286e+03
1.514215157307421123e+03
2.950376753374783334e+02
-8.152852347940207665e+02
-2.237673974122018308e+02
-3.169279773193094570e+03
-8.699842755729545388e+03
-8.462365354196937915e+03
-5.943868853109463089e+03
-2.326313374744870544e+03
1.985248903266784737e+03
4.590548152979617043e+03
6.042763418570602880e+03
8.174920344954814937e+03
7.992833742839087790e+03
6.084752347622361413e+03
4.528783610598906307e+03
2.816206283228307257e+03
7.078309747573014192e+02
-1.092605509050397814e+03
-2.156221212653487783e+03
-2.111937718290369958e+03
-2.912836769441748856e+03
-9.018961855343200114e+02
1.575958082900103363e+03
6.246707803561680521e+02
1.862150227211545541e+02
5.253321672546530863e+02
5.521765315376834451e+02
-8.303668306136772514e+01
-2.106365554185244946e+03
-4.124948881623628040e+03
-6.855892185098286063e+03
-8.916015749589589177e+03
-7.520184712317539379e+03
-3.776446740263558240e+03
-2.021625609539993775e+03
-1.094947032658344597e+03
-7.685215119913675608e+02
4.257283995978889379e+02
2.611822900092306099e+03
2.717499065619822431e+03
3.529008787016411588e+03
3.986851527973891280e+03
2.945308624135908303e+03
3.340501079238191778e+03
3.388441611412330985e+03
2.797242811065384103e+03
2.486465312378119506e+03
1.752230886804446072e+03
1.641660433757949704e+03
3.466714005686631026e+02
-1.784640083994259612e+03
-1.397128009928509300e+03
2.352856543657612292e+03
6.195858666279093086e+03
5.967861493390774740e+03
4.210551026677867412e+03
4.208494277529936880e+03
2.522708157396772549e+03
2.267696856629408160e+02
-1.411170021688001043e+03
-3.190682929409735152e+03
-3.902804277470997476e+03
-2.293333970044622220e+03
-1.813283972808948874e+03
-1.074600546431677003e+03
-9.372271665762406201e+02
-2.046087838638120729e+03
8.064963906513925167e+02
5.417249321762305954e+03
4.060428799032614279e+03
-2.339397186300207522e+03
-3.377547771012701105e+03
2.684879869423535638e+03
4.234763591441730568e+03
-4.252261175300917984e+01
1.788149989735558609e+00
-1.734431748622557734e+02
-2.730191888060173369e+03
-4.930344995483092134e+03
-5.715030040907688090e+03
-4.330531718145731247e+03
-1.177573454518704239e+03
1.241047381094886532e+03
-2.490710010071413308e+03
-7.875881031574146618e+03
-1.003533087768991936e+04
-8.288266725425462937e+03
-5.993905637394695987e+03
-4.184153370093890771e+03
-2.308496880153139728e+02
1.064012843151552943e+03
-1.436619201407522269e+03
-1.128121614172902127e+02
1.879423829301893420e+03
4.272188661742387012e+03
1.608538475101211134e+03
-3.301515598447478624e+03
-9.379047887216020172e+02
2.477355525727959048e+03
1.673265592824455553e+03
1.296707600574544131e+03
2.391711371545432030e+03
3.133383682471933753e+03
3.666830906703908568e+03
4.454053276430841834e+03
4.686932576838476962e+03
3.882523604754279404e+03
2.263012398381866205e+03
1.652379140031953511e+03
1.209500637032831492e+03
9.874073723700006440e+02
2.529196316513990496e+03
3.640976160436463033e+03
3.006645550348946017e+03
1.714023248264544463e+03
9.702094210987695533e+02
-5.647305523241218452e+02
-3.797725879168717256e+03
-4.423833375842659734e+03
-2.848004487716979384e+03
5.028398590474135972e+02
1.328666391665988840e+03
-7.865907302844912010e+02
-1.513854978896153852e+03
7.216207857485770774e+02
-3.069235929300129442e+02
-5.790877647081831583e+02
2.202055963755539779e+03
4.006418810850091631e+03
4.956973748568854717e+03
3.769898519493308413e+03
1.980157266373446873e+03
1.874739810233184471e+03
5.365842828378794138e+02
-1.807309623341432143e+03
-2.328798885975966641e+03
-8.624846314432010331e+03
-1.091802361467136325e+04
-1.006331336308582831e+04
-8.989996821491135051e+03
-4.852372622887397483e+03
-2.099336043255935238e+03
-1.931912667192760637e+03
-1.802283551819918102e+03
5.166850801376858726e+02
3.540532050124319994e+03
5.313524734556772273e+03
4.293027940342093643e+03
1.463979979349184759e+03
3.913654021009689359e+02
-5.580036155106035949e+02
-2.694527583093984049e+03
-2.606849236597097388e+03
-1.312164977286024850e+03
-4.969116814033953233e+03
-4.917556880754526901e+03
-3.012566484101396327e+03
-5.534853455174915382e+01
4.257100844296877767e+03
7.045828085412891596e+03
7.066970111617615657e+03
5.613331236080522103e+03
5.542834348098589544e+03
4.371592516701024579e+03
3.842617902568063982e+03
3.123889427255604915e+03
2.770429499345635122e+03
2.864218419662915494e+03
3.159351636157497524e+03
3.193812126374923537e+03
2.231615475539250838e+03
1.392901291288407720e+03
8.235531858310413327e+02
7.963826862334452699e+02
1.377284741267881827e+03
1.360276310904709590e+03
-2.656849678278067728e+01
-6.962058017805170493e+02
-9.606076904705188326e+02
-1.528758615262854164e+03
-2.265730763366785595e+03
-3.354305487913231332e+02
1.933068511560867137e+03
1.955740590833037004e+03
1.311669767886860654e+03
7.627881046709818520e+02
-1.864881895059881344e+03
-1.663312041670667668e+03
-2.354556619111351097e+02
4.496459190895765801e+02
1.150788168091823991e+03
1.988809156003379940e+03
1.466813224933079709e+03
1.920979464693539967e+03
2.071385278939108048e+03
-3.589171687366738297e+02
-5.721807350157344445e+03
-7.593498493796052571e+03
-2.065931362127384091e+03
1.847665738005034200e+03
1.943457560393603899e+03
-2.215796982103178834e+03
-1.024501113356194219e+04
-9.270359943633542571e+03
-6.950067539449311880e+03
-5.172901576452775771e+03
4.934919702048246677e+02
2.730878353584914748e+03
1.837131782876957459e+03
3.632238072632165995e+02
-1.049878101672071125e+03
-3.330248492469855591e+03
-5.053827564912116031e+03
-4.598591586153286698e+03
-2.843536090821350626e+03
-1.010623010057954843e+03
2.922155052417922889e+03
3.674846752595701219e+03
2.633336339858321480e+03
-1.128362194380438268e+03
-4.476184021107106673e+03
-3.146074012059615143e+03
1.010994879233304346e+03
3.690895482855128193e+03
1.710599968795331279e+03
1.961650648823533061e+02
3.855632959206736814e+02
2.898638049297633756e+02
1.603095170914276196e+03
1.354306398546239507e+03
1.468479195886045318e+03
3.331682735079949907e+03
2.419899648737208736e+03
5.029168672007898522e+02
-3.093098232033132149e+02
7.340736014968291556e+01
5.492513378095893586e+02
7.190896959407040185e+02
8.958128550447702310e+02
1.631338810563183188e+03
1.445578122788177552e+03
4.714909826641236918e+02
-5.217678360846655323e+02
-4.179835112723046109e+02
-6.609213468383900647e+01
4.776156758484514597e+01
7.713625110848362283e+02
1.264659066223855007e+03
1.608740207960738644e+03
8.636953803471997162e+02
-1.005342910013788583e+03
-9.380896965987928979e+02
-7.054584105907197511e+01
3.278860098804589711e+02
5.020300378479997789e+02
8.039710567148136988e+02
1.452806484261486048e+03
9.217112734113204624e+02
3.217134413550265322e+02
3.806467395262222908e+02
6.007311658389305649e+02
1.394275745759838173e+03
1.521151614770258220e+03
4.140912512552212092e+02
1.056946653476019947e+03
7.664657013623162811e+02
4.977268675946794474e+02
-3.821738293757353944e+01
-3.226643535549218541e+03
-3.955158697891497923e+03
-3.539376473475959756e+03
-1.843337868723596102e+03
-2.315130245086095329e+03
-4.296891608850939406e+02
-4.440084957410754214e+02
2.389103063733170629e+01
1.249277001351850913e+02
2.916891807786953095e+01
8.794098427417869743e+02
1.126596176866264614e+03
-1.428013643343296280e+03
-3.481478921937492032e+03
-2.484830375808077406e+03
-1.560595366466654070e+02
7.629261513101724859e+02
1.724507345203820563e+01
-2.573067224410764538e+03
-3.398875594722218466e+03
-2.000201152526973146e+03
-1.296318065259262312e+03
1.333591243094845368e+03
1.260610998697391949e+01
-1.240250785963205544e+03
-1.780958996391037772e+03
-2.745922328143363984e+02
2.897471212673963805e+02
4.971650312327142274e+02
-1.666379624459654451e+03
-1.321843682452008352e+03
2.098726282024628915e+02
8.566733865761698326e+02
7.475508810878762915e+02
1.415592536259664769e+02
-7.031426984022085946e+01
2.719537547524403749e+02
-6.964616005788832354e+01
-8.529785867620819317e+02
-1.300933831714929966e+03
-2.611787616943932790e+03
5.631966698738548303e+02
1.965966669245037110e+03
1.821756976176131275e+03
1.428680807052104456e+03
1.051640613257810628e+03
9.877883790393742629e+02
1.066220621382710078e+03
8.439123191440584151e+02
7.318996995752891053e+02
7.961320250563292120e+02
1.006376769334285882e+03
7.476688053812362114e+02
6.539819147575398119e+02
1.057424681579323078e+03
6.730246285568961184e+02
-4.274900139913052044e+02
-6.513522786994572016e+02
-1.264184121685740593e+03
-7.077932466573126931e+02
8.865191689317809960e+02
1.185556774407375769e+03
8.965968442143635002e+02
1.002132994024958180e+03
1.106785015229519331e+03
8.266036918201285744e+02
9.878009416277808441e+02
1.008266406042555559e+03
7.719631354638695484e+02
5.757278675662422529e+02
1.163574146876226678e+03
9.432594782611838582e+02
8.739805933717343578e+02
1.215167814601505825e+03
1.321736739266878430e+03
1.117441766760690143e+03
9.529304450311085475e+02
9.719020076328022242e+02
9.084292225605029216e+02
5.137323066048503506e+02
1.790929894845094452e+02
3.212840993400984644e+02
8.220969198996509704e+02
1.454496541426070735e+03
1.659921689961480524e+03
1.656701342001777903e+03
1.500357966929002032e+03
1.640295118791024152e+03
1.606683335650674508e+03
1.351740762952931846e+03
9.733624091099713951e+02
1.264316170080563779e+03
1.588900251409358816e+03
7.859611069798713743e+02
4.604090860972521568e+02
9.742619372632946124e+02
7.396100656499429533e+02
-3.736317141708878466e+02
-9.895746151123115624e+02
2.648602238373978253e+02
2.186586619383181187e+03
2.427645540225317745e+03
1.745055093568288612e+03
1.032134631008089627e+03
4.986880277390962988e+02
6.827576728599743774e+02
6.235066181905614258e+02
1.703758055680130383e+03
2.880287524188771840e+03
2.658868947506735367e+03
1.683685497033776301e+03
1.361948195529942723e+03
-2.355438948662230814e+03
-5.429731247995048761e+03
-5.423704045435596527e+03
-5.117398199236535220e+03
-4.795047474199061071e+03
-5.143612484172510449e+03
-4.934066834072110396e+03
-5.196228895695534447e+03
-4.736051382153063059e+03
-4.909642410976583051e+03
-5.718870388415314665e+03
-5.052696498413281006e+03
-4.877196742216354323e+03
-3.086727258447349413e+03
4.443666590298229835e+01
2.402063697160914217e+03
2.654124566237049748e+03
2.428401851268098198e+03
1.879825302185026430e+03
-1.468444869342764605e+03
-1.277387614219529951e+03
-4.264179265921090519e+03
-5.391896031055169260e+03
-5.164500974198654148e+03
-5.492785262271418105e+03
-5.276552856541688016e+03
-4.521863531824916208e+03
1.093253680882013015e+02
1.599145412141766428e+03
-1.565513343147605838e+03
-4.027723969761303238e+02
1.501789817820625331e+03
2.611992425665740484e+03
2.714683419886914635e+03
2.160752412610415377e+03
1.776031630664999511e+03
2.376569936195041919e+03
2.500633017421462682e+03
2.176414832130838477e+03
2.146856068980843702e+03
2.321068680750886415e+03
2.274067963881712330e+03
2.363838786678795714e+03
1.991348227113296844e+03
1.927595986991264226e+03
1.675635418384995546e+03
1.153502801169420536e+03
1.101326279757033262e+03
1.180262417207745330e+03
1.205303093224871645e+03
1.139353908493560766e+03
1.092408843222222004e+03
1.355565132434969428e+03
1.345961763287225949e+03
1.235567865121043042e+03
1.245521236989864974e+03
1.112931212660565734e+03
9.247700402184206041e+02
9.508401369898384701e+02
1.073085188406982297e+03
8.246981077166987006e+02
6.727929433305004068e+02
9.014551518411612960e+02
7.559013597979815131e+02
4.659087674719727374e+02
3.133492941585824951e+02
3.812823987134455024e+02
4.567515290741948775e+02
4.037427289479770138e+02
5.205546918700144943e+02
5.262428926156060243e+02
5.479863727162634035e+01
-9.035094526873741643e+02
-3.988375528487895281e+03
-3.378936341620663370e+03
-3.445638860125788597e+03
-2.161485369897372038e+03
-1.754216464497709467e+03
-2.071785070504325290e+02
5.768954602493100765e+02
-2.407867531909239915e+03
-3.438559046130885235e+03
-1.309433381452027731e+02
9.583228123788268249e+02
9.736377781805236964e+02
3.441994419412052366e+02
4.862196124409817344e+02
3.176747362987380825e+02
1.888696398386048543e+02
2.585981694712195349e+02
3.836779228227604790e+02
2.869461871301391511e+02
2.273278325155197876e+02
5.226399108069537078e+02
5.350925034608391115e+02
1.298386601438821231e+02
-1.108471869761970083e+02
-3.593203753322150362e+01
1.712642894522419965e+02
-4.365388502230892982e+02
-4.943290155920298048e+02
-2.375493594018461607e+01
8.626179744776077030e+01
1.515934951327124622e+02
9.823461122970716985e+01
2.190201952946500512e+02
5.110822062928250489e+02
4.603848446637217080e+02
4.467359907987181487e+02
3.113501227531604059e+02
2.873465345988115587e+02
9.866252456543331562e+01
1.071827984155898861e+02
1.949126047968756552e+02
1.408902017880165261e+02
3.400567711466646301e+02
2.343580531169469054e+02
2.838002280844808638e+02
4.844068139216748392e+01
-5.765722575975493669e+01
-6.958370543187321289e+01
-1.784855425923998666e+02
3.561920201383725981e+01
3.346593964190549286e+02
2.086264763793614350e+02
7.052577131678157230e+01
-2.725760572395833492e+02
-9.561321935461018029e+01
5.102647867905022281e+02
5.750175331078951331e+02
1.186030466177133889e+02
6.694661674479877433e+01
-2.939893963723198453e+02
-7.525630866525985141e+01
2.892304949919391106e+02
8.342579995609784760e+01
-1.460749105302933231e+03
-3.256324327076289592e+03
-1.733510012885373044e+03
-7.152291057329358637e+02
5.607995201891385477e+02
4.141255307121771239e+02
3.578591840765700454e+02
2.102729616828017356e+02
-2.914627523541299070e+03
-3.736863949296241117e+03
-1.595678609036078797e+03
2.885952917455842908e+02
6.220600088777270003e+02
8.430722335762867488e+02
8.701535853536128116e+02
9.173345991814757099e+02
8.064875226971917073e+02
4.935206609131671485e+02
3.986263969718627891e+02
6.056271785926105622e+02
8.898111710073003451e+02
6.699419019852648489e+02
7.241255690448925861e+02
5.334032244189073708e+02
7.203235943435573745e+02
6.449051262053601477e+02
4.132235968171007698e+02
5.424002493733546544e+02
4.413186897090431557e+02
1.466013865952062361e+02
5.624412206202625839e+02
8.246996923041022001e+02
9.463394365171880054e+02
8.946020066128546659e+02
9.533285818134876308e+02
1.152534257165657209e+03
9.080015836392261690e+02
9.037110900973863181e+02
1.295070028010472015e+03
1.442989044385963098e+03
1.756955383238737340e+03
1.711282087832477600e+03
1.630836932223871827e+03
1.526590437542280142e+03
1.102507444339792528e+03
1.017519392491586359e+03
1.362586309057904600e+03
1.999696838786179114e+03
1.450976803362251076e+03
1.406495470545869694e+03
1.884157722390282515e+03
1.871823447233917932e+03
1.499294085966009334e+03
1.365669943159432933e+03
1.298934177610576171e+03
1.402334403692064143e+03
1.418884036971707246e+03
1.409842316789256984e+03
1.632975624620806229e+03
1.438027533687270989e+03
8.620717924711854039e+02
3.460882076254499111e+02
8.610088392110716313e+02
5.018060695086174974e+02
9.885113739351963886e+02
1.473209654120365258e+03
1.446703956885208299e+03
-2.604929222692032454e+03
-7.168553189639313132e+03
-6.961379926606176923e+03
-6.530094968666463501e+03
-5.692928442555353286e+03
-5.778554313240803822e+03
-5.274165202619045886e+03
-4.484844739452585600e+03
-5.225609824646131528e+03
-5.363331670890161149e+03
-5.160092672928254615e+03
-1.751893716176025009e+03
-6.807408529312854171e+02
-3.441520190262388951e+03
-3.732250770911568452e+03
-2.526956206551455125e+03
1.464029881964845003e+02
-2.915337655150742435e+01
-4.353641054542524216e+03
-5.316041942626523451e+03
-5.354309001233501476e+03
-5.578385965046672027e+03
-4.790263637574332279e+03
-5.361962640869624011e+03
-5.295507279134819328e+03
-4.385851356977072101e+03
-1.849960290377734736e+03
2.641187657329729518e+03
2.035668619349025448e+03
-4.335323300625855154e+02
1.316378875275362077e+02
1.359196063660061100e+03
-3.707746317486149792e+02
1.966699202054971920e+03
3.457643406161771509e+03
3.815139440939728502e+03
3.482194125545684074e+03
3.296764388977495855e+03
2.834930964533944916e+03
8.308281385460459205e+02
-2.645322835966597950e+02
-5.562946684854478008e+02
-2.595147285841924827e+02
-1.397036507718017219e+03
9.402056631108243892e+02
1.559265134564361233e+03
1.898180870534693213e+03
2.244914791201370463e+03
2.680502061618116386e+03
2.792876275897859614e+03
2.553055884349472308e+03
2.817164314529071362e+03
2.823297947206438948e+03
2.695437698806748358e+03
2.501921125575762289e+03
2.091798009564765835e+03
1.701879190823237877e+03
1.691188033102806003e+03
1.865727495645996214e+03
1.924579067557246844e+03
2.178659362583287475e+03
2.043012047130683413e+03
1.893617353191344819e+03
1.977437407971302946e+03
9.075497720780235795e+02
1.011186449054124914e+01
6.481687268353963418e+02
6.936185486623289762e+02
7.333772541542095951e+02
8.854390204479497015e+02
2.154000525856420609e+03
2.156378196373445007e+03
1.899310382640740954e+03
1.756951827779819951e+03
1.713016761869682341e+03
1.980595633730055624e+03
1.957755575683293046e+03
1.680560184226683305e+03
1.305313584942587340e+03
1.111666974938673548e+03
1.073543019981804264e+03
8.783672039479869227e+02
9.886872789052209782e+02
6.658374361372915473e+02
1.414407895347632973e+02
2.183392548638172741e+02
2.085895910332594099e+02
1.962550496415136081e+02
8.410863452968911247e+00
-5.879248279945016975e+02
-6.298451405414872397e+02
-1.833562931616240235e+02
4.255838882368120721e+02
9.629268047297496196e+02
1.914841590126606889e+03
2.068257251409718720e+03
1.579155815108180832e+03
9.435392474408688486e+02
7.133857517316404255e+02
2.046857884313710088e+02
-3.565460911037451410e+02
5.896953751290755008e+02
1.296386250545615894e+03
8.534765475433041502e+02
4.649838789823453453e+02
2.789281844734688889e+02
-2.187371072583871694e+02
-1.334017216339208517e+03
-9.458888469407092998e+02
1.845986627418200214e+02
3.464557348270431589e+02
3.806594619084020792e+02
1.032035422459751572e+02
-1.729152652396948895e+02
-2.446482490192782109e+02
3.229434066577275644e+02
8.748366969306998726e+02
6.850422213935221407e+02
-2.954373088365202307e+02
-1.736634052146836211e+03
-3.266568975188278728e+03
-5.615281840817546254e+03
-6.324762712069639747e+03
-5.865047075025384402e+03
-6.196140464719396732e+03
-6.503062398218824455e+03
-7.444805568173741449e+03
-8.244953410661839371e+03
-7.275836288068693648e+03
-6.927477095205308615e+03
-6.892054287129480144e+03
-3.136538679680247697e+03
-9.800517442030532038e+02
-2.106582085757836921e+03
-3.167988334331995247e+03
-1.353092940211147834e+03
-3.397276182169219283e+03
-3.231554826348646657e+03
-3.817884727246347666e+03
-2.787221791658200345e+03
-2.442628178638040481e+03
7.198660196930705979e+02
1.633278136777633790e+03
2.290570736932225373e+03
2.442706451637503960e+03
2.040692709824117856e+03
1.975516925865372059e+03
1.915159709565329194e+03
1.861600343995993398e+03
1.886874941512582836e+03
1.740998789155090890e+03
1.871910168306213563e+03
1.965561869341664988e+03
1.589058744636283336e+03
