3.467418717953779606e+02
-2.950884523032400466e+02
-6.746386775243541933e+02
2.413211558751226704e+01
1.368219078156288106e+03
1.857660435535617580e+03
2.005565065657254308e+03
2.325056622384302955e+03
2.954191469717353812e+03
3.177058803032028209e+03
3.085725552352769228e+03
2.603293630459772430e+03
2.608934833714662545e+03
2.276678428985345818e+03
1.708572491439352234e+03
1.145746841277948761e+03
8.662222887858591776e+02
8.760679497459628919e+02
1.253348159543189240e+03
1.316063777715955439e+03
1.305215313307794304e+03
1.154788370797942434e+03
5.290331263459820548e+02
-1.437556779718194662e+02
-3.316699906822881871e+02
-3.106607941644035691e+02
-5.707284170358519759e+02
-3.717868931814219309e+02
-1.376894430109979339e+02
1.618751081038660402e+02
4.557318957171162310e+02
4.154136959055870761e+02
5.200691563129058750e+02
9.032080519838519876e+02
1.746879731249513043e+03
2.379967026125844313e+03
2.439507374428466392e+03
1.877636092918396571e+03
1.428150201314768992e+03
1.393920509074372603e+03
1.024478524257817526e+03
5.476350816766158687e+02
2.294202645403605629e+02
-3.707916014303025065e+01
-2.310673992896858806e+02
-3.776531453441231747e+02
-1.716510917378921874e+02
2.707530351594649574e+02
8.115642187959214198e+02
1.066756993041653459e+03
1.338313780963334693e+03
1.726299647970584601e+03
1.772690491922616275e+03
1.178437807312390305e+03
7.865340941525633980e+02
5.999536028274400223e+02
1.676591372199227976e+02
1.616052764843450689e+02
5.977229976719809201e+02
8.839682186581042060e+02
1.073389549185728356e+03
7.559819727457991121e+02
4.296186165718091843e+02
6.472175374541253632e+02
5.467276007346450797e+02
4.790531102636665537e+02
5.481854837877910995e+02
8.330686254136368234e+02
1.412702706915873705e+03
1.482084768554610037e+03
1.305159194456090972e+03
1.577892718546009746e+03
1.387252088938531415e+03
1.548142193890000044e+03
1.582528289844752408e+03
1.692326918923512267e+03
2.066523860817067089e+03
1.900050423874849457e+03
1.823823566065927253e+03
2.571688612775922593e+03
2.209534879795889083e+03
1.345306678878285084e+03
9.539872809651054695e+02
7.664748333849420305e+02
2.747012900531211130e+02
-9.804229645661076802e+02
-2.457990258923862257e+03
-4.917043090057423797e+03
-5.061681536016559221e+03
-4.383996850725032346e+03
-4.149078916215886238e+03
-4.204084547825472328e+03
-3.955052397543762254e+03
-3.887067543500172178e+03
-3.806176596225144294e+03
-3.129544420107863061e+03
-2.165218359890483043e+03
-6.632639847556811219e+02
6.202633000357810715e+02
9.253811457876632858e+02
7.219528040472300745e+02
4.348751255630971855e+02
4.570317177140950662e+02
6.623848554044659522e+02
8.427569710227210180e+02
9.170434330891059744e+02
-2.839623223531064777e+00
-6.219249475275352097e+02
-9.452544802520767462e+02
-9.769477488038871797e+02
-8.451085983673031023e+02
-5.618039067086202749e+02
-2.750903115357714341e+02
7.594583541599908472e+01
-2.557540300463375615e+02
-4.492962505938694449e+02
-6.737569680884876107e+02
-5.931902469184112761e+02
-6.256344341224875052e+02
-8.031618196738883171e+02
-9.438824187715603102e+02
-1.438793146214965191e+03
-1.967002092870965498e+03
-2.325596763325012034e+03
-2.147662116147012966e+03
-2.156370556538124674e+03
-2.009746252024863452e+03
-1.894767286667602548e+03
-1.151450901646027432e+03
-1.368753489663368725e+02
5.068850909288071875e+02
9.067634773894013733e+02
9.228000857453150729e+02
1.639329911934664779e+02
-2.398879211053154563e+02
-2.267687474210899836e+02
-4.277374070259101018e+02
1.727381498954222749e+01
4.161816340697596388e+02
1.839214080716712658e+02
2.045150046351047308e+02
-2.010447923430733397e+02
-7.257886510401792748e+02
-1.058743086318482028e+03
-6.009570510870192948e+02
-2.715303634269491795e+02
-1.644617586580718012e+02
-3.267960324321181247e+02
-6.452639375331644089e+01
9.683526656839459292e+02
1.922938134736591110e+03
1.211169544803361305e+03
5.900525970384898073e+02
7.336508171099254696e+02
8.519571191258435192e+02
1.092950159635961654e+03
1.086608616455622496e+03
1.084943985784673714e+03
1.532938148507238793e+03
1.081628512174914931e+03
-1.575858821928113457e+03
-1.879543024224706642e+03
-9.164297481663977578e+02
1.029486062508118493e+03
3.552658353914197846e+02
-1.154050799109205400e+03
-6.085119448978231276e+02
-2.160262399919570271e+02
-5.854782491680306293e+02
-9.082556687798123107e+01
-2.929965903548061306e+02
-1.283930353545897788e+03
-4.595774974334325407e+02
-1.829167990156241501e+02
-2.628849853892752890e+03
-2.656307666172504923e+03
-3.067227467028191768e+03
-2.154554221832668190e+03
-4.393285950796604084e+03
-2.228342216932704559e+03
5.094015534294864551e+02
2.170174088786454831e+02
-5.244722299719612693e+02
-2.615031594012661117e+03
-2.573631120843577264e+03
-1.916200338100176623e+03
-3.089693539597099971e+03
-1.941045338129591755e+03
-2.663121730050937003e+03
-1.661776051456402911e+03
4.971498848121951255e+02
-4.462548930848259943e+02
1.755112263952935564e+03
4.142824671819985269e+02
-2.326929842019297894e+02
1.795254024583826549e+03
1.664188900056790999e+03
1.376115953523443750e+03
3.959128803495503234e+03
2.473359813695316916e+03
2.425909514846742695e+03
3.429923642018100509e+03
3.658440148430100635e+03
3.032466588482935094e+03
2.077084490075902067e+03
1.349335735523402036e+03
1.238317132377847201e+03
1.779168295165053678e+03
2.379991112950125626e+03
3.380912524543358359e+03
4.045055972543732878e+03
3.886457027302868937e+03
3.955181524983742747e+03
3.637374974941090841e+03
3.400076185865641492e+03
3.241372920065469771e+03
3.111413609960078702e+03
3.132334917542463245e+03
2.943282135390543317e+03
3.020225083329481095e+03
3.020164629060194784e+03
2.049153238890966804e+03
6.572405192820680213e+02
-8.396429746173106423e+02
-1.171575871130597989e+03
-1.727201526983237272e+03
-2.401342765739052084e+03
-2.634015526825125562e+03
-2.032090544241582847e+03
-1.628730597483991460e+03
-1.646525665113904324e+03
-1.513837381322108058e+03
-1.534760723695093020e+03
-1.817049332013319599e+03
-1.232641770115920281e+03
-1.010157284372261984e+03
-1.186572641073724981e+03
-1.627149744427589667e+03
-1.007976599689631712e+03
-4.117432832882029743e+02
-3.915743044882860318e+02
-9.551967698970199763e+02
-1.673919290127545310e+03
-2.324620516463846798e+03
-2.113287951418164084e+03
-1.995015736961098810e+03
-1.938603112904133241e+03
-1.284047265304243638e+03
-4.137697519472583849e+02
8.750234449654720947e+01
-8.221572310488423341e+01
-2.717953947735339852e+02
-2.473981259420377796e+02
-3.210436281990055818e+02
-3.423838611358339676e+02
-2.365785981985099227e+02
1.832955442409956106e+02
5.002437419486440149e+02
1.137243945990901921e+03
1.412247469858409886e+03
1.399211255653108083e+03
1.167057963819230508e+03
9.668088764299942568e+02
1.054476048751834014e+03
9.770286175448575250e+02
1.188446145363745018e+03
1.174656968023378340e+03
1.201687806262455524e+03
2.322597628708863795e+03
3.126334780930628312e+03
3.506947407834612932e+03
4.293449957618786357e+03
4.851817544192868809e+03
5.298019640489043013e+03
5.638015930930066133e+03
5.335739994193184430e+03
4.248146393442487351e+03
8.752052903971605247e+02
-1.583076711203940931e+03
-1.455677403593706913e+03
-1.992657899046944067e+03
-2.958080731714432204e+03
-3.989959602303888914e+03
-4.593328959109806419e+03
-4.778236588223269791e+03
-1.081705944283312192e+03
8.751517817534178221e+02
-6.236832468929467268e+02
-1.722246756615058530e+03
-1.897489051980931663e+03
-2.205447602652870046e+03
-2.030233621705955102e+03
-2.440857100274899949e+03
-1.420313105052509627e+03
-1.541572106711971628e+03
-3.665667401943621826e+03
-2.900693841642768348e+03
-3.767690548123415738e+03
-3.708693767177956943e+03
-1.912707601305928847e+03
-2.010751838201523015e+03
-2.592850614428359222e+03
3.729780286354900909e+02
1.800640073259738756e+03
1.797018797550289946e+03
1.668044259560196679e+03
1.361714816036206457e+03
1.696001419393566721e+03
2.258880202434768307e+03
2.341353016022434076e+03
2.557464261657322822e+03
2.555198975848443297e+03
2.512520873520777059e+03
2.482448398429123699e+03
2.100919729625845321e+03
1.448884745362341164e+03
1.500277690205016597e+03
2.129040090613858411e+03
2.051199885636071031e+03
1.724725405315873559e+03
1.496572475236907849e+03
1.214749326675661223e+03
7.232138861520163573e+02
-2.380380302941765649e+02
-6.710066530977173898e+02
-3.767373902530422356e+02
-3.322489694089612726e+02
-5.075513788195929124e+02
-5.768614073222817495e+01
1.884339401525887752e+02
3.797831709867591599e+02
3.413209318697100230e+02
2.910375822199339382e+02
2.438886998674085760e+02
2.028971894787566157e+02
-1.129766777682875158e+02
-2.187818884822023620e+02
1.385446872464319767e+02
7.904169685378731458e+01
-2.323287410601020895e+02
-7.960475281494638011e+01
-4.258033823516705070e+02
-1.188859478988275669e+03
-1.577618026162428350e+03
-1.986870975365255163e+03
-2.286647094077089605e+03
-1.796091481321338961e+03
-1.602142730764994894e+03
-1.401742017613918733e+03
-1.009953865501967812e+03
-4.807435080892390715e+02
-6.481012496578915716e+02
-2.860989132441334846e+02
-7.567217679241405222e+02
-1.086794842352667047e+03
-7.595498524391182400e+02
-7.199952774927999144e+02
-4.031444395009286836e+02
-6.669843683214551220e+02
-5.775316093651703113e+02
-7.637922669692007958e+02
-9.357673470272490022e+02
-1.139455346182562153e+03
-1.377749645570907887e+03
-1.027638132082787706e+03
-1.271154560406608425e+03
-1.483319675853033687e+03
-1.348157215873031419e+03
-8.126343359729513622e+02
-2.546968694911756756e+02
1.656895819749513521e+02
5.556145431614390873e+02
4.160911248689872082e+02
2.751288723800695379e+02
1.797292760038207291e+02
-9.009166941230935777e+01
-3.013031428223336547e+02
3.870989666745905993e+02
7.561305163612551041e+02
1.040860773787426751e+03
1.040307455079695274e+03
6.247906911221163284e+01
-5.596215417476837501e+02
-7.600108958991111194e+02
-1.015640877359886531e+03
-8.965362027354021848e+02
-1.228734482620561266e+03
-1.119244919208116698e+03
1.879148146258958718e+02
8.188015678365148915e+02
1.383520860265061174e+03
1.844080882278004538e+03
1.543486775602218586e+03
1.555793958247487353e+03
1.343967964829399989e+03
9.769887454116500294e+02
6.609313619533207884e+02
5.537707148914208801e+02
7.615352435972713465e+02
8.782641701944626220e+02
1.406005606328954400e+03
1.028718348992844767e+03
9.824049679175361689e+02
4.660658457617020645e+02
1.737342830364700603e+02
-1.305937404963335950e+02
3.249428527342112716e+02
6.133177881229079276e+02
6.806568390582128814e+02
8.499802935424139605e+02
1.111229126582375557e+03
1.731426588331869652e+03
2.131555745799219039e+03
2.299676420537412923e+03
1.424822488540051836e+03
1.069919190096477450e+03
1.851888487749099340e+03
1.899906077720335588e+03
1.979927447138265734e+03
1.864021192157669248e+03
1.892222487777013157e+03
1.812743190733629490e+03
8.252884416598207054e+02
2.564706793934076359e+02
2.315861428528477290e+02
-1.132367434804212962e+02
7.390084944454859794e+01
3.000399373474919003e+02
6.782652763950577537e+02
8.544877310394152801e+02
1.248713847999825703e+03
1.629159239874747527e+03
1.725682530890139333e+03
1.964480537843709953e+03
1.670144771766793610e+03
1.209784530371455276e+03
1.073206774830644918e+03
1.174354489262240804e+03
1.017548402646489535e+03
1.218388930900147443e+03
1.415070549144325696e+03
1.417555531074330020e+03
9.188401646205788893e+02
-5.096576830866008834e+01
-7.420715063927192432e+02
-1.074374377095037062e+03
-6.410766179743982320e+02
-1.722884674923296302e+02
7.424718364809974958e+01
3.653498025607290742e+02
7.080883094249195437e+02
1.279192172735708709e+03
1.532633117437946339e+03
9.006014995173344460e+02
5.731004409034970877e+02
4.088228514419985231e+02
3.150764126317048408e+02
4.647137125366463124e+02
3.404163345178501459e+02
4.211436555950914595e+01
-4.714974375731770806e+01
-8.123481966617182479e+02
-1.681531056505202969e+03
-2.049759461881900734e+03
-2.317123815994471897e+03
-2.029687337044585547e+03
-1.330530006780882104e+03
-1.043612852233188050e+03
-1.028905417448135267e+03
-4.645066857726915259e+02
-1.953667900490701470e+02
6.034728130277870832e+02
1.169992203659649476e+03
8.622116313005589063e+02
1.076085646495246010e+03
1.681598481584805768e+03
1.418623284021331074e+03
8.591114528814382538e+02
5.160998832876034612e+02
-5.584940992614972401e+02
-3.575713442885768927e+03
-4.362367493347454001e+03
-3.609592568184804804e+03
-3.205475459183094699e+03
-2.442063624358791458e+03
-4.486205220109743095e+03
-1.398090406765188163e+03
-2.478749837276439848e+03
-3.444156793702660252e+03
-1.865328657840066626e+03
-1.514287285189825297e+03
-3.511497780856751092e+02
1.097129351402242946e+03
7.875497239960928937e+02
-1.607891150573033656e+03
-6.413420050820456026e+02
-1.162886614608467198e+03
1.016496874422155656e+03
-2.311228149156485188e+02
-2.827284992911817767e+02
-7.432894612173897713e+02
-2.198886940958201194e+03
-1.487559826394405263e+03
-2.173518987703712924e+02
-2.744320112743392201e+03
-1.601500936928648116e+03
-3.206968213364424628e+03
-2.087716410214585267e+03
-1.831691433795115927e+03
-2.771876052220422480e+03
-1.622671429940843097e+02
1.090142236868400914e+03
1.704385998506061469e+03
2.043470860696935915e+03
1.974323931074285838e+03
1.413871575754147216e+03
1.463060922191525606e+03
1.580919034160951014e+03
1.503494867730883925e+03
1.459788599478275728e+03
1.407762143406269615e+03
1.749445998711347102e+03
1.021870774189954886e+03
3.660951878989826014e+02
1.000651152269769852e+02
-2.513428092445629716e+02
-1.471045093474174053e+02
1.028319460688285716e+02
2.254570168429304431e+02
4.848274523139783696e+02
8.919246373446854932e+02
1.312728502390391895e+03
1.299324774014885634e+03
1.181842833943574533e+03
1.372483048837778369e+03
1.730237526116678964e+03
1.501855150189439655e+03
1.181392761439883998e+03
1.262061128444496035e+03
9.920951896298718111e+02
9.547548416280665151e+02
1.173814274697090241e+03
4.806176274627382554e+02
-1.226263095738291469e+02
-1.276480067849945044e+03
-1.362979198972136373e+03
-1.130171446308291934e+03
-1.250952714279308566e+03
-1.072373209314742780e+03
-8.223482861879102757e+02
-3.499418488596100474e+02
2.569665326781603198e+02
5.635542517707873458e+02
4.527426697722128210e+02
3.471295981330007407e+01
4.165477864158463106e+00
1.540957050740419163e+02
5.176661488777027671e+02
1.240072329139087742e+03
1.717145383026545460e+03
1.488720942316679384e+03
9.128124686264280854e+02
4.084159399060384317e+02
-1.174444204979242841e+02
-4.747732089890952238e+02
-8.085224601510525417e+02
-9.876373794755924109e+02
-9.480906872477366960e+02
-8.808323518898732800e+02
-4.997924806761826062e+02
-1.029170751674179627e+02
6.308925477133157074e+02
9.246974194118655532e+02
7.624569227715618354e+02
7.061172491432448624e+02
3.866693919183501862e+02
2.431307120445130749e+02
1.305243288074082102e+02
-3.421220558388516224e+02
-5.947742124278698839e+02
-3.744025446972215150e+02
-5.396175929436940777e+01
-1.854115294447917677e+02
-6.056847723402931933e+02
-1.055750394740539605e+03
-7.106171821349847733e+02
-9.231855457920713093e+01
1.321799493098770597e+02
5.129082495327299966e+02
8.368265415644401628e+02
1.098987106437494049e+03
9.964316793027210224e+02
1.249158090599573370e+03
1.336157529422216612e+03
1.285402950124685276e+03
1.028896458000170242e+03
2.786743710278620938e+02
-1.424313294465921672e+03
-3.868048302190240065e+03
-5.495458985780212970e+03
-6.342495634200940913e+03
-5.681132165076951424e+03
-6.022344464229349796e+03
-6.026179307818610141e+03
-5.575627771408238914e+03
-5.681718854954029666e+03
-5.593557590964899646e+03
-5.435173283225701198e+03
-5.638456427610974060e+03
-5.265447076124691193e+03
-1.361205809440555186e+03
3.042804296956445569e+02
1.295968896602551013e+03
1.646881780673766343e+03
1.946022180713017633e+03
2.222432155935146056e+03
2.547045188092129138e+03
2.786901274187293438e+03
2.832048242670447507e+03
2.983438067487270018e+03
3.259010341469069772e+03
3.101741807825229898e+03
2.652605099235924172e+03
1.690572274973842241e+03
9.186421647659044538e+02
5.507630005664623241e+02
4.878897434255895860e+02
6.789644461510307565e+02
9.319333447701473006e+02
1.035851632447861903e+03
1.255712262081570998e+03
1.389499688987442141e+03
1.555256086547523182e+03
1.561960862211968788e+03
1.037502519495173829e+03
9.238873554357137436e+02
8.411010868539345893e+02
1.197138194159527302e+03
1.266109685825560746e+03
1.065943175880990566e+03
1.277532540523780654e+03
1.801867763069666580e+03
2.270947853181593928e+03
2.333744677867961855e+03
1.792204086367767559e+03
1.307207284119646147e+03
9.917493889054713918e+02
7.007270049527004403e+02
5.931162827242640105e+02
7.809770978253155818e+02
1.088275644117180718e+03
1.066079511778063761e+03
1.252365922782140842e+03
1.197089719487681805e+03
8.202480525914766076e+02
4.638146242633234237e+02
6.467297152201230119e+02
1.062914924178764977e+03
1.485449091713760481e+03
1.733308192304313707e+03
2.124574251927522255e+03
2.988219428644905292e+03
3.063203796408231483e+03
2.910393011504629158e+03
2.622049235623225286e+03
2.390014546132000760e+03
1.976152778933128275e+03
1.755363626374265095e+03
1.384623012753071407e+03
1.519013150253777440e+03
2.194488292522100437e+03
2.564160819670515593e+03
8.740123722025317647e+02
-1.717056190543453340e+03
-3.459881869985405501e+03
-3.114491314066948689e+03
-5.139744603886609866e+02
3.269668142585833721e+03
2.657450070686818435e+03
-1.530571318128967278e+03
-2.517415168319162603e+03
-2.656156642223888866e+03
-3.189784014515219951e+03
-3.896382155342729220e+03
-4.501971738184401147e+03
-4.380520070635805496e+03
-4.411035992456348140e+03
-4.530540959871960695e+03
-4.151024312123106029e+03
-1.000428365791414649e+03
-1.061682031552788203e+03
-3.060744657032698797e+03
-3.161651672306244564e+03
-2.427368277305504307e+03
4.721380397107053000e+02
-2.011152581062259287e+03
-4.017326503402548497e+03
-4.702383146117569595e+03
-4.479320288888539835e+03
-4.383073949923978944e+03
-4.302588871213151833e+03
-4.373843833233501755e+03
-5.031801577395455752e+03
-5.305472317670680241e+03
-4.841804304839012730e+03
-2.682774322046936504e+03
-2.367422417709105048e+03
-5.026796420743545241e+03
-5.183953659091421287e+03
-4.332834877153042726e+03
-2.974300410814877068e+03
-1.632395866930063221e+03
6.269008249178835968e+02
3.311659120648541830e+03
3.974870618789994296e+03
3.624613658170242616e+03
3.276931864652047352e+03
3.143841379382358355e+03
2.770454829411346054e+03
2.500777242656980434e+03
2.165787764837177292e+03
1.568476565855918807e+03
8.318248310021419911e+02
8.237944516880872925e+02
8.964399351454051157e+02
2.728451473752641050e+02
2.099866172876056396e+02
1.494963828306961062e+01
-1.324639213002747873e+01
7.294449175934454388e+02
1.675081001513507317e+03
2.904597225330501260e+03
3.420003515743479511e+03
3.796456470590605932e+03
4.066999661518178982e+03
2.849585062410506453e+03
5.581807414255905542e+02
1.945158195350714323e+03
1.830598002677471641e+03
5.563068397356449850e+02
-9.656954554921630915e+02
7.766909860768673752e+02
6.116525844727966614e+02
-4.118833215030191042e+01
1.245044099327157028e+02
3.439212594081430439e+02
3.706207293000903178e+02
1.169317079256460943e+02
5.526729824218523390e+02
1.038823950692987637e+03
1.607373523817108662e+03
1.756845113869655734e+03
1.216078141843128378e+03
5.899743080736747061e+02
3.424834241932863961e+02
1.947491135291404305e+02
6.128436699445230715e+02
1.159767556693127062e+03
1.508753034960853029e+03
1.525469697812522782e+03
1.740014759785159868e+03
2.181666700397310251e+03
1.647125951615313852e+03
4.848381725149550334e+02
-1.566326693609729546e+02
-3.861617863624118172e+02
-6.476111294268039273e+02
-7.461099742565546649e+02
-1.345949136052780659e+02
1.270911745573765756e+03
2.074461348963630371e+03
2.589126924520438934e+03
2.223938046851574654e+03
1.859880429597325929e+03
1.803942373910886545e+03
1.671123733974300194e+03
1.197452558630491467e+03
7.719399067659810498e+02
9.335659734232724531e+02
1.679453799318067013e+03
1.781657961942948532e+03
1.387173659937938737e+03
9.960031660567694871e+02
7.610624274463984875e+02
7.493375925496777654e+02
1.286847200933556451e+03
1.488584342346003041e+03
1.186536499951925862e+03
1.044701107984078135e+03
1.364178716040247537e+03
1.140001659051752540e+03
6.081477599934271439e+02
-1.470369721616378229e+03
-4.478430866469274406e+03
-6.340005760756064774e+03
-6.020218132103778771e+03
-1.852060584120539716e+03
2.814372234667247312e+02
-1.963774903958996219e+03
-3.299634232294205958e+03
-2.860163895269195109e+03
-3.136435022070672858e+03
-3.721220792553073352e+03
-3.559571687732826831e+03
-3.950483489734770956e+03
-4.317002778114620924e+03
-4.405225106087723361e+03
-4.327221820798890803e+03
-4.659008127620679261e+03
-3.537583021722673493e+03
-1.678886968524637268e+03
-3.130857487005646817e+03
-3.194575970235688146e+03
-3.191085612617574498e+03
-1.345362131264050959e+03
2.633538119329365145e+03
3.917590185268093137e+03
3.992827749455254434e+03
3.499279848103334189e+03
2.573908427766474233e+03
1.666755847028194466e+03
1.212782524778696825e+03
5.899303268375763309e+02
-9.829271018396960713e+00
-6.635148148537791712e+02
-9.281306154739482963e+02
-8.607126833360456430e+02
-1.613241352157718325e+02
8.179751354243383048e+02
1.863238410526844518e+03
2.864471160595359379e+03
2.983697590933702486e+03
2.733869598828077869e+03
2.472930029059172739e+03
2.104894607180410731e+03
1.481794201689048350e+03
6.156525882303378694e+01
-1.000868263020715517e+03
-1.243501816053754510e+03
-1.065408538358442001e+03
-8.965581533876650155e+02
-2.809325516588373830e+02
-3.256415426198308296e+02
-8.273411342730331341e+01
2.357758210311450568e+02
-1.521371165182275718e+02
-6.951530912364319192e+01
4.896252614174081259e+02
6.722592998625531209e+02
8.313698574787963480e+02
1.098951352078047194e+03
9.459587908041945639e+02
8.523941820435811678e+02
4.282505484646592890e+02
-5.214534360900862566e+02
-1.400653279605145826e+03
-1.595337321501909855e+03
-1.632399020805646842e+03
-1.311958787004772603e+03
-6.349741903662365985e+02
1.725026718390278972e+02
9.113944976886601808e+02
6.936873140965290077e+02
3.473831190537077305e+02
8.524136997443052906e+02
1.654735975306757609e+03
9.404706390540495704e+02
3.652629763884042404e+02
-1.290503956835557346e+02
-5.814855695598604370e+02
-6.050432318936715319e+02
-5.167427198197311782e+02
-8.376075895128662978e+02
-8.166972046466293023e+02
7.394449165879153441e+01
6.413476252087154990e+02
6.064454046123750004e+02
1.151175495996844575e+03
1.039520960332317372e+03
7.074587058458147339e+02
9.150128729753502057e+02
1.260197504141394802e+03
1.519964002072319090e+03
1.279270071412966217e+03
5.460916000810784681e+02
1.233768216231828774e+02
-2.869428029359092420e+02
-7.429245360443711661e+02
-6.726127927867482867e+02
-5.879866534009668158e+02
-7.110716811217774875e+02
-6.758380488010325280e+02
-5.293398450531650496e+02
-3.936204556134395034e+02
4.712471302051644102e+02
1.025271613105074039e+03
8.794913947227458948e+02
7.548398756990195579e+02
1.338223373240288993e+03
1.483619642705679553e+03
1.703028549314584097e+03
2.181505410473598658e+03
2.600060130725578347e+03
2.063666296956902443e+03
1.379237931827197599e+03
8.416969195011964757e+02
2.690392627597854016e+02
5.412268403313939871e+02
5.962494087650137544e+02
2.560746419962445657e+02
2.446829808789453864e+02
5.121276579962359392e+02
2.083861558456303840e+02
-5.006176996602886220e+02
-1.013967672795764997e+03
-1.469673421017994997e+03
-1.230748928335541905e+03
-9.542279002026823491e+02
-1.050255497432675156e+03
-2.035791498978977415e+03
7.052635060579385708e+02
1.965904269695616449e+03
1.972090611730314095e+03
8.798371006171144018e+02
-1.598769557063884577e+02
-2.239857680315882646e+02
-1.011560007915028564e+03
-1.544669951220598932e+03
-1.972263609968504170e+03
-2.508255933198510320e+03
-1.411606033140995123e+03
-2.253366026342519604e+02
-1.513980037193664714e+02
1.710695600997477470e+02
7.328058579638136507e+02
1.173021995049442467e+03
1.774047407420794570e+03
2.041416078426110516e+03
2.191229783857910661e+03
1.759635227306964453e+03
1.022387469614914153e+03
8.168145519180553720e+02
2.547848168037350263e+02
-4.929679303153247929e+02
-1.265192292822274339e+03
-1.751060605367953713e+03
-1.212741780392144165e+03
-6.370066578225777221e+02
-8.309097744200237230e+02
-4.084791749620651444e+02
7.632571400844394702e+02
1.557243200706843709e+03
1.591954485861000194e+03
1.548303131071771986e+03
1.162175043494869669e+03
7.693309745852691321e+02
1.129607857962673734e+02
-5.666996811433791663e+02
-8.608052197547973492e+02
-7.265228122779155910e+02
1.543245132346893342e+02
1.252837419661590502e+03
1.972559841875364782e+03
2.097801849271735136e+03
1.539808333211240324e+03
1.156392367368982605e+03
1.339595763537249695e+03
7.914573284596121994e+02
1.899613401168723215e+02
1.369186621676005586e+02
-1.179037228954266112e+02
3.889939979401649595e+01
2.584617057292526852e+02
5.948284859511334162e+02
1.419976435779986559e+03
1.831972822223352750e+03
2.081793263966893846e+03
1.912358052474904980e+03
1.679953114161097574e+03
1.050613393418981559e+03
3.103218842270957225e+02
-9.690188556829649258e+01
-6.820671713854455902e+02
-8.351332540007376792e+02
-4.240375224934182938e+02
2.832794846422366390e+02
6.288266009912132404e+02
2.466683950436429313e+02
1.805699016865706330e+00
5.773372775576325466e+02
1.031368232267513577e+03
5.518499533182076675e+02
-2.082031989952334243e+03
-3.358192071581438086e+03
-2.311869501020866664e+03
-2.503804392667013872e+03
-3.148755276308248085e+03
-2.386626898920391341e+03
-2.525833636963860954e+03
-2.689431416924470341e+03
-2.887027568704557325e+03
-9.623698023132586741e+02
-2.414440975449357666e+03
-1.008163319709155076e+03
-1.142603085921648017e+03
-1.351785598298698460e+03
-4.107559691244463465e+03
-3.234854173073753827e+03
-1.271650913755070405e+03
-2.250717614601467176e+03
-1.341033721439783449e+03
-2.268576808082489606e+03
-1.656221395040855214e+03
-1.817909080894851058e+03
-4.295835748245756349e+02
-1.515201796448886398e+03
-9.277573279185301089e+02
-9.792097045916656270e+02
-1.828526777678765939e+03
7.749040786701634431e+01
-1.164097882540974069e+03
-2.052177782892595587e+03
-2.980612142212331491e+03
-2.090375833693267396e+03
-1.292473647144150618e+03
-1.357874421619591203e+03
-1.174499948516478753e+03
-5.943294261993257805e+02
-3.593595260511659717e+02
7.759515973756533924e+01
3.096878194690556825e+02
1.330193717387446952e+02
8.966746818478520709e+01
-6.639643080409693709e+01
-2.960056417448409434e+02
-2.849645951313333967e+02
2.038408721687337106e+02
8.922076089337899703e+02
1.464127102224526880e+03
1.301640033474753636e+03
9.658204823794173990e+02
5.788016623190156906e+02
5.953721934394071980e+01
-6.548912068658631824e+02
-1.604460221479055463e+03
-1.911232225200876655e+03
-2.084207509096354897e+03
-2.374225284973835187e+03
-2.373113205531062249e+03
-1.331750804764697250e+03
2.201174694135424943e+02
8.005508658555061174e+02
1.215410985019180544e+03
1.534357115103318392e+03
1.539726210950455879e+03
1.374656295268307076e+03
7.567526977583860344e+02
-1.963007251754716208e+03
-1.061401162745275542e+03
-1.793563183919239918e+02
7.250732521915455209e+02
1.668999285660079977e+03
1.748474237007896136e+03
1.286340467795762834e+03
9.053758896767654960e+02
3.457967453328240595e+02
1.795871511892033254e+02
5.956164395606301696e+02
4.659155443440708950e+02
4.726546409749901301e+01
3.557582158936093606e+02
6.794315736693986310e+02
8.150123446860001195e+02
9.055461101366773846e+02
1.131131597055833254e+03
9.926856222432707000e+02
1.484113855593415110e+03
1.839310725984985083e+03
1.617200081341250780e+03
1.267752883362028570e+03
1.036836539520591487e+03
9.942480719018063837e+02
1.115089028401565656e+03
7.583142126036063928e+02
2.496835026311475758e+02
3.070864610461382540e+02
2.424899193443004322e+02
8.978050847823262757e+02
9.819949693753906104e+02
6.878949612927426642e+02
8.501962361586212182e+02
1.339781823199433802e+03
1.515685686441767075e+03
1.502995740248998118e+03
2.100584654570178373e+03
1.658146047278315564e+03
1.469654931219176660e+03
1.688191749466487636e+03
1.616617904887040822e+03
1.630892517929575433e+03
1.488960951424336372e+03
1.570721787924616820e+03
1.462157587599874660e+03
1.472193457842352473e+03
1.084713649089124146e+03
1.130309064240998850e+03
1.338677080905802768e+03
1.163729541354614412e+03
1.056404798889887161e+03
4.685156520475151183e+02
-1.112098591708740514e+03
-3.318601103483564657e+03
-5.314112896093159179e+03
-5.421864865162237948e+03
-5.234066145020014119e+03
-5.058893846952721105e+03
-4.850342652147687659e+03
-4.709585876795431432e+03
-4.896034311227170292e+03
-4.457804106641154249e+03
-4.340919738141791640e+03
-4.808472910441222666e+03
-2.491778130364290064e+03
4.560868185670979642e+02
6.089431560645600712e+02
6.476700354399233674e+02
5.962203646587597632e+02
7.204108209455303040e+02
1.032076707164959998e+03
1.143117097468222710e+03
1.060455814057498628e+03
1.651963027772731493e+03
2.022479496604406449e+03
2.227968851386866845e+03
2.201258186061442757e+03
1.832249341991220945e+03
1.339887094800973955e+03
1.301047398847784507e+03
1.267554263580594352e+03
1.331283517039538992e+03
1.819139712565646278e+03
2.279109565573003692e+03
2.198141825296362185e+03
1.876176037142827909e+03
1.196118027568284106e+03
1.137874441701065280e+03
9.584121563011384524e+02
9.057092522572625057e+02
8.426806966841969597e+02
5.532570776860969772e+02
6.740377044405636298e+01
-2.849188299363855208e+02
-9.172230208828902676e+01
6.304642492090806627e+01
-2.406172306219030759e+02
-4.767593802845904634e+02
-7.803299011140042012e+02
-7.373657654488005164e+02
-2.358786359836790609e+02
4.950999484596251818e+02
5.096738920450780483e+02
-8.006043035828399468e+01
-1.640821644875650804e+02
-2.403507907809864435e+02
-4.498403687540044302e+02
-5.654608808593701497e+02
-9.001675549459129115e+02
-6.259161242961819198e+02
-3.326632078403832793e+02
-1.273093120188817124e+02
-3.896907427734976181e+02
-3.997228682161911593e+02
-3.893856293230151095e+02
-2.926253917029940794e+02
-1.274361908445926474e+03
-2.437134357843495764e+03
-2.484708613778654126e+03
-2.587572728328441826e+03
-3.078508890547063402e+03
-3.567363358874796631e+03
-4.151924700375984685e+03
-3.978055711266238632e+03
-4.034703088601008403e+03
-4.195677896865801813e+03
-3.634809664984141818e+03
-4.032057329932486937e+03
-5.450287715397506872e+03
-7.136435039669952857e+03
-6.229424210605521694e+03
-3.904023234347924245e+03
-2.232114022362695323e+03
-1.367641713710312160e+03
-7.245371135731291190e+01
-2.234284530617913333e+03
-2.596979658034599652e+03
-1.322450075362909956e+03
-3.552542607113765371e+03
-1.573086279648001664e+03
-6.586935876910672505e+01
-2.099698430794600426e+03
