-4.244035670565898727e+03
-1.651614344343598532e+03
1.201322049982020417e+03
1.836989347005882337e+03
1.099570187998188658e+03
1.800234895172822860e+02
-2.275575464022342203e+03
-5.396073089685593004e+03
-3.930363778507583902e+03
-7.983621630997556622e+02
-9.750042944383019403e+02
1.314875379281807454e+03
5.269311185083924101e+03
4.323362951013239581e+03
7.640440609331060386e+02
-8.696228704286695574e+02
1.996531201535388163e+03
3.368893072825997479e+03
5.614556948985528834e+03
6.184733533914723012e+03
4.357612896891365381e+03
3.754549384551507501e+03
4.142431509961112170e+03
3.628391889343480216e+03
1.674287923334720972e+03
2.407230840689930176e+02
-7.725343891362848581e+01
-2.791903637045834330e+03
-4.559493915587871015e+03
-3.786034539428923836e+03
-3.959318473650265787e+03
-3.139315841443933095e+03
-2.128676149973763643e+02
4.991132182026007058e+02
-1.194623873453607757e+03
5.918907327386622228e+02
3.588206862731364254e+03
4.219369116780892000e+03
3.731359990347376879e+03
3.336252130181061148e+03
1.492028885555439274e+03
3.047922586771942406e+02
-1.057381704880631560e+03
-2.790375867616238338e+03
-3.920112496124029349e+03
-5.348063089372148170e+03
-4.241916414351421736e+03
-3.864388728705641824e+03
-5.069320808185798342e+03
-8.220326143302529090e+03
-1.150432019019349536e+04
-8.039040976897753353e+03
2.137630466422938298e+02
9.169898293961034142e+03
1.187923000199120725e+04
7.834158712399975229e+03
4.305622540765066333e+03
2.104268112353516244e+03
1.132104794228178662e+03
-2.708474044509861187e+02
-2.805567950372716950e+03
-4.922020741315226587e+03
-5.900261791114982771e+03
-2.942256909411964898e+03
2.253040508962295917e+03
4.702671304883305311e+03
5.231542791134095751e+03
6.268698357890611078e+03
6.334130972693719741e+03
6.514824328751969006e+03
7.983839853937776752e+03
6.338201073792629359e+03
4.862866991246273756e+03
3.938682649612951536e+03
3.145481371609293546e+03
2.646184512526914659e+03
1.898903527606660418e+03
1.186624263947216605e+03
5.172539218788258495e+02
-2.518985322148416728e+01
-1.958761660899678191e+03
-5.680488618552231856e+03
-8.254268287692646481e+03
-6.898152856803219947e+03
-6.800256585768712284e+03
-7.242690296453443807e+03
-8.217324266147812523e+03
-8.663146312007187589e+03
-8.161423179471121330e+03
-6.814372678408606589e+03
-4.146132730953644568e+03
-8.057394066796739480e+02
-1.596150708970209280e+03
-4.560032338656997126e+03
-6.367642127586057541e+03
-4.876283676336921417e+03
-1.959083143941254320e+03
-5.069034485875419705e+03
-6.680188643109016084e+03
-5.759670218668039524e+03
-2.144851686637552120e+03
-2.791673583503289592e+03
-3.632158707439710724e+03
-1.657398640645665637e+03
1.959524708820838669e+03
1.016280500697325579e+03
5.362667269530938086e+01
6.055603684738946413e+02
2.509101926161838946e+03
5.012112781128313145e+03
6.223629559670301205e+03
5.248470923573553591e+03
3.306233142438555205e+03
2.399914559349716910e+03
1.217521104700076194e+03
8.078710516231853944e+02
-8.441758201403819157e+02
4.882351197725093925e+02
3.333962280877632111e+03
1.943752461394368311e+03
1.488486855840958924e+03
1.265989283765063192e+03
-1.785913729521970254e+03
-5.608358679558676158e+03
-7.896526308019436328e+03
-8.562520356881541375e+03
-6.078446388576976460e+03
1.023547788466245038e+03
6.439410128033354340e+03
5.964039528485121991e+03
3.861238309655323519e+03
2.526905113131178041e+03
2.096826668996111039e+03
1.578711465233459876e+03
1.223818188732246313e+02
-3.612512905858399108e+02
-4.372509849962125372e+02
-1.064757754938566677e+03
-1.534052218556257685e+03
-2.905368775599487435e+03
-4.521080829213441575e+03
-5.365518036071703136e+03
-5.715058591576606887e+03
-5.319766862223011231e+03
-3.987501805125927604e+03
-1.855426008258762749e+03
6.034342521411252847e+02
2.663938069821178487e+03
4.157850473152737322e+03
4.743977624927342731e+03
4.613279997494749296e+03
4.665515257919776559e+03
4.071765753182958179e+03
2.822823496458212503e+03
2.024284386149905231e+03
1.494736922357650428e+03
-1.766944360117969950e+02
6.518599491854397456e+02
1.604215296027115755e+03
9.382336320504141440e+02
1.143834235211511213e+03
7.677020659371640932e+02
4.697650764556726699e+02
2.489503622570553034e+02
8.510153018117118506e+01
-2.046114871678703651e+00
6.273117964172084839e+02
1.751988861737201432e+03
2.303928463285802081e+03
9.691571573161405695e+02
-2.003930774725237995e+02
-7.988768167551611441e+02
-8.493429049287434509e+02
-8.659830093733831973e+02
-1.532025106435359930e+03
-9.855787259338991646e+01
2.233310566642763206e+03
2.199583228512995447e+03
2.273168436476838451e+03
2.497928060503207234e+03
2.145782195244274590e+03
1.438734345819952523e+03
4.255712761531235060e+02
-2.800071285717525598e+02
-1.001390169982104652e+02
-7.657702691784321587e+02
-1.168716440540575832e+03
5.019989797537329537e+02
3.207495750528581084e+03
4.466794351361096233e+03
3.790830435623408903e+03
2.464507580231317661e+03
1.511681656808774051e+03
1.436083984900442374e+03
1.460602878555343523e+03
7.872801215571972762e+02
-2.127189027265756920e+02
-1.558476293034365654e+03
-2.007031094649490342e+03
-1.860442646343401520e+03
-1.909801467173771016e+03
-3.989987040902294666e+03
-6.423842736409141253e+03
-7.755184807307989104e+03
-7.111827849488396168e+03
-4.474708383508349471e+03
9.219249713365552452e+02
3.237062817620398619e+03
2.334692795795143866e+03
1.709792209226674458e+03
1.537248703405343122e+03
1.050294100479602776e+03
6.542697247414931780e+02
1.741702199767285322e+02
-6.916919711977529062e+01
2.911953638666739153e+01
1.230264748350561604e+03
1.017557305860877136e+03
1.251912706149282961e+00
-1.797510305244420579e+03
-2.138629672331341226e+03
-2.720648679310736497e+03
-4.034738475662858036e+03
-4.490946559986428838e+03
-2.890469134704695080e+03
-1.602962639468316638e+03
-1.878735278008919295e+03
-9.905933280048211600e+02
4.563092238149274067e+02
1.011670476031356770e+03
6.870985215033044824e+02
1.667142982571272114e+01
-1.161433136814848979e+02
-2.964026183477684526e+02
-1.005849406281221263e+03
-1.587978563004962552e+03
-2.554908381745629413e+03
-2.901758524176734227e+03
-2.484477773143444665e+03
-2.825725550987455335e+03
-2.591411170555832086e+03
-2.180036077712913084e+03
-2.523213525783360637e+03
-2.773313477194109055e+03
-2.109655403564055632e+03
-1.724942788367483217e+03
-1.730734335157725809e+03
-1.368985735707360845e+03
-3.392981687296388600e+02
6.555112486507550784e+02
1.328565514941257334e+03
1.504913396417891818e+03
1.372451351910645371e+03
1.497032480713122141e+03
1.931555935948016213e+03
1.698424916118925921e+03
1.893914153115779527e+03
2.453324162725726637e+03
2.480201640444585337e+03
2.500075382967816950e+03
2.697334735038220515e+03
2.124240405732944055e+03
1.705013057535222970e+03
1.566039169258192715e+03
1.370685354142141705e+03
1.642854193676289015e+03
2.416587285303269255e+03
3.808361287494623866e+03
4.992202383222594108e+03
5.698167357463600638e+03
4.684789977179510970e+03
1.673566123164045166e+03
-2.328339789324536468e+03
-2.953082408495092750e+03
-3.404348999129148979e+03
-3.415035566343398386e+03
-4.116820149890118046e+03
-3.968244775116233996e+03
-2.900197132440984205e+03
1.987444585563664532e+03
5.301999084962079905e+03
1.169801449850931476e+03
-4.403942994651179106e+03
-3.828078827479854226e+03
-4.555187613231470095e+03
-5.182109689243867251e+03
-4.743021814963025463e+03
-4.466401499843193051e+03
-1.968030158655105652e+03
1.681673676274039622e+02
-2.149650206315336163e+03
-2.947187628216930079e+03
-3.250580609154024842e+03
-3.687763661988793046e+03
-3.935409758787951432e+03
-3.879286451928621318e+03
-4.521263765649379820e+03
-4.433096743461850565e+03
-4.449606394429529246e+03
-3.316609975368758114e+03
-6.929030981897204811e+02
-5.019360930870935590e+03
-6.629779756944035398e+03
-5.765221888081675388e+03
-4.035458133132333387e+02
2.005464189713149381e+03
1.621134876807658884e+03
3.916282521158852319e+02
1.042552231031539350e+03
2.672486828503670495e+03
5.522897913544994708e+02
7.253912926853126919e+02
3.489378836309260350e+03
5.392381431327413338e+03
5.893484783194135161e+03
5.935603564496816034e+03
5.232821749681578694e+03
5.164322055971978443e+03
5.326150426869967305e+03
5.589317631770992193e+03
5.250557440175141892e+03
4.681601770396156098e+03
4.590597814474125698e+03
4.399744500266965588e+03
3.755951606443888522e+03
3.647278807325976231e+03
4.071705192617944704e+03
4.294105267198306137e+03
4.206760108395150382e+03
4.104663369540799067e+03
4.311760090459830280e+03
4.207045877357593781e+03
4.523432540167587831e+03
4.097920372781999504e+03
3.556491534590635183e+03
3.085116574549495454e+03
2.429679298990557527e+03
1.912208859947160363e+03
1.852861110243177791e+03
1.563572802942944236e+03
8.018700061843292133e+02
-4.410578451382146454e+02
-1.052867415835403193e+02
4.687014281983163642e+02
8.522653593887130228e+02
1.038409197267840000e+03
3.729156745459355875e+02
-8.144181749566216695e+02
-3.072992830009970476e+03
-9.076554405736017088e+02
1.115835126132071309e+03
1.275241651541889951e+03
5.331674428604345621e+02
4.973523896660419723e+02
1.741817898759421723e+02
2.104499755410311650e+02
3.137976250989447067e+02
-1.139384420476006881e+02
-5.609908739716189530e+02
-7.756439534759147136e+02
-1.461236100734067577e+03
-3.061058630883233945e+03
-4.172984571164234694e+03
-4.301145943719571733e+03
-3.686828429682730984e+03
-3.746294388485344825e+03
-2.674825972775955506e+03
-1.113502832550581161e+03
-1.119325135838389315e+03
-2.793835471520225155e+02
7.706906078754413159e+01
-4.840937190502327212e+02
-9.540226666751173070e+02
-1.038798318414233336e+03
-1.254846963439729734e+03
-1.207514207569712426e+03
-1.086664820035365892e+03
-1.261507484538634117e+03
-1.118223591834371746e+03
-1.200746134116692247e+03
-1.526124237261015651e+03
-1.919586220701018419e+03
-2.346319048486463998e+03
-2.433814970239955983e+03
-2.133688188572431045e+03
-1.892111606089261159e+03
-1.546851503654743965e+03
-9.588932629428766177e+02
-3.624407339718248409e+02
-1.047328072520917175e+02
-2.189066300909349820e+02
-2.890145285056929652e+02
-8.726109305890369683e+01
-2.808251185120516880e+02
-1.082870305993299098e+03
-1.516544354541581924e+03
-1.299919522019765282e+03
-1.255101898775303653e+03
-1.110289126053229893e+03
-6.236545939810839627e+02
-7.163621717584663884e+02
-1.530586659742528127e+03
-2.100597340861821067e+03
-4.110607282723231947e+03
-7.373727003709040218e+03
-9.664078248513604194e+03
-9.003765657047997593e+03
-8.627848119361686258e+03
-3.999454086208658282e+03
7.813940193152492384e+02
1.591713532703344981e+03
8.502370684609503542e+02
9.729381773110467293e+02
6.378340054055054225e+02
1.347404191739183943e+03
9.948584696628436177e+02
5.532699235464682488e+02
-1.196660828021290399e+02
5.769681714958081784e+02
9.451530020380851056e+02
5.297935865608903896e+02
8.938102467011125327e+02
1.540177321813331446e+03
1.353758668194040638e+03
6.874361566642870685e+02
9.401968359511936342e+02
1.471070192800385939e+03
1.838079970009082672e+03
2.378212088674366896e+03
2.771327292456244777e+03
3.589389230991849217e+03
3.681437618472549275e+03
2.580244087112412217e+03
2.441690280691935186e+03
2.689944412135334915e+03
2.393938235132620775e+03
1.825593552394974040e+03
1.743945084244484406e+03
1.747995651519233888e+03
1.840815663429149481e+03
1.904417165525376959e+03
1.552764125520735888e+03
1.279915479640054400e+03
9.448466395443161900e+02
1.485427104970563050e+03
1.638509017267135505e+03
2.077181841257753604e+03
3.027600925142044161e+03
3.933892403228054718e+03
4.017074767812988284e+03
4.184104390018452250e+03
4.333026885693444456e+03
4.256898086615929060e+03
3.479791215264443508e+03
2.683813662583585938e+03
2.282888567050721122e+03
2.011005341002581645e+03
1.643191721064650665e+03
1.159687438613350650e+03
1.362620669688270254e+03
1.321000532576077831e+03
1.392699840345051825e+03
1.308583088296191818e+03
8.634328864845296039e+02
3.474212620292969405e+02
6.578304841430368697e+02
1.095686329105115192e+03
2.673094782858213421e+03
3.191111272120371268e+03
3.480847763788968223e+03
3.603384296155115408e+03
3.390711012734128417e+03
2.848860856348383095e+03
2.173820508884987703e+03
9.247208353253461155e+02
-1.120321196400587723e+03
-3.504240958319237507e+03
-2.261841280373083123e+02
-2.206827658804713792e+03
-6.417893204639019132e+03
-9.154326397611384891e+02
-7.806895831743294139e+02
-1.050607104772572256e+03
1.967962657067282862e+03
1.664999951053167024e+03
-1.189485659085437874e+03
-6.144108880797234633e+02
-1.743643076406386626e+03
-2.563092090466662285e+03
-1.177085240351761115e+02
1.003569089307446006e+03
1.718388405773985426e+02
2.033160048668291211e+03
-2.363862057507242866e+02
1.045194353334139805e+03
-1.596084508646982158e+03
-3.317126694286032034e+03
-5.039927603884676500e+03
-5.258486417346895905e+03
-5.276921375317360798e+02
-1.859439258094261504e+03
-3.645748617036509586e+03
-7.025822700717694715e+02
-8.328672669981509671e+02
-2.160610385543679513e+03
7.521779677049066777e+02
-1.560519969303324615e+03
8.203461451809450864e+02
1.208858053736709195e+02
-2.078801833820440152e+03
6.632690101018359883e+02
2.693071904872600498e+03
2.453686533269087249e+03
1.728157380753947109e+03
-1.800562854357458946e+03
-9.443880231071043454e+02
3.856798548624105365e+02
8.496187423620397112e+02
7.305149572816195587e+02
4.944204319230213969e+02
4.993718463453640197e+02
6.133843556064380209e+02
5.174583404687928123e+02
6.015910836567885553e+02
7.746957090479993440e+02
1.218771761152326917e+03
1.019854157279026936e+03
9.311093620455474138e+02
1.241751538663216252e+03
1.323931388302580672e+03
1.595310458026931656e+03
1.664853503994076164e+03
1.654635951873020076e+03
2.130010544155958087e+03
2.153967839433157678e+03
1.838371563683098202e+03
1.863851500343941325e+03
1.643440496971915536e+03
1.352699867736646411e+03
1.218904124361272125e+03
9.966112811640131213e+02
5.210408359087223289e+02
-2.846621430577333285e+03
-3.369101743146424724e+03
-2.392571102555662947e+03
2.272234011468784729e+02
1.291311024344378893e+03
1.489193649269030402e+03
1.184825857855230197e+03
1.353929616744868781e+03
1.765209304901054566e+03
2.055369146359279512e+03
1.979871251137653189e+03
1.219837529541614686e+03
9.721882005430127265e+02
6.429499654155559938e+02
3.009110693595255839e+02
5.929533181107178308e+00
3.555160411272852627e+01
2.356114541582842321e+02
2.691256258620935000e+02
-7.422896564415700027e+01
-1.308233878159642529e+02
-3.776505436226786401e+02
-4.533896999539452111e+01
1.849564336180122268e+02
5.490201840434668838e+02
7.350532012081175708e+02
5.119524002934230111e+02
4.904470019333820119e+02
1.417543539249166315e+03
1.431295338434652876e+03
1.066771398260141723e+03
7.210884719993701992e+02
1.512301786796102192e+02
-6.685947329440928399e+01
1.547513100363617013e+02
-3.095792740204570137e+01
-3.670135830482457777e+02
1.665257997013159184e+02
2.095990981494014704e+02
1.342007523053196678e+02
-8.970197577583149950e+01
-4.161020269937841363e+02
-1.300213317546846383e+02
1.225428947680205027e+02
2.535532665345781425e+02
6.849794292036809793e+02
6.069387156440222952e+02
6.413359906758233819e+02
9.312242152871351664e+02
1.488668355518591397e+03
1.316716794893058250e+03
4.854196063648757900e+02
-1.852372414663116444e+02
-5.123674788175503636e+02
-2.412979080141552913e+03
-2.048060589771467221e+03
-2.039509486940072293e+03
-8.602423488340085896e+03
-1.002188542965908346e+04
-9.221921660895814057e+03
-8.585483708509893404e+03
-7.011522226699898056e+03
-7.535883382952722059e+03
-8.622292906746401059e+03
-7.783249451371872965e+03
-7.758656498600272243e+03
-7.942290567911410108e+03
-7.767999320746559533e+03
-6.810990386443636453e+03
-5.536375243887772740e+03
-4.249335285702512010e+03
1.000273439404399710e+03
2.190835224348740212e+03
1.380281969845473213e+03
1.059561383777448327e+03
1.420721876871564518e+03
1.290672267279012658e+03
1.246360831405409499e+03
1.064896891995155102e+03
1.319167373999127449e+03
1.288074299462587760e+03
1.603560664312942436e+03
1.998712136868281050e+03
2.106716836760810111e+03
1.782438750140768661e+03
1.391916301549585114e+03
1.855319237297288510e+03
2.097615535684080442e+03
2.079826250299622188e+03
1.904008112885250966e+03
1.593052518739116294e+03
1.465944793257675428e+03
1.353801557675278445e+03
1.019586410232207754e+03
5.133290738344683177e+02
-8.189888431741570685e+01
4.109053490587273814e+02
2.827222550507730716e+02
3.775822137678540003e+02
4.204994788873014500e+02
3.633996573912731947e+02
6.733248441934730408e+02
8.483593340522958215e+02
7.285130844291699077e+02
6.928091757216687938e+02
8.672948866994686341e+02
1.250062224164475992e+03
1.825122571657087292e+03
1.722497378108615976e+03
1.703265761712192898e+03
1.547371941501647370e+03
1.269701074282074615e+03
7.013614701349093821e+02
-4.543675797208505429e+01
-4.477277180748656633e+02
-1.306090713374228187e+02
-2.191289593233948665e+02
-4.372352071057003400e+02
-2.153839649675767589e+02
1.166447806728448100e+01
-1.772129672412526133e+02
-3.131767618136631768e+02
-5.061774320913949055e+02
-2.784964746361491166e+02
8.360466474626889521e+02
9.424831012307876676e+01
3.561117747537257401e+02
7.706474513311471810e+02
-2.222949560324462254e+03
-1.250855566767466144e+03
5.811237744505700675e+02
6.531223222803081399e+02
4.313426281329481782e+01
9.994528877119194021e+01
-1.164418043667514837e+02
-5.210449789017404782e+02
-3.819102360467446715e+02
-3.660041524011620027e+02
-3.723325713226214475e+02
-1.529107767777007894e+02
-9.557379048185493957e+02
-1.124721776558799547e+03
-4.918127655939954366e+02
-5.680731726960730157e+02
-5.984857097999214375e+02
-3.730667542692556822e+02
-4.468245914643073888e+02
-2.685753385894893768e+02
4.367081985443588223e+02
7.809330692219049297e+02
5.479606421594598942e+02
2.797259628095681023e+02
-4.426414573434715294e+02
-8.471675698826353482e+02
-1.036840975587583898e+03
-8.527389763929564879e+02
-8.049703572435093974e+02
-1.024566641628042134e+03
-7.624487284113075702e+02
-9.066577857400627636e+02
-1.047175961823993021e+03
-1.338029372728016369e+03
-1.209349148815109402e+03
-1.019230204528486638e+03
-9.265412091663027923e+02
-4.172485950583090926e+02
-2.543624199659477085e+02
-4.086372030492205454e+01
5.992639779355272367e+02
5.639729903144773289e+02
4.842592756888789722e+02
3.405470868404368190e+01
-2.386600229729555736e+02
-3.767168222125798707e+02
-3.182795020131731007e+02
-5.623420374369769661e+02
-7.259636306430910508e+02
-4.362606755768798621e+02
-6.201772188581866203e+02
-9.456668355125448215e+02
-1.697778612641171321e+03
-1.521511682715679399e+03
-1.759973742749982193e+03
-1.280146104920761218e+03
-5.431186420042564578e+02
-4.129713407619357781e+02
-2.377952094476600280e+02
3.984389685719760337e+02
8.147916768140289605e+02
1.100162064801365887e+03
2.244022097328186192e+02
-2.600032244612609702e+03
-2.807428424580341925e+03
-9.745759470949031993e+02
4.986934670943521724e+02
4.982907789550395705e+02
5.596591573625141791e+02
3.149709772445048088e+02
2.679884247363227132e+02
4.755765790954345107e+02
3.822402521723779500e+02
3.705617720898974312e+02
2.719944283315628581e+02
5.146620401117140773e+02
7.926819680865615965e+02
1.030505708124745070e+03
1.353573363254796504e+03
1.499391096905002541e+03
1.341019429953191548e+03
1.465482398387379590e+03
1.438397938577551031e+03
1.381837215162988741e+03
8.979232818276409489e+02
3.363496343606120149e+02
4.804476137777321014e+02
7.908489821467686625e+02
9.270363161960365233e+02
1.137880296866743947e+03
1.152861039712685852e+03
1.376784957684263645e+03
1.061660390917000086e+03
6.757032375740518546e+02
7.576405170724666505e+02
1.408277229050176857e+03
1.789196417308161926e+03
1.803755526117229238e+03
1.748865702429721296e+03
2.328736731913218591e+03
2.443396021219169597e+03
2.889121456872679573e+03
3.003574964209776681e+03
2.646535378304691221e+03
2.114392581187448741e+03
1.834279853542366936e+03
1.889000724221643168e+03
1.728484711349361305e+03
1.754724944408958891e+03
2.183718216661953193e+03
2.210383891399772438e+03
2.112485236846231601e+03
1.968938012618950324e+03
1.962932041561653250e+03
1.982480512595746177e+03
1.842504476653967686e+03
-3.150381423828927154e+02
-3.749000273139831279e+03
-6.809352799682101249e+03
-6.613229812374456742e+03
-5.712649827557375829e+03
-5.397553077131317878e+03
-5.238861761948528510e+03
-5.195620712651568283e+03
-5.615901702664370532e+03
-5.283720578113880947e+03
-5.067069006913027806e+03
-3.016674859429740991e+03
2.402650600839639537e+03
4.211020242739318320e+01
-5.518606012161461877e+03
-5.935709406567790211e+03
-5.662443267632223979e+03
-2.924676441623271785e+03
1.401698804393631235e+03
3.530744726169942624e+03
1.894559467276397299e+03
-4.276866938877730718e+03
-4.950457431246790293e+03
-4.707227352064381193e+03
-4.591065533746364054e+03
-3.915927033228079381e+03
-4.429487657592449068e+03
-4.667519339612206750e+03
-4.909282396854626313e+03
-5.187868352900833088e+03
-2.273269801820545126e+03
3.187375814018002529e+03
2.913071492291803679e+03
5.182688889641371333e+01
8.928648367434303736e+02
2.072234549105423412e+03
2.196669287939092101e+03
1.238175048388933874e+03
1.105816566548510536e+03
6.468744946036038073e+02
1.334788849520122938e+02
-7.495338738746199851e+02
-1.095184409725198520e+03
-5.514219636216686240e+02
7.558428158549420459e+02
2.144623191472689996e+03
3.364899311509356266e+03
4.188682976368769232e+03
4.711116478146940608e+03
5.218083857259098295e+03
5.054748022246091750e+03
4.341375014775362615e+03
3.648035579712305207e+03
3.717585922048059274e+03
3.543027043592356222e+03
3.200695981181391744e+03
2.320601083377759551e+03
1.243699871666021409e+03
1.363659600226679686e+03
7.444418707618370945e+02
-4.981627277383233832e+01
-3.179989954385117130e+02
5.288578081755196081e+01
9.691537237784993977e+02
2.012074102180400814e+03
2.201560504317294544e+03
2.078471143052850039e+03
1.438693183061061973e+03
1.309097334150006873e+03
1.412967447132180496e+03
7.620106850204886086e+02
-5.458702977375846785e+02
-1.695232193295766137e+03
-3.562100768618251550e+03
-4.665420619949666616e+03
-3.869969558573797258e+03
-5.207691364097291626e+03
-5.144817039271946669e+03
-3.687129890945141597e+03
-7.763494037877590017e+02
5.316083229222468844e+02
9.257432333146422820e+01
-2.920283524290067817e+03
-4.771803400723592858e+03
-2.327948228495587500e+03
-4.718814716068671942e+02
1.184961360886423790e+03
3.236174353311093000e+03
3.020595767259823788e+03
1.983820859752607930e+03
3.052827939835750385e+03
3.555552623054384185e+03
1.910918625172187831e+03
1.989298028035557593e+02
-7.410340782052002417e+00
7.130360360723126405e+02
5.004949838534413971e+02
1.649967340224619363e+02
8.889841140080131936e+02
1.040435599430134744e+03
1.642133131127400929e+03
2.803187319471088358e+03
2.719422972452637168e+03
2.228742691063120219e+03
2.684393171929414166e+03
2.813889045577438537e+03
2.878656369415305107e+03
3.382858033578045251e+03
3.595424469537842924e+03
3.120261713904398675e+03
2.959440636827406706e+03
3.132058203100911214e+03
1.955378312470108085e+03
9.243890914770048539e+02
9.079454148034982381e+02
8.730939802538126742e+02
5.506204635676936050e+02
5.879745056562833838e+01
4.350562240691431271e+02
1.061407293605853965e+03
1.378176004545674914e+03
1.752368305404724651e+03
1.299078511438948453e+03
-6.298864975921867426e+02
-2.063601088598898968e+03
-1.047000272034227464e+03
-1.000248713653145671e+02
-1.277493876147016636e+03
-4.860527899667327802e+03
-9.072558716442605146e+03
-8.954390510000332142e+03
-7.866499831032653674e+03
-8.328210751846972926e+03
-8.461455981939630874e+03
-8.366270873828865660e+03
-7.040606395881522985e+03
-1.320547931556336607e+03
-8.842235858916085363e+02
-2.322622430284175152e+03
-3.418852765521478432e+03
-2.788982844486648446e+03
-3.577855926026854831e+03
-3.149903158570279174e+03
-1.067183611805130568e+03
9.235634509284095657e+02
1.753332341303157136e+03
2.505083050927345084e+03
2.168575190325489984e+03
1.808951430732296558e+03
2.192329479825370981e+03
1.603572803609537686e+03
-1.778450094677567677e+02
-1.592886613357872193e+03
-1.730731646368043130e+03
-1.316622257218810773e+03
-1.438777525206086239e+03
-1.435396840916380825e+03
-1.054634620982852539e+03
-1.422285768500921677e+03
-7.340769149557872879e+02
1.487023043592841759e+03
3.502940288075919398e+03
3.505710544206441227e+03
2.180409772021500885e+03
2.923886241418509144e+03
3.707051844216142854e+03
5.147977510434687247e+03
6.029718888893899020e+03
5.222219640155510206e+03
3.884508383599947138e+03
3.341599297681310418e+03
3.268348539422782324e+03
3.311838779711440111e+03
3.628043678593693130e+03
3.135968634008608205e+03
1.557645769106558873e+03
8.810939079339216278e+02
8.693570382665679972e+02
9.814120153859528273e+02
1.422406774313314145e+03
1.582434564083745727e+03
1.119391039881639017e+03
1.040177013361825630e+03
2.988420883532496646e+02
-8.283183784384851833e+02
2.727020805856475363e+02
3.917525652387782316e+02
7.548783932726549892e+02
8.750563066115940956e+02
-4.765709327822560795e+02
-1.506922349329005328e+03
-1.986120093595324533e+03
-2.004279350962787021e+03
-1.332354683201349189e+03
-3.745241763735045470e-01
1.552805650146548714e+03
2.560185865479725180e+03
3.023768034094888208e+03
2.351731857074224990e+03
1.888168697667459810e+03
2.320889196954184172e+03
9.257750197516984372e+02
-4.016331486208531260e+03
-4.294952086413240067e+03
-1.758814306484951658e+03
-6.919669485988174529e+02
2.083389662426212112e+02
-2.816103579443434228e+03
-5.009136153944017678e+03
-5.314880838885708727e+03
-4.547287324749775507e+03
-8.493300795300869140e+03
-9.134846248023692169e+03
-1.210774035504210406e+04
-1.087815731885911009e+04
-6.923173422653659145e+03
-1.035693620329827536e+04
-8.674367491141738356e+03
-1.703490302428505629e+03
3.839650605066227854e+03
7.690088641645797907e+03
2.758040364577155287e+03
1.290635167813009275e+03
1.356965686103183771e+03
3.281964311244827513e+03
3.246511962886532729e+03
2.264838397833430577e+02
-3.231199512626896535e+02
5.604771782369945868e+03
2.745089897008774187e+03
3.503895938363059486e+03
4.922861277974575387e+02
2.263046254708262040e+03
2.274089118774657891e+03
4.090409075446703810e+03
6.879782934796164682e+02
3.107727426470242335e+03
2.910708104805914900e+03
1.605890571391264075e+03
9.942943067674917756e+02
1.959269666287547693e+02
-3.171021068745238267e+02
-1.063902516952088718e+03
-4.175656280732610867e+03
-2.961330265339102880e+03
1.873046454615796392e+02
1.408191467003548269e+03
2.410237440241670356e+03
3.963328144129508019e+03
5.901456022839824072e+03
7.636506460980705015e+03
6.720458528245168964e+03
4.843216464513681785e+03
4.629837295879749036e+03
4.733283971622013269e+03
4.275551474672386576e+03
2.908620995705387486e+03
3.606542471323478367e+03
4.780207671528405626e+03
4.239763304700858498e+03
3.866045432725680257e+03
3.770209496555974511e+03
4.292190301344832733e+03
4.572936010680454274e+03
3.459524020457781262e+03
1.483214100313991594e+03
-1.019315042791607084e+03
-6.034789933348844215e+02
2.129606849333824357e+03
4.584684666023770660e+03
5.705223468889551441e+03
5.656389996986896222e+03
4.226811262426082976e+03
2.827486666119080837e+03
1.506533991042922707e+03
-2.058788890071793105e+02
-8.041464008116633977e+02
-1.731522057109722709e+03
-2.221532750850602497e+03
-3.889466224164960749e+03
-5.771285039042260905e+03
-7.583074129099075435e+03
-5.801012360882700705e+03
-6.809446799943904125e+02
1.658168897264219595e+03
3.261345657341084461e+03
5.273519032947506275e+03
5.286206279957753395e+03
4.438085464114992647e+03
3.303645501848546701e+03
4.407361011179394154e+03
6.803724384155143525e+03
5.494348501059381306e+03
3.652243307000585901e+03
1.594461621332517097e+03
2.078996992966816379e+03
4.319854633183646911e+03
5.545067726588281403e+03
5.423700693022923588e+03
5.017637509303925071e+03
5.210777534636617929e+03
4.746057871334416632e+03
3.612436419354463396e+03
2.287937228353946921e+03
1.665597538009594018e+03
-1.666546777740006519e+03
-3.135468371396380917e+03
-2.166092450856849609e+03
-5.663682029137798963e+02
-1.386263213306814350e+03
-3.201784937972438911e+03
-4.349182748924952193e+02
2.804313675796478037e+03
5.811002941764182651e+03
4.748196448050915023e+03
1.768898118460682326e+03
-4.707233636664262235e+02
-1.851661571885658077e+03
-3.861898049225431805e+03
-3.123455391612921630e+03
3.997264858799515537e+02
3.193672042815564510e+03
4.540463013748688354e+03
2.054187259231291137e+03
-1.144004365601531163e+03
-1.889091493209006103e+03
-1.363991741705829099e+03
2.236472100226061229e+03
8.434083916952416757e+02
-1.624088715969419582e+03
-2.913863077943063217e+03
-3.876932105718505227e+03
-5.501060487290406854e+03
-9.164074803018875173e+03
-1.185314819755705139e+04
-1.178632961232969501e+04
-1.034464614174028429e+04
-1.016799341906962400e+04
-6.998112537092308230e+03
-2.776010171794466714e+02
-3.953613264561253686e+02
-6.864606872734397257e+03
-9.422267835517197454e+03
-3.793256504077297905e+03
1.769431332689005103e+03
2.375126907295597903e+03
2.820064777784037233e+03
2.174190335565720488e+03
6.437413626947998182e+02
-1.660987014507573349e+03
-4.248957350869141919e+03
-5.465181874662776863e+03
-4.034633349450148671e+03
-2.306174056934208238e+03
-8.529663120280361909e+03
-1.603501730860547650e+04
-1.448004096213830235e+04
-1.115262219728119453e+04
-9.653728408992070399e+03
-9.373127801804968840e+03
-5.177667109319138945e+03
7.993706830013641593e+03
1.654512044900596811e+04
1.524373770565323866e+04
1.253264800706639107e+04
9.119022817994635261e+03
5.311995899765745889e+03
2.268688994246253060e+03
2.392323377447581606e+03
2.488088326864681676e+03
1.159030195778641655e+03
2.691462333615650095e+02
-4.172474081778194886e+03
-5.645637363358656330e+03
-7.012856711839880290e+02
6.484545801960764038e+03
6.532982099412225580e+03
6.291130955192576039e+03
7.771071357726173119e+03
6.985945530414744098e+03
4.981981136462154609e+03
3.185263150822326679e+03
1.621683608597900729e+03
2.794252952885492959e+03
3.671203892893669035e+03
-1.699200246642492175e+03
-5.715420626744597030e+03
-2.428605279807406077e+03
-2.595819984959612611e+03
-2.012869738879213401e+03
-1.482679387393154002e+03
1.087104114229534559e+02
1.710233208005882489e+03
3.436782926944834344e+03
4.082478817547232211e+03
4.721175068349353751e+03
5.138823726433279262e+03
4.000388504644005025e+03
6.992936126772156058e+02
-2.787639480829056993e+03
-4.978693762338895795e+03
-8.587865899018959681e+03
-1.303515661932345211e+04
-7.772623873373281640e+03
1.076822289572317459e+03
3.651862326483295078e+02
-2.475635811720886522e+03
1.023487895277708503e+03
6.661703177111733567e+03
1.034793824706086343e+04
1.243506258752706344e+04
1.319699092471616859e+04
1.078166247694040612e+04
5.622016074359817139e+03
