2.529427171333819331e+02
4.755630820190593795e+02
5.390291478711176296e+02
8.624443233453094990e+02
1.067821301696733826e+03
1.148180920534326333e+03
1.300515256785344491e+03
8.417982113514214006e+02
7.070469162816417565e+02
7.422220252300373886e+02
7.583373306735222741e+02
9.994103038074446204e+02
1.048443794864398342e+03
9.244532323037278729e+02
7.423968334864389362e+02
6.722945371776881984e+02
7.310790502514125819e+02
5.376808326987542159e+02
-1.788652211494516280e+02
-2.084019345538738435e+02
2.734891485168183749e+02
8.957404055908177725e+02
8.409669559995475083e+02
6.448998134749894007e+02
7.199436135921899904e+02
4.324458770369670901e+02
-4.159165211198680936e+02
-1.660230926583192286e+03
-1.612146064026944941e+03
7.521782152831375470e+02
7.898478865485514007e+02
8.718102932506621983e+02
9.780229395866867890e+02
7.655341998243367243e+02
8.632341462796229052e+02
9.827944930999562985e+02
9.933592432458804069e+02
7.220856582674821311e+02
6.381308874652658005e+02
3.904142618528160256e+02
6.316414992089296447e+02
5.769019970532629031e+02
3.498092119570366094e+02
4.596567922197757525e+02
6.787315868477737695e+02
3.970949326413532958e+02
4.826219857212855118e+02
7.939986719589242057e+02
5.693148734791064953e+02
2.593116405291255546e+02
4.402675052686207096e+02
1.115005985028071336e+03
1.270572203966916049e+03
1.071880209117720597e+03
6.939061214067974106e+02
5.566141083984996385e+02
6.119877591693850718e+02
7.940322849158421832e+02
9.486948879676157276e+02
1.193982798590953962e+03
1.347837063914239025e+03
1.004324066281652449e+03
6.824576793209295147e+02
5.711502107024782617e+02
7.804341627949941085e+02
1.166307357046975767e+03
9.627445940895161129e+02
8.807403183715628074e+02
7.413031561498252131e+02
6.634538908012566480e+02
7.632202568559245037e+02
5.716089455475888599e+02
4.085579316112771835e+02
3.780448834342976738e+02
6.310888275972407655e+02
6.597141250638825341e+02
6.909279492164318981e+02
7.336948628179641219e+02
4.119199001456448173e+02
4.566047047031049715e+02
-3.121754856048364104e+02
-2.261402707690184798e+03
-5.146087140703843943e+03
-4.315153446587869439e+03
-3.979683890129775136e+03
-5.853760096451556819e+03
-5.997337643543372906e+03
-6.355336954975852677e+03
-6.585725571596808550e+03
-6.565573942763560808e+03
-5.894940638219218272e+03
-4.736806069492646202e+03
-3.794058772873200724e+03
4.943813388997681386e+02
1.188572887704262257e+03
1.194103605933343260e+03
1.818075181240702477e+03
-3.809579863418924788e+02
-1.422257485116497946e+03
1.631504562145592274e+02
1.148088682818778352e+03
9.136847417090119734e+02
1.159132109024231568e+03
1.606219261413582899e+03
1.393807360740229797e+03
1.373960053157504262e+03
1.796722813381373044e+03
1.706081580886668235e+03
1.448081993951496315e+03
1.524814557665434222e+03
1.646291264494083180e+03
1.701480151719186097e+03
1.757359668391244895e+03
1.247015650752965030e+03
1.216489516637163661e+03
1.042723222567918583e+03
7.337681527702832227e+02
9.846483912631695148e+02
1.193364460928122071e+03
9.999861888640468806e+02
1.104488557914523199e+03
6.138213112030338152e+02
4.940362100417442548e+02
1.073175150647058445e+03
1.183270588397286701e+03
1.923516713955133071e+02
-4.176215482786245161e+02
7.342109638467201194e+01
2.185801812634340706e+02
2.728074399846415190e+02
2.351199489928612536e+02
2.045501221006794310e+02
1.321318235524317402e+02
-7.408766641233793848e+01
1.389129785485418545e+01
3.920179625202773650e+02
1.073313687708953921e+03
1.021832326193513381e+03
7.496416634849572347e+02
6.587338647077174301e+02
4.301318984255911460e+02
2.718574739948026036e+02
3.269197052850520890e+02
1.543712682162281737e+02
-1.917774542801811890e+02
-3.155151405568508380e+02
1.612190655798131900e+02
1.113804192100424757e+02
-3.300444498795283721e+02
-5.069973976357496781e+02
-1.319152084890477681e+03
-2.072659879488784100e+03
-1.788594191705145931e+03
-1.268968460210115609e+03
-9.717689310699203133e+02
-1.785942822254544581e+03
-8.793520247574533641e+02
-6.138728112031009232e+02
-1.334933024497112228e+03
-4.633507304740920176e+02
-5.370325271928184065e+02
-7.970044590840938099e+02
-3.402808950698293984e+02
-1.878165920153696788e+02
-9.142923173323843855e+01
2.370092197895297303e+01
6.260175803902153291e+01
9.334759733216755251e+01
1.428609882639034936e+02
-2.928497446278943812e+02
-3.647811767398253551e+02
-3.039372768978699355e+02
-5.642743635570003562e+02
-6.807587187056921039e+02
-2.153870351290121619e+02
1.398652827678304504e+02
-6.404423488730711256e+01
-3.119774557629382272e+00
-8.729326807124603249e+01
-2.715828938064930753e+02
-4.170528138522785753e+02
-3.536637815962024547e+02
-7.042622302803664525e+01
3.166336013055563399e+02
8.244996351130321273e+02
8.821807301334088152e+02
3.287080299885109298e+02
2.880158984583702590e+02
3.710713996875111320e+02
4.779719060495318104e+02
4.777265486919829414e+02
2.332809693103715745e+02
1.216370562997361162e+02
3.757752877230832382e+02
3.286627425200680364e+02
-1.147638185284570795e+02
-3.204564161727818146e+02
-2.974431286248340598e+02
-1.673756823829823759e+01
2.746782146987750934e+02
6.407343326259168634e+02
8.373993863256260965e+02
4.566201972438302050e+02
-1.496113525622618567e+02
-4.113225924543055498e+02
-1.735615387195492474e+02
4.576852976153447372e+01
-7.424784622063643269e+01
-1.857933486507326961e+02
-1.149896730328732019e+03
-7.545098773449609553e+02
-8.563729990127949065e+01
-2.022533973715949287e+02
-3.234246136902081048e+02
-1.222933400025059711e+02
-2.694013820684208227e+01
5.274592858851796251e+01
3.707977631359951829e+02
2.471950660039829017e+02
1.590098242998599574e+02
-5.748606354727703547e+02
-9.283704599907390502e+02
2.034459628359773262e+02
4.087823258014794305e+02
3.294551885875868606e+02
2.009398354006726493e+02
4.035491215999779229e+02
5.501817784936066573e+02
5.889740080445257036e+02
9.307584593439615901e+02
8.122361461551352022e+02
7.244258155583848975e+02
8.553427579617381298e+02
4.949905942077828058e+02
3.225852931298172734e+02
9.120172912457121583e+02
1.059507246940614550e+03
9.891606555615109073e+02
9.454539729867702818e+02
8.023182469764874440e+02
7.215689064258370991e+02
1.181130740228367586e+03
1.405283292263593466e+03
1.428936517998419276e+03
1.515121183442788379e+03
1.373816438739168007e+03
7.511148771833519504e+02
7.039885462271337246e+02
7.202337775711008589e+02
1.311063406727834717e+03
1.589141351623373339e+03
1.598155226785430614e+03
1.621590351584138944e+03
1.697311512571491903e+03
1.759195631649335155e+03
1.197384574830267411e+03
1.164748326657735106e+03
1.310180818356547661e+03
1.189635922927743195e+03
1.508071185536104849e+03
1.466427875539412071e+03
1.369700420985062919e+03
1.587899088283262245e+03
1.514020161725647768e+03
1.595116240341361390e+03
1.642134489119562431e+03
1.765096657850066549e+03
1.627936975044347491e+03
1.506626098695950759e+03
1.787181902784098611e+03
1.622630660834577384e+03
1.371940345954807981e+03
8.850905396990497138e+02
-9.829170003937560978e+02
-4.216063841942795989e+03
-6.357312339182702999e+03
-2.798740376963283779e+03
1.456641477168192978e+03
1.249816015514832998e+03
-3.300178810343973055e+03
-5.656343752822634997e+03
-5.930683034725169819e+03
-3.551164487490523697e+03
-2.493781538045281650e+03
-3.820361611289469238e+03
-5.349954461172818810e+03
-5.075804792106011519e+03
-5.142771680938812096e+03
-3.212817307036284092e+03
1.153077115974145499e+03
1.734936767543073074e+03
-2.856229102091965615e+03
-5.356384657632020208e+03
-5.762500416112918174e+03
-3.808519883229747848e+03
-2.549447708230258741e+03
-5.231248366595392326e+03
-5.614912978238829055e+03
-5.594439258537667229e+03
-5.431787879201498981e+03
-4.958980162619552175e+03
-5.130006917878650711e+03
-4.826809362468552536e+03
-1.750332184724570880e+03
1.431445157425529032e+03
5.796060448075550084e+02
2.192255746184413965e+03
2.083371778928309141e+03
2.572877284710852564e+03
2.530789918625498558e+03
2.738176806703159400e+03
2.705146600546053378e+03
2.492800114061942168e+03
2.660158933776179765e+03
2.520216371393476948e+03
2.481989198376435525e+03
2.069542117112974665e+03
2.086993335863792709e+03
2.105531697832157533e+03
1.989150779409831330e+03
2.159712701560094956e+03
1.893179674462878211e+03
1.800520501070821865e+03
1.889895475342799273e+03
1.807368422615288409e+03
1.690928038363007545e+03
1.679650681492104695e+03
1.576535612830381069e+03
1.630528219096955354e+03
1.660700118634804539e+03
1.464126177296885544e+03
1.226768525981204903e+03
1.155625227954624961e+03
1.093794736960243881e+03
1.174298296449072268e+03
1.301147376728496056e+03
1.449324058002317088e+03
1.307902730085119856e+03
8.420691282548228855e+02
1.435983754644499413e+03
1.555726484327633671e+03
9.203852801906656396e+02
2.811219364084633980e+02
3.127227656629905823e+02
1.059292504343446808e+03
1.166964983720799410e+03
9.587709481370942513e+02
2.636520238331535211e+02
1.673853368462038418e+02
5.750607618455819647e+02
7.604952695530960227e+02
-6.141309023368688713e+02
-2.790861639283638851e+03
-2.205962717474251349e+02
4.792634904134871476e+02
5.303683539311737150e+02
7.412778874484042717e+02
7.031487982535559240e+02
2.841023002233359875e+02
5.040437239292772347e+02
8.849558419715946229e+02
6.088681883063336500e+02
4.957018541927383808e+02
1.984806540618407951e+02
-1.698375348100781821e+02
-1.631677573565496076e+01
1.179134431010815831e+02
2.248658044296040259e+02
-1.293135648783434135e+02
-6.654290410893818830e+01
-7.687455962502652085e+01
-2.054147624788876101e+02
4.506723810570017719e+01
-4.728572927858777319e+01
-3.256819212410222235e+02
-2.811532872920452633e+02
-1.360798844191185530e+01
1.309154851879409591e+02
9.434706576044669646e+01
-1.964352929733854580e+02
-3.224805149656240815e+02
-9.175057220431892802e+01
-2.721519153944038294e+02
-2.697023115346696045e+02
1.553927311547895158e+02
8.811588710257082369e+01
-6.043379026157332135e+01
-8.320500524630834605e+01
1.917384349556252232e+02
4.232740442145929478e+02
4.413651288366108929e+02
1.001117451440403272e+01
-2.077918985524432287e+02
-3.211003494453113376e+02
-2.418786380207983484e+02
-2.551431178782782467e+02
-2.859232736568708901e+02
-7.171860803877970056e+02
-6.739518557297656116e+02
-3.502815058565759045e+02
-4.001760903303178907e+02
-3.425608210022880940e+02
-1.194176033913223165e+02
-9.879238785931471512e+02
-2.990098661979007829e+03
-4.443994016550552260e+03
-1.298650094766339862e+03
1.539677089760493516e+02
3.229676245198601805e+02
1.772359141359328589e+02
-1.337092109112240301e+00
-5.277825454535646088e+01
4.190417517915048506e+01
-3.638805072207117774e+01
-8.504762708288641306e+02
-5.424128887257124916e+02
5.754036789639715721e+01
9.646370126615124718e+01
-2.864556898152620690e+01
-2.238595590683349315e+02
-8.523099274045272011e+01
-8.778066197025998463e+01
-2.265227299201262952e+02
5.556203460737159361e+01
1.954399762160068406e+02
1.630880623671388321e+02
1.395334242629459993e+02
2.177048937605129311e+02
1.895447530887423682e+02
2.190770569679869482e+02
2.333331821885214481e+02
2.212495197652054060e+02
1.357940263103895688e+02
1.239858985001600331e+02
-2.817986694893555111e+01
3.452458128298634392e+02
5.032794077188866595e+02
6.629127228619037169e+02
5.121134555130760191e+02
2.059008602277336593e+02
2.223044058013037727e+02
2.802639027518777652e+02
5.077645457593249034e+02
6.218244659020139125e+02
6.663868349703260492e+02
6.704604381758830414e+02
9.800725655929044251e+02
9.661871704849947946e+02
1.003819746014830116e+03
1.236009510064098549e+03
1.313725599614278508e+03
7.379626252826124073e+02
5.717616782302845877e+02
5.961026515292746808e+02
7.179424313015972530e+02
1.041247800535726128e+03
1.089042329452379590e+03
9.183324027290104823e+02
6.651289562166446103e+02
5.594614480114064463e+02
2.383583879237053225e+02
-6.141624243078955487e+02
-1.320141184976745990e+03
-1.237608432258399716e+03
-1.322496472738562261e+03
-1.999836256787117918e+03
-2.382524383746624608e+03
-2.040632356243127106e+03
-9.961784546633032278e+02
-8.111255262111440061e+02
-2.326445308970304268e+03
-4.110102407359650897e+03
-4.591005402773799688e+03
-4.564152006533186977e+03
-4.575625981744739875e+03
-3.965436652828247588e+03
-4.147497789045174613e+03
-4.199745835421829725e+03
-5.390205346593927970e+03
-1.723983751422499836e+03
9.219691065915291119e+02
-2.783214084667324641e+02
1.685159464765278472e+03
2.274391561029416152e+03
3.188391757395200329e+03
2.416216626877905128e+03
-1.548135960049488403e+03
-1.657648583502905467e+03
-2.218306123655251668e+03
-3.377104733860578563e+03
-4.956970509427096658e+03
-4.997884471527632741e+03
-1.079900469653707432e+03
-1.449913137976444659e+02
1.156867996579128203e+03
3.707827294327272316e+00
-6.204649670501089531e+02
-2.565668486305843089e+03
-2.287923551213751125e+03
-3.191211040552654595e+03
-2.767507549883596766e+03
-2.288805448756231272e+03
-1.030103618138390402e+03
-1.541312663858694123e+03
7.655374070674274662e+02
3.177456257032577014e+03
1.267402228668256839e+03
-9.446019591573119669e+02
1.520459148935151461e+03
2.144612543681818352e+03
-2.831542173937420444e+02
1.331162827878268672e+03
3.009625580143750540e+03
3.682195550899269165e+03
3.855847187498415224e+03
3.637587204136199489e+03
3.147407046280820850e+03
2.655340827348688890e+03
2.329394084076095623e+03
2.212533659492532479e+03
2.316785840882810589e+03
2.167100459850164043e+03
2.674498078841054848e+03
2.532979635090951888e+03
2.379576210936061671e+03
2.415292426226898897e+03
2.771012635503787806e+03
2.762680822121223173e+03
2.639245476465221600e+03
2.732858602150861316e+03
2.881870414054905723e+03
2.942465344850873862e+03
2.580893196505300693e+03
2.625416327048114454e+03
2.750681585920878206e+03
2.753923156420261421e+03
2.498223133650210912e+03
2.328703347473457143e+03
2.046438370681983542e+03
8.492217556913990393e+02
9.451190407053253466e+02
1.505455043638650295e+03
1.496188315812469455e+03
1.075650265951994470e+03
9.511277463127570400e+02
8.985807430815242469e+02
5.760168525721627475e+02
3.703036069350106914e+02
4.114663063249394668e+02
4.997187340664143562e+02
7.761384033374375804e+02
9.052840187775431104e+02
1.024083734224223917e+03
1.525030899805318995e+03
1.538957585713422077e+03
1.524723189724113354e+03
1.173276622976824683e+03
6.225641854795578638e+02
-2.343631821289243646e+02
-5.795604238254607026e+02
-8.601569449109249490e+02
-1.065179785040015986e+03
-4.317290421664431506e+02
1.240665920658363746e+02
-8.078467009759626194e+01
-1.063361237971072342e+03
-2.287666288203725344e+03
-3.106726947918147289e+03
-3.029568641511862552e+03
-2.951208671961364416e+03
-3.322703792657779559e+03
-4.104054830637851410e+03
-4.574277156305814060e+03
-4.062373534608090722e+03
-1.776368166031960300e+03
4.736896215501516281e+02
9.997726875151865897e+02
9.738692578706120457e+02
2.330109837364170460e+02
4.461493618539213912e+02
1.225284691172841121e+03
1.440397555524918744e+03
2.363454457631140940e+03
3.247434068632999697e+03
2.732386430347191435e+03
2.594268022810468665e+03
3.145065187695025998e+03
3.168821261412392687e+03
2.464520592477223545e+03
2.527160427744631761e+03
2.463699033882082404e+03
1.609129845807994570e+03
1.314801815531082241e+02
-2.222255518828817458e+03
-4.798085531279581119e+03
-8.072978965977740700e+03
-7.661995821981644440e+03
-6.671071159879706101e+03
-6.195165310326216058e+03
-7.461279419018935187e+03
-8.278430663816254309e+03
-7.683660523339267456e+03
-6.551911759857242942e+03
-5.416217576359219493e+03
-6.709614109631997962e+03
-7.302809019583317422e+03
-6.446028441758496228e+03
-6.353007725124118224e+03
-7.875641697489067155e+03
-7.860949680118497781e+03
-2.744301412768319096e+03
-6.185124168297937786e+02
-1.433567221748459588e+03
-6.364660848543215934e+02
7.628606093951985940e+02
1.620444737463521960e+03
2.726267211531892826e+03
3.810354670933593752e+03
4.194768972970026880e+03
5.595538079734430539e+03
6.255718395427946234e+03
5.940380959911747595e+03
3.999506029134073287e+03
1.769105896852913020e+03
1.006239999469735835e+03
1.279948727536273964e+03
1.942362913969017484e+02
-2.261843458829545398e+03
-2.175245047451352093e+03
-8.893920024382798317e+01
2.991434751298000947e+02
4.900481429226429100e+02
1.793791178350952578e+03
3.434395677474552485e+03
3.998908354766734192e+03
3.489375839875815018e+03
3.214866326677353300e+03
3.232429174953289021e+03
3.499076879345316229e+03
4.059872815639540931e+03
3.295840899974926288e+03
2.043961442638364360e+03
2.109326811613310838e+03
3.167004297079779462e+03
3.932041496951008412e+03
3.398455214347583933e+03
2.315271777044693863e+03
1.570567550211744219e+03
1.300414408929964338e+03
9.828356924912770864e+02
7.049299307107991126e+02
1.576968391746377733e+02
-4.748207991825669296e+02
-6.506412717302832789e+02
-7.866499465710129471e+02
-1.259835973859286014e+03
-1.795154235129997915e+03
-1.283574901437275003e+03
2.279746189269753813e+02
7.205457497474709498e+02
9.491652751124446468e+02
3.618767868217858563e+02
-3.773314906176119052e+02
-1.303353486838368781e+03
-6.689707417049182823e+02
1.463004236468426633e+01
9.547368553805773672e+01
8.756016621087802321e+01
-9.930283141225622785e+02
-1.457263749125091636e+03
4.208564313164994246e+02
1.290433237908393949e+03
8.103850340343279868e+02
8.007312933638764889e+02
8.715502397591255885e+02
1.134876641244171424e+03
8.147289477155075019e+02
4.261014585247251603e+02
1.150179332103450776e+02
2.704708735840096097e+02
3.074803689541270728e+02
3.710837801656281272e+02
5.522946327224447032e+02
3.830869014519406051e+02
-2.454918591344462868e+02
-8.283594803966047948e+02
-7.475405367252863016e+02
-6.040863387444464934e+02
-6.500018451966847124e+02
-8.172699021493459668e+02
-6.089051202203886533e+02
-1.056869111414596546e+03
-1.362202577638234288e+03
-1.709917432924234845e+03
-2.251014332304855998e+03
-2.218435543939229774e+03
-1.384202334452548257e+03
-7.893586146787722555e+02
-5.539545472931821450e+02
-6.579713779331771093e+02
-1.046446304581412051e+03
-1.199384583157263478e+03
-8.777643246425143388e+02
-1.051653100438248885e+03
-1.333040719743677300e+03
-9.979153242217171282e+02
-5.623282759842260248e+02
-3.873456005669347633e+02
-8.894280583946103036e+01
1.628306519143113178e+02
6.496093978918557355e+01
-2.475776193377917025e+02
-2.578548735668943550e+02
-5.584894469295181807e+01
1.824150624259783058e+02
1.479133988351649407e+02
1.858541338996177217e+01
2.754288057556522062e+02
4.774242551271599950e+02
2.174949448463168835e+02
3.746190829236491595e+02
-4.419422284279518465e+01
-3.529040358247756899e+02
-4.895604229026068879e+02
-6.263215885160824428e+02
-1.253321316061362722e+03
-1.883556904906532964e+03
-1.996915950093718720e+03
-1.072337184305143865e+03
-2.893166018696292596e+01
2.221697517945630409e+02
-2.761639540607091590e+02
1.459011697362976747e+02
5.557285434612615518e+02
7.900641253117807992e+02
1.125891481243592580e+03
1.228720329002356493e+03
1.211622914722623364e+03
1.100926923380030530e+03
8.294296552469301105e+02
4.889595979275816831e+02
5.583688806741481585e+02
7.956640773620728169e+02
6.391878205249978464e+02
4.357481887417261532e+02
2.591585786612710649e+02
2.978469812175241600e+02
5.446248275985356031e+02
7.952765497526314675e+02
9.154109575716208838e+02
9.941239419378341609e+02
1.357290837426940698e+03
1.595051722666437399e+03
1.488379464888090752e+03
1.540393195957163698e+03
1.546823449064206898e+03
1.535688936263372852e+03
1.555856200504443677e+03
1.167276710493989640e+03
1.159865004555223777e+03
1.123737057291899418e+03
1.154470818430531835e+03
1.206229400379877006e+03
1.263194147751628407e+03
1.188227129173262483e+03
1.408307079386827581e+03
1.493385173687718634e+03
1.585510203481385815e+03
1.756616697287828174e+03
1.871552518870448239e+03
1.820274590782038786e+03
1.514732701395547792e+03
1.498945682068758515e+03
1.593947575770777803e+03
1.709737439570594233e+03
1.757290713734981182e+03
1.911553012628409533e+03
1.577508768988120437e+03
1.464143072806855571e+03
1.490396258564066557e+03
1.741305787437690697e+03
2.187867455030946985e+03
1.629075297863627384e+03
-3.361175875017104886e+02
-3.741737298065426785e+03
-6.243820084656478684e+03
-6.195312870458311409e+03
-5.649153780428838218e+03
-6.463972681671031069e+02
1.938992795082039038e+03
2.289988733621324172e+03
1.898563264413750403e+03
-2.918262491724608026e+03
-5.706481828324460366e+03
-6.016088004326428745e+03
-5.867045558910640466e+03
-5.468198109101241243e+03
-2.678560049942454953e+03
-4.023646191844078146e+01
-4.305224046983839798e+03
-5.676456144780719114e+03
-5.175957672816486593e+03
-3.456839531956526343e+02
6.933944702722359352e+02
-3.832667241853131145e+03
-4.915847274514615492e+03
-2.866159673041758197e+03
-3.413650370411553922e+03
-5.149279184958945734e+03
-4.514958493333618208e+03
-3.628705384951323595e+03
-3.762503547018141489e+03
-4.114290340785431908e+03
-4.527041176983764672e+03
-4.620716315098682571e+03
-4.603215681374859741e+03
-2.400520820351077418e+03
1.531381445915184713e+03
1.270481684078082480e+03
2.364757410452702061e+03
2.540235510473476552e+03
2.731009150241632597e+03
2.758156053512113886e+03
3.067755226349281656e+03
3.201889622549406340e+03
3.227532545777901760e+03
3.194741917851348262e+03
3.124511155294390392e+03
3.220904453312670739e+03
3.123008498327816142e+03
3.380820655412772339e+03
3.292146733776157816e+03
2.890942542482734552e+03
2.805353434851170732e+03
2.904460173585682696e+03
2.709403195322361626e+03
2.904124487122149276e+03
2.895601484600136700e+03
2.526913216082296458e+03
2.023053863414590978e+03
2.158008165468933839e+03
2.021924329824462347e+03
1.769815736757226659e+03
1.921643586884298884e+03
1.885511847661695811e+03
2.038557899101466546e+03
1.690687687853322359e+03
1.367862363681857005e+03
1.478254174036266477e+03
1.630138425984793685e+03
1.378431261924721184e+03
1.028024214130134169e+03
8.904020261701369918e+02
1.181530352211108038e+03
1.128312762560152578e+03
7.557807988125325664e+02
5.923347453074253508e+02
5.826692560918061190e+02
6.646561503925662464e+02
-2.687454893350413272e+02
-2.915381823290555985e+03
-1.687851111170060904e+03
-3.047727586963482281e+03
-1.325961608670645546e+03
2.327358301537784939e+02
2.517083016430343605e+02
5.847583811743942306e+01
5.847106307438738213e+02
5.468917266506234682e+02
3.791533620438006551e+02
5.732061367468970730e+02
4.159311147875148436e+02
2.442808133845418581e+02
2.841936570851221404e+02
8.567384697725780995e+01
-7.221467447813903107e+01
-1.735675822417715040e+02
9.466475675585851945e+01
2.415889114726089417e+02
1.453425729364024335e+02
3.999720523513307171e+02
2.433656881348585728e+02
7.460732203886191627e+00
-1.215613764853885073e+02
-3.286001571279880977e+02
-2.768172213434102105e+02
-1.304376293945268799e+02
-1.272918651800411141e+02
-1.373975691402758628e+02
-1.059127103401205687e+02
-6.284263435265947351e+01
-1.270828663792594142e+02
-1.686267028161142036e+02
5.511221867555760490e+00
2.123162621508426184e+02
3.187871174053790355e+02
3.568780812916559171e+02
2.468271871053551436e+01
-2.017638058463288360e+02
-2.796167243907244710e+02
-2.109872756545533150e+02
-1.448476472428728812e+02
-2.960534256816732182e+02
-2.255699438247665967e+02
-3.034147895180005321e+02
-5.616319983031729635e+02
-1.319371927887037543e+01
2.779442350657127463e+02
5.658164292500094916e+02
2.033587542112631397e+01
-1.435730992431167010e+02
-3.209189660822976293e+02
-1.097398825925696997e+02
-3.790028426292009271e+02
-1.197273792137160626e+02
6.350145345243106476e+02
9.520664518338033133e+01
-2.259212983804282430e+03
-5.945198336211177775e+03
-4.169733185610066357e+03
-4.027837131330610418e+02
5.385015489925139009e-01
4.215976272058264840e+01
-4.689116425387924210e+02
-2.694514276598391120e+02
1.346046262664782205e+02
7.508398174862051633e+01
1.006236104538039058e+02
-2.486728948816130185e+02
-3.146908022230596202e+02
-1.504446835494905770e+02
3.605073644093101137e+01
1.037242107203926338e+02
1.855516533966919042e+02
2.245547904251808973e+02
-2.722292472984159986e+02
-3.558901426953468103e+02
-2.324295461083310386e+02
-2.538429844233258166e+02
-8.461715823276898618e+02
-9.504443776946774278e+02
-1.236062149079955788e+02
5.453455971121102266e+02
5.613148464200808121e+02
4.163051117221317554e+02
3.413711666183379521e+02
7.851237597988038885e+01
1.206924970015407439e+02
2.379294111033152603e+02
9.425824165056945958e+01
1.465068982175752410e+01
4.990725153537300116e+02
6.825457431163348474e+02
7.399903467714760836e+02
2.943350192604763151e+02
4.125953096609998738e+02
1.398371181411907287e+02
-1.279329915494439120e+02
4.926766968841688765e+01
-5.860338708944242825e+01
-9.454029246322654956e+01
3.994649309321064266e+02
8.734111105677534397e+02
7.292490964019131070e+02
4.409742308361400092e+02
7.658903887742889083e+01
-1.884828024954699366e+00
7.159497994398454068e+01
-1.289558396386475749e+02
1.264423574416268821e+02
2.887652992668198522e+02
4.799259151895521427e+02
4.559848363893805754e+02
6.050009306890869993e+02
2.679676217746028328e+02
-8.151081758791459606e+02
-1.161185838962657499e+03
-1.083319128813627231e+03
-5.704318596974976572e+02
1.595191554456431504e+02
2.404970919228881314e+02
3.845547103712797110e+01
-3.315290190778376314e+02
-6.474108676490801599e+02
-2.822421927899499678e+02
4.099152074325377271e+02
6.130673242430714254e+02
-3.727309206681858313e+02
-2.582555919203882240e+03
-2.044713866119109866e+02
-1.426502368842429114e+01
-7.619047145112143653e+02
-2.282381948465104415e+03
-2.691785626093081646e+03
-1.884120304973451994e+03
6.326192782836055812e+02
8.894469280443385060e+02
3.403993854539826316e+02
-1.509551864319234483e+03
-2.562425333952861365e+03
-2.264200964230479258e+03
-4.566824244475023079e+03
-1.489273998163087526e+03
-4.606143912527230668e+02
-5.981197394738683215e+01
5.411089235370975530e+02
7.451414143356347495e+02
6.042680215693400214e+02
3.495131298594206442e+02
6.069247641354049847e+02
1.447548393100786825e+03
1.516335607094713168e+03
1.077284680951012206e+03
6.214302267529295705e+02
1.287744386589997418e+02
-1.868079436838051777e+01
1.580481658801649303e+02
-1.789044332477539456e+03
-5.549430286249078108e+02
-6.705940328842071949e+02
-3.361063453713091803e+03
-1.294312454667943484e+03
-5.273260291587163238e+02
-2.167140422883660904e+03
-3.277897439178532295e+02
7.917037004412555916e+02
1.189390518454574703e+03
8.712931258936195036e+02
6.063778354129827903e+02
6.526479026155266183e+02
8.390856556144854039e+02
1.061647120392504121e+03
9.793879980137443226e+02
1.134304099515738926e+03
1.035376218529357857e+03
1.031604028183952323e+03
1.063994027003470364e+03
1.138497438385267060e+03
1.481046583936586558e+03
1.775745933071264744e+03
1.499736596872756536e+03
5.181110445553523505e+02
3.107906308573382148e+02
1.075741949410308507e+03
1.195642793553401816e+03
1.334241436895027618e+03
1.487180104990266955e+03
1.344299999316987851e+03
1.270429934181008093e+03
8.357788329595556434e+02
2.800975399907076167e+02
-2.633749523594490256e+02
-9.860583425420887238e+01
1.051326375442107974e+03
1.444130170651875687e+03
1.229808672575563833e+03
1.177890913967446068e+03
7.611855339887713399e+02
6.795033537602747629e+02
3.676256399243229112e+02
5.437648697056415585e+02
1.054969908345813337e+03
1.273795613423402756e+03
8.222803699392717363e+02
3.738165518074934539e+02
7.484826182919450730e+02
1.139716925978112158e+03
1.016679204669052069e+03
1.346455276771704121e+03
1.281015053305827223e+03
9.923474414599513693e+02
1.098439614747929454e+03
1.480220529792511797e+03
1.712528436289958790e+03
1.443352454785762120e+03
1.335907108450642227e+03
1.217723734826013697e+03
1.140710493182943310e+03
6.280466097540078181e+02
2.566345887210444232e+01
1.354432398352440714e+02
3.153718249479481983e+02
9.454727929253206185e+02
6.187194770929223750e+02
6.093411766279466235e+00
1.695689831652933606e+02
9.951229621042571125e+02
1.176743251765804644e+03
9.044118408587003159e+02
6.160737579100923540e+02
3.437227245001512301e+02
5.943642959828359835e+02
5.510308950328238780e+02
4.336942408755618885e+02
4.193523601361663964e+02
7.679614929967730177e+02
6.885310930502137126e+02
6.840428375035877480e+02
6.745013951225095070e+02
4.109147869464777045e+02
5.552563291002790038e+02
1.310505363030517628e+03
1.174703817071624371e+03
-2.321491724404858132e+02
-1.076050678128916616e+03
3.299771264924125376e+02
-1.146102849617623406e+03
-6.146288864327136253e+03
-7.640551423867986159e+03
-6.724903301503542934e+03
-6.495366147743274269e+03
-6.505933163194511508e+03
-3.104572768122022353e+03
-3.341282060236516372e+03
-4.283087897074599823e+03
-5.558982096711807571e+03
-4.916847718790852923e+03
-1.254522040590306915e+03
-4.737257718718782598e+03
-7.101898378870859233e+03
-6.912639908538068994e+03
-3.907460543206031161e+03
-5.773293433521303086e+03
-6.615141580522826189e+03
-3.183985310663993459e+03
-1.147218422856552422e+02
1.286648355410751947e+03
2.234017056190491985e+03
2.349490734045949011e+03
2.042128178741839065e+03
1.882946312562616640e+03
1.913966575896541372e+03
1.859200954936546395e+03
1.865671435109330332e+03
2.270364297800381792e+03
2.528312813028995151e+03
2.516569720641419735e+03
2.044088284705205979e+03
1.596941211624211064e+03
2.003221788072085701e+03
1.917948326744849737e+03
2.023176715936738447e+03
1.515867445523099150e+03
1.840075261711479698e+03
1.923805883927789182e+03
1.271102708822643308e+03
1.244014536797661322e+03
1.918603759965322070e+03
1.742895187332442219e+03
1.533902986445182705e+03
1.437635962073130031e+03
1.728120112589273958e+03
2.008435689624694760e+03
2.325598232949998874e+03
2.529650740947236045e+03
1.987637128529378515e+03
1.105574545080180769e+03
4.604965298213248275e+02
4.484974592605672115e+02
2.266506922110646371e+02
-3.907663827079738184e+01
-4.627145569822468474e+02
-5.561125493493606200e+02
1.317339126376086824e+02
1.319813854465249506e+03
1.535125933860367695e+03
1.342798753677899185e+03
1.215856479488680407e+03
2.583795827965125227e+02
-4.706443820183159801e+02
-2.501676179692078676e+02
6.907157266673110598e+02
1.066924718128225322e+03
7.036642121191196111e+02
1.734172845695845524e+02
-3.975935389542715370e+02
-8.505605560880776466e+02
-1.079915504717688009e+03
-1.957331760882721483e+03
-3.312904174132675962e+03
-1.611742604418307565e+03
4.063866118964707539e+02
1.226511498968236310e+03
1.056152204062972828e+02
-3.093853594933154341e+02
-4.044040481612023541e+02
-3.739616398901144834e+01
5.645666516760641116e+02
8.054954611814978307e+02
3.164454800184805094e+02
4.242774905988544987e+01
4.434325683125529167e+02
3.755681297213913012e+02
3.738124678740292666e+02
6.961425404981928295e+02
8.876011146438122523e+02
5.062537340357930020e+02
3.690979878309252626e+02
2.880575800013427283e+02
-3.698734391639264345e+02
