-3.689123049379354143e+03
-2.738278320631382485e+03
-1.476679743262751117e+03
-3.542862686215957524e+02
8.529082718193951678e+02
2.057973715738291048e+03
3.041886772580369779e+03
3.567590683718148739e+03
3.831062716929990529e+03
4.001245821212093688e+03
3.645101461110431956e+03
2.477613701949325332e+03
1.199723816334554613e+03
3.323862837152826728e+02
-7.914485829859198702e+02
-2.178827315401597389e+03
-3.459798053586061997e+03
-4.358383318030141709e+03
-4.503550107297212890e+03
-3.735305792384721371e+03
-3.367662770077478399e+03
-2.185606859900870404e+03
-6.490811254923241904e+02
4.809239947622262434e+02
1.525388488717263726e+03
2.498352350714792919e+03
3.553816751724102687e+03
4.240760819812014233e+03
4.197149791683426884e+03
3.915874466776288500e+03
3.368902783115386228e+03
1.967180154160958864e+03
1.318593586996610838e+03
4.930173930316141195e+02
-5.496184865847405945e+02
-1.638236773139493380e+03
-2.764735733843654998e+03
-3.493112176879475101e+03
-3.387352811995354841e+03
-3.348508377174759971e+03
-2.794617507731457863e+03
-1.652605250331917659e+03
-4.275078882689262514e+02
7.777306633304551724e+02
1.870145685914167188e+03
2.915731365511543572e+03
3.863439178111789261e+03
4.352279660192524716e+03
4.406354265866995775e+03
3.906354557427541295e+03
4.030039211221107507e+03
3.866545146893673063e+03
3.104850140629379439e+03
2.021933054659297795e+03
5.107383028659861566e+02
-8.188145306327584194e+02
-1.800751743554644463e+03
-2.388101498938462555e+03
-2.459898888776656349e+03
-2.434114180154643691e+03
-2.587773904007094643e+03
-1.721889910040385303e+03
-1.934024600305389470e+02
1.144887855446618687e+03
2.041651781690094367e+03
2.747836782832247081e+03
3.686643520334109326e+03
4.311177295055149443e+03
4.696471502276080173e+03
4.828189284963844329e+03
4.559160987626218230e+03
4.141343318164142147e+03
3.548693350963183093e+03
2.802141948577093899e+03
1.527663019939501510e+03
1.222349201449653577e+02
-1.089245001753999986e+03
-1.777790263297917363e+03
-2.243404036453332992e+03
-2.308062031709802341e+03
-2.122788930835727115e+03
-1.579582145597535828e+03
-1.023890234476897376e+02
1.296850504570438943e+03
2.131134966506962428e+03
3.136496610720040280e+03
4.097945413810003629e+03
4.564487981395017414e+03
3.209081939144522039e+03
1.390668970582412840e+03
-1.573791426023565464e+03
-2.423306258014336436e+03
-3.130925825673192776e+03
-4.603687951376204182e+03
-5.857580497968776399e+03
-6.529623602818960535e+03
-7.909809071493261399e+03
-8.912194296389499868e+03
-9.385779485981087419e+03
-9.770492836300207273e+03
-8.837328642758493515e+03
-7.766283732950224476e+03
-6.075290929727770163e+03
-3.818231006645400157e+03
-3.861154634812119184e+02
-1.744903122742957976e+03
-1.786529261834404679e+03
-1.085991961624460373e+03
-6.903162872916936976e+02
-7.715124158301935040e+02
-9.555910943023606023e+02
-1.579560385416282088e+03
-2.624394298366602925e+03
-1.054108326181816665e+03
2.037295240595029782e+03
3.737806423752850833e+02
-5.157675454013899980e+03
-6.877008862482333825e+03
-2.224167741333031245e+03
-1.174122894761844236e+03
-9.198429075148678749e+02
-7.828814838924333230e+01
1.494629094554380117e+03
2.481026100789983957e+03
3.472985837777966481e+03
4.697497672129013154e+03
5.076649855181619387e+03
5.818518883315198764e+03
6.102084812679598144e+03
6.063330706360002296e+03
5.631267014287723214e+03
5.179876440707449547e+03
4.150165467381352755e+03
3.152154449395130086e+03
1.907889257025803090e+03
3.373705284811640013e+02
-8.094032936572563131e+02
-1.682395944849468378e+03
-2.198579633474269031e+03
-2.256884292865882344e+03
-2.217280306714841117e+03
-1.177713156579436145e+03
1.359570071237091611e+02
1.419825140652539403e+03
2.360972963143665766e+03
3.195444592313523572e+03
4.031337283583841781e+03
4.507693445190720922e+03
4.981504773703676619e+03
5.099688904796375937e+03
4.880210026742874106e+03
4.324151193954184237e+03
3.208731642191390165e+03
2.198984708721339757e+03
6.499197996580121526e+02
-6.884487361176447848e+02
-2.164110339527012457e+03
-3.321042204204455629e+03
-3.532768231610642943e+03
-3.894401461838788691e+03
-6.475105778986605401e+03
-4.589844040986095024e+03
-1.974576030371758861e+03
-3.382339070591808081e+02
2.293286015175524142e+02
1.175250467567563646e+03
2.061317698061438477e+03
3.069598079520822012e+03
3.309323431455044556e+03
3.390330548235861897e+03
3.390512306647501191e+03
3.088113906758535450e+03
2.094067455065912327e+03
9.972012840663729776e+02
4.847999986320802890e+01
-9.921560565604526118e+02
-2.474692939392285098e+03
-3.236219524944954628e+03
-3.621790312492157682e+03
-4.175387526642934063e+03
-4.054956636985877594e+03
-3.342477025530243282e+03
-2.289963584802553669e+03
-1.074337708570071527e+03
9.445867558083844528e+01
8.725075217700806434e+02
1.852798309417349856e+03
2.789476358812812578e+03
3.429541037973279344e+03
3.313989033741956973e+03
3.526803083644511389e+03
3.061944334311367129e+03
2.445429633281778933e+03
1.591256796777251338e+03
7.536400647402336972e+01
-1.393337859435210248e+03
-2.854899089781440580e+03
-4.053408471772730991e+03
-4.753923873690217079e+03
-4.793509622639377085e+03
-4.587203864926419556e+03
-3.689985042051909204e+03
-2.196782703459988625e+03
-8.445556492302413290e+02
4.837284607706319548e+02
1.302068339298665705e+03
2.135437168305819796e+03
2.653908309041554276e+03
3.034470685627102739e+03
3.182077953429010904e+03
3.395716218428791308e+03
2.918371722897800737e+03
1.778020891402534517e+03
7.376492814685260555e+02
-1.828536554933211562e+02
-1.431580438438141982e+03
-3.303620691946692659e+03
-5.689055634581867707e+03
-8.545946611464452872e+03
-1.097039348198218431e+04
-9.286478942339228524e+03
-3.775182041009333261e+03
-1.572511788020553695e+03
-8.444106577662636255e+02
5.031185644461800734e+02
1.784205074090404423e+03
2.801770632640202621e+03
3.605702000549169043e+03
4.151018215336400317e+03
4.197750903231534721e+03
4.198845773805937824e+03
3.604247356398181637e+03
2.772962468787308808e+03
1.853892697058510521e+03
7.309052968987701888e+02
-6.830261024905012164e+02
-1.655968262713181502e+03
-2.384998246518888209e+03
-2.960229328658890608e+03
-3.197789205944422974e+03
-3.061739933098903293e+03
-2.459081283315759720e+03
-1.303818258275836115e+03
5.801193249906162208e+01
1.304451810401268631e+03
2.465538825923663353e+03
3.119315903567273836e+03
3.816762679376548931e+03
4.186896826147148204e+03
4.393675854186220931e+03
4.721039072041285181e+03
4.291978243151228526e+03
3.635480592023438021e+03
3.050518059814785829e+03
1.845959821411861185e+03
4.587190142093716645e+02
-7.593397247111213346e+02
-1.951249933996884693e+03
-2.556109444669843469e+03
-2.664974402620036471e+03
-2.631874533747098212e+03
-1.454863517026177988e+03
-1.439041950668913046e+02
8.690442645448026724e+02
2.019013279030654303e+03
2.859996456734667390e+03
3.590978167699981441e+03
4.531050379710527523e+03
5.127296715967476302e+03
5.485666266053905019e+03
5.484053874902395364e+03
5.068470259075762442e+03
4.093932864599721142e+03
2.770436070831861798e+03
1.812893671207010584e+03
7.342482488914923806e+02
-5.776567238883263826e+02
-1.801827995416326985e+03
-2.278242275722474915e+03
-2.476990174629732337e+03
-2.745093227639454653e+03
-2.206538125842009777e+03
-1.178288346003380639e+03
1.786445432958485640e+02
1.777324824440619750e+03
2.606837383555704491e+03
3.590240718047008613e+03
4.453610160646500844e+03
4.304976980737930717e+03
2.649339451543301038e+03
-1.582846111814371568e+02
-2.302882719974615611e+03
-3.233442054751728847e+03
-4.045968430037255530e+03
-4.557528474286908022e+03
-5.627176131512385837e+03
-7.250948906485430598e+03
-7.921890854634747484e+03
-9.002026276982753188e+03
-9.250356225214896767e+03
-8.719880164582753423e+03
-7.774629452396810848e+03
-6.910521591299231659e+03
-5.265477520316559094e+03
-1.235422241973624750e+03
-1.412570143493747139e+02
-1.873917145514076537e+03
-1.697417427953000470e+03
-1.390654146696573662e+03
-8.965642609259568871e+02
-6.671360979733943850e+02
-1.152309469504020853e+03
-1.774060336145311112e+03
-2.610405259232029948e+03
-3.840373681034859146e+03
-4.636001163824110336e+03
-5.710283316041046419e+03
-6.943192343407157750e+03
-7.334785603467970759e+03
-4.562091690259086135e+03
-5.487088489726756961e+03
-7.143733249708603580e+03
-6.015954131201001474e+03
-2.664674455756792668e+03
2.544165389209937985e+03
4.718614061433593633e+03
5.423754330688685513e+03
6.082667331169885074e+03
6.681417575075483001e+03
6.806072943999345625e+03
6.939616150495557122e+03
7.139137349530416031e+03
6.210671766405874223e+03
5.111203066967986160e+03
3.918716154053563059e+03
2.988241214869709893e+03
1.650752475705874758e+03
1.612003978193993987e+02
-8.104460187319155011e+02
-1.018210596561274770e+03
-1.158090941193558137e+03
-7.241525277904579525e+02
1.176288060801473705e+02
1.434369803298643092e+03
2.640418175838981824e+03
3.460004593998033215e+03
4.030225199378229263e+03
4.760321607436396334e+03
5.045183749473940225e+03
4.918776301865330424e+03
4.978096460900152124e+03
4.783304877130929526e+03
4.657244277935238642e+03
3.627944809718589113e+03
2.241455090461582131e+03
1.427685259068166488e+03
3.557657542264856829e+02
-1.117489423586562680e+03
-2.194459927542719925e+03
-2.007026409335808921e+03
-2.124151212437639970e+03
-1.873980409460582905e+03
-8.081011380149084289e+02
3.834718607104500734e+02
1.332736760729522757e+03
2.178737941483812847e+03
2.872497051743746397e+03
3.397094776817318234e+03
4.194554742451858147e+03
4.722902406301492192e+03
5.083915801607648973e+03
4.716591693138926530e+03
3.564175396214568991e+03
2.660806907326987130e+03
1.876067289729119693e+03
8.883316603056925942e+02
-3.529250153784611257e+02
-1.826783248885790044e+03
-2.915319338708454779e+03
-3.082656614420751794e+03
-2.568736015968922857e+03
-2.560638835819714586e+03
-1.754355413912679751e+03
-8.278565782355747160e+01
1.292072441421347321e+03
2.327256667306771305e+03
3.325777081799981715e+03
3.864720334930046192e+03
4.153087451967273410e+03
4.314896456527930241e+03
4.684072772622408593e+03
4.648628988293674411e+03
4.045614350025222393e+03
3.251979542626374041e+03
2.071669009325760271e+03
9.996274709660580129e+02
-5.441982547757893371e+02
-2.349860660129697862e+03
-3.247460232070174698e+03
-3.634037160213644256e+03
-3.552640879291157944e+03
-3.416299403091923978e+03
-2.416000823503653010e+03
-1.090696036138591126e+03
-7.933055170882231266e+01
-5.649193307135138866e+02
-2.313449095393750667e+03
-3.955860742043990285e+03
-3.446126861209555045e+03
-2.875217074173503079e+03
-2.567151529925151863e+03
-2.517905399158596992e+03
-2.853482828232011798e+03
-3.502909202101374376e+03
-4.189222076412616843e+03
-5.274551556337216425e+03
-6.882037658963099602e+03
-8.383173100727457495e+03
-8.888444116190590648e+03
-9.602043175264070669e+03
-8.645092613156411971e+03
-5.548273362060911495e+03
-6.502549818831158518e+03
-7.177046932084623222e+03
-6.026759163412927592e+03
-3.899629208822705550e+03
-5.826363359360087770e+02
2.866274964818663193e+03
5.235141496107836247e+03
5.673016104158923554e+03
5.668883611199702500e+03
5.451696671864862765e+03
5.064471266841242141e+03
4.029225384196010509e+03
2.795885567437366717e+03
1.648398784901655517e+03
5.718057236793270022e+02
-5.759651134406980191e+02
-1.928015170741585507e+03
-2.459417692134559729e+03
-2.513209149217702361e+03
-2.317358233993019439e+03
-2.040840700424040733e+03
-8.255985368735834982e+02
5.344192471116900833e+02
1.791254902317638653e+03
2.780992149042084293e+03
3.389649508074711775e+03
3.958296699679066023e+03
4.268929437536500700e+03
4.624575041764664093e+03
4.538306870044265452e+03
3.815118165202537057e+03
3.162967131801442520e+03
2.342872139054477884e+03
1.045808383018807717e+03
-3.702712269998214083e+02
-1.900425126241842918e+03
-2.828712630428533430e+03
-2.898173834595288099e+03
-3.078810024780616914e+03
-3.299596835078346885e+03
-2.631477590399108976e+03
-1.433420891921889734e+03
-3.383405438710252611e+02
6.748255961956911051e+02
1.746161879418559920e+03
2.465709308880004301e+03
3.013539725820543481e+03
3.793710193863830682e+03
4.074222034363956936e+03
4.058042213527182867e+03
3.594128470939175713e+03
2.754567093978412686e+03
1.943388443049733269e+03
9.098718993290724484e+02
-5.508978166228736200e+02
-2.027202801133886851e+03
-3.212161106584779645e+03
-3.720815053695926508e+03
-3.783198957126555797e+03
-4.381337093854298473e+03
-3.860244863806946796e+03
-2.470865086097518997e+03
-1.125136898382237860e+03
4.620341250908322195e+02
1.492690874476461204e+03
2.014900760302735989e+03
2.888766204179006763e+03
3.326323874545471881e+03
3.226563712478706748e+03
3.278483937985725333e+03
2.886135526945097354e+03
2.330460836777916029e+03
1.603438794571492508e+03
2.330639570377624921e+02
-1.065686489966514273e+03
-2.368847264864126828e+03
-3.514496027597751890e+03
-4.341686327523017098e+03
-4.881412567912467239e+03
-4.879666529664299560e+03
-3.943429646957509703e+03
-2.832627725084137637e+03
-1.300220476236444256e+03
-1.361602482229229452e+02
7.205825740069373069e+02
1.536046568712893986e+03
2.407259707356880881e+03
3.289279123796606200e+03
3.453085830609383720e+03
3.508702713544458675e+03
3.047169255869749577e+03
2.312463577980457558e+03
1.217562693723762777e+03
9.440648606672723986e+01
-1.201082294210863893e+03
-2.862964375205705437e+03
-3.782342674258841271e+03
-3.998255307495501256e+03
-3.838669642726680650e+03
-3.653614988604367682e+03
-3.449140355801555415e+03
-2.232204060694600685e+03
-3.538004587323289911e+02
1.067136292519217477e+03
1.737647894123297874e+03
2.398739961991162545e+03
3.057452227369702541e+03
3.772849928644951433e+03
3.757922875185577141e+03
3.807581200306736719e+03
2.892809586377567030e+03
1.473606617260275925e+03
1.271942214770868759e+03
5.867060438981703783e+02
-6.271540746573894012e+02
-1.757649615939121759e+03
-2.479900796186483603e+03
-3.237010299860606210e+03
-3.511027945009599080e+03
-3.460046089019043393e+03
-2.973026388633460556e+03
-1.787033191137312770e+03
-1.195222211155566583e+03
-3.012883418826183757e+01
1.188535617760556306e+03
2.292775425933994029e+03
3.411678750833338199e+03
4.271746625342502739e+03
4.450069685897260570e+03
4.609733351185755055e+03
4.052673510495844766e+03
3.181917255299243152e+03
2.420393364066741015e+03
1.635757462870596555e+03
7.042136138246717110e+02
-1.052567649509044486e+03
-2.182761823364793145e+03
-2.658252269709162192e+03
-2.865063206628218268e+03
-2.495777165261063146e+03
-2.175847943665356524e+03
-1.735260896649095002e+03
-3.839068412293713095e+02
1.062005240704928156e+03
2.057490015665187002e+03
2.956603196345448850e+03
3.871275690926544939e+03
4.487610795401658834e+03
4.697567505523053114e+03
4.565146539960287555e+03
4.184316288955334130e+03
3.485776657604551929e+03
2.609835710613542233e+03
1.755129910845228324e+03
7.452736619530016924e+02
-5.692048520672677796e+02
-1.678365657338476467e+03
-1.971673605875399744e+03
-2.107994346925745958e+03
-2.207644135728829951e+03
-1.848547282146843372e+03
-1.181621646653556809e+03
-1.438078089211520023e+02
1.362859288117706001e+03
2.211363617891875492e+03
3.276676661357262674e+03
4.189798696152283810e+03
4.546778673301088020e+03
4.702710341520572001e+03
5.048563924534302714e+03
5.124255822053837619e+03
4.426787448389634847e+03
3.211166556342453987e+03
2.278372558978983307e+03
1.054334457497274570e+03
-2.231994196146658396e+03
-6.118709884848414731e+03
-9.675863937840354993e+03
-1.000448106565148191e+04
-9.734524399815401921e+03
-9.435973103266091130e+03
-7.941765261757647750e+03
-6.147798311888524950e+03
-4.745094198918450275e+03
-4.477662600994531203e+03
-2.184468105671952344e+03
-1.379441613049355055e+03
-1.212507449837029526e+03
-3.735898826238874904e+02
-3.686181880199886223e+02
1.425357125723404579e+03
2.523349378089126731e+03
-1.282638894266520310e+03
-3.437620213912196050e+03
-4.548657217521700659e+03
-6.069722332959727282e+03
-7.284908554588444531e+03
-7.921358435021588775e+03
-7.948106669547538331e+03
-7.623049082045224168e+03
-7.478129670007707318e+03
-6.331321161585256959e+03
-5.167585030866510351e+03
-4.032945753898888142e+03
-2.740367583081846988e+03
1.388210512870645061e+03
5.203015552109137388e+03
6.810236258073763565e+03
6.155791949248862693e+03
4.018668444164586163e+03
5.150874954265986162e+03
4.880510177849592765e+03
4.409677264562602431e+03
3.344397798183708801e+03
2.699684996777163178e+03
1.108591614408156374e+03
-8.395295136926985435e+01
-7.630746399297354401e+02
-9.108372651554494723e+02
-7.952949620795682222e+02
-7.043977501974486586e+02
3.079625159606968623e+02
1.638877914132835031e+03
2.923482064961976448e+03
3.417819584483346716e+03
3.838915449984552652e+03
4.547903224628365933e+03
5.072875875458216797e+03
5.216779390441368378e+03
5.071580068951730937e+03
4.827420178549314187e+03
4.135429667230087944e+03
3.349655365885959327e+03
2.680048881949529459e+03
1.695602408662622793e+03
1.812644862873183627e+02
-1.250012907946728092e+03
-1.932303452677494761e+03
-2.041638700252478429e+03
-2.084067393052741863e+03
-2.087400430974515075e+03
-1.447234401101541835e+03
-5.343638657606263678e+02
3.941089604882070034e+02
1.304226879886916322e+03
2.061100683546399068e+03
3.017838336620138762e+03
3.545472476353377260e+03
3.898058378837340570e+03
3.570545664616106933e+03
1.060957277895816105e+03
2.541278973948727071e+03
2.559561057467205046e+03
1.494819857456772979e+03
-1.988796418905276823e+03
-2.545646738718378401e+03
-1.945091971706469394e+03
-2.683586874273697958e+03
-3.036050170062456345e+03
-3.262579608747431394e+03
-3.319289402679360137e+03
-2.595197589270991557e+03
-1.447116618233855661e+03
-1.053318176593068358e+02
1.047226439993197573e+03
1.780630137864579865e+03
2.642934938959819192e+03
3.224160336245443432e+03
3.471330139030721057e+03
3.353482255711691323e+03
3.546573010314419207e+03
3.523581752787017649e+03
2.860515939052221256e+03
1.609417033850924554e+03
-2.176955758480033154e+01
-1.403080400083690392e+03
-3.059594943216471165e+03
-3.951344652128041616e+03
-4.235315088496749922e+03
-4.220548832466834938e+03
-3.906017864935500711e+03
-2.990728954330432316e+03
-1.748612157517548212e+03
-6.946126821926389994e+02
4.282564589883028248e+02
1.705019400012843107e+03
2.730779960249157284e+03
2.882549137446983877e+03
3.127324493088515283e+03
3.243103267849478016e+03
3.222831073283574369e+03
2.508539778476590072e+03
1.515322793898860255e+03
5.061192909287279349e+02
-7.572135395972886727e+02
-1.891726298486579026e+03
-3.048441913092453433e+03
-4.103374262594516949e+03
-4.660699254016671148e+03
-4.805377678823191673e+03
-4.257453973729849167e+03
-3.130921811188787615e+03
-1.755754282506639356e+03
-4.379433212735651750e+02
7.884979272080465762e+02
1.458561883309581162e+03
7.283134607827340687e+02
-4.041838225434698302e+02
-2.932910124907590216e+03
-3.689908730529256445e+03
-3.967203664071290859e+03
-4.110710112757366005e+03
-7.684290024851188718e+02
8.653351403529228492e+01
-8.119814002558089214e+02
-1.579047175544480069e+03
-2.764401760200412809e+03
-3.714350016282451179e+03
-4.330991456144760377e+03
-4.146364625465186691e+03
-4.071551192210633872e+03
-3.331527339519934230e+03
-1.923216748348675083e+03
-3.086280492281481997e+02
1.031251589383777628e+03
1.983453367600861156e+03
3.061995939478125365e+03
3.588930139981720004e+03
3.837222582524774680e+03
3.927832468200133462e+03
3.856813891746107402e+03
3.559150680098032808e+03
2.569834070346194494e+03
1.286808856391709696e+03
2.049756699001808045e+02
-9.427633838689317827e+02
-2.028470121259100551e+03
-2.792231744888480989e+03
-3.075128835584019726e+03
-3.088219583004207834e+03
-2.893522370897324436e+03
-1.961004289992374879e+03
-1.312651169311129479e+03
-1.204203407313178644e+02
1.001682722166955273e+03
1.801686994387609275e+03
2.839583557750984255e+03
3.715448109128070882e+03
4.260322131728447857e+03
4.591204374564338650e+03
4.471049656049646728e+03
3.710794092280964833e+03
2.847445590461080883e+03
1.838939839827017977e+03
1.162179157506433512e+03
4.750802048481451152e+02
-1.060398832348670794e+03
-2.198285266721733478e+03
-2.971672465295277107e+03
-3.034620018029559105e+03
-2.487179269883851703e+03
-1.895320098381027492e+03
-9.009983032882678344e+02
7.068065750943295598e+02
2.134108586745582215e+03
3.005965183385499131e+03
3.763417966848717242e+03
4.422545956977002788e+03
4.904417125842421228e+03
4.877904274053234985e+03
4.681053886015352873e+03
4.508835652915122409e+03
3.888184541768348026e+03
2.775069339614054115e+03
1.734517415076805491e+03
1.324607885327287704e+02
-1.527206475906014930e+03
-3.829560268607034686e+03
-8.657685213157967155e+03
-8.815545945939164085e+03
-6.435169672408303086e+03
-4.916611352809905839e+03
-1.214807427173385577e+03
-2.398766276984139495e+03
-2.262467145911455646e+03
-1.898472395025532080e+02
1.190174879858370105e+03
2.881672102184471441e+03
5.351621741397116239e+03
3.327007312113432363e+03
5.066841922343551232e+03
4.005151034732034532e+03
1.322948547346683654e+03
3.111596249799825387e+02
4.736972494680294972e+02
-3.799449419562868115e+03
-3.397384738900359935e+03
-5.545109280596333519e+03
-4.304676698169666452e+03
-5.097167769003841386e+03
-5.121558121816353378e+03
-4.074817138694873393e+03
-4.147919262853193686e+03
-2.588874450151487963e+03
-1.171632604848255141e+03
3.938638944545642175e+02
2.650708534040498307e+03
1.044939106327574336e+03
3.483597033508983714e+03
2.511667364798977815e+03
3.510492461528723851e+01
1.112944240379555595e+03
8.482151817920654366e+02
-2.811141237400055616e+03
-1.941207052075770662e+03
-1.679977524256460583e+03
-2.269493330377694747e+03
-2.795808488760204909e+03
-2.193980857123766327e+03
-1.569022139321442182e+03
-1.207984874496838302e+03
-9.058653244652806507e+02
-1.916241453435166306e+02
2.318178571251975200e+02
1.839531870472223773e+03
3.214595173578932190e+03
3.925992716783602191e+03
4.235743580721069520e+03
4.319944342478090221e+03
4.512630371618402933e+03
4.569784009461344795e+03
4.123417870880069131e+03
2.937701131279950459e+03
1.383726388448252010e+03
-8.250153620905092566e+01
-1.182282047098073235e+03
-2.473705182387820969e+03
-3.380850625675035644e+03
-2.755569272182524855e+03
-2.737838074433744168e+03
-3.442632022669130492e+03
-3.789845326302128342e+03
-3.708649811125775159e+03
-2.640911647126804837e+03
-1.538519615690910996e+03
-2.645922694775614659e+01
1.334280744545976404e+03
2.537620293608043539e+03
3.113611212436857386e+03
3.568597514813065573e+03
4.373523978078428627e+03
5.302444489313478698e+03
5.381051493136575118e+03
4.294327375694776492e+03
2.602361408857696460e+03
1.700124118703897693e+03
1.190553451846208191e+03
6.456841636554150909e+02
1.284413710697563431e+02
-7.852302624572683953e+02
-1.974304553763183094e+03
-3.123812916158699409e+03
-2.565997722732496186e+03
-6.478542241626439591e+02
1.728056651679439426e+02
4.592852482961555438e+02
1.292625800266967317e+01
-1.947590737123449571e+02
-7.372748783602087030e+01
7.957369665814730375e+00
7.353155071678238528e+02
2.862345863463668138e+03
3.652147824859969660e+03
3.423672114674685417e+03
3.104877066933191145e+03
1.536736343735395621e+03
-2.938161154570428266e+02
-1.340788300544536241e+03
-2.188221343386263925e+03
-2.041122141658089276e+03
-1.835502577727010021e+03
-1.449343112713883784e+03
4.745290139109589234e+01
2.066903695636088287e+03
2.927042127916454319e+03
2.274964346543445572e+03
2.793739701232701009e+03
3.948438790458989388e+03
4.854130953767617029e+03
5.493817172604771258e+03
6.163526875104606916e+03
6.336283404430085284e+03
5.519118090648121324e+03
4.097034890943428763e+03
2.054008059437214342e+03
-1.813968659079052259e+03
-6.209923680382464227e+03
-8.291944168322250334e+03
-8.885059676683194994e+03
-9.379243797953935427e+03
-9.661513737085593675e+03
-9.057835505370680039e+03
-7.400125579100576033e+03
-5.702339828990289789e+03
-3.611429385872275361e+03
-2.274391491251839398e+03
-1.287070218556576037e+03
-1.560076386738322526e+03
-1.835749653222729421e+03
-1.401004406921721511e+03
6.732345061667684831e+02
-2.138236317773247777e+02
-3.874404959361380406e+03
-5.176613041958292342e+03
-5.859338286280664761e+03
-6.273602665911425902e+03
-7.129438654600781774e+03
-6.567856191826219401e+03
-2.130903360370227347e+03
-1.174599209780562887e+03
-9.329324800790830068e+02
-2.248788163822994761e+02
1.031608971304210399e+03
2.482604838559895597e+03
3.603185295486804989e+03
4.921448123742548887e+03
5.630442623147225277e+03
5.920211516078708883e+03
5.939792937439608068e+03
5.938259575004594808e+03
5.782641829691756357e+03
5.511979392794740306e+03
4.313299105167758171e+03
2.471629907128690775e+03
1.610909096702911711e+03
4.291145094466438081e+02
-4.127946675936879615e+02
-1.578865079091877078e+03
-2.266134570167873790e+03
-2.223601531337250890e+03
-2.524251208029459121e+03
-2.398069169742735085e+03
-1.144062534342826211e+03
-1.621415552684809427e+02
1.020852099662377555e+03
2.197937852058320914e+03
2.174107512347634838e+03
2.206459339361425464e+03
3.219036646470507549e+03
4.153900551037576406e+03
4.316105854515485589e+03
3.846681252907879298e+03
3.029602201123749182e+03
3.097830283595556466e+03
1.723318285758216916e+03
9.810327194878432238e+02
-1.890456399288997886e+02
-1.016987077870474764e+03
-1.618935368517423740e+03
-2.082005018240872232e+03
-2.205107122005972087e+03
-2.687050356742410713e+03
-2.448741261688873692e+03
-1.569972334040879559e+03
-5.286489303223273737e+02
2.224389780483799939e+02
5.802532037261361211e+02
1.721790256141991222e+03
3.048009187915800339e+03
3.477764326208727653e+03
2.565139034022200121e+03
1.074954136243535231e+03
2.657148862919971180e+03
1.853715639518247372e+03
9.906364273570787873e+02
1.286143146934491277e+01
-1.413672983821153366e+03
-2.852017651484493399e+03
-3.653276361283152255e+03
-3.926491041242069969e+03
-4.121711793988018144e+03
-4.211974614864285286e+03
-3.615253373401758381e+03
-2.370525634988939146e+03
-1.284742065237543557e+03
-5.628091559524468721e+02
4.362825711698812938e+02
1.510558908449825140e+03
2.735063983825041305e+03
3.696796942555675287e+03
3.934753568495880245e+03
3.313928100568715308e+03
2.524317462530014836e+03
1.806877599228250347e+03
5.584993975453251096e+02
-6.979105832774009741e+02
-2.303413039117981043e+03
-3.663087303838098251e+03
-4.749001955614005965e+03
-4.960187264912782666e+03
-4.798722856740806492e+03
-4.597620923182852493e+03
-4.333930757917069968e+03
-3.301631012861014824e+03
-1.604664682894447424e+03
1.449819407971358203e+02
1.654283570110634400e+03
2.393306756317831969e+03
2.899113203189109299e+03
3.377667506309840064e+03
3.507919356989223161e+03
3.180833690428730733e+03
2.521384900327931064e+03
1.630583485934718738e+03
7.443035517126545528e+02
1.924805433183740320e+02
-1.085915483406160547e+03
-2.655015745554629575e+03
-3.681969488107872166e+03
-4.367808675194958596e+03
-4.644586302239542420e+03
-4.767400215993264283e+03
-4.116230286703609636e+03
-3.222986486695298026e+03
-1.861664538944935202e+03
-6.742265245709969577e+02
1.022361007162522583e+03
2.052102900651062555e+03
2.346907307751472217e+03
2.640758641914201689e+03
3.352669345052890549e+03
3.867572805603138022e+03
3.504440178789741367e+03
2.676293365978843212e+03
1.571115107663453045e+03
3.860075940609038980e+02
-5.114002669933348670e+02
-1.972269890944332701e+03
-2.640425204282566483e+03
-3.229110144850344568e+03
-3.653013290865452291e+03
-3.885231749173200114e+03
-2.941977870521081059e+03
-1.506215180209119580e+03
-5.269323351461956690e+02
4.157632974558222827e+02
1.621175715408793621e+03
3.196063690198159748e+03
4.168613717712424659e+03
4.699979137509700195e+03
4.712159833496971260e+03
4.872731423762036684e+03
4.321860809448850887e+03
3.729448058043933543e+03
2.489640607410892699e+03
1.051112935828428590e+03
9.895457248326384558e+01
-8.329326153921725790e+02
-1.509667487881689112e+03
-2.281208461751055893e+03
-2.708694516572789325e+03
-2.820162015339182744e+03
-2.033703309636285894e+03
-8.793591350812106384e+02
6.532675082413352357e+02
1.943995063483924241e+03
2.690688580743611965e+03
3.697575665970734917e+03
4.745523053936771248e+03
5.117591483644136133e+03
5.135047208513135956e+03
5.365569037949425365e+03
5.091331404930879216e+03
4.517173796079601743e+03
3.425865841744968748e+03
2.502208948091667935e+03
1.412225155235863440e+03
-4.131763208023400011e+02
-1.755013432120364996e+03
-2.313311801731998912e+03
-2.557102631747449323e+03
-2.014494033104823302e+03
-1.366500852359239389e+03
-6.170982645334423751e+02
6.788019097718116655e+02
1.890262271478542743e+03
3.109308021912415370e+03
4.139937224517228060e+03
4.864274689547483831e+03
5.362422143171797870e+03
5.328376289037907554e+03
3.997104056895668236e+03
1.623568816295269926e+03
-2.541202218390509188e+03
-4.154252308389478458e+03
-5.138725042993461102e+03
-6.107605642154841917e+03
-6.967867108497618574e+03
-8.037517821460693995e+03
-8.840563768421678105e+03
-8.990104677157694823e+03
-8.210114149030549015e+03
-8.026633914087859011e+03
-6.805631520363210257e+03
-4.977061848038156313e+03
-3.717827600200433153e+03
-2.026896496304100538e+03
1.590722501256962914e+03
8.180620550401386026e+02
-5.667998884318368482e+02
-7.167578827237915675e+02
-7.967431161653139498e+02
-1.420799769877443396e+03
-1.913947663849523678e+03
-2.382162483161800992e+03
-3.522467483142630044e+03
-4.405862853836536488e+03
-5.592291866569564263e+03
-6.784718228727798305e+03
-7.610241641751031239e+03
-7.845966980492178664e+03
-6.364790582754357274e+03
-1.730633344771496013e+03
5.106398013592667553e+02
2.416128870628990171e+03
3.450834541388350772e+03
4.022809923968110525e+03
4.830123691834939564e+03
5.786706501614492481e+03
6.214674055858069551e+03
6.346048737374444499e+03
6.499819537032763037e+03
5.903173323804008760e+03
4.882126600382419383e+03
4.027662150461133933e+03
3.371791876439579937e+03
2.499446618133059019e+03
8.016300295408170768e+02
-1.586576643610356427e+02
-8.884666869041099062e+02
-1.645830604030488530e+03
-1.828656113846594735e+03
-1.662777375360333735e+03
-8.651999203469239319e+02
2.570866826885199430e+02
1.125204715721038610e+03
2.339228111581642679e+03
3.399170248647860262e+03
4.013163339136821378e+03
4.291310731357564691e+03
4.595697044398099024e+03
5.227346213159903527e+03
5.474401918291437141e+03
4.329989605199592006e+03
3.011235225300814363e+03
1.987119428782621526e+03
4.276735274979465657e+02
-1.135106186788673540e+03
-2.173295341816173732e+03
-2.715980431340093673e+03
-3.317146684771851596e+03
-4.490788265726560894e+03
-4.865925828239923248e+03
-2.906465773983900363e+03
-1.291259691919264242e+03
2.887921781233696947e+02
1.727762344208536661e+03
2.918684477002793756e+03
3.600444870414239631e+03
4.031424706146234712e+03
4.390593174668189931e+03
4.553899524757473046e+03
4.087340241179677378e+03
3.225932255385531789e+03
2.124604778437822915e+03
8.972747234066122246e+02
-2.361049389175743158e+02
-1.514709860122283089e+03
