1.281584504900514503e+03
1.097078546410141143e+03
3.401295339338831582e+03
9.019300199012468511e+03
1.079417891270824111e+04
8.453027877682074177e+03
6.063968865942579214e+03
5.435138311181964127e+03
5.761557941000955907e+03
6.866313112602468209e+03
7.733479731131375047e+03
6.829146129348776412e+03
5.754421572442354773e+03
5.241358274486093251e+03
6.265925412214782227e+03
7.132206524039444048e+03
6.711306086517817675e+03
5.479326440803253718e+03
3.636260409930645437e+03
3.160207773706055832e+03
4.190395050844466823e+03
5.102115953137015822e+03
6.299179645293940666e+03
6.015569837465161982e+03
4.823329016959657565e+03
4.953463337067586508e+03
5.675900630903190176e+03
6.385618490308281253e+03
6.387915141973880964e+03
6.288994170971581298e+03
7.377836225822726192e+03
7.470427170176893924e+03
7.337806429733279401e+03
7.261019178750166247e+03
6.919133867457661836e+03
9.133984303029168586e+03
9.276968611553682422e+03
7.179310741813171262e+03
5.296594564811058262e+03
5.220617672898237288e+03
5.834250346254392753e+03
4.571761403035942749e+03
3.878243508874785221e+03
3.718730812771638284e+03
2.597380437833131964e+03
1.346843345452182348e+03
6.451143949918654243e+02
5.848575213361334590e+01
1.001229934795780885e+01
3.163559955041114868e+00
-1.705590121800048564e+02
-9.454781100200979154e+02
-2.106295097456440999e+03
-3.097280802747437519e+03
-2.855548494842601940e+03
-2.671133537267914562e+03
-2.528021057188389022e+03
-2.719248264506223677e+03
-3.330769466509479571e+03
-4.209636980973864411e+03
-3.886903648564409195e+03
-2.219627317245509857e+03
-2.813727310764516915e+03
-3.882223611876049290e+03
-4.038185510540054111e+03
-3.987580060890692494e+03
-4.344361469200845931e+03
-4.290518815118330167e+03
-4.112145959751972441e+03
-4.227345056103732531e+03
-4.950202928347905981e+03
-5.289700986549354639e+03
-5.422835718261851071e+03
-5.230670066236883031e+03
-5.145159779403496941e+03
-5.426337180509392056e+03
-5.864160049893427640e+03
-6.180644055522007875e+03
-6.855801992936791066e+03
-8.212663947740200456e+03
-8.850233939524303423e+03
-7.108493438066342605e+03
-5.738576627596124126e+03
-4.649619141698349267e+03
-3.801559948224399250e+03
-5.282395086971136152e+03
-7.605217618949374810e+03
-1.075807590755614910e+04
-1.095891881536974324e+04
-9.989683349200955490e+03
-9.731446912386942131e+03
-7.199253115248970971e+03
-2.486129313351706969e+03
-1.281123473822793358e+03
-1.891177784610714525e+03
-5.811410473884842759e+03
-7.778846151609468507e+03
-7.171315790136077339e+03
-3.126909143451869113e+03
-1.822647093360213375e+03
-4.963511766646524848e+03
-7.202592146982704435e+03
-5.258884730345554090e+03
-8.744659248007752694e+02
2.118647061768756885e+03
4.457442521673916417e+03
5.618883983615290163e+03
6.196986321430548742e+03
6.121810140320334540e+03
6.142285016748538510e+03
6.115382739074582787e+03
5.975090198886005055e+03
6.491423998222564478e+03
6.024449793891876652e+03
4.733105211304102340e+03
4.696375987346059446e+03
5.160220518651050043e+03
5.281559703989489208e+03
6.631408739943546607e+03
7.714707349967266964e+03
7.655492409338103243e+03
7.469832708373473906e+03
7.328761768911168474e+03
6.471232476580134971e+03
5.600242056126025091e+03
5.202832776313071008e+03
4.084028265778405967e+03
3.801733846112388164e+03
3.663808369117907205e+03
3.094134564509203756e+03
2.876826248989249962e+03
2.467977006885839273e+03
2.209523670363794281e+03
1.787369375657103319e+03
7.606018703761887991e+02
8.092940477972414328e+02
9.154176962376718620e+02
3.588798224279116198e+02
1.966493643706979242e+02
7.477680267457104719e+02
6.081781971597835081e+02
-2.360635603595257237e+02
-1.301935943190602757e+03
-1.140447601483941071e+03
-1.552639823420761104e+03
-2.612588634313556668e+03
-2.645253846541260373e+03
-6.076393154639877139e+02
1.975232798322095732e+03
2.265315221468883010e+03
1.189650722876270947e+03
4.242847884551446782e+02
-7.139653262711251891e-01
1.480444645716516334e+03
2.270681533572997978e+03
2.532252897378946727e+03
3.158978032709308081e+03
3.096820100306389577e+03
1.612841659056592107e+03
1.103271365499891317e+03
8.549479044637536163e+02
7.415935456966652737e+02
3.012832149059851758e+02
9.916605354689934870e+00
-1.325652197217645778e+02
8.295943756203502062e+01
-6.234865889616012282e+02
-7.989132204462713389e+02
-1.205701801858244551e+02
5.244473882086570029e+02
3.433068586804405982e+02
3.211629437253124308e+01
-6.241350072717315243e+02
-1.464599866123987113e+03
-2.441394025249668630e+03
-2.166498473830116382e+03
-8.028269171384170022e+02
1.116695745532609294e+02
4.499315137296842408e+02
9.278280179088662294e+01
-4.918809898147841295e+02
-1.332066314728892394e+03
-1.376737214427804247e+03
-9.519683164427642623e+02
-3.368816871040564820e+02
-2.548376504262124698e+01
-1.927966665526944041e+02
-6.299864595047397415e+02
-3.920207980521341824e+02
-4.918150379994695527e+02
1.445616876637645021e+02
4.110941994378457593e+02
4.078914035603037291e+01
-3.643583163675568812e+02
-5.105435520194402557e+02
-1.269786449693904615e+03
-1.778973338408748532e+03
-3.239556387555248875e+02
3.001170503344021085e+02
1.060417146385362344e+02
1.688483410319847167e+02
4.893220895547067357e+02
4.512366191347198878e+02
6.776917288492318221e+02
4.537562111986629247e+02
5.724870636416549985e+01
-5.820040096533647329e+02
-1.203006064057994763e+03
-1.819724253412785856e+03
-1.591142661878347553e+03
-1.585190855894784590e+03
-1.956828119701566493e+03
-2.394135811110358645e+03
-2.394258555938688460e+03
-1.755451390488789229e+03
-1.837661695572464168e+03
-1.103847484393566447e+03
-2.125785113691275541e+00
4.073117296811633992e+02
-3.504583136569748945e+02
-1.067449239395571567e+03
-1.892703515081163914e+03
-2.595143489273426098e+02
8.321128861524101694e+02
8.233167976181420045e+02
2.214113140340097630e+02
-5.953171124386540924e+01
2.402077374814099073e+02
-2.734279070196523662e+02
-5.245475756648842207e+02
-4.021816787674466127e+02
-2.143173574216916961e+02
1.688397278009965135e+02
-1.088371531471120477e+02
-6.425588787170913747e+02
-7.619636506730702195e+02
-2.234732962723473122e+02
7.189871044702913423e+02
9.614011508888036133e+02
1.117983896144714890e+03
1.011543733701570090e+03
-2.099310629526597154e+02
-3.831968318145504782e+02
1.164304461876895402e+02
2.828702768472954290e+02
-1.548025015660141719e+02
-5.945293261034927355e+02
-7.361813601521358805e+02
-5.561211837008542034e+02
-2.133493324111217362e+02
-1.108112674561816391e+01
6.724599528000929922e+02
9.897777551206283988e+02
1.193995817855046880e+03
1.456139953946753167e+03
1.407095336559954148e+03
1.450664997831390792e+03
1.565714768962685866e+03
1.654262068187614659e+03
1.534355394566099676e+03
9.457386492979347850e+02
1.305572145436992287e+03
1.856148685636975642e+03
1.970605736777362381e+03
1.475914370945961082e+03
1.208869301300123880e+03
1.216395833567826003e+03
1.341467935260092190e+03
1.441345621576829899e+03
1.927103916007132966e+03
1.812722274961913172e+03
1.815141554651362412e+03
1.932381777637602909e+03
2.007556668312291549e+03
1.332764270298409883e+03
6.931749344084936411e+02
6.477961934551871082e+02
1.291430942031098084e+03
1.312108944632776456e+03
1.368863847927648749e+03
8.468064347941857477e+02
8.861184996613869771e+02
-1.033173854360950600e+03
-4.520111688623987902e+03
-5.631707592080187169e+03
-5.558777582226344748e+03
-5.615224350187091659e+03
-5.939185871513070197e+03
-5.859622629623974717e+03
-6.519470037897111979e+03
-6.884598281249790489e+03
-6.652958498767299716e+03
-3.999781402513310695e+03
7.282027507554181511e+02
2.154249522892983350e+03
1.179426415296353753e+03
-2.564260713600997406e+03
-3.542844720159825556e+03
-3.792209162522712631e+03
-3.619366889069352965e+03
-9.042087595720536228e+02
-2.215450998357268872e+03
-4.126990388391354827e+03
-1.524993182487633021e+03
1.746583175275119629e+03
1.017836988155523500e+03
-3.696186764412952016e+03
-2.740448669691811119e+03
1.393180722136832401e+03
1.035791218285800596e+03
1.186432130492980832e+03
2.168097417520231829e+03
2.456839786383085993e+03
1.850731913654673235e+03
2.036914688452499149e+03
1.748393378194917659e+03
1.147101700436049668e+03
6.000071752721365783e+02
9.480764389889836821e+02
7.734384889877537717e+02
-5.278747154748726871e+02
-1.432852669185717332e+03
-8.364755056406224867e+02
6.923398092014342637e+02
1.864651719772931756e+03
2.229581919726297656e+03
2.046134339820234800e+03
1.833286187057409052e+03
1.303998308232778754e+03
7.062798849870385993e+02
1.112116534181852785e+03
4.795376819880674475e+02
-7.036023874402214062e+01
1.244262218911192832e+02
6.248808573560702371e+02
6.920492694071226651e+02
7.290583006700636588e+02
6.858512249323994183e+02
5.402238818195963859e+02
2.561204497339452359e+02
1.174577296437873201e+03
1.706830626813280787e+03
8.370273730964023571e+02
-1.557135492651711672e+02
-2.442545312011317833e+02
3.283885677686525355e+02
3.352567857957719184e+02
2.371455896129182292e+02
2.716895317803416106e+02
-1.821821830612435349e+02
-1.161358976900513085e+02
-6.154865689975871419e+02
-1.157919279681904754e+03
-9.102468533238203463e+02
-7.997067237689841477e+02
-7.194392384974061088e+02
-4.713298171733530353e+02
-3.112703314450199628e+02
-7.738285350419056385e+01
-6.410611305641348281e+02
-5.182282980240541974e+02
-4.359021196901114763e+02
-1.117296178016142903e+03
-1.637422869998689521e+03
-1.013269424306125529e+03
-2.326942033764571818e+02
-4.157015060681299019e+02
-8.533957905550173564e+02
-9.637613852570681274e+02
-4.029420226572912611e+02
3.101403531948752743e+02
8.425523541064628716e+02
1.001168479742299382e+03
2.348969804785637905e+02
-2.532357881338847392e+02
-8.542658449296924346e+02
-9.872264661619726667e+02
-1.381135602890085238e+03
-2.266037089185248078e+03
-2.796959267387669115e+03
-2.243898200704319152e+03
-1.145834790505719639e+03
5.332693712284295771e+02
1.919493990638239211e+03
1.503785277595977277e+03
4.100884339046372133e+02
-2.226674961737966782e+02
-7.795478699138415095e+02
-1.333596498936533862e+03
-1.362868343260149686e+03
-6.202909746665308148e+02
1.151909434467614943e+02
2.934103518534635668e+02
5.803541243081740504e+02
9.911280053039504310e+02
1.556659969754198073e+03
1.291810002783062828e+03
1.225565139692333787e+03
1.235994005799223487e+03
8.702618725564741453e+02
7.731893913217704721e+02
5.426465338466119874e+02
3.187447869718488391e+02
-6.836912392848764739e+02
-1.607868858933752108e+03
-1.972915901725193407e+03
1.083276617439061965e+03
2.911815777478344899e+03
7.156896863704120051e+02
-3.635187028893385104e+03
-2.896049075362649091e+03
4.531526924181325739e+02
6.594634963585264131e+02
-2.361644842651701310e+02
-4.067146751697645755e+02
4.086686511498402297e+01
1.384793427253196114e+02
-3.638969646729964893e+02
-2.583417554868279922e+02
-1.095687724787463367e+03
-2.359984611167289586e+03
-2.123400402910121556e+03
-1.285006802531236417e+03
-3.286820034750967920e+02
-5.694778930426118677e+02
-1.704496276485371482e+03
-2.088724217968917401e+03
-1.559138165332057042e+03
-5.847512120847543429e+02
-3.255272135759840353e+02
-1.023503970353683258e+03
-1.872680813766055962e+03
-1.529175071794786618e+03
1.858945876410756171e+02
2.520565727951405279e+03
3.478866018362839441e+03
2.983848562685505385e+03
2.759510835442895768e+03
2.490829020220753591e+03
1.930822302380445308e+03
1.096437935174066070e+03
1.199673150775543490e+03
9.505258704913271686e+02
-2.731269338057559253e+02
-1.144301908819929849e+03
-1.340929654943201058e+03
-2.653880921215090893e+03
-5.078237054043380340e+03
-5.565072925411519464e+03
-4.403354954439554604e+03
-4.767012497526445259e+03
-5.275056847636420571e+03
-4.580396696298482311e+03
-2.068122586236570442e+03
-2.774087950617409888e+02
3.288430739165073646e+02
2.471721534525250263e+03
2.730220867555637597e+03
1.148335221151577798e+03
7.621003338783249319e+02
1.424494906895738495e+03
5.505774523657433974e+02
-6.016499936913376132e+02
-1.200156511141713509e+03
-1.451869546242843398e+03
-1.656823093980125350e+03
-1.506970194024537022e+03
5.437277811345738883e+02
2.610331243104713849e+03
3.178889464536068772e+03
2.402396276045728428e+03
2.379882917549423837e+03
3.639439571091254493e+03
3.787935699656497036e+03
2.253295306319447718e+03
1.688569692474373369e+03
2.202946728173499650e+03
2.698496440863744738e+03
-1.127152410977118819e+02
-1.435941214313565297e+03
-1.916112724536496444e+03
-1.333058790750179696e+03
-1.036834810342020887e+02
6.030439252874916747e+02
8.651050658883398228e+02
5.775889869762731905e+02
-4.494830441887415304e+02
-1.730002425977122130e+03
-3.334930342880905300e+03
-1.141269119319272249e+03
-1.383959693570606987e+03
6.530379249360809126e+02
-5.682197954483627882e+02
7.142267618093648025e+02
-7.276563405605634216e+02
1.267242883140748063e+03
1.459993429351313580e+03
-1.381414447760311077e+03
3.291556482315449443e+02
1.223715884180803641e+03
4.343223992993232969e+03
3.348695609118485663e+03
1.782502111360921617e+02
1.484964854583543683e+03
-9.112524734776332025e+01
5.390094461086498541e+02
1.670408233562082387e+03
-1.310918036019691954e+03
-2.100974746698175295e+03
-1.115699545869136955e+03
1.253002459680664288e+03
1.496186546811832159e+03
1.471972612056469870e+03
8.703368500925698754e+02
-1.936781324664739714e+03
-1.816252758678852842e+03
-6.050257430330536863e+02
-1.849730609438298643e+02
-4.011109561252405342e+02
2.895566527832131101e+02
2.038042496590398287e+03
2.029451130709700692e+03
1.696830311503788835e+03
5.362092761602374367e+02
4.226201687998117222e+02
4.600957717669424483e+02
1.646065524539076819e+02
2.852396925929118083e+02
3.490162300570457887e+02
1.778012147961916583e+02
-3.243714351033071921e+02
-1.862905899445877651e+02
7.633425165844304274e+02
3.267272638160571887e+02
-2.442756556418816274e+02
-4.731686505193356425e+02
-1.357401406358171243e+03
-1.769993721241015692e+03
-1.251921072463937207e+03
-1.075897407050716538e+03
-1.550864351145012279e+03
-8.919355041647330609e+02
5.288764429909475666e+02
1.104549220346910943e+03
7.081665929479673878e+02
1.026946419173187763e+02
4.773275300411106059e+02
5.230214126067945699e+02
-4.126356122570019238e+02
-4.956595699424908048e+02
-5.371365885049092412e+02
-7.808812443344297662e+02
-4.874316613084202032e+01
4.816014772404153632e+02
-1.760174132480247522e+02
-1.679695523609649399e+03
-2.354297402171043814e+03
-1.145985779273436719e+03
6.574664076901774479e+02
1.140182326449384789e+02
-7.857462593718257722e+02
-7.317294962086676833e+02
-6.985779032976640792e+02
-1.025281156897631263e+03
-1.096318464300773030e+03
-1.308915530476755293e+03
-1.679836098614286584e+03
-1.622209346431640597e+03
-1.428960700319582429e+03
-7.449792547573938464e+02
1.215873332060763687e+03
2.648306402001421702e+03
2.432303654654976526e+03
2.422971792492478926e+03
3.236270559692957704e+03
3.245081125162614626e+03
2.426429024231278618e+03
1.893377523007194895e+03
1.242910873353898751e+03
6.499335117779769462e+02
7.263039262131794658e+02
2.385930620018426453e+03
3.887889542060953318e+03
4.320207387929197466e+03
4.249787879668449023e+03
4.147705205659342028e+03
3.891994966534626201e+03
3.636533724260636518e+03
4.020344000836641499e+03
4.045397302657461296e+03
3.648593127897290287e+03
3.047886630033669462e+03
2.876278163117216081e+03
2.190759084300495033e+03
1.052288960464341699e+03
-1.344127095281458423e+03
-4.020505227649547123e+03
-4.141040557388672823e+03
-5.036621449385048436e+03
-6.103086351220729739e+03
-7.323547686480683296e+03
-6.300170981901613231e+03
-2.894090308397080662e+03
-2.077288149879267621e+03
-3.322749840063142074e+03
-2.324531970875565548e+03
8.343789112719637160e+02
-1.640068662310894069e+03
-4.620868379699074467e+03
-4.272047398405703461e+03
-4.431759679098087872e+03
-1.888822179342427034e+03
9.586390893736362386e+02
1.076595671588441292e+03
-1.179526549324759088e+02
-2.474027913188349885e+03
-3.766546157306396481e+02
1.869083164541680617e+03
1.947143971217114995e+03
1.293582410736767315e+03
4.714056716808634633e+02
1.072535911778754780e+03
2.160831057978244189e+03
2.261295966412510097e+03
2.766963849224330261e+03
2.421790393726720595e+03
2.320670096694010681e+03
2.288583685431978211e+03
1.977481234572204812e+03
1.209408621986751768e+03
6.494263778848355742e+02
1.384496349896160609e+03
2.277606811389455743e+03
2.385718442809889439e+03
2.070841334206512784e+03
1.624000074958378718e+03
5.081954897838118654e+02
-5.526494036597547392e+02
-6.186156637853347320e+02
-1.788518760563045475e+02
7.726101963390560741e+02
1.745954188031575086e+03
1.815247553067063336e+03
1.689411679768876866e+03
1.031463407517313726e+03
-9.655548122992469473e+01
-3.147136062516721609e+02
-2.191163420158546273e+02
-9.937442022757650193e+02
-1.623610695495995060e+03
-1.225714069335468821e+03
-9.370581247779912246e+02
-1.257630830136563873e+03
-2.108470321928193698e+03
-2.674610212075439904e+03
-1.015981975283703036e+03
2.784312673616798293e+02
-1.373743719754959614e+02
5.266103961274206995e+02
3.433869559768366457e+02
2.519851497116999326e+02
8.041598775581645953e+01
-2.463289564332958150e+02
-3.045590351584947939e+02
-4.090080360857284880e+00
-1.887538178672310494e+02
-1.079474793657233704e+03
-1.513542188262066475e+03
-1.426630672780902160e+03
-1.044807959916565778e+03
-5.971294372840150118e+02
-6.805992533858357092e+02
-1.058318155360437004e+03
-1.258267791138021948e+03
-2.210357349519921627e+03
-1.056537984852234786e+03
1.492524337439650424e+02
-2.850099949439185139e+02
-1.126450925424147044e+03
-1.209115096062158273e+03
-1.271027125603306558e+03
-1.474070451566841712e+03
-1.075131787036464402e+03
-7.932833563770130922e+02
-5.616342592894759491e+02
5.790947033521605114e+00
1.509520781310106585e+01
-1.336762250100835843e+02
-4.774469923726944671e+02
-9.462785099390785035e+02
-9.653407398008911287e+02
-8.707762167964899618e+02
-5.994931060962090896e+02
-5.353192295772806801e+02
-1.174297783766129896e+03
-8.133794974762680567e+02
-4.104159021167974970e+02
5.515682305345137593e+02
1.652389050536261038e+03
8.070746284752297015e+02
-8.962552053759978890e+02
-1.319604209713582804e+03
-3.229688172050332469e+02
6.917335163113613135e+02
5.925934754503590511e+02
1.665064389252642343e+02
4.362893655538027247e+02
7.590915202744031376e+02
1.600931837008067760e+03
1.355735076759922549e+03
7.463256498779387584e+02
6.246898867324866842e+02
7.318521898066730955e+02
8.766834947222461096e+02
1.131317841657453982e+03
1.402909310729117578e+03
1.538386520343382927e+03
1.809597593614904554e+03
1.631681399776348826e+03
1.136709625097823846e+03
1.096646899609198726e+03
4.444976971048766501e+01
-4.784740153298893262e+01
-1.652729568685357151e+02
-2.790842302609427179e+02
-2.743891248696166940e+02
-3.121207057817625810e+02
5.328228624947038270e+02
1.812475535658804120e+03
2.166761494251189106e+03
1.769761805812519697e+03
9.834920162612802415e+02
8.608897945962916083e+02
1.067925289700631538e+03
1.457384613810697374e+03
6.686329582450974840e+02
-8.156356230778916938e+01
-1.860424109319465913e+02
-2.478155466150753625e+02
-2.159936210201485949e+02
-3.605341522331721649e+02
-7.963568730549418433e+02
-1.470502329791929697e+03
-9.460285464271206592e+02
-1.845699566162898293e+02
4.629211121795709118e+02
8.097671144850230576e+02
8.070890329921193143e+02
1.387658206689573262e+03
1.737482402806380605e+03
1.744238793145274940e+03
2.139551731365550040e+03
2.988178151335092934e+03
3.004238287650584880e+03
2.907997184190176540e+03
3.310107776434942480e+03
3.387242881885027145e+03
2.786277272831898699e+03
2.378694669472219630e+03
2.194755793961433028e+03
2.074133012724236778e+03
2.075008393536322728e+03
2.268986888440365419e+03
1.946716246743074862e+03
1.476539522029293266e+03
8.515949659476834768e+02
7.208089179884643727e+02
8.361446072732759376e+02
1.770673628605449721e+03
2.086238619285343248e+03
1.056067430681429187e+03
9.753194529339889414e+02
7.425579631894664772e+02
1.034643610476769709e+03
1.603636607189962206e+03
2.026566102077462119e+03
1.752234964577044593e+03
1.576495885522764183e+03
1.604529892783641571e+03
1.766287412589032328e+03
2.035780956474946834e+03
2.315964904786652824e+03
2.225844464834487098e+03
2.221433564806508457e+03
2.111695422132077510e+03
-4.074018397543925403e+02
-3.744869928537098986e+03
-6.472706089896293634e+03
-6.310943968187376413e+03
-3.089618936010841480e+03
-5.526101663002685882e+02
-5.768864995332278340e+03
-4.837515155006118221e+03
-5.111504696437153143e+03
-4.969868777957725797e+03
-3.502641505326824245e+03
-3.724798976385349761e+03
-3.989313850223451936e+03
-3.613230044472571990e+03
-3.873655318511186124e+03
-3.591517595025101400e+03
-3.527689839704129554e+03
-1.711217262401743710e+03
2.576188397412192188e+01
-3.281691767441127467e+03
-4.742443221932178858e+03
-4.561502239456521238e+03
-4.610869954860345388e+03
-5.306471667969191003e+03
-5.462377203287284829e+03
-5.816653040883023095e+03
-7.112187709025964068e+03
-6.370800406279824529e+03
-4.474493294786856495e+03
-3.069433674671924109e+03
-2.997690582560692746e+03
-3.704057317962648085e+03
-1.451523293845611306e+03
2.581813454221970460e+03
2.700989571932041599e+03
1.889109040589759616e+03
2.105201062379414452e+03
1.463264567032829291e+03
-5.556332274010352421e+02
-7.734383748328341426e+02
1.688725009101507624e+02
2.578238971804473294e+03
2.503611997826827974e+03
1.859044260047905254e+03
2.373634439492674119e+03
2.626382977264120200e+03
2.505299627125430106e+03
2.470493647591975332e+03
2.174027340317460130e+03
2.027926400272656338e+03
2.475369957564434117e+03
2.741368627915915113e+03
2.114807253934781784e+03
2.105581618425151646e+03
2.268744356728654566e+03
1.353495877587450423e+03
1.179860161287234405e+03
1.639999691971901711e+03
1.961951834636175818e+03
1.917676715814754061e+03
1.796144899440834251e+03
1.404310680240067313e+03
1.141272987479042740e+03
8.451292398933104550e+02
7.679105638454186646e+02
4.336422286437770026e+02
3.883962058476347465e+02
3.313035030061993780e+02
-6.844384413246127679e+02
-1.187027062713051038e+02
1.810735831011355458e+03
2.719983266378382268e+03
2.829100118295912125e+03
2.320607387395194110e+03
1.846163080814666955e+03
1.797849204360083604e+03
1.526199582770432244e+03
1.228317605052262934e+03
1.097854362730483672e+03
7.820762515890148734e+02
2.351027049286008435e+02
-1.425049257476948242e+03
-5.242989233569792304e+02
-7.678305776649980317e+02
-8.147183487493199436e+02
-4.758095645848538879e+02
2.241574379137181552e+02
2.424899909309066857e+02
1.785713602347465780e+02
-1.077459823243859347e+02
-2.242666733634945899e+02
1.490516631861866017e+02
1.232158850998697289e+03
1.343980696124275710e+03
9.404821112566291959e+02
9.057620271378257257e+02
8.778615650549451175e+02
4.908631285441364298e+02
4.247115405888335431e+02
-8.258472298651552990e+01
-6.992516557496399798e+01
-6.228214519210187206e+00
-5.653355251124433778e+01
-2.959684066195750347e+02
-4.755761995887588682e+02
-6.632114581005774880e+02
-1.034769158835697226e+03
-1.052269802619954362e+03
-7.076717572786041046e+02
-3.359768996419288669e+02
-7.352814886371278362e+02
-1.399548247159192442e+03
-1.300819915445465995e+03
-1.021041135680268326e+03
-1.393125104905760281e+03
-1.570138682323955891e+03
-1.202011713356190512e+03
-1.081648008855360331e+03
-1.357126634311091266e+03
-1.096474579001009488e+03
-1.360530456661188964e+03
-1.398294241295638585e+03
-1.183828034099694605e+03
-3.391297185461899630e+02
-6.631899793803455623e+02
-1.366958724063855470e+03
-1.164431215806182308e+03
-1.121777870147015392e+03
-8.750976778340462943e+02
-6.153957752107381793e+02
-3.187387519674988425e+02
-5.780834446320432107e+02
-9.634994349087588716e+02
-1.153012042824031369e+03
-1.652653050423493823e+03
-2.924890499233970331e+02
-7.775321800155430765e+02
-3.828764110412530954e+03
-6.837200370573484179e+03
-2.386908440156251800e+03
-7.418708530529827385e+02
-8.631213753451679622e+02
-4.786493665588744193e+02
-7.855548553290253722e+02
-1.311730919442387176e+03
-1.490229427744311806e+03
-4.440916319167723714e+02
5.645153432842793109e+02
6.465376528403567136e+02
4.050850478935236083e+02
2.221754091635897055e+02
-4.325057800611552494e+01
-1.224438903072528007e+01
3.891122433125283919e+02
4.078355481784767562e+02
-1.739458007786678877e+02
-6.263637163431588988e+02
-4.064993793142456866e+02
-6.983258297239958665e+02
-4.308594107078238267e+02
2.419301315204472473e+02
4.360726979751966610e+02
-1.604074701666974647e+02
-7.485626152051938789e+02
-6.645038910931195915e+02
-1.085242496115474751e+03
-1.118708708065462815e+03
4.959860430432187854e+02
1.646765735904113853e+03
1.350495900997512308e+03
9.151940492000657059e+02
7.451086091685227757e+02
5.363715476147309573e+02
9.258474212158751016e+02
1.148340139524902042e+03
9.597090915364566399e+02
1.002990143260602167e+03
4.122657560487301112e+02
2.804075405346420098e+02
1.603795690585990030e+02
3.841549096829466521e+02
7.417936247122629538e+02
9.082730137297752435e+02
5.595198669417071642e+02
4.495668183104421018e+02
5.484703385907766915e+02
7.050961263621012449e+02
1.013370949212506275e+03
5.112869079274956334e+02
2.108496915134203107e+02
3.621054782887722467e+02
5.340150140239625216e+02
5.265662242259929826e+02
1.164888616514932664e+03
2.146850736716373376e+03
2.319333710783419974e+03
1.764246345924841535e+03
8.676270101162723449e+02
-2.205730095199634775e+02
-2.334394656687906604e+02
4.539496642757852669e+02
1.653587839217012970e+03
1.478529405901430437e+03
1.319806086785040861e+03
2.112372058254816238e+03
3.191264948911700117e+02
-5.648625325534959529e+02
-3.882568385041244710e+03
-4.890060168259069542e+03
-4.924454386024108317e+03
-5.370795443574506862e+03
-5.417148664648165322e+03
-4.437495632994933658e+03
-4.171854000111407004e+03
-5.502259972954614568e+03
-2.215829930897877603e+03
2.253380797361401619e+03
2.841372228852204898e+03
3.228141326456739080e+03
3.582645747968234446e+03
8.597429049739733955e+02
-4.271593405703384633e+03
-4.598391657012119140e+03
-4.306649512921359019e+03
-3.615491127818848781e+03
-2.404918760691864463e+03
-5.899502388104385773e+02
-3.305579736682311704e+03
-5.246754216410543449e+03
-4.775530549541545952e+03
-3.179007412110837322e+03
-7.862303283866231141e+02
1.980822050210041880e+03
2.468204585345397390e+03
-9.400414357769972185e+02
-5.022870410045212338e+03
-6.064333135659790059e+03
-6.158417908625269774e+03
-4.448154440081387293e+03
-2.939710591662530533e+03
-3.309240551703162510e+03
-9.046599810252772613e+02
1.825190967035618314e+03
2.200242631073053872e+03
2.408487237412947252e+03
3.222828648117509147e+03
4.324275050576552530e+03
4.264816260453456380e+03
3.888450897675039414e+03
4.593226756250641301e+03
4.616151809738031261e+03
3.906135856322970540e+03
3.564147059403297590e+03
3.594260948983956041e+03
3.642545892997073224e+03
3.828925103638594010e+03
3.766328962176526602e+03
3.414996706297606579e+03
2.690068432979490353e+03
2.088631855385585823e+03
2.021511661474102993e+03
2.326422396561885762e+03
3.308268818139792529e+03
3.017690787843720045e+03
2.638315280067490676e+03
2.051225659277620707e+03
1.935379627587128880e+03
1.897727074237602437e+03
1.488344151257198064e+03
1.652129208757613469e+03
1.457267118157633149e+03
1.569075082186736381e+03
2.452390673868528211e+03
2.478810013535397957e+03
1.482373437044615457e+03
6.650339056910110003e+02
2.103638671130522653e+02
1.621715942155716448e+02
-4.143777869743619391e+01
3.543380913596232631e+02
8.526799215609302109e+02
2.766524674716370669e+02
-4.349756175667650382e+02
-2.268329092842075738e+02
3.927451471698499290e+02
7.228155800033687228e+02
1.004453082880032071e+03
1.628602692004527171e+03
1.665550438396891423e+03
9.169182007297399650e+02
1.384843479333939911e+02
-1.494264076546674289e+02
-2.267079449670745817e+02
-9.324930582131800065e+02
-1.527704086848710631e+03
-1.471887270328907334e+03
-1.284304069825361694e+03
-1.676093193969169079e+03
-1.500387471897888872e+03
-1.066939599318051251e+03
-1.257635865976014202e+03
-1.814484026136281955e+03
-1.859429317468332783e+03
-1.649444007235225172e+03
-2.087646510674048386e+03
-2.720953956566096167e+03
-1.779240820464741319e+03
-1.084388768827508329e+03
-1.758394599789937729e+03
-2.672256301749306658e+03
-3.388002439119241444e+03
-2.914615030883539021e+03
-3.098903136627719960e+03
-1.629829109830087191e+03
-1.946498825009225797e+01
7.952546163645649813e+02
1.566354936449869001e+03
9.318440040031827039e+02
4.098517495217187161e+02
1.654207122697347359e+02
6.557177662090245462e+01
-1.031671859178405157e+03
-2.817236078238104710e+03
-5.817096801047197914e+03
-8.524152349635061910e+03
-8.273342205716484386e+03
-6.260824267329452596e+03
-3.130661628921314332e+03
7.963430002398158649e+02
8.903355684588813119e+02
-1.118670329491655139e+03
-5.379628537332254382e+03
-6.010625507001360347e+03
-3.286642264052525661e+03
-2.295487394442357072e+03
-3.955078942550172997e+03
-6.266429624034881272e+03
-6.078531715471809548e+03
-5.664253044291233891e+03
-4.833713477027307817e+03
-4.130761074790791099e+03
-4.100305405552758202e+03
-2.301312179183272747e+03
2.319050721479282856e+03
3.952903225809469859e+03
4.402405629387038061e+03
5.414638010236156333e+03
6.122642081901479287e+03
5.594353907247311327e+03
5.136681952947522404e+03
4.567746500668771660e+03
4.064623822652676608e+03
4.313324898296450556e+03
4.650905263044975982e+03
4.250419939523439098e+03
3.687852982610914751e+03
3.855311920843455482e+03
4.394776250985928527e+03
4.373235724457738797e+03
3.820781165999724180e+03
2.733459942298595706e+03
2.566296467819690861e+03
3.244293658942507136e+03
3.435493917073203193e+03
3.191932517393911894e+03
2.497598462442001619e+03
1.075523334294345659e+03
3.548632770777242627e+02
-4.703185773345524581e+02
-4.591041885490174081e+02
-8.452672281587791758e+01
-8.495001709288482061e+02
-1.557973917002088456e+03
-1.873006399456178997e+03
-2.595594379312333331e+03
-3.565664750908125370e+03
-3.505266382412899929e+03
-3.412282618316664866e+03
-2.979645424339649253e+03
-2.304341717314087873e+03
-1.872469261038949298e+03
-1.213988259097694254e+03
-2.870040418916456559e+00
1.978903625895378809e+03
3.343447494250998716e+03
3.440627820982967933e+03
4.107403410328456630e+03
4.972726927753651580e+03
5.410892934400808372e+03
5.767056526449125158e+03
5.812236375031751777e+03
5.453490985724592065e+03
5.581669902698813530e+03
5.812860058121978000e+03
5.251312051331326984e+03
4.197139507887111904e+03
3.985994423748790723e+03
3.983937843229382452e+03
4.708741392146313046e+03
3.989556489209058327e+03
4.605555252605284295e+03
5.147672848075362708e+03
4.602832916967923666e+03
4.279883602164836702e+03
3.881727419323008689e+03
3.611471967702692837e+03
3.258204933407362205e+03
3.056010119173313342e+03
2.437908299267039638e+03
6.209002903393951556e+02
-3.911031688693907427e+02
5.528790014300568600e+02
2.419571432050232147e+02
-4.678346290571905115e+02
-1.166504362850785583e+03
