3.734283309027405267e+02
7.712994550894269707e+01
-5.014843403531163091e+01
3.155694193215336441e+02
2.743245264399211578e+02
1.852080380239341082e+02
4.112824566105546182e+02
2.855311946251872541e+02
-8.919863906896721346e+02
-2.063223716100214006e+03
-3.032193059621832163e+03
-3.058894968916427388e+03
-2.498371592873857935e+03
-1.934639663203260625e+03
-1.250637592680936677e+03
-5.723502662606513240e+02
7.722623427320662870e+01
1.230155471933662284e+03
1.697504506266247290e+03
1.279308013815096501e+03
-1.654327199982925322e+03
-3.370465283930612713e+03
-1.986068033017661492e+03
-2.643140260948939158e+03
-2.868690271559002213e+03
-2.456635648864008544e+03
-1.814939707391180036e+03
-1.611577459928969347e+03
-6.284754103067421056e+02
6.463174586944662678e+02
5.308155306519325904e+02
-1.603962165754912576e+03
3.859935049438501551e+02
1.227664614158920813e+03
2.309631112875194248e+01
8.423445856710757198e+02
-2.765405735640431999e+02
3.054456909275510270e+02
2.613340361473010944e+03
2.001167923352391881e+03
1.132919645343324873e+03
8.305828023645372014e+02
-4.187601034657808441e+02
-1.481066266536705143e+03
-1.999374392246949355e+03
5.537427686484780054e+01
-2.267820092302144076e+03
-3.124956210182785981e+03
1.179896086853031534e+02
4.560452224758654438e+02
-1.691778292077504830e+03
-4.224881214730228862e+02
4.248755063803835696e+02
1.069323427903002084e+03
1.048879957355432452e+03
8.085402209042234745e+02
1.487339077710853189e+03
1.517274169301246729e+03
1.288325188257276523e+03
7.224412913625633337e+02
-3.323512160716150561e+02
-1.015996520762043815e+03
-1.130449580831523917e+03
-1.016813211269096996e+03
-7.420353120033047389e+02
-7.509562545450630466e+01
1.061978142363154348e+03
1.619191778975646002e+03
1.764532497138482540e+03
1.412976630025094892e+03
7.824329394522890198e+02
4.308234056606847275e+02
5.151700145746905264e+02
2.656917770280214199e+02
6.665011791719936127e+02
1.588639819633312982e+03
2.233148596569672463e+03
2.224914881508896997e+03
1.829901804488829839e+03
1.482087225025025646e+03
1.360499579022767875e+03
1.178003736127818911e+03
1.098410419850308244e+03
3.347861648979155120e+02
8.107516028045448309e+01
5.762676760696549536e+02
-5.653380877452933362e+01
-5.192118507960328770e+02
-7.937191536510764536e+02
-1.088350514338248786e+03
-1.077226657797186135e+03
-8.832815647576369429e+02
-3.049479682522860458e+02
1.920422213296676262e+02
5.696879979896159512e+02
1.081959990174890663e+03
2.000838664266694195e+03
2.847218319578141745e+03
2.675987114029157510e+03
2.110134275776107643e+03
1.275557561599019891e+03
4.600553971917009335e+02
-8.127413076854857366e+01
-6.285395336873946235e+02
-2.078418026368303515e+02
9.877762273313041419e+01
1.843519429325921237e+02
3.818279581713040329e+02
1.770910094455065575e+02
8.110499809497389379e+02
1.044738879673671363e+03
1.053070767248672837e+03
1.227869952070204818e+03
1.342143439630047396e+03
1.480907024454396606e+03
1.423105785512895409e+03
1.193630616637017056e+03
7.024578679047546075e+02
2.495326336777378913e+02
-2.361910873512706814e+02
-3.427863686117619295e+02
-5.432890113509067760e+02
-5.077140194731346696e+02
1.428798475641299319e+02
1.221423382754995373e+03
2.696896069523850201e+03
3.373248509707310859e+03
3.669388060402828614e+03
3.586200758574204428e+03
2.810710118660784246e+03
2.169783017666013166e+03
1.853323368631119138e+03
1.510159264601091081e+03
1.095158120563798093e+03
8.003018062749856654e+02
8.555659662029660240e+02
9.239898909095214776e+02
1.025654767867033001e+02
-3.657443365960590427e+02
-1.675997159540209395e+03
-2.892288429309558524e+03
-4.748690801287120848e+03
-5.004210380801489919e+03
-4.646896826093922755e+03
-4.389783351071717334e+03
-3.625889475818713890e+03
-3.345142057280266272e+03
-3.643575797146750574e+03
-4.471239438719788268e+03
-5.206473062369202125e+03
-5.091164425740535080e+03
-5.038317615604748426e+03
-3.194911447409942866e+03
-1.369100869373384057e+03
-2.017890479707544500e+03
2.776972134824077330e+02
1.553648081871572685e+03
2.136992400452034417e+03
2.185699601156783956e+03
1.876727503870967212e+03
1.516057771570677232e+03
1.371721551515118563e+03
1.403774188956208718e+03
1.428089651178665008e+03
1.738660825472677516e+03
1.780536595246446723e+03
1.507720488834787830e+03
1.151291945953552386e+03
5.773176962552040550e+02
-2.951286010760821341e+02
-8.540584089355759261e+02
-8.274996689623312704e+02
-2.564850144893526931e+02
3.899000867572087827e+02
9.136584856519787081e+02
9.708290215223048563e+02
7.343964245799290893e+02
1.444513384957311473e+03
2.099270579244264809e+03
1.877740229342360635e+03
1.544980923760151200e+03
8.770006766156927824e+02
-2.841494934741705833e+02
-6.163392929086916183e+02
-1.022501462114066385e+03
-1.028559319431600898e+03
-9.565216677549273072e+02
-3.133549500665625374e+02
5.740006089903374686e+02
7.856340522677862737e+02
1.205665256017756974e+03
1.244255500052444177e+03
1.629452818861019750e+03
2.017224539687523702e+03
2.221699981535854022e+03
1.913041073872660263e+03
1.695225827464083523e+03
1.407360096608247659e+03
1.386554202844245538e+03
1.267961218366987168e+03
1.063539220647555112e+03
8.362876070814147624e+02
-2.907107491025471973e+02
-1.500373928740766360e+03
-1.984426761655032806e+03
-1.779675812608204296e+03
-1.622135378544691093e+03
-1.439715973262014359e+03
-1.248262002807597128e+03
-1.917661120731875599e+03
-2.222805733753168624e+03
-2.006578873305452589e+03
-1.243992166839947686e+03
-7.618962382480216320e+02
-2.533194249409233123e+02
-5.422786988183267454e+01
4.557548236701100564e+01
3.993271899172789858e+02
6.230574620222656677e+02
3.798420200610700590e+02
-1.901986332795476358e+02
-7.299282099178997214e+02
-5.392107842643840740e+02
-7.009245212425402087e+02
-1.211987263981587830e+03
-1.296272837867415319e+03
-1.294647484832547434e+03
-1.341028775544287100e+03
-1.373396929754897883e+03
-1.810648485231336508e+03
-2.811623144747298738e+03
-3.218205869045458712e+03
-3.236332420739237023e+03
-3.203986214786990331e+03
-2.519032221715131527e+03
-1.846350255451260864e+03
-1.793773667938248764e+03
-1.517219576913417995e+03
-1.283566757356350536e+03
-1.247759850108963292e+03
-1.739816908475199853e+03
-1.988519375508846906e+03
-2.101737045532759112e+03
-2.051461823359236405e+03
-1.903570856525734825e+03
-1.183948620745048856e+03
-9.185358520967314462e+02
-1.162279373432099419e+03
-1.263195371412211671e+03
-9.151216881772371607e+02
-4.669025237969356681e+02
-5.595660924117140667e+02
-4.511564657915388352e+02
-8.666583055833478966e+02
-1.057985924415648242e+03
-7.370336458423115573e+02
-4.547483506594953155e+02
-2.740283969996481801e+02
-2.907289147377244376e+02
-8.878543226973998799e+02
-1.643387461939484638e+03
-1.946307154535930295e+03
-1.900626439195369358e+03
-2.061348591227459565e+03
-2.060489998340171041e+03
-1.418029638375279319e+03
-7.028617716836614591e+02
1.551440416798838271e+02
4.749529459212600386e+02
4.023501570746046809e+02
8.821954335675495713e+02
7.055123569245498629e+02
1.153076337363120416e+02
-1.764892409778497608e+02
-2.549903478993166175e+02
-3.032178450180553000e+02
4.027876337404791798e+02
9.413764460928579183e+02
1.233524056048762304e+03
1.312966772366146870e+03
9.776825945673791693e+02
8.096287357756968959e+02
6.276517940352210871e+02
3.897837658293406662e+02
9.058047321935445098e+02
1.039583002808389665e+03
1.296006346747134330e+03
1.492157290157656234e+03
1.472986449524191585e+03
1.391234944144293877e+03
1.367748542000308817e+03
1.233592934817653031e+03
1.495379037620041800e+03
1.556385045524686348e+03
1.886363274265034988e+03
2.291968281777776156e+03
2.318481904006172499e+03
2.103663957429906077e+03
2.513586801810166889e+03
3.031984642749146133e+03
2.671994728206859691e+03
2.710397104269829015e+03
2.417934406884717191e+03
2.153595325419270466e+03
2.308101326849169709e+03
2.508013526120285860e+03
2.716217242018852630e+03
3.231242636374393442e+03
3.267542221975027132e+03
3.319681969091318479e+03
3.346444077901413493e+03
3.160795574783850043e+03
3.281711294903569978e+03
3.635031773823357526e+03
3.878597201448386386e+03
3.642168140186753590e+03
3.639637127862898069e+03
3.786930495723060176e+03
4.212834531637831788e+03
4.167041177451529620e+03
4.247359262576079345e+03
4.123725279962813147e+03
3.708972301733619588e+03
3.554958052294906338e+03
3.497596172683262921e+03
3.332689949438712574e+03
2.297916362691856193e+03
2.290642142166718429e+02
-2.273884450075469886e+03
-2.550089697857707051e+03
-2.667753163101251630e+03
-3.047047184748866130e+03
-2.831526546869309186e+03
-3.210668914265388594e+03
-3.392505054912985997e+03
-3.145056728923993887e+03
-2.756543480196712608e+03
-2.834059991089481628e+03
-7.167476942747124440e+02
1.701166345369609417e+03
5.085892460135922306e+02
-3.551635791919910389e+03
-5.168764805677366894e+03
-4.622898733871205877e+03
-2.264253917133915820e+03
-2.600094630678355315e+03
-3.684577576323737958e+03
-3.032768665594026515e+03
-4.351833010749500318e+03
-4.263957751115140127e+03
-4.333210381473185407e+03
-4.006720640674023798e+03
-3.132593674742628991e+03
-2.878941865016288375e+03
-3.798876473984509175e+03
-4.648430325022029137e+03
-4.150613749065668344e+03
-2.657401913877411971e+03
-1.012789962421815630e+03
-4.477973762238461291e+02
-9.434488149917089004e+02
-1.591809101023423864e+03
-1.543841600343697792e+03
-1.387545807071363015e+03
-1.659988503702260914e+03
-2.535139326882318983e+03
-2.881009286566414630e+03
-2.826556847771898447e+03
-4.109697112883739464e+03
-4.566376604155017048e+03
-4.434570992178186316e+03
-4.474233689754552870e+03
-4.766280837797132335e+03
-4.710628166565916217e+03
-4.874178560086507787e+03
-4.745863779195951793e+03
-4.696659428962999300e+03
-4.808521363234319324e+03
-4.522276652018449568e+03
-3.915789839559668508e+03
-3.915024765553425368e+03
-3.916928784322507909e+03
-3.224467857739611645e+03
-2.664457627048048835e+03
-2.217686909359830679e+03
-5.520423404595240982e+02
3.196563483253892741e+02
9.606108635894505596e+02
7.570329467229175862e+02
2.630747611179846217e+02
-3.050905531083030837e+02
-1.018298835664916510e+03
-1.344407968474323980e+03
-1.082282532423849489e+03
-5.586762724337921782e+02
-4.084688031482057227e+02
-8.214355145365191220e+02
-1.265407521741359233e+03
-1.075940498281864393e+03
-1.041849451727906171e+03
-1.529954565405110998e+03
-2.136099898290628516e+03
-1.369148915740497159e+03
-5.138849773204394751e+02
-4.171447807121085134e+02
-4.896845854150832338e+02
1.696188597612453748e+02
5.348895607355876791e+02
1.274366013919394391e+03
1.755187947330979796e+03
1.696388410973571126e+03
1.639150772152426498e+03
1.701445205074608793e+03
2.201412235484043322e+03
2.647177225794549031e+03
2.070942117862536179e+03
1.388952492270726907e+03
1.562361994899378942e+03
2.258296266151160580e+03
1.705871907880893559e+03
7.673093685795228112e+02
-5.827348762358506917e+01
-9.047498946480505992e+02
-1.425932465914331260e+03
-1.570659052227693792e+03
-9.788173999168043338e+02
-1.982396223677662306e+02
1.191263702850254163e+02
9.304044370215239041e+02
1.099725496049762341e+03
1.010117199064475130e+03
5.236369172102106404e+02
-8.446052269817179194e+02
-1.663514524601093171e+03
-1.944974555180238212e+03
-1.620895952486288252e+03
-1.184131561939307630e+03
-1.080607711878609734e+03
-1.198230091577723442e+03
-3.378729925367169926e+02
4.034499836576088683e+02
7.618454257293122964e+02
4.404126533256209655e+02
2.151903301751761433e+02
-2.999700675225772670e+02
-1.007147198391363418e+03
-1.072214391463006223e+03
-6.128403657582413899e+00
1.027105959889733185e+03
6.124782417321847561e+02
3.109393535187343787e+02
9.364926625826738018e+02
8.722344595797885631e+02
4.631597801252856357e+02
3.118770879209236924e+01
4.293020761185688343e+02
1.212505695255765659e+03
1.362781860538918181e+03
1.579174230075185960e+03
1.171724786214528194e+03
1.284355172650550230e+03
1.446939232213496553e+03
9.564040860605605303e+02
4.777096917452911384e+02
4.777266743084978771e+02
8.053585834508691050e+02
1.279634083604370744e+03
2.291377835312877778e+03
2.297355130513286895e+03
3.089723550470537702e+03
3.538321428153777561e+03
3.326959970980898106e+03
3.235375808200733900e+03
4.175502149311620997e+03
4.602460405290753442e+03
4.504085307054849181e+03
4.404256981880254898e+03
4.662922860369018963e+03
5.133892650781973316e+03
6.228135090731503624e+03
6.237343527877735141e+03
5.723632065022643474e+03
5.665692864186926272e+03
5.784532044413914264e+03
5.429926161979715289e+03
5.009509459517190407e+03
4.885439922258505248e+03
4.976379461687623007e+03
5.063219344349584389e+03
4.282779696306914957e+03
3.669022908859915333e+03
3.427862378994786923e+03
3.740784756413149807e+03
3.763896205816978636e+03
4.319196787225964727e+03
4.655299875126564075e+03
3.685045094512098785e+03
4.016333347444508490e+03
4.180102299688062885e+03
3.150371255955718880e+03
2.888960759845866960e+03
2.604669037242378636e+03
2.678349980221596070e+03
2.724713588263430665e+03
2.028682826440218378e+03
1.992293761692681301e+03
2.804281249569788542e+03
3.008505588728169641e+03
2.114027416556552907e+03
9.754847096576013428e+02
6.582650549446964305e+01
-1.011949009354426607e+03
-2.422956730439436342e+03
-2.920216205644166621e+03
-2.422821485215958091e+03
-2.170931874327606693e+03
-1.380566231723197234e+03
-7.867611354606162877e+02
-5.455626508775416141e+02
-9.510238956008194577e+01
-2.753984966514554458e+02
-1.681512809402226821e+03
-2.307515532330781298e+03
-1.220454679014528892e+03
7.606969802043875006e+02
1.145788941121187463e+03
3.582747958092120655e+01
-3.882609806132310837e+02
-2.384699689377630420e+02
-4.557410813194720731e+02
-1.025114781606620909e+03
-2.066612314786359093e+03
-4.416099868956391219e+03
-5.017440525442000762e+03
-4.710777584319897869e+03
-3.855075032580178686e+03
-4.398244447530024445e+03
-4.404218424760282687e+03
-4.882939126614503039e+03
-3.507305277822821154e+03
-4.182192443354231727e+03
-4.712607730114271362e+03
-5.115442634171608006e+03
-4.520594543636441813e+03
-5.760975124215547112e+03
-5.036487828397372141e+03
-5.770026963523925588e+03
-6.621458911432545392e+03
-9.630685219024073376e+03
-1.008260820122245968e+04
-1.078412924718082650e+04
-1.266811616336190673e+04
-1.230541299531377081e+04
-1.411380884125010016e+04
-1.308018043371396743e+04
-1.509842753593431007e+04
-1.388540251008300584e+04
-1.316783213374354818e+04
-1.078257235281525936e+04
-1.081041915830935068e+04
-1.160320032200164314e+04
-1.184976584929765886e+04
-1.445593807760731761e+04
-1.090048147231382427e+04
-8.271205837509800403e+03
-9.092954084778022661e+03
-1.103956094874815062e+04
-1.237286969477186358e+04
-1.239959842580229270e+04
-1.127157314202632006e+04
-1.038460160098285269e+04
-1.065951035614220382e+04
-1.065906122690283155e+04
-1.008204774501475549e+04
-9.834286474561911746e+03
-1.102962784068735527e+04
-1.264882471798540610e+04
-1.295567056707816300e+04
-1.273795141513338967e+04
-1.125338460384867540e+04
-8.513774627039621919e+03
-5.720917154668917647e+03
-4.958562742186048126e+03
-5.058441966630025490e+03
-2.784285950823469648e+03
7.720907372098889709e+02
4.519696614323367612e+03
1.014170580776844508e+04
1.257727978945663745e+04
1.109274025946458096e+04
1.049438898118455290e+04
1.128843710725124765e+04
1.137897368540949174e+04
1.261008323986952018e+04
1.429298140931702255e+04
1.545374328851501377e+04
1.688438086896390450e+04
1.902951258039883032e+04
2.106130207233086549e+04
2.297461548735166070e+04
2.432445029225880353e+04
2.424796624553688525e+04
2.362153911461323878e+04
2.396643694836021314e+04
2.396442925436778751e+04
2.342054743957508981e+04
2.336297481362320104e+04
2.285286679572992580e+04
2.231829695367797831e+04
2.194326316392834269e+04
2.119089231032264070e+04
1.974932527837154339e+04
1.814060769912193427e+04
1.677666134407698337e+04
1.563048052653231389e+04
1.464817861019936572e+04
1.342165599648749776e+04
1.244793942372485981e+04
1.208505823820833393e+04
1.170597424903975298e+04
1.057268593889877593e+04
9.151222022001524238e+03
8.128643694818421864e+03
6.933898442558854185e+03
6.154892604299765480e+03
5.791717627884327158e+03
5.192329195612106560e+03
4.605583455125108230e+03
4.206385758066842754e+03
3.933678897641163985e+03
3.753371811228850220e+03
3.487456452366531721e+03
2.288802551068111825e+03
5.983351010085638109e+02
-4.250236066155886760e+02
-8.244231333004016733e+02
-1.403985221004809546e+03
-2.122779688938203435e+03
-3.304919295231926753e+03
-4.401558372069257530e+03
-4.776847627084775922e+03
-5.856885450003206643e+03
-7.467917107142187888e+03
-8.661035627302875582e+03
-8.940391692844803401e+03
-9.332136927654106330e+03
-9.685408726672896591e+03
-9.948309769952322313e+03
-1.013596103027715253e+04
-1.070954887591368788e+04
-1.136831509690950224e+04
-1.269747396693944575e+04
-1.485312349951200849e+04
-1.799239777267201862e+04
-1.930347974963441811e+04
-1.936959839123118581e+04
-1.870891674169382895e+04
-1.821353517049226866e+04
-1.747363690385596419e+04
-1.637555413650273476e+04
-1.587660139238958072e+04
-1.507559065081709741e+04
-1.500672816186303135e+04
-1.485636018941200382e+04
-1.382667764341119437e+04
-1.069893096390555365e+04
-8.207361032396871451e+03
-7.508131388344635525e+03
-5.967417347392253760e+03
-5.062413841277533720e+03
-5.078345931372085943e+03
-5.145401534985315266e+03
-4.536660397412691964e+03
-4.081347945989085474e+03
-3.866699469574431987e+03
-4.045937093375881432e+03
-3.345156883201741948e+03
-2.587468457131757077e+03
-2.210035888285618057e+03
-1.519005178745830790e+03
-5.275052065187037442e+02
-1.873043394273585704e+01
5.800612316273021634e+02
3.576681343072487493e+02
6.449023073641013752e+02
1.894540137887151559e+03
2.494432487679564929e+03
2.520461026645830771e+03
2.160550223778074269e+03
1.220662474241437167e+03
1.443619301826220862e+03
1.836254458548659841e+03
2.295415335349891393e+03
2.566949237299830656e+03
2.659713251516035598e+03
2.765569682650467257e+03
2.490293969784253022e+03
2.661857293030994697e+03
3.996123479066619439e+03
5.748037902285300333e+03
6.035541833091489025e+03
5.280600271069315568e+03
5.160151392891082651e+03
5.662069928208750753e+03
5.645196357954894665e+03
5.788440809307321615e+03
5.309789590896508344e+03
4.636151974863547366e+03
4.680370262416926380e+03
4.880468548858426402e+03
4.064399711659217246e+03
3.383144320413543483e+03
2.844609797662824349e+03
2.269723970152289894e+03
2.680574267932108796e+03
3.290068545354150046e+03
3.261170137600019643e+03
2.809838408784740750e+03
2.851096228508998138e+03
3.349356662364662043e+03
3.276523332087851941e+03
3.005479851798781965e+03
3.268198749966292326e+03
2.613575853550679767e+03
2.615349683484822094e+02
1.753125941767541235e+03
2.680317540303195528e+03
2.848170133373087992e+03
5.427717870460442100e+02
-1.858884121444945094e+03
-1.129843510832673246e+03
-9.389960480702769701e+02
-1.208214303368498577e+03
-9.934338498633928793e+02
-1.775618267812598333e+03
-5.377534593809688204e+02
-1.895796878428699529e+03
-4.766422187809217235e+02
-7.421862247101234971e+02
1.164636891298159981e+03
2.390871666348518374e+03
7.136452659736585247e+02
2.481084346949779501e+03
1.082293775552258012e+03
3.013449428828769783e+02
-8.127117132463898770e+02
-5.777457082958159162e+02
1.494393085672932784e+03
-1.030243974786884564e+03
-1.190617806498862365e+03
1.060425852621905733e+03
4.419027629469111389e+02
-8.041254321915274659e+02
-2.482396427332969324e+03
-3.367928544190207049e+03
-2.105657343751006465e+03
-9.303702030661561366e+02
-2.600045510954444694e+02
1.193544093475690033e+03
3.343545160861208387e+02
-6.464941257130006989e+02
5.352126676851238471e+02
4.725652643679809444e+02
2.725585002233861474e+02
1.999290648127862369e+03
7.269076007596896716e+02
-8.014452348286912411e+02
-1.191680217377471308e+03
-1.398680973218880126e+03
-5.873190068815928271e+02
2.864274024607103115e+02
4.860093166452760727e+01
-1.936972810703407220e+02
-4.064213466196958393e+02
-4.744619517373951112e+01
-2.857101453778147970e+02
-3.231744183240945745e+02
-4.137317829778014016e+02
-1.091444973640759599e+02
4.026525391535455469e+02
2.323565429250396846e+03
2.517544028200479715e+03
2.716725788840783935e+03
2.759304618964963538e+03
2.277312909070827573e+03
1.899745471721740159e+03
8.996660022928805347e+02
-7.498294319800270387e+02
-1.228796063624197814e+03
7.210909586802323474e+02
6.227905671974666575e+02
2.562570114066448355e+02
1.844191733909428876e+02
-2.406675567927337340e+02
-7.317383237090149350e+02
-9.470486162040793943e+02
-6.115929347932478777e+02
-5.570722388379118684e+02
-5.017526388169816300e+02
-8.142426609254995640e+01
3.138151204849289115e+02
4.913794403882376400e+02
5.689948998916153187e+02
9.857085877087573635e+02
1.040423078212109658e+03
1.159438990545535262e+03
6.365624578795557227e+02
2.439223529045742680e+02
1.224423173847010560e+02
5.220314222216321696e+02
2.979438053936196411e+02
-9.421725232055575816e+01
-5.569865301256993462e+02
-5.746059690385557133e+02
-5.871396450453853504e+02
-5.910977367434566077e+02
-7.392609208629990007e+02
-9.367064868389223875e+02
-1.197239226351841808e+03
-7.638082691941159510e+02
2.542360430654645711e+02
5.786571878123139641e+02
5.866715263260842903e+02
-2.540012249032925240e+01
1.252604288385020936e+02
2.603792789232591076e+02
6.218419101943544547e+02
6.065755281427724412e+02
5.276306493284421322e+02
6.709645850005538250e+02
7.184538110974980327e+02
3.480463855182542261e+02
-2.017496875161226200e+01
-3.501606295937326081e+02
-9.080936790701985046e+02
-9.120602843828472714e+02
-8.362431133961106298e+02
-6.388268021217389787e+02
1.751099957449079341e+02
1.097636476354290380e+03
1.720827125739166831e+03
1.238447008724469242e+03
8.220765831574691163e+01
-1.481020203832315474e+03
-4.230550372372940728e+03
-5.082238718677877841e+03
-5.078886805501771050e+03
-4.392594104822464942e+03
-4.197457023010138073e+03
-4.893446863970094455e+03
-5.499665174413994464e+03
-4.680101007373169523e+03
-4.678727823273963622e+03
-1.704610997046493139e+03
-1.622945546810705764e+03
-3.562928753827663058e+03
-5.733590145151192701e+03
-5.531896597448841021e+03
-4.288756715055075802e+03
-1.466078587372632683e+03
-8.439212090765232688e+02
-3.424209505057485330e+03
-4.039884439682592074e+03
-4.027981560614048703e+03
-3.640447744189588320e+03
-3.468228703046637747e+03
-2.926339945937041648e+03
-2.502822464267444957e+03
-2.269679329910917659e+03
-2.323859738809931514e+03
-1.626360795815806796e+03
1.117833677553579491e+03
1.923765060272465234e+03
1.874465982321978117e+03
1.714995645105033418e+03
1.577317321130211440e+03
1.558428754515732862e+03
1.576439817547973917e+03
1.871355589819213037e+03
2.245198080451209535e+03
2.212056735506512723e+03
2.348939484664677821e+03
3.220846400703505424e+03
3.626853797884792584e+03
3.442980470906456958e+03
2.982236287424063448e+03
2.457683816070804369e+03
2.537310114586170585e+03
2.286176354783239276e+03
2.116373352355958559e+03
1.968941719474319825e+03
1.551812736417588667e+03
1.294980028628429864e+03
9.834944540142201959e+02
6.443945999507475335e+02
6.378233548923614080e+02
3.228227478442291840e+02
4.333162094124721193e+02
6.924192799074356799e+02
1.207279047726112140e+03
1.755940800935331254e+03
1.525358526844785274e+03
1.014591205245309652e+03
9.045915106916920649e+02
9.902395513963606390e+02
1.070585212869541465e+03
7.557191675332389877e+02
1.287447014821935056e+02
1.056628055425128849e+02
1.377368331503909182e+01
-3.297750785002260727e+02
-7.913902369608243816e+02
-1.238332781199086185e+03
-1.236332538533770958e+03
-1.479283905128064816e+03
-2.316205324970391757e+03
-4.917161178192076477e+03
-3.451074412988402401e+03
-1.964908268682133667e+03
-1.381624614947981399e+03
-7.792533367324386973e+02
-2.468785975138629851e+02
-3.765532011811870348e+02
-6.754031273922732908e+02
-8.354139849078769657e+02
-9.596723877179287001e+02
-1.045105533336319240e+03
-1.055630399793443303e+03
-6.632527723459992330e+02
-1.035108543186289353e+03
-1.348222132927341590e+03
-1.591564710387542164e+03
-2.060097163193247525e+03
-2.308959341527167908e+03
-2.572182815393781766e+03
-2.755753663959495952e+03
-2.166747565236326864e+03
-1.406189219908623500e+03
-8.120006293923579506e+02
-1.341765851137095353e+02
1.538335462221014360e+01
3.669238410447616339e+00
-5.033916152832592843e+02
-9.547450347038874270e+02
-1.015327263110836498e+03
-8.101219323759655708e+02
-7.950923309970764876e+02
-7.473587621925684061e+02
-2.599666460447329541e+02
2.801267361022394198e+02
4.229083501473739375e+02
1.033830293957076520e+02
-6.804398301692669975e+02
-3.805347386756221795e+02
-7.139472405181787735e+02
-1.244813711770452755e+03
-1.362240644270592156e+03
-1.133120046206908683e+03
-8.763387947353456866e+02
-5.599343014764632471e+02
9.016798121502787922e+01
9.580008924597134410e+02
1.307460491236922508e+03
1.363618642482646919e+03
1.067553501634153008e+03
1.099168621060394571e+03
6.663827287121489462e+02
2.782844170419903094e+02
-1.050590079358849778e+02
-5.876226150220545605e+02
-1.264537919704178535e+02
-4.507225986904322781e+02
-1.934461178297501647e+03
-3.768646234268121589e+03
-5.659246221441302623e+03
-2.820218026144140367e+03
-7.406337082623934975e+02
6.185385773114646781e+02
2.251373545704198477e+03
2.911905110658208287e+03
3.210259883437257486e+03
2.986647939001709801e+03
2.844768873144876125e+03
2.864615212245468683e+03
2.925230642531718786e+03
2.393781577067342823e+03
1.672238250554329625e+03
1.250319618143949810e+03
1.240015705369213947e+03
1.304303710042010152e+03
1.471093980451079233e+03
1.310424885383922174e+03
1.694104697860820124e+03
1.645335531047311861e+03
1.345864719085082243e+03
1.242793518789246718e+03
8.169267391316004705e+02
3.613231519104969607e+02
2.132197627979392109e+02
5.663777835898109743e+02
1.037112817229817665e+03
1.106412668697346589e+03
6.874067500905094903e+02
9.880161431754612522e+02
1.069103028369308049e+03
1.017974708404581065e+03
1.552304222621935651e+03
1.769842139083511029e+03
1.422830068926904005e+03
1.816341552127842533e+03
2.020407377834624867e+03
1.678973730921367860e+03
1.426831196658429008e+03
1.265909440022550825e+03
1.050206973816764048e+03
8.756413688162654125e+02
3.703743741875096021e+02
5.033992910309941067e+02
1.246582331767993992e+03
1.834105678672371369e+03
2.123053075282789905e+03
1.917302356628150392e+03
1.861125225195872872e+03
1.712610688531332244e+03
1.447694452394557175e+03
9.723442673523103394e+02
1.943785354902672111e+02
-2.602050548174153732e+02
-7.212839501521377770e+02
-1.040961594623584460e+03
-7.763620017475441273e+02
-9.265474835779596106e+02
-1.304445010713810461e+03
-1.971087230963970796e+03
-2.017384428852046085e+03
-1.526337440048400367e+03
-1.193016451625216632e+03
-9.325097937407796280e+02
-9.376357251228738505e+02
-7.733193469791633561e+02
-3.464593011037140968e+02
-2.593314489694958880e+01
1.653056225797199090e+02
6.183389106940262536e+02
-1.048815254084452135e+03
-1.042217994523927018e+03
-6.321178589418441334e+02
-2.773962556795692080e+02
-5.209795782343605879e+02
-2.010895650446836498e+03
1.148728694116947651e+02
-1.858662394266651972e+03
-2.387465430547345932e+03
-1.179571511276145657e+03
-3.797948309755257924e+03
-4.300559278814489517e+03
-5.393428665196290240e+03
-3.028550687564645614e+03
-1.887773066835269901e+03
-1.406976186350129638e+03
-2.580131936311011941e+03
-2.667133734973183891e+03
-3.117896983865279253e+03
-2.098316998947831507e+03
-3.448394743499428841e+03
-3.952117180277997250e+03
-3.281544034820076376e+03
-4.802703331541343687e+03
-3.203557138637514072e+03
-6.950635986375059474e+02
1.804788379706714522e+03
3.880570672310551004e+02
-1.352591130890216391e+02
-2.459124016895681507e+03
-1.598494582370603212e+03
-2.316259075777309590e+03
-6.084616743675660473e+02
-1.410079886933854596e+03
-2.352991361159139160e+03
6.984658927580474597e+01
1.404621970710083588e+03
1.082342146702750597e+03
1.174960599063239442e+03
9.624992917395766199e+02
9.080412354355260049e+02
1.208654872489542413e+03
1.260302610756761169e+03
1.045010511416104691e+03
9.268381303568561407e+02
1.346813852503361886e+03
1.171993825145550090e+03
1.034438329302192187e+03
6.391514691598379159e+02
2.321903660257888191e+02
1.676025542790625593e+02
1.133813080527093575e+01
7.044120543260645491e+02
1.872820088581310074e+03
2.147686786421009401e+03
2.547134462636690841e+03
2.583478813979717415e+03
2.845854174742704799e+03
2.242198559154046961e+03
1.151533359353928290e+03
3.787793272325682210e+02
-4.650148391681041744e+02
-1.169795846637251543e+03
-6.105514162300692078e+02
6.665697753217824584e+02
2.370646001941415761e+03
3.349536102686442518e+03
2.452627423808476124e+03
1.506751119347662780e+03
7.608558764597794379e+02
-1.999065369793967761e+02
-7.575355186364840847e+02
-1.235509853355611540e+03
-1.073579666059360079e+03
-6.963672042646342106e+02
-2.809672396722255598e+02
4.046255838103456881e+02
1.868395116731659982e+03
3.539342676891034898e+03
4.445427522502420288e+03
4.385714951001837107e+03
4.326174992099111478e+03
4.034790205475370840e+03
3.666502510773186259e+03
3.555252332666891107e+03
3.156107168185138107e+03
3.338991884775066410e+03
3.394805498035118035e+03
3.151502798654657454e+03
3.199122434574152976e+03
2.443685835555965696e+03
1.691136258032042633e+03
1.308416698007243667e+03
9.075685783218616507e+02
4.845357790151219319e+02
4.282421067647126733e+02
2.437044226469918726e+02
-1.505788508013135818e+01
3.809613766952361402e+02
5.017742381235465245e+02
1.153304401433480280e+03
1.805551661580792825e+03
2.012517199067237698e+03
1.387104280383258356e+03
7.453479716821308330e+02
6.522633501382101429e+01
-8.542642487896472403e+02
-1.009164254318617168e+03
-1.082545826604646663e+03
-1.947403990632549494e+03
-2.640769414662619965e+03
-2.627686994292722375e+03
-2.113216727631690446e+03
-1.509408219595053652e+03
-2.822376276290490296e+02
3.582719761127455627e+02
-7.549173735137592303e+02
-1.634860766014428464e+03
-2.187603188357617000e+03
-1.848130122516712845e+03
-2.640470688516898463e+03
-8.687497203337048859e+02
1.564990056822837914e+03
5.673225085979184001e+01
-4.632500015579696992e+03
-5.918818832181179459e+03
-6.158261595779021263e+03
-6.386804828974952216e+03
-7.060467342335929061e+03
-7.363101965267731430e+03
-6.786062112763215737e+03
-6.292554495142940141e+03
-6.067315086875502857e+03
-5.923433693739562841e+03
-3.561056454727888195e+03
-2.317170363414455551e+03
-2.157778689543484688e+03
-2.021954855618369947e+03
-1.228733920056121633e+03
1.185799290913338844e+01
1.387723616751794452e+03
1.958772424444860462e+03
2.262019160527985605e+03
2.848410749046999626e+03
3.690887364127916499e+03
3.766403914361236275e+03
3.640915204179429566e+03
3.371396865431159313e+03
2.371760536995807342e+03
1.243946049417134645e+03
5.289267582632267022e+02
-1.333736558229875016e+02
-4.810329196316076263e+02
-5.660904652905220473e+02
-4.906105788205288718e+02
-1.375790003026786508e+02
