-1.039529290831336584e+04
-9.950968808548974266e+03
-9.282340708016174176e+03
-8.537166881448949425e+03
-6.727187704071421649e+03
-5.080139673601432150e+03
-3.811744153774716324e+03
-1.976736328615896355e+03
4.407816486486050422e+01
8.829466211791099113e+02
1.386060851438196096e+03
2.499545983088282355e+03
4.126645544901745779e+03
5.574694116195391871e+03
6.742884352403736557e+03
7.683385585270819320e+03
8.194364067604601587e+03
7.937013582626545031e+03
7.999529445114355440e+03
8.907014050065603442e+03
1.021963784330946328e+04
1.098352312544821325e+04
1.298367719628921986e+04
1.444359630847251719e+04
1.531242168802325796e+04
1.593641869749753278e+04
1.607642257023398997e+04
1.615678774595004143e+04
1.622143135768765387e+04
1.601687273061365704e+04
1.605124724184943807e+04
1.572533441600085462e+04
1.511627918897679956e+04
1.449805782883398206e+04
1.386620768625176606e+04
1.284729759924480095e+04
1.173474850736064764e+04
1.110236157379113138e+04
1.000110971671394873e+04
8.788191026511285600e+03
7.779526559788359918e+03
6.813909035125118862e+03
6.500406700391402410e+03
6.508329089245492469e+03
6.491762476728617003e+03
6.647265603154235578e+03
6.595245136967374492e+03
6.068914595254418600e+03
5.682046698280009878e+03
5.625284165375040175e+03
5.166790928844627160e+03
5.064339056805129076e+03
4.589841736460066386e+03
3.826770899865455249e+03
3.341621080404432178e+03
2.470483812528536873e+03
1.817994703402283903e+03
1.152423339044143177e+03
5.402775332191200732e+02
3.157347784090268874e+02
1.133943771076948508e+02
6.883144566523542451e+00
-5.960574234559258855e+01
-1.511456040132454177e+02
-1.879064107059452056e+02
-3.492669934128717841e+02
6.972897019685609621e+01
6.992982219138511368e+01
5.531771432532228800e+02
9.202811477448656206e+02
4.920829191716118771e+02
-5.795987651226729440e+02
-9.429505485417496402e+02
-4.451064038690407756e+02
-2.182952104877782915e+02
-2.357780926058529758e+02
-1.181873690660894681e+03
-2.885765663230147311e+03
-4.043634783868407794e+03
-4.979775757676470676e+03
-4.599435270942600255e+03
-4.323884213682168593e+03
-4.511326372435056328e+03
-4.411999251223213832e+03
-4.025105361144480412e+03
-4.607913354556373633e+03
-6.739536313125287052e+03
-5.546070947486264231e+03
-5.002038572236699110e+03
-7.719658084510310800e+03
-4.806146668332988156e+03
-1.781787954059488357e+03
-1.373830984252156895e+03
-3.498477341575987339e+03
-4.645915688233217224e+03
-6.771409484861717829e+03
-5.035254026985055134e+03
-4.625727811916302926e+03
-7.621061792874375897e+03
-6.028507323963600356e+03
-5.287375478306479636e+03
-8.955973456862933745e+03
-7.487451138151337545e+03
-5.357016082186360109e+03
-4.860948924216198066e+03
-1.816449469687753208e+03
-3.848793291904346006e+03
-4.008163278182389604e+03
-3.136796696785902441e+03
-1.834906362138910254e+03
-3.330703180410100231e+03
-3.188419470943323176e+03
-2.539236819912565352e+03
-1.466323698744892909e+03
-1.147887837173055914e+03
-1.737131276797570536e+03
-2.893248451434814797e+03
-2.000456208244868549e+03
-2.066909690256919930e+03
-2.377839067547897230e+03
-2.324447314197952892e+03
-2.542949495743861917e+03
-2.452507930220944672e+03
-2.127274919584304826e+03
-1.717319279447052168e+03
-1.329749593285807805e+03
-1.186771846732023960e+03
-6.594943587920645314e+02
-3.493807337088034615e+01
6.128059546166862219e+02
4.095601223664610870e+02
8.930172936114070126e+01
7.189799192641147556e+02
8.015597604944238128e+02
3.609461148752392319e+02
-8.306342816129392759e+01
-6.896152066884120586e+02
-1.319823028990365856e+03
-1.862776306865514698e+03
-2.100615506343339803e+03
-2.957343208489123299e+03
-3.107746729764177417e+03
-3.113796238098059348e+03
-2.486246537499104306e+03
-1.630392789835296753e+03
-1.765620359432201440e+03
-1.811448265629931029e+03
-1.381507958182360198e+03
-5.749713403633055577e+02
3.302544878437468583e+02
8.221746677416407465e+02
1.120761211559744879e+03
1.247051514804389399e+03
8.059471977168767580e+02
-1.244878062461844053e+02
1.185972828383729848e+03
1.962307102286058580e+03
1.545338988625923548e+03
7.092182677674069282e+02
5.459726020612791899e+02
6.926055520215264778e+02
7.999447978032065976e+02
1.511487648416955835e+03
1.902158569964499520e+03
2.633940133448284996e+03
3.684958416192151162e+03
4.066388011183184062e+03
3.923403004562198930e+03
4.345167024740395391e+03
4.399822674012766583e+03
4.301482900701187646e+03
3.481201734091938306e+03
3.035201031395780774e+03
3.071620847596176191e+03
3.477420675173543714e+03
3.412842352942595426e+03
2.325167377981010304e+03
9.905849857022186598e+02
-2.328441386003115099e+02
-5.949690327300310173e+02
-4.959453716049411014e+02
1.532113225299775081e+02
5.378373725016969047e+02
5.221351761864485752e+02
5.142667456973640583e+02
9.823125962591581128e+02
7.394975910753303197e+02
6.219867502082990995e+02
1.193897848913135022e+03
8.254519305755338792e+02
7.749858268624981292e+02
9.546724129704358575e+02
7.154798051099478471e+02
8.013262477492183962e+02
1.223606130743698259e+03
1.458860830644495081e+03
1.201093824366209901e+03
1.022284439345652459e+03
1.131412238413152863e+03
7.985421748088268714e+02
4.118722627846610749e+02
3.453055116742294928e+01
-4.518928173634204626e+01
6.559369252927646130e+02
1.399976580040047793e+03
2.092082440462344493e+03
2.648555009380778301e+03
3.520541521979591835e+03
3.324094296622365619e+03
2.818011933270081499e+03
3.305192864510687286e+03
2.788075384137959645e+03
2.073941238124779375e+03
3.400907229591281975e+03
3.446123087860918531e+03
3.711717670193884715e+03
3.171660809416125630e+03
2.325065736934542201e+03
1.491018423732760311e+03
4.724947915088511650e+02
-1.434739563252832397e+02
-4.058704161839478388e+02
-1.065824639194389505e+02
-6.545478286316485139e+01
1.615767345221651681e+02
8.495844191720985918e+02
1.083699716201809679e+03
9.300077059838241667e+02
1.170567590792367355e+03
1.387421072962024937e+03
1.104662573888455427e+03
1.022364128722400096e+03
1.509656086388877384e+03
1.503638986060442221e+03
9.294308258269032876e+02
3.960864717246203668e+02
3.796144870604563835e+02
-3.959164710988478646e+02
-1.203503840804840593e+03
-1.845217953656116151e+03
-1.542106759708753088e+03
-1.677179942478509247e+03
-1.979502659288546738e+03
-1.766018308407015866e+03
-9.446809380434795003e+02
-3.365668647838216998e+02
2.322700320887269640e+02
2.447215987305106069e+02
9.697055919556866854e+00
2.561028375536789667e+02
3.358615700260604058e+02
1.308428289884882929e+02
2.199575229507276575e+01
-4.658113053841589135e+01
1.411177129368251428e+02
2.879691290805420181e+02
-4.824691733162538299e+01
-7.885792481690430122e+02
-1.372075697332691334e+03
-2.331817877600608426e+03
-3.120860945545740833e+03
-3.420391171173789644e+03
-3.385525372534274084e+03
-2.775269123266944916e+03
-1.966677787499069154e+03
-8.718943904779113154e+02
-5.292045816481164877e+01
-2.456922700731231259e+02
-9.483985163121262758e+02
-1.115156237771161841e+03
-7.830223411810077323e+02
-7.931495599052481111e+02
-7.656400964251320147e+02
-9.255057969840486294e+02
-3.377354596574093648e+02
2.475742224925019173e+02
3.032387129379163753e+02
-4.338672701835555472e+02
-3.573679759002078299e+03
-2.398388147866891359e+03
-2.544035795533026885e+03
-4.183726187069784828e+03
-4.949546037982753660e+03
-4.617454490885744235e+03
-5.327448389487490203e+03
-3.572546121179465899e+03
-1.851805925178688767e+03
-1.547273759947327562e+03
-7.593968308554117641e+01
-2.086749154836002162e+03
-6.557589792208530071e+02
-1.205033950735426515e+03
2.804682111977820114e+02
4.987994818107591186e+02
-9.451310180562487631e+02
8.816021305606723217e+02
3.839356788731108736e+02
-3.501437163920527382e+02
-2.464623717050108553e+03
-4.276607226804740094e+03
-3.163132946650886879e+03
-6.632200367668786384e+03
-5.734871209719561193e+03
-1.813139136607865566e+03
-4.550049757539372308e+02
-2.723511585069842567e+03
-6.887024427304636447e+02
-2.711531643728280869e+03
-3.192052978326650646e+03
-9.692157855310925925e+02
-6.720280580057436737e+02
-8.775256311403491054e+02
-1.569689235444051974e+03
-2.985472071162633938e+02
-1.860988897092666434e+02
2.101590959293123433e+03
4.434830109422711644e+02
-1.207391191354877492e+03
-3.810169527757203127e+02
-5.513806820186135838e+02
-6.946111236156350515e+02
-6.557656397360225355e+02
-5.148381355496738934e+02
-1.868693588381821939e+02
2.012065735798913124e+02
2.253739368676189656e+02
5.346370897120355039e+02
9.300446091759864657e+02
1.446714712854866548e+03
2.242591912798503927e+03
2.394580877961509486e+03
2.619614923887890200e+03
2.536755452063317080e+03
2.413143883351001932e+03
2.645876080853915937e+03
2.430920447092255927e+03
2.144280960325476826e+03
1.738839932950027787e+03
1.141651780568371805e+03
4.207483449494059755e+02
7.708830736644908654e+01
-7.844534353242921725e+02
-1.015004322793589267e+03
-4.211308251272621419e+02
4.020594837655986566e+02
1.205707151333237562e+03
1.629158341950401564e+03
1.446746312959048510e+03
1.324749201497418198e+03
1.229309801026360219e+03
1.543423793689691820e+03
1.794839341483828775e+03
1.403730662007975980e+03
1.014760551837706771e+03
1.131971283728342996e+03
1.405742173393280154e+03
1.235884488891057799e+03
4.683268405605305702e+02
2.712137605141182917e+02
5.685219249498370431e+00
-2.625479383002067379e+02
-7.166643403918774879e+01
2.874233068141149943e+02
6.228968482083434992e+02
9.588550294782680794e+02
1.461167755794084314e+03
1.911821032935426274e+03
2.229164653208719756e+03
2.278110083512639903e+03
2.119724544734634492e+03
2.155858315856666650e+03
2.207470961048101799e+03
2.035611921766564819e+03
2.140338909331787363e+03
2.367540438175989948e+03
2.631317534987748331e+03
2.853665553290963089e+03
2.553596918209828800e+03
1.860168397955692171e+03
6.833185877786894480e+02
-8.770069933157434994e-01
2.975479203460456574e+02
3.605429745627121179e+02
3.114877889250792364e+01
-6.068272971763011725e+01
2.402469826872310321e+01
-7.875005587440696786e+01
2.031247519182882684e+02
9.746883157618461837e+02
1.712893953439549250e+03
2.412751106357863591e+03
3.381297456570026952e+03
3.711553859018117237e+03
2.882559012855370838e+03
1.155344846851810416e+03
-1.523053299888734045e+03
-3.678649935473802543e+03
-4.045377566034452684e+03
-4.342227209934411803e+03
-1.192225377229285186e+03
4.305332575359857401e+02
-4.019027337620151229e+03
-6.134802359956524015e+03
-5.905736434863856630e+03
-5.723812824508730046e+03
-4.664050843181640630e+03
-4.213583745337397886e+03
-4.394042351068167591e+03
-3.994457039218409136e+03
-3.590882139018936414e+03
-3.370318648840664991e+03
-1.100663120233874452e+03
-3.050889278588738307e+02
-3.044543242644871953e+03
-3.513974840156245136e+03
-3.526292829994893509e+03
-3.903488838270247470e+03
-3.684682429566708834e+03
-3.999025976481458429e+02
5.038314217166067124e+02
-1.614585453411668539e+02
-4.447817058947196074e+02
-8.912708060576341040e+01
5.815516160469900342e+02
1.197340450994050798e+03
2.005204544963892886e+03
3.038164800341745376e+03
3.031351729939606230e+03
2.857965968216169131e+03
2.214942227734714379e+03
1.214185395186337473e+03
1.035640543392050176e+03
1.191357698185466234e+03
1.833457547164224707e+03
2.336989496264834088e+03
3.070003930877197945e+03
3.181492646572978174e+03
2.187388000979712615e+03
1.358646081983355316e+03
5.343090610829821117e+02
-2.405725730290996864e+02
-1.018021587007815242e+03
-1.152073241103794317e+03
-1.154672447968633151e+03
-1.242742197697363736e+03
-1.236293713826862131e+03
-5.361431377758424333e+02
-1.223014457577864391e+02
-3.148017485557853661e+02
-6.185973219557037055e+02
1.712573240777394403e+02
1.765702536076089473e+03
1.826752971759795400e+03
1.505504011076066718e+03
1.348944977074929056e+03
1.295071057694391129e+03
1.309958742131314466e+03
9.386644735906434107e+02
6.972462692602998686e+02
5.076510967597105832e+02
7.618466679241793145e+02
6.997908891831467599e+02
2.355370205020706464e+02
-7.090720173692102435e+01
3.683913942662146610e+02
5.915603419150545506e+02
9.476634841327467029e+02
1.066566066755682868e+03
9.822995207491941301e+02
1.063950507371717549e+03
1.320695226046832659e+03
2.306749061642565266e+03
2.518825674067698401e+03
2.677899910192224525e+03
2.944031275187683150e+03
2.921246368958570201e+03
2.522571995761545622e+03
1.567036405349627785e+03
4.466330115688903106e+02
-3.087226900961861134e+02
-9.490311213293892934e+02
-1.397305491490675195e+03
-1.643620204445839363e+03
-1.805902302606038802e+03
-1.977080352392537634e+03
-2.047174759513344497e+03
-2.198161236972500774e+03
-2.203972084095054925e+03
-1.725574082435122364e+03
-1.018007477830827270e+03
-3.250174936769686607e+00
7.427178247106540994e+02
9.639212300808669625e+02
7.793849383543364411e+02
2.022003326762880988e+02
-1.037699485824993417e+03
-1.884393527117556005e+03
-2.911941610255941669e+03
-4.049293017958017117e+03
-4.133483231694032838e+03
-2.979553601473317940e+03
-2.055565264994054814e+03
-1.105556432460061615e+03
2.460432051331576275e+00
6.074868249821203108e+02
9.505798322279662216e+02
1.286707861594348969e+03
1.158924591069718417e+03
7.052773660954574098e+02
1.152742959582795038e+03
2.244266306656938468e+03
2.865804968224032109e+03
2.694326150152849550e+03
2.154895369942051275e+03
1.716467879349621398e+03
1.235018838410328499e+03
9.786143045367392688e+02
3.952190376806904055e+02
-8.632373546707536889e+02
-1.690803822526611157e+03
-1.579566487470451420e+03
-1.869612509713153031e+03
-2.320023470735143746e+03
-1.268778654269208346e+03
-8.588081648356122741e+02
-1.620788335622485477e+02
1.050371618861624029e+03
1.327489795502332299e+03
1.109350164017693714e+03
1.241899321585763801e+03
1.595107686405117875e+03
1.821892974906737663e+03
1.359182351677503448e+03
5.419331406839492047e+02
9.240780087393228541e+02
1.261977518501219265e+03
1.743444322680867572e+03
1.268447977329929927e+03
4.094883898304644276e+01
-6.912816314957537998e+02
-9.521882209491584490e+02
-8.956962187460710538e+02
-1.368002780685464359e+03
-1.785206072678183318e+03
-2.029530166455719382e+03
-1.410619127286502817e+03
-1.052292600577427038e+03
-1.171112339422353216e+03
-8.266484906568916813e+02
5.247599244109740084e+02
1.794150399963494465e+03
2.104766744350111367e+03
1.647996580550426188e+03
1.297156010820121310e+03
1.305330473311002152e+03
8.694592697217013892e+02
5.544422434748896649e+02
6.039075835521547333e+02
4.376705149810670719e+02
5.341867307648323049e+02
4.369581223143566717e+02
1.042204240442506205e+02
-2.716369895777796160e+02
-2.542746393042658042e+02
-3.513693103269859535e+02
9.221240002368669764e+01
3.541479702998972812e+02
6.077560934561211070e+02
8.737904256583286724e+02
1.112336574242143797e+03
1.498407807024575504e+03
1.179858250895005995e+03
7.554933750747567274e+02
8.674214680475682826e+02
1.517900409070656906e+03
2.799531790015155366e+03
2.713322196288159830e+03
1.980262916101067049e+03
1.104302625961801823e+03
2.053826460767024287e+02
-2.955592919160937413e+02
-4.595697394303127226e+02
-5.416294960585756826e+02
-8.017650482307888069e+02
-3.190284966821743069e+02
1.215925624539826231e+02
3.241171901739369332e+02
-5.904357290948321406e+02
-1.133104496094432989e+03
-9.878716561416024433e+02
-6.847189275746395651e+02
-5.916909372641258642e+02
-5.018099233701993853e+02
-7.270778765148211278e+02
-2.774858422799632649e+02
2.099615057899116266e+02
4.942529369761087423e+02
-6.496832145599220212e+02
-5.267726370827122992e+03
-7.187912687435370572e+03
-7.734321527330111167e+03
-6.997022637530985776e+03
-5.143073806433780192e+03
-6.220438883288188663e+03
-2.623047915968346388e+03
1.541134723493131332e+03
3.598121138603496547e+03
3.067916273023758094e+03
3.230548803044270244e+03
2.739056544836609191e+03
1.409435149147906486e+03
8.516807837230414862e+02
2.279717420312162631e+03
2.337569899937388072e+03
-1.101654983788094114e+03
1.940970993583661766e+03
2.812451997457344987e+03
-3.491835435188266956e+02
2.230429758941435239e+02
-2.312918039484321980e+03
-2.500071137081699362e+03
-3.578397814078138708e+03
-4.582905350548307069e+03
-4.193588881603182017e+03
-3.539418745515835326e+03
-1.199353063973377175e+03
1.817042026760544502e+02
5.267615962766103621e+02
4.228889776282707089e+02
2.710128946644658754e+01
-1.362105357612755796e+01
2.546931581674762697e+02
1.097751929361578060e+00
4.061046599302795812e+01
4.022504393991339953e+02
1.110336788373166286e+02
9.950628570973257183e+02
1.673356661398317101e+03
1.723827096367946979e+03
2.006502861590165139e+03
2.023451240451675858e+03
1.792630781333681625e+03
1.203067263630415937e+03
1.269801137731092922e+03
1.519835873799907176e+03
2.096170859333179578e+03
2.266873378999783654e+03
2.191972441098118907e+03
2.068453564263592398e+03
1.940358666104728627e+03
1.841772634519663370e+03
1.974755875134668713e+03
1.987659250010118285e+03
1.950571776499641373e+03
2.527371861298976000e+03
2.867068636383727153e+03
2.570368721457384254e+03
1.376407237348642866e+03
1.566692157667719698e+02
-7.327661492915858616e+02
-1.241109996548297659e+03
-1.779723687697370679e+03
-4.308836672620461286e+03
-2.645108993583949541e+03
-1.268309634762981659e+03
-6.444649352266091000e+02
-7.765467802599628158e+02
-4.144103321835765996e+02
-9.230395156643882615e+01
5.876400989581128442e+02
6.859314669001438460e+02
1.262487122177255969e+03
2.546241389642650574e+03
2.596185629273871655e+03
2.016300358616766744e+03
1.578453531740016615e+03
9.008849377434493135e+02
2.044121617577693257e+02
-1.560719296212111828e+02
-7.615800290522945488e+02
-1.122138894715935066e+03
-1.700775485656839692e+03
-2.790543482441360084e+03
-2.764416658452103547e+03
-1.030246216698969192e+03
2.169698184735288748e+02
6.542279285619060829e+02
6.326212313630394419e+02
5.811565049950696675e+02
6.728455176606418036e+02
6.026461309442355514e+02
7.375379411845867708e+02
1.294430562496811035e+03
1.268365517132004697e+03
1.089437149343816827e+03
1.085630195110057912e+03
1.171994882614727658e+03
6.995557240641932140e+02
-7.865230920456745878e+01
-1.329626628331828897e+03
-2.006415144345160343e+03
-2.473057246534408023e+03
-1.694521571754225306e+03
-8.168763088367489900e+02
-1.471838114954205139e+02
6.646603772288260643e+02
1.012729854832808655e+03
7.959646648795502415e+02
3.593703931778633773e+02
3.729265118475121881e+02
-3.619993030501357789e-01
-4.943993194711613341e+02
-8.072555314141928875e+02
-8.068749242088321125e+02
-3.021259842910225757e+02
-3.981295837095948968e+02
-2.459891835368170234e+02
-6.417848888311189057e+02
-4.545764341832737045e+02
-3.083078781864463735e+02
-7.749560349172317046e+02
-8.745983626742415709e+02
-7.712299752552978589e+02
-1.734799895082461035e+03
-3.936175123765756780e+03
-6.195347202583711805e+03
-4.346513560751773184e+03
-2.564626351030535716e+02
9.216544947299776140e+02
9.178301994857149566e+02
1.044120038491839978e+03
1.189506227853697055e+03
1.124883588457909127e+03
1.533327621287004376e+03
2.118011491712619772e+03
2.171068829629186439e+03
1.885670515839883137e+03
1.474823686890185627e+03
4.102068980705782906e+02
-3.803920319912903665e+02
-8.879556544277417061e+02
-1.480518489972228735e+03
-1.943170950222620149e+03
-2.215913886294280474e+03
-1.980631083684181704e+03
-1.616319765928898732e+03
-1.361939020881739452e+03
-1.517231182301339913e+03
-1.501346981861843233e+03
-6.094266537529779271e+02
9.247074359321289876e+02
1.696173277938968340e+03
1.565947052452581602e+03
1.626952395951773724e+03
2.071115466147983625e+03
1.972347429688224111e+03
1.931620758289195919e+03
1.959853515358430059e+03
1.537005354270132557e+03
1.072098753038468431e+03
7.515353132031057726e+01
-5.547076377898322335e+02
-1.137481384838161603e+03
-1.087276209816375967e+03
-4.981398967531231960e+02
1.759840874960492840e+02
4.631321464369436853e+02
7.412849320552877543e+02
8.534924414368044836e+02
1.629776873509419374e+03
1.612162594271995886e+03
1.479616749542526350e+03
1.913034846615579681e+03
2.203413341021264841e+03
2.273793513191443253e+03
2.336175053283671787e+03
2.263448694018171409e+03
1.686547156387794075e+03
7.075218146649333448e+02
6.737370464581918839e+01
-4.490248153044794890e+02
-9.966290474215834365e+02
-1.417475411042001952e+03
-1.783589838237079903e+03
-1.122882610369385930e+03
-6.142310078212420876e+02
-2.205440450417342504e+02
4.162275841600992408e+02
7.672129742104272054e+02
5.085585114690962882e+02
-1.413723603067890053e+03
-1.503750709456980530e+03
7.326058808092238905e+02
2.310351541230287239e+03
2.282550827858101002e+03
8.255884983754034678e+00
-4.355114828457172393e+02
-6.607700168272961037e+02
-3.685804791674735839e+02
-4.499180108868785055e+02
-4.714743313780479184e+03
-2.928054721486099879e+03
-1.555926802814087068e+03
-3.735264000690110151e+03
-1.887129915736918747e+03
-1.537564827845671971e+03
-1.253699809137082184e+03
1.104473739022776954e+03
-5.758089789428605627e+02
-8.136400450450632604e+01
1.849845116044736187e+03
1.941642485558864792e+03
8.379691523107524063e+02
-2.339360615336856881e+03
4.505290168647167661e+02
1.181579693906194052e+03
-5.122518132622192297e+02
-9.010167674914794134e+02
5.042656107682010997e+02
-2.063434577610465112e+03
-4.859168980433137222e+03
-4.710971081211800083e+03
-5.500963473954151596e+03
-3.245093261216496103e+03
-4.120403680252094091e+03
-4.299987159271423479e+03
-1.597845721214301875e+03
-9.670238460161392595e+02
2.325149198541678857e+02
-6.742330494814058284e+02
1.842686853613650783e+03
2.339202234252922153e+03
2.419205643289026739e+03
2.752759490273765095e+03
2.988854447098021410e+03
2.930406906244828406e+03
2.563417107961862712e+03
1.900859641971442670e+03
1.272697803135226422e+03
7.299378153350661478e+02
-2.734327007169470676e+02
-8.724785123052117797e+02
-6.232560330128499118e+02
-4.056174887332540493e+02
-3.503566848362705741e+02
-1.686180941077470550e+02
4.344598720258244953e+02
1.153243350995762057e+03
1.405856686913298290e+03
1.695335622093292613e+03
2.103733589931760889e+03
2.327055264264255584e+03
2.235286803445542773e+03
1.443466250001449453e+03
1.521640178038644763e+03
1.746188104501717135e+03
1.955993509956478647e+03
1.747957165548452849e+03
8.950171594860556752e+02
9.014000333865845960e+01
-5.832689392175055900e+02
-9.278516844232756284e+02
-1.232541331952389328e+03
-1.097474579424897001e+03
-5.407209962833384225e+02
-8.291282643070067593e+01
2.611836389002024816e+02
1.117712006749993179e+03
1.263663246387837034e+03
1.230912822508616046e+03
1.834569257034892189e+03
1.960949109532708462e+03
1.922648975890105248e+03
2.085744778584909000e+03
2.367610761967407598e+03
2.136029594172632642e+03
1.688381553543272730e+03
1.307572112237709234e+03
8.313632623268953239e+02
1.589396604646665594e+02
-5.436521076108589341e+02
-1.339274924055906922e+03
-1.471122945248797578e+03
-1.582328202663512229e+03
-9.398429810030485214e+02
-4.386216839596699515e+02
-5.159536843377326676e+01
-7.168607615267374911e+01
5.191409099611574902e+02
1.276949556803905125e+03
1.630713312549740067e+03
1.418448192766595639e+03
1.514189132864351677e+03
1.896826101599671347e+03
1.864453474923114072e+03
1.725163008021333098e+03
1.735966347260332668e+03
1.029873222900523388e+03
3.698982599831808784e+02
-4.429211915304778699e+02
-1.323606394914584826e+03
-2.111103704263858617e+03
-2.317424929144401631e+03
-2.359561406784620885e+03
-2.451467943767921952e+03
-2.883055763255292277e+03
-4.002252896081598010e+03
-6.398024096484083202e+03
-6.496397974558622082e+03
-5.824319236942576026e+03
-5.432795920368829684e+03
-5.153811257541111445e+03
-5.073334824971963826e+03
-4.353309448556698044e+03
-4.006740825436944306e+03
-1.007688175494271604e+03
1.919854157631542876e+03
1.458932600760669516e+02
-4.625524948398038759e+03
-6.574196169622114212e+03
-6.684500254951132774e+03
-6.819460773404502106e+03
-6.750099538154294351e+03
-4.919424791254952652e+03
-3.747449172511298912e+03
-5.687169913994688613e+03
-5.316588497989154348e+03
-4.195663928224046686e+03
-3.489501489777345341e+03
-3.397221219736647981e+03
-3.111730288210291292e+03
-8.299858668801377917e+02
3.401965138658502383e+03
4.280091052001218486e+03
3.984382450111571870e+03
4.015761368239992862e+03
4.040155580988931888e+03
3.665536339020733976e+03
2.675888350843272292e+03
2.161189635526488019e+03
2.495309161403453345e+03
2.588034353087165982e+03
1.845307141663714219e+03
1.454059915191715618e+03
1.682232900454443325e+03
2.416808967380899048e+03
3.323799536797391283e+03
4.119160580119872975e+03
4.175777684194625181e+03
4.184559928215508080e+03
4.097485018836475319e+03
3.592473086468024576e+03
3.362400543457125423e+03
3.180143950779563056e+03
3.173666042338409170e+03
3.770924430461946031e+03
3.946946493643703889e+03
3.463576563478540265e+03
3.380722563294608335e+03
3.158191162753871140e+03
1.769852668588617462e+03
8.206012639061052596e+02
4.463262833167137273e+02
3.839417728877092486e+02
1.656377053367150666e+03
1.479584229527259822e+03
8.264608745074621083e+02
1.498990101694391797e+03
1.420119220538974560e+03
2.218770807280929603e+03
4.725832136562758024e+03
6.300169461488547313e+03
6.871731869348033797e+03
7.017339812785029608e+03
6.053883826113151372e+03
5.145182017807273951e+03
4.428247177238262339e+03
3.282204897954324224e+03
1.758923995005055303e+03
8.043216187921855180e+02
1.358445324310611113e+03
2.011357204881808002e+03
1.648893345893692981e+02
1.174611480283722813e+03
1.314408824211327783e+03
7.032961890193170120e+02
7.491163965816670043e+02
7.567442980621279958e+02
-1.067888718779944611e+03
-2.817795649913966372e+03
-3.381102275533787179e+03
-2.634843173882256451e+03
1.033920153834982102e+03
5.912160621593010546e+03
7.675886447477886577e+03
7.087067813821922755e+03
6.740634385490157001e+03
5.841566907398336298e+03
3.525812511362171335e+03
4.643445911210036456e+02
-1.586849106208615240e+03
-3.532852464105474610e+03
-4.979706324543519258e+03
-2.402448361026552902e+03
-1.278064966046544896e+03
-2.306562203480214976e+03
-1.441980843253369585e+03
9.106010759233469116e+02
2.653233589997525087e+03
4.021021060583877443e+03
4.325970281459472972e+03
3.069091296561876334e+03
2.166398179396683190e+03
1.473890424224508024e+03
1.185850301349601921e+02
-9.254409281485073961e+02
-1.440156281273911191e+03
-5.664171002595541040e+02
5.108099686324829349e+02
4.505438420081231925e+02
-7.972040078650369423e+02
-2.019393044708682055e+03
-2.012987559681099356e+03
-1.295913763777889926e+03
1.158717654957380745e+02
1.461512218620433259e+03
3.076055485441484961e+03
4.707643068016961479e+03
5.155380375317892685e+03
5.897327300139417275e+03
7.041658730139800355e+03
7.550545655972532586e+03
6.861036856474653177e+03
6.022185877492986947e+03
5.275154800097152474e+03
4.085117247103001318e+03
2.517179380452387250e+03
6.494818926133156083e+02
-1.820849117475639332e+03
-4.565719193226730567e+03
-7.724996888686256170e+03
-1.067761885371673998e+04
-1.290242392403444137e+04
-1.487829798834178655e+04
-1.574913594186205228e+04
-1.570179970068568582e+04
-1.621414744749691636e+04
-1.745356795088764557e+04
-1.725799577041576413e+04
-1.678562601332542181e+04
-1.646126540307762843e+04
-1.652847393699880195e+04
-1.614286747222497070e+04
-1.563363914915466194e+04
-1.563173147719273948e+04
-1.602294263030948241e+04
-1.610499685558490273e+04
-1.616138530219645509e+04
-1.635445795947629085e+04
-1.540395444386774034e+04
-1.567258190945876959e+04
-1.609934156644458562e+04
-1.722807581380265401e+04
-1.832740790512604872e+04
-1.720761841074469339e+04
-1.397906599188571818e+04
-9.243856571608130253e+03
-5.281744799126953694e+03
-1.492631273465391132e+03
8.307750621654407723e+02
2.535789047818042491e+03
3.778962859054432556e+03
5.216859693596344187e+03
6.286505533625199860e+03
7.247179972469936729e+03
8.095803722774900962e+03
9.041814401904519400e+03
9.847447241132544150e+03
9.971694093419702767e+03
1.102776824728204883e+04
1.204561565053070262e+04
1.230929732735411562e+04
1.287601314670937609e+04
1.342338336309593797e+04
1.407382345173523208e+04
1.483041448201667299e+04
1.591235888949435321e+04
1.718275339716234521e+04
1.845873216401818718e+04
1.983428801500666304e+04
2.079747532412027795e+04
2.058036131299777480e+04
2.017103742718692956e+04
1.966157517184449898e+04
1.888006355683870061e+04
1.812959176634344840e+04
1.680719462708090214e+04
1.508293918269841924e+04
1.212476207999734470e+04
1.027265236554739749e+04
9.477676658859434610e+03
6.444901544897084932e+03
1.070315137636655663e+03
-4.152370523117305652e+02
-8.747605419090020860e+02
-1.122208210837823344e+03
-1.254594508893963393e+03
-7.769061866933404872e+02
-4.161597437998252076e+02
2.446552442242019936e+02
-2.473664170660143213e+02
-4.162811205359033124e+02
-5.052028563943435415e+02
-1.133255551087508138e+03
-1.620455097233578499e+03
-1.348793876021562482e+03
1.460652949145466664e+03
1.090788018559953798e+03
3.113545629367504262e+03
1.888844664468145993e+03
-3.889428120830722946e+03
-5.685408829408808742e+03
-5.847201975477280030e+03
-5.659957389576589776e+03
-5.432892173820182506e+03
-5.049073762380613516e+03
-4.791544112378273894e+03
-4.810456732204187574e+03
-3.895877880011203160e+03
-3.986955419537905527e+03
-4.068839650177522799e+03
-3.990661404603686606e+03
-2.630579955100236020e+03
-4.397652731969727711e+02
-2.787356514450279519e+03
-3.808484504818511141e+03
-3.401245237618677493e+03
-8.318441970187121797e+02
1.596568539213717258e+03
1.827796693457782339e+03
1.457644269860080158e+03
7.168516869990547775e+02
-9.578319046405962922e+01
-1.123890466064183613e+02
3.218346859235795137e+02
7.956060699544375439e+02
8.947716003433582728e+02
1.272173278064901524e+03
1.127691417666807411e+03
3.471568866749552740e+02
3.223971099255420540e+02
6.362633822480905792e+02
1.147521478605754055e+03
1.322948037200173303e+03
1.089418105177991265e+03
4.527575400678961159e+02
-3.501971601395957236e+02
-6.666224890206970031e+02
-1.064684709062661796e+03
-2.111666725383546236e+03
-3.369742253451347096e+03
-4.064138990556844874e+03
-4.213058809547024794e+03
-4.129723136133388834e+03
-4.392925182357538688e+03
-4.230900725708380378e+03
-4.372878823751457276e+03
-3.667033453857512541e+03
-2.547462335450978571e+03
-1.050272483506048729e+03
-4.855549230321953473e+02
-1.026730719760579859e+03
-1.557241136110819070e+03
-1.852304350761666910e+03
-1.650609275635955100e+03
-9.790529627028668074e+02
-8.428892731074664653e+02
-6.654116854022258849e+02
-1.081615736535840369e+03
-2.281772103779926510e+03
-3.146383784265643044e+03
-3.867329843938497106e+03
-3.931466878792101852e+03
-3.598140993070085642e+03
-3.675512442121794720e+03
-4.034672591858021406e+03
-3.899669208798386080e+03
-3.415597024212313954e+03
-2.949718995444151005e+03
-2.695096638707098009e+03
-2.128621884916141425e+03
-1.670438406802249574e+03
-1.883755423899229299e+03
-1.726766460923762679e+03
-1.378427636219074429e+03
-1.287688859699527256e+03
-1.141589427842495752e+03
-9.872208634047218538e+02
-8.546526309536187682e+02
-1.441925389777940836e+03
