3.372189692310311784e+03
3.151192675703082386e+03
3.226694467198597977e+03
3.525745748398483556e+03
3.432328217640153980e+03
3.436510547092944762e+03
4.213318576614159610e+03
4.789723738413997125e+03
4.732840183636830261e+03
4.328715711806580657e+03
4.155427913843516762e+03
4.322997845519551447e+03
4.164446060726863834e+03
3.989812116105028508e+03
3.564078674319751372e+03
2.430285186355389214e+03
2.205479510338122054e+03
2.395862388302410636e+03
2.331524895502785967e+03
1.928585671425185637e+03
1.713921133177021375e+03
1.872599570220378155e+03
1.894640336790494075e+03
2.841030469042552795e+03
2.499780949336210597e+03
2.383935433536419623e+03
2.547457763315548164e+03
2.219254778404433637e+03
2.781053448868086889e+03
3.063283043242751774e+03
6.663596436367996603e+02
-5.240985243252331429e+02
2.903789756186575687e+03
3.219053321062125633e+03
2.842053838241884932e+03
2.467743011720000140e+03
1.870762853602307359e+03
1.327370730500252421e+03
1.035486004376516576e+03
7.550603052301146363e+02
7.367759856361676611e+02
1.264236341466851400e+03
1.372424704401916188e+03
1.544872368755004800e+03
1.603901335023889715e+03
1.708553014683533092e+03
1.848572130554220621e+03
2.024957496209609644e+03
1.991856202060480882e+03
1.606870310880065517e+03
1.680580951828889965e+03
2.195572272622421224e+03
2.325699107055474087e+03
1.879419829466189185e+03
1.530518704487892592e+03
1.249902997930831134e+03
1.037615247311391613e+03
1.054699118872479858e+03
6.811092591331079120e+02
2.327189481531150079e+02
3.523768135532169481e+02
4.180287921377839666e+02
6.757700694030237401e+02
1.203636038516858889e+03
1.096640362207467888e+03
9.588784946818078652e+02
1.548399738065811562e+03
1.392093106749692879e+03
1.411006016623693995e+03
1.369146008039059780e+03
1.275538446107376330e+03
1.319257487379098620e+03
1.001309764899562538e+03
9.176799174506796817e+02
5.832682925249863501e+02
4.000081425884447412e+02
2.378814258332090503e+02
2.289081231417578977e+02
5.802559856301184027e+01
2.615403284014719532e+01
1.702007614044838135e+02
3.360229773229206103e+02
-8.594313324668405585e+02
-3.638067160182382395e+03
-8.098816262097669096e+03
-9.639643133887662771e+03
-8.929423439913483890e+03
-8.232168102161504066e+03
-8.254936125929174523e+03
-8.034752811928720803e+03
-7.421638483244618328e+03
-6.376676577861635451e+03
-3.828910135617368269e+03
-1.398147641968387688e+03
-6.945401832122638552e+03
-8.061800431324792953e+03
-8.336289489792507084e+03
-8.415710462421477132e+03
-8.572123839820116700e+03
-5.694990665357283433e+03
-5.208237737593792190e+03
-2.084857984631556974e+03
8.642062462354622312e+02
2.102032157180183276e+03
2.632599782488029177e+03
2.443976421354975628e+03
2.675138000001448745e+03
2.403992229648226385e+03
1.861591294016815027e+03
1.564968108398573804e+03
1.242189083536724411e+03
9.472668832772016003e+02
1.059141366285700542e+03
1.902807652220571526e+03
2.341202827454678300e+03
2.417350398783208675e+03
2.252226278839825682e+03
1.672730090565057253e+03
1.223836201601629227e+03
1.228609873615019069e+03
1.184969683759811915e+03
1.172957895324825586e+03
1.441564589770082648e+03
1.949874643666983729e+03
2.000887897476289027e+03
1.606598738813306227e+03
1.478107954044698999e+03
1.749374194566031065e+03
1.882453270062724187e+03
1.685347127886912403e+03
1.947045213190838695e+03
1.870638087182983327e+03
1.824144396862149506e+03
1.798481022123856064e+03
1.149711946326473480e+03
8.928964796305953087e+02
1.699887437977522211e+02
-2.440737421576908162e+02
1.357127621132017339e+02
3.453418727994646247e+02
2.498009948858974383e+02
2.731424315602704382e+02
5.894252020880722966e+02
6.856102305127917589e+02
7.175902808738351268e+02
9.023554568313220443e+02
6.769113373699141221e+02
7.216360587703480860e+02
7.786451255041338300e+02
7.529858810318680753e+02
8.188731652152881679e+02
6.083915895885719465e+02
7.250936069176362935e+02
9.021797155507058505e+02
8.114771200653242431e+02
2.269494854730298812e+02
-3.703088041001503257e+02
-9.544203514986412529e+02
-8.084264148111459463e+02
-9.532448948112868266e+02
-3.639396917133092302e+02
-5.247032538424760872e+01
8.523772854148131728e+01
1.722032234215169808e+02
4.174387002758930976e+02
9.179218663817265451e+02
7.536977686152143860e+02
7.408379145466402633e+02
5.533215037589038729e+02
2.431199139838510632e+02
5.242872645353534153e+02
7.948300148159490846e+02
1.121793553928053598e+03
7.701797454105122824e+02
2.879609148242448668e+02
-1.582391837212539620e+01
-3.221403589311428277e+02
-6.980234375843092494e+02
-1.067437809824671376e+03
-1.041409423026358127e+03
-1.521979344287632102e+03
-1.136078167274143652e+03
-7.697009128572648251e+02
-1.227901373734029704e+02
1.075993532325481965e+02
-6.265073493234823445e+02
-6.260969006488235209e+02
-4.791403946069001449e+02
-3.546644253133209759e+02
7.329258757820302606e+01
2.377557728825728702e+02
9.780004130283123231e+01
2.734583992650327104e+02
7.326695996619588414e+02
4.854092515718118079e+02
2.870094020671954027e+01
-4.774502146410461023e+02
-9.940471339480737925e+02
-1.169145732664902880e+03
-1.312756884291134611e+03
-1.031917070608176346e+03
-5.006647158282175383e+02
-2.359421829757530418e+02
-4.472577116710532863e+01
3.039936575644094887e+02
-1.627813096445615031e+02
-6.260872059192810184e+02
-3.289044123727609303e+02
5.047220628465957475e+02
4.497811251532111783e+02
7.993561465429424970e+02
8.424812287634701988e+02
7.581483787094889522e+02
9.693395104904368509e+02
7.089698676005250491e+02
1.330137001446184115e+02
1.744767326286586808e+02
-2.786372780246889533e+02
-6.173436366745644364e+02
-1.327693545157273320e+03
-1.477803627673769370e+03
-1.105723181170374119e+03
-5.693074584475556321e+02
-2.822796858657886219e+02
1.396292946004596445e+02
1.752261444712538889e+02
1.275311532815395736e+02
3.515162062112011085e+02
3.761286827587773018e+02
4.753112951420307581e+02
9.400546766242931653e+02
1.171434459292381916e+03
8.573499895092816132e+02
1.195737913291747191e+03
1.320695438012870454e+03
8.852381290382747920e+02
2.504080422849283991e+02
2.437050139497319634e+01
3.528002431109091219e+01
-1.872467509685139930e+02
-6.434427021588091975e+02
-4.594088379270364157e+02
-7.121579550176531939e+02
-2.837181814792443788e+02
1.089005559281604576e+02
4.977229673846995865e+02
8.647459012309461741e+02
6.489092089443369105e+02
6.992134253236173436e+02
1.048593916724703377e+03
1.339017934421469590e+03
1.326627056232136511e+03
1.608619740081209329e+03
1.527269361899807564e+03
1.005069325638094597e+03
6.385035391234324607e+02
2.666447846585626280e+02
-2.797005862066167765e+02
-2.973029000546090970e+02
-2.284224877474120206e+02
-5.411831052288664523e+02
-2.065892156274128411e+02
4.093202368457278908e+02
1.844830382343252779e+02
2.328743583164484221e+02
2.405503702623400955e+02
6.575439103113103556e+02
8.298314311871711197e+02
9.853757034441314318e+02
8.491785833445247818e+02
7.941803882255273948e+02
1.062400276866331296e+03
1.451911178014556299e+03
1.823611213571377903e+03
1.518450236168200490e+03
1.015471519058053900e+03
5.776590848878272482e+02
4.650137490634222104e+02
3.905312333205715163e+02
2.131580172427332229e+02
4.118016680023856679e+02
7.585515860342857195e+02
4.984263630444650062e+02
-5.536555221234698365e+02
-5.397839769844131297e+03
-5.210735955068441399e+03
-7.534053076283350947e+02
-1.587694471435784862e+03
-2.996730025531320280e+03
-2.057887013234910683e+03
-2.045989461367391641e+03
3.550923451545137937e+02
-1.889659303015526802e+03
-1.016240449001245452e+03
-6.366587658618582282e+02
-1.991363360231606805e+01
-4.403971676547514107e+03
-2.341884914193481109e+03
3.833426844023299509e+02
-2.881262381527211346e+03
-2.250703099317249780e+03
-1.342925032497039865e+03
-4.317984438931242948e+03
-2.746850538104669340e+03
-2.053512304102570397e+03
-5.026906211414737299e+03
7.750287878301116962e+02
9.342879153711932076e+02
-2.199170525951212312e+03
5.846970132753533562e+02
1.511952521743925445e+03
1.472620432935256076e+03
1.588695607581898912e+03
1.534205860470148991e+03
1.492174842101828972e+03
1.855624005394026881e+03
1.992606600704477842e+03
1.384135719094908154e+03
7.792141923931395695e+02
5.538507080050478635e+02
6.000151015225897027e+02
7.697983252853866816e+02
1.337209475694131697e+03
1.216259514988533738e+03
1.277002291356695423e+03
9.004609318358710652e+02
7.197062141134398416e+02
1.009825527783623329e+03
1.182814928644133033e+03
1.192750614701632230e+03
1.368578404050958852e+03
1.064345331985563917e+03
1.294106930087857563e+03
1.700897109111520422e+03
1.987709772203141256e+03
1.629631581464611600e+03
1.017647748143850663e+03
4.007645790904172145e+02
-3.795034735790839875e+01
-2.693650037463602303e+02
-6.073072518864750009e+02
-1.146575594017724143e+03
-6.033922023504694607e+02
4.006334861170656580e+01
5.839233920826189888e+02
6.255973667702620560e+02
7.170524736978447891e+02
1.882814266700036967e+02
-2.657249594302392097e+02
4.348737494073967582e+02
7.190334777172894292e+02
9.994798922840070645e+02
1.036925738126802344e+03
1.070360690831451620e+03
1.055792938504454241e+03
8.532396283731916355e+02
3.734315944371988394e+02
-1.602634397626103180e+02
-5.870353837095701692e+02
-5.181913331092782755e+02
-7.357845474677535549e+02
-1.024783825333797949e+03
-9.681137201420031033e+02
-8.987869896263731562e+02
-5.027330350094887308e+02
-3.319029679300278985e+02
2.127029809706543801e+02
5.691199771212211544e+02
8.943626287222535893e+02
1.050437111546765664e+03
9.022660364638804822e+02
9.448446175515189225e+02
6.731755977702599694e+02
4.012913058186079525e+02
4.032562704085040082e+02
8.051142110284955606e+02
2.258425994033511870e+02
-2.395782698242075242e+02
-4.741592049561609770e+02
-4.299177781420421525e+02
-4.429015855352876656e+02
-7.160932269666675438e+02
-7.354753559082425909e+02
-4.700201986307313291e+02
1.053011392043476775e+02
-2.252942061413831709e+01
-4.848929637469002785e+01
1.933772513838116822e+02
6.710805147216564137e+02
7.195929089866389177e+02
4.678893189498227798e+02
1.201965250100660221e+01
-1.630120144700282481e+02
3.681113740028686721e+01
-9.515341219235779135e+00
3.179095825426831539e+02
5.990414001230558370e+02
5.119051381732440973e+02
1.164599208851130783e+02
-2.453337252168227280e+02
-2.155484003005734394e+03
-5.153018419086492031e+03
-9.343974091296629922e+03
-9.531334548498953154e+03
-8.566125417467343141e+03
-8.786350249159957457e+03
-8.505011623206544755e+03
-8.409078152445506930e+03
-7.281616130637845345e+03
-4.366493204126977616e+02
1.526712548715584035e+03
1.809448478410464759e+03
2.112663382744472983e+03
2.131322067696711656e+03
1.980258475380195023e+03
2.204564473815702513e+03
2.274452827554098803e+03
2.007580005279179431e+03
1.692896739027155263e+03
1.442404852715466177e+03
1.241062724367875035e+03
1.025791897960568349e+03
1.356537222082813514e+03
1.616318081627528954e+03
1.961127503925851215e+03
2.138934422311038361e+03
2.103731758226180318e+03
2.358458402057206513e+03
2.687102016246979474e+03
2.590591396100648581e+03
2.413941053748520517e+03
2.246121328945163896e+03
2.547101366160652560e+03
2.396868146639233601e+03
2.527425051065440130e+03
2.621725883857956887e+03
2.142685930893657769e+03
2.007284643330282051e+03
1.714448433818600961e+03
1.824124964919517879e+03
1.595267501605926100e+03
1.541864978769713844e+03
1.968998942033746289e+03
2.414596663374808941e+03
2.607603655297287787e+03
2.458964582552928277e+03
2.153673942172726129e+03
2.407724430081416813e+03
2.667130106362218157e+03
2.945819333415208348e+03
2.799727607380420068e+03
2.826917312870250498e+03
3.050350734894770085e+03
3.277005311260875715e+03
3.390842555812865157e+03
3.167830802736570149e+03
2.603981140994401812e+03
1.965224447935485159e+03
1.589515554418354895e+03
1.635802000513382154e+03
1.554068401811976173e+03
1.349283725810591704e+03
1.279550737443039679e+03
1.354867103303511612e+03
1.342218664444490287e+03
1.025521667656023965e+03
1.194828318026022316e+03
1.773109427121235512e+03
2.338369461547087212e+03
2.925608149112862066e+03
3.124803530147967649e+03
3.086899354448157737e+03
3.010954828781563265e+03
3.047932595632505581e+03
2.906876978826574486e+03
2.909633814681776585e+03
1.934379020110405463e+03
-1.074642178292299832e+03
-5.608701869137534231e+03
-9.388845691111546330e+03
-9.004088279636340303e+03
-9.143427589600943975e+03
-8.298840255024293583e+03
-7.630285944661105532e+03
-7.175728417579341112e+03
-6.975228445559946522e+03
-7.026742206037530195e+03
-6.540212497373666338e+03
-6.508689469765628928e+03
-6.731125606111872003e+03
-6.342567555308450210e+03
-4.190001543758220578e+03
6.769702543794964811e+01
-1.711447431856728144e+03
-5.367430849697315352e+03
-5.379281363633494948e+03
-5.328992734394054423e+03
-5.608487616119881750e+03
-5.872789153295297183e+03
-6.033865887401319014e+03
-6.015724069650017555e+03
-6.159325474712610230e+03
-5.667646102506192619e+03
-5.643709654638378197e+03
-5.536468956217303457e+03
-5.002874997101659574e+03
-4.483915327919614356e+03
-2.505952507701811669e+02
-1.614854771235967746e+03
-4.841660095266197459e+03
-4.886978656857156238e+03
-2.327812982703976559e+03
1.590933738121677834e+03
1.296293288559403663e+03
4.303318683769281051e+03
5.059975768055092885e+03
4.899310159385134284e+03
4.563383335881728271e+03
3.995143996438177510e+03
3.674589676494921150e+03
3.178802792539583152e+03
3.010755398246376444e+03
3.092521503670447601e+03
3.305066676789861958e+03
3.691455194709905754e+03
4.108722883637147788e+03
3.950929567096744904e+03
3.889049847848326408e+03
4.067983108629352500e+03
3.859688714046151745e+03
3.534363800865455232e+03
3.678406857426874922e+03
3.356841951857778895e+03
3.248592093684835163e+03
3.629721731966968491e+03
3.355243148286373980e+03
2.974159112991139409e+03
2.522485193817244181e+03
2.494240592964151801e+03
1.658493182194721840e+03
-2.127682283136782644e+03
-1.959764163377036823e+02
1.237357666389988026e+03
1.983204195725472800e+03
1.943726437622235153e+03
2.008626725419668901e+03
1.665089800134489451e+03
2.290239101656209186e+03
2.680905912372302282e+03
2.786481053859604344e+03
2.630744578906131210e+03
2.520697225074201924e+03
2.707293834649572545e+03
2.334990917171818182e+03
2.378347518221431983e+03
2.305211902398405982e+03
2.131046420383886471e+03
2.447622786376723525e+03
1.923133067510364299e+03
1.574425989512253182e+03
1.156089334881253080e+03
1.098402408620888309e+03
1.212667077473146264e+03
1.515234271449879998e+03
1.623797904556922958e+03
1.785393741237765653e+03
1.909319198683333525e+03
2.123653316604969405e+03
2.002470947931460614e+03
1.943726281459717711e+03
2.126388542322063131e+03
1.843413276999591289e+03
1.708765838105952071e+03
1.981451900211946850e+03
1.987491750404341929e+03
2.027886596078557659e+03
1.686611297498036492e+03
1.530640511437907890e+03
9.879312633845377150e+02
9.374368594757401070e+02
4.532018811942550087e+02
-8.785015572540342532e+01
-2.606604192833898992e+02
2.807230904899049619e+02
6.302849543519688496e+02
1.308030986990052952e+03
1.150974259729648566e+03
8.410987998171334539e+02
9.034165836213210241e+02
1.006913079541145976e+03
7.494793713475536379e+02
1.030049543206270073e+03
8.536960764530218739e+02
4.834391653367756589e+02
6.182559507516411941e+02
5.710893399587286012e+02
1.879413322360496750e+02
-7.871925623707510340e+02
-3.296295026295932530e+03
-7.159478508919269188e+03
-1.045976983697266223e+04
-9.864233699154387068e+03
-9.695836509117996684e+03
-9.426620783482469051e+03
-8.875703401102729913e+03
-8.652740029721837345e+03
-8.808876869608579000e+03
-8.341842025006659242e+03
-8.272913696026818798e+03
-7.922128899687019839e+03
-7.497493847296098465e+03
-7.121032940463444902e+03
-7.001721097044584894e+03
-3.927559357432192428e+03
5.934428377741689928e+02
2.423320955277150915e+03
2.450040051679800399e+03
2.164568763384090289e+03
1.899898303518716830e+03
1.629986669894480883e+03
1.521876986613665167e+03
1.463532094085755716e+03
1.348974697610290605e+03
1.420160549933949596e+03
1.507075653503438389e+03
2.008744515848828996e+03
2.376175475626133448e+03
2.394431149884348997e+03
2.010556966457007093e+03
1.597548113316327772e+03
1.336323066387865993e+03
1.565838997639770696e+03
1.934139864912190205e+03
2.026360308634720695e+03
1.995562442527508892e+03
2.052692122456450761e+03
1.823703724157044462e+03
1.357553545881657101e+03
4.672539701151554254e+02
-1.915162855748368287e+01
3.063362461034009812e+02
4.296913985628956993e+02
6.150416394522521841e+02
8.363631200169170370e+02
1.028657384810076337e+03
1.014938670465235191e+03
7.812625703756438043e+02
5.526932831817124452e+02
8.033117081422860792e+02
8.870982371468519432e+02
1.327961220097135765e+03
1.580895115260773537e+03
1.393945463897324544e+03
1.447257226892802692e+03
1.310843258447807102e+03
1.222677266385840085e+03
1.090784967628970890e+03
7.623504239190613134e+02
3.074525387620158767e+02
-1.987552466589550590e+02
-6.256573772440133325e+02
-8.683173408592081159e+02
-9.675222989688135158e+02
-1.629496278767230137e+02
-6.460448825014337615e+01
4.594008792773154255e+02
2.654660431367626217e+01
-7.434588703507087075e+02
-4.586673341605153951e+02
-3.842927727708505472e+02
-2.483332957565462493e+03
-2.655838505197232735e+03
3.761893709382371185e+02
6.168009464141932767e+02
4.879920951113365390e+02
6.877932356204727284e+02
7.842849294695741946e+02
4.604770610610275412e+02
1.074095706710130713e+02
-3.049232275704418385e+02
-3.234882170630121436e+02
-5.633037987968680227e+02
-7.203643434886464547e+02
-6.746507935474339774e+02
-2.472246043596255163e+02
-1.101023279683107603e+02
-2.409811284875010529e+01
-1.501150601967570992e+02
-2.061571221806717347e+02
-8.825515062499729879e+01
4.126746373990266079e+02
7.596212288491501567e+02
8.454398501314028636e+02
4.821542850788721353e+02
3.787557673668049461e+02
2.829238097086876280e+01
-1.882933172620157052e+02
-5.389440492615303810e+02
-5.446078604843360154e+02
-4.683072318105506042e+02
-5.650002209028109519e+02
-1.086740411049308705e+03
-1.019590435756799934e+03
-8.705286872459831784e+02
-4.415012309334460952e+02
-2.084496971747518899e+02
-8.140586029496533627e+01
5.706250988428968185e+02
8.506399629144339087e+02
1.008556657350264913e+03
7.993014975071725985e+02
6.578976905911854374e+02
9.264150222714046095e+02
1.051953922637321966e+03
1.233463542116904819e+03
7.638627178099816319e+02
1.441093631616211042e+02
-6.468660955899589453e+02
-9.220755781958250736e+02
-1.277507260392924763e+03
-9.382289163898338984e+02
-8.002530891206320121e+02
-6.245926606200532660e+02
-2.053008292070930736e+02
2.115628582118873169e+02
6.819660548814678123e+02
1.401897758029534316e+03
1.015307635933880533e+03
9.402400201908692452e+02
9.476869338415972379e+02
9.956038896598143992e+02
-1.217956402561907680e+03
-2.115231429357502293e+03
8.209909224895199031e+02
1.215103594803420492e+03
1.328784085787690628e+03
1.027461199579802724e+03
8.355901395444951731e+02
4.434070367074389765e+02
2.994441954130865611e+02
8.407807405782014030e+02
2.926641476307320886e+02
1.514240843771290201e+02
1.126164440437248004e+03
1.284105003763898367e+03
1.332076370025660026e+03
1.225154649106943907e+03
8.639793337718850808e+02
1.280542336179766608e+03
1.519526930162087410e+03
1.954377093566338772e+03
2.060853881219801224e+03
1.696015819991296212e+03
1.687492782092495418e+03
1.715602351546293903e+03
1.380086955652069264e+03
1.326079839240939691e+03
1.558775405599659280e+03
1.974729934134122232e+03
1.888872721817785077e+03
1.449331846671450649e+03
1.495969050881777093e+03
1.751537533808547778e+03
1.633233650312793998e+03
1.649775075777754864e+03
2.136318729001139218e+03
2.445809698432555706e+03
1.789382482150417445e+03
1.985584484046801890e+03
2.168613907548309271e+03
2.429427334225815684e+03
2.366357454127225992e+03
2.647885439014427902e+03
3.031079547402547632e+03
3.104774440836419672e+03
3.216992675487222641e+03
3.256734693922671795e+03
2.764033776567720452e+03
2.759756988534667926e+03
2.359770664039507210e+03
2.175029729870935626e+03
2.071536528754430947e+03
2.067255785571108845e+03
1.330240656618678031e+03
-1.140538027754149425e+03
-5.167085973349734559e+03
-7.870359151340580866e+03
-6.741299747306206882e+03
-5.727982438078214727e+03
-6.060353545201358429e+03
-5.679406273753860660e+03
-5.402193300198596262e+03
-5.559705714182664451e+03
-5.488913237626201408e+03
-5.237787890813575359e+03
-4.957376398490994688e+03
-4.945566827737809945e+03
-5.936035832393567034e+03
-6.178226195950946021e+03
-2.850164923423433265e+03
-1.891773713697661151e+03
-6.296952889727457659e+03
-6.912743902525686281e+03
-7.047132022974853498e+03
-6.829111110400540383e+03
-6.300623924041176906e+03
-5.676660220306942392e+03
-5.400157529166778659e+03
-5.439009945079342287e+03
-5.196229938718993253e+03
-4.435749785984552545e+03
-4.280604793954789784e+03
-4.286727346908381151e+03
-3.636090848094253033e+03
5.952664364387491105e+02
-8.965339942830726159e+02
-3.886489449440743556e+03
-4.281564458131919309e+03
-4.855724838927062592e+03
-4.620911727582611093e+03
4.328969171122795956e+02
3.408704483678569432e+03
3.794547724781280522e+03
4.053469243108120281e+03
4.685518278819364241e+03
5.199793909840964261e+03
5.419316134969253653e+03
5.250138126394156643e+03
5.244363043749111057e+03
5.354990348695570901e+03
5.096059664111248821e+03
4.832648263720398973e+03
4.674743835674215916e+03
4.634435225523024201e+03
4.381798473963991455e+03
4.194899487439052791e+03
4.151771282676989358e+03
3.430482337563560122e+03
3.078069472954876346e+03
2.318572567206671465e+03
1.928978594549192849e+03
1.711344998783899428e+03
1.729672407425118081e+03
2.007049432001304694e+03
2.247547105002392072e+03
3.229202597322796919e+03
3.481072222901084842e+03
3.083242039000965633e+03
3.162583145354620683e+03
3.404126141420219483e+03
3.470988610490276187e+03
3.042455608467816546e+03
2.933611590038058239e+03
2.796527234182521624e+03
2.787286948386316453e+03
2.633098370006558980e+03
2.598130810984329401e+03
1.914484829182772273e+03
1.268913345578266672e+03
9.746323088496539810e+01
-3.741847379582197846e+03
-3.535055460046543431e+03
-3.897193955819313032e+03
-5.100619885572594967e+02
3.446314882083169806e+01
1.278770292015912702e+02
3.183102989322978829e+02
2.980147967154368303e+02
5.289747473584582167e+02
5.192450455511601604e+02
2.695627461472656137e+02
5.577810633042197423e+02
1.038356359315892860e+03
9.451353254331820608e+02
6.199452606362050346e+02
8.726921989131442459e+00
-5.950554437326729129e+01
-2.107396641169632119e+02
-2.200055043480486177e+02
-3.393206283304907629e+02
-7.916682102315876364e+02
-9.800410727536590230e+02
-1.271485320061956827e+03
-1.136988332082775969e+03
-1.595271260261278599e+02
5.659840171040975747e+02
1.325104899656225541e+02
-8.969629954621070738e+02
-1.190421878975444997e+03
-8.769187104998641189e+02
2.765551317749849431e+02
9.890232498268211430e+02
1.380426705333798736e+03
1.017780500343661856e+03
2.050874686850434898e+02
-1.606317315723484569e+02
-4.914305485363999537e+02
-1.055409388811410508e+03
-8.865457344677486162e+02
-1.184824671596369626e+03
-1.481310382864987787e+03
-1.562029261668168829e+03
-1.558029141032243615e+03
-1.288283919063779877e+03
-3.947913797085878400e+02
3.943974444652086504e+02
1.862493815189095017e+02
-7.532650753718670558e+02
-1.170141364912393328e+03
1.236328281444677657e+02
1.256989638527146553e+03
1.569915957741220154e+03
1.936365369652023674e+03
2.669277001032627140e+03
2.466693902169040939e+03
1.699616735245087739e+03
-1.342013507291616861e+03
-5.112238145913740482e+03
-8.471092107604610646e+03
-7.847601395118834262e+03
-7.628884845718858742e+03
-7.990959576325571106e+03
-8.738907644041577441e+03
-3.907669517311583604e+03
-3.632352101168541481e+02
8.313522371610492883e+02
1.786114748169676659e+03
1.717151563345346631e+03
1.708335379269655732e+03
1.966398205930568565e+03
1.486491482948186558e+03
8.335870252830794698e+02
8.335743170425524795e+02
6.454313476429965704e+02
5.981952542605528151e+02
7.938343129265746256e+02
1.251303324443982547e+03
1.478587920653766560e+03
1.467692118500735887e+03
1.242569927280785350e+03
1.431634743241307604e+02
-1.624557338699410366e+03
-1.894642029457922035e+03
-1.198118866147774042e+03
-6.239584410549414315e+02
1.485095888066100223e+01
1.399275519553312733e+03
3.195226374416837643e+03
3.243724769504392498e+03
2.815782845934813395e+03
2.320472929257977285e+03
2.044734706603781660e+03
1.188545057962910960e+03
4.418929708632655888e+02
3.397670023164725990e+02
4.431422807914927944e+02
1.329976065752650584e+03
1.495303873618273428e+03
4.091295131851228462e+02
-9.126148488593702268e+02
-1.164920573572670037e+03
-4.928357321513884699e+02
9.063764189936209448e+01
4.014951511034204827e+02
1.059682187593632761e+03
1.108267662470149162e+03
3.112708095263727728e+02
-2.913234578276737921e+02
-2.624663357282735774e+02
9.588356464529751975e+02
1.768567283556290931e+03
2.040704711314663427e+03
2.503285439023560230e+03
2.239333159257638727e+03
1.866915867320861025e+03
2.020980664245766093e+03
1.754553629430537285e+03
1.513596004794933606e+03
1.007090651461310131e+03
5.091319272417575235e+02
-1.329749508212068676e+01
-5.831895048535581054e+02
-8.505857594642276354e+02
-1.827560472557069488e+03
-2.242008393409597375e+03
-2.499931528139501097e+03
-2.897275890202578012e+03
-2.368979966323107874e+03
-4.554907538530305828e+03
-5.035998537868253152e+03
-2.267536680916675778e+03
-5.771412774443238959e+03
-3.778619701138806249e+03
-4.317111270731300465e+03
-1.410858300224894720e+03
-2.608796234685160925e+03
-2.266944553077382807e+03
2.487645145868808413e+03
-6.938967888843434366e+02
-2.838608370066241605e+03
-9.665695302417379935e+02
-7.427149120443526726e+02
1.103968020379965765e+03
-3.394811658193498829e+02
8.320078251315338775e+02
1.811376464581276650e+03
3.817721771916966190e+03
6.440394142420383332e+02
1.759375998561258484e+03
-1.446183049500449215e+03
-6.076546729780267242e+02
-2.673029994308282312e+03
-2.628313513397788029e+03
1.205496461684145515e+03
1.484346012569421021e+02
-7.805246793355236150e+02
1.416591491977095529e+02
1.010750350477305233e+02
-2.346277813310214242e+03
-1.839441129752471852e+03
2.686088254151872547e+02
-6.613087263273783378e+01
-3.573726395455591955e+03
-2.413146960703827062e+03
-3.660294662834202882e+03
7.318119898077681000e+02
2.025206458642978760e+03
-1.470106217480382611e+03
-4.830679025845544743e+02
1.259307480036498418e+03
1.202998263699360905e+03
1.440027574134305723e+03
2.271393047822963581e+03
3.876098253157992076e+03
4.620203317369959223e+03
4.211690637755964417e+03
3.505577856670549863e+03
3.177854881416736589e+03
2.620350253572455586e+03
2.260368879324058980e+03
1.609067862460107108e+03
1.113188754321524129e+03
7.811919950104149848e+02
1.075064179043099557e+03
9.273305855823338106e+02
1.003289284350226808e+03
1.396603246772123612e+03
1.725426628518993766e+03
1.513101009907034268e+03
1.402411575270990852e+03
1.381407152405084162e+03
9.700599451737308527e+02
8.984404383456018195e+02
1.346204002623906035e+03
1.525629583922454458e+03
1.119551872465023735e+03
1.073783314525745709e+03
1.447491577510561001e+03
1.175806097860943055e+03
2.316862066916949061e+02
-7.291161640353398354e+01
-8.908302741199436525e+01
-5.898011458808883845e+02
-1.030231915199793093e+03
-4.491830957236518316e+02
3.515267857407572194e+01
5.397903580404885133e+02
6.317997883654941234e+02
1.126963868437551810e+03
1.510249640269441215e+03
1.514168641622713949e+03
1.784698444546567771e+03
1.701301059744807390e+03
1.363462916011255174e+03
1.200081237221506399e+03
1.478704411854631871e+03
1.850455654632501819e+03
1.611995885267740960e+03
1.320110959366633324e+03
9.292601174420811958e+02
6.482560732958515928e+02
7.080353167531890222e+02
4.485063336472023252e+02
5.076768176683823981e+02
8.675778898319071004e+02
7.391882053993169848e+02
9.474846828797559510e+02
1.393490584176558286e+03
1.131239332616332831e+03
9.076887594690495007e+02
1.166830864326135952e+03
1.217662293218195828e+03
1.542131473913697391e+03
1.695217608530371081e+03
1.520990229203944637e+03
1.507422950414960951e+03
1.486555646751092354e+03
1.536359572443525394e+03
1.456807484636517984e+03
1.094850192902579920e+03
7.424519679155000631e+02
5.445985745501270685e+02
5.192415536575799706e+02
6.554092267038895443e+02
-1.112855332619537876e+03
-4.141578180394807532e+03
-7.333777265069163150e+03
-7.411420815153655894e+03
-7.131462785434702710e+03
-6.827913999332395178e+03
-6.704745655708796221e+03
-6.372020548655756102e+03
-6.525728265786710836e+03
-6.194854337271304757e+03
-5.817339584801178717e+03
-5.449230407247442599e+03
-4.937659261741850969e+03
-4.765023132340335906e+03
-5.666678960736465342e+03
-4.653301737121740189e+03
-1.076424653958800945e+03
-4.555970628661800220e+03
-7.060866200887521700e+03
-6.681163613134791376e+03
-6.621849452239700440e+03
-6.197927464769908511e+03
-5.875347175401131608e+03
-5.027093234280983779e+03
4.918378292401053500e+02
3.447499728634446910e+03
4.209909551041538180e+03
4.161102316928073378e+03
4.136086576385906483e+03
4.354829865301273458e+03
4.185357214204273987e+03
3.589670626695261035e+03
3.261754167271653387e+03
2.990680822912587246e+03
2.544460888000233808e+03
2.162105907048603513e+03
1.707597086561871720e+03
1.928864290088038160e+03
1.633944683052842038e+03
1.198882278029688678e+03
1.529773702655563056e+03
1.573654366759464665e+03
1.666503058110263055e+03
2.178234055510382404e+03
2.270903175971528981e+03
2.469545014293872100e+03
2.622275318830176275e+03
2.684150335923960483e+03
2.502154543759228545e+03
1.978287899123066836e+03
1.764578787338532493e+03
2.136987566610261638e+03
2.100578531635646868e+03
2.028359384572813724e+03
1.361353955097569951e+03
9.405662358820110285e+02
7.229873946444788544e+02
6.115617754301489413e+02
2.142885951245923479e+02
1.372617055683398064e+02
3.865508825353351767e+02
7.991852895584166845e+02
1.001063336066123270e+03
1.261178661306702452e+03
1.365596845989609847e+03
9.543380768304319872e+02
1.202382532645698802e+03
1.722814058187465889e+03
1.784570204080319172e+03
1.673823258307739707e+03
1.599723972098163131e+03
1.712648831665513171e+03
1.730397487296984309e+03
1.302011191037060144e+03
5.845316719886563988e+02
-9.394312247913632064e+01
-9.448205766756633466e+02
-1.095933420412100986e+03
-7.045180554895174510e+02
-1.083631957678294157e+03
-1.131220374523168402e+03
-5.802936080846778850e+02
1.041173329728849950e+02
6.040937921831250605e+02
4.386999256647575294e+02
2.448761448829891947e+02
4.366571300441385119e+02
4.880615299486359504e+02
1.030379581198988745e+02
1.705436379657114969e+02
4.106092533663406243e+02
4.572237353478118393e+02
2.484316842270363566e+02
4.012788418345213586e+02
-3.614928413714306998e+01
-7.219696541321216046e+02
