2.142099780970767370e+03
1.335016121912191238e+03
2.904092526635530703e+03
1.635490859928821465e+03
3.159959980078385342e+03
2.378233937510045052e+03
3.481767446276139253e+03
2.744639121566793619e+03
2.047727929121779198e+03
1.645049462822929627e+03
1.607292410151952254e+03
1.563381257206223609e+03
-4.635330430106110384e+02
-3.672472314445541542e+03
-4.320447019590231321e+03
-2.718334070579260697e+03
-1.357230827501336080e+03
-2.823561350650991812e+02
2.703318775612950731e+02
7.639879968086268036e+02
5.199197544877819155e+02
-6.109266108773597352e+02
-9.398245692564395313e+02
-5.627149693236588064e+02
-3.284154827508297103e+02
2.204268348786845308e+03
4.466479815205444538e+03
4.297322954737968757e+03
2.081637400401618834e+03
1.841073644586739192e+03
2.462680782805827675e+03
1.505684597947546308e+03
3.803562362884738377e+02
-9.518242836814565635e+02
-2.333468192763059960e+03
-3.158410794146990156e+03
-4.088256071133469504e+03
-5.272793488200542924e+03
-3.914080321424958584e+03
2.666323929241673909e+02
2.341427888551804699e+03
2.572432894064760603e+03
3.669223072125007093e+03
4.180763099948412673e+03
4.448390894293283054e+03
5.142909803047895366e+03
5.534247109012722831e+03
4.783759858619467195e+03
3.352924020301637029e+03
2.784587096252867923e+03
3.660581699310578188e+03
3.451338236414844232e+03
2.571848196399108474e+03
1.656118489516087266e+03
3.779248133948578356e+02
-3.270139298754708648e+02
-1.538583495499881792e+03
-3.757349443930728285e+03
-5.047713400855861437e+03
-5.785602305489969694e+03
-3.730070295930124303e+03
-1.091204929330594950e+02
6.634253025490621667e+02
1.861372902911681422e+03
4.037813428379835841e+03
4.680965428673657698e+03
3.662779820537106843e+03
2.786375493835019824e+03
3.065718819717424140e+03
2.589545816696282145e+03
1.175730321622110750e+03
9.424429125450767515e+02
4.905221045428440902e+02
-4.693140261088399257e+02
-6.508959693606745986e+02
6.579731153098015284e+02
5.333454262174369660e+02
-4.526717867626253451e+02
-4.327623638309191278e+02
-2.930635836477655403e+02
-3.890337113301230829e+02
-1.380608899581099649e+03
-3.279815369252931760e+03
-2.774655700515840635e+03
-2.352933138406724083e+03
-3.097665146489654035e+03
-3.329624607082495004e+03
-4.174901040999661745e+03
-3.597421989583003324e+03
-2.375678357925461569e+03
-2.336056267288587605e+03
-2.477279379941777734e+03
-2.933962937054558552e+03
-2.556167647690325794e+03
-6.079572446675302899e+02
-1.313263542773646805e+03
-5.012158193479271176e+03
-5.696976448022695877e+03
-3.766527074729217929e+03
-3.832679809523129279e+03
-6.223261537603523720e+03
-6.286134573796924087e+03
-4.271467906795679482e+03
-2.727540698193528897e+03
-2.614168091723046473e+03
-3.094787893837018146e+03
-3.400313960370464429e+03
-1.873094973788050311e+03
2.516579231344406935e+02
2.571772741419781141e+03
3.543379212859828385e+03
3.324623871420541036e+03
2.580496456453181509e+03
1.597153325767750630e+03
1.125199376908447675e+03
2.504068634587614497e+02
-5.586401494630674733e+02
-6.766789356952792787e+02
3.062550086753399796e+02
1.106957927103891507e+03
8.182200690921008572e+02
9.631963740366873026e+02
1.910426421775293420e+03
2.334847868752741306e+03
2.725830173065883628e+03
3.018543900968702019e+03
3.102352364237730853e+03
2.492559519667257973e+03
2.802177574162010387e+03
3.455742275951803549e+03
2.953934372103836722e+03
1.806389100936837849e+03
3.560109309187439521e+02
6.553145278326805112e+01
4.541040876860237745e+02
2.307862164692651561e+02
1.095869133015559385e+02
-4.423325134662056257e+02
-7.329375973097654651e+02
-6.232707313963256865e+02
-1.327701891178348887e+03
-9.072305762230857908e+02
9.652760992394918276e+02
1.834758227586047724e+03
2.045777187734365498e+03
1.785966093357670388e+03
2.059026495015268665e+03
2.305658996006591678e+03
3.053765980387854142e+03
2.833022852242019781e+03
2.055378246708929964e+03
8.736303171055417351e+02
-1.110670071740415324e+03
-2.584752008718239722e+03
-2.329839704822172280e+03
-1.891358882520773705e+03
-2.163345826365053654e+03
-4.430536479661076555e+03
-3.084044346004701310e+03
-1.870862495824073903e+03
-9.788851816439579352e+02
-2.649679749380662201e+02
5.847766694503887948e+02
1.598073844399944846e+03
1.823144399189748583e+03
3.367273250187438975e+02
-6.161747137163042680e+02
2.184992820411815373e+01
1.072084955805199343e+03
1.286297443418135799e+03
7.349163565412245589e+02
1.250350591137844702e+02
-8.735301985383725878e+02
-1.433055097257037460e+03
-1.257903501411589559e+03
-8.771203379572641552e+02
-1.070483077936040900e+03
-1.133926176643423332e+03
-1.484850396054902603e+03
-2.306269882995774879e+03
-1.932128347397160269e+03
-4.513121376758705310e+02
8.053440200606480630e+02
1.640854357604202278e+03
1.637303277065829207e+03
1.151587915230599265e+03
1.361638284647090131e+03
1.909506365867998966e+03
2.050317688819091927e+03
2.369012181452409095e+03
1.770544066212258485e+03
1.007940641219346958e+03
5.833723860033694564e+02
-9.133878595170754977e+01
-4.653850891209261249e+02
-7.989028887418088516e+02
-1.252787634846286892e+03
-1.853959823133491454e+03
-1.978423519089390993e+03
-1.618331386141786652e+03
-1.052758538432961586e+03
-4.446752571770550162e+02
-1.500095638464230205e+02
4.593893694658444815e+02
7.424569227359485240e+02
4.430461916339921800e+02
7.085708499945886842e+02
8.051529951603088193e+02
8.070550102932407981e+02
7.989075801528865668e+02
2.139347610220955858e+02
1.203143961769488044e+02
3.809024059187981948e+01
-7.527523297645662979e+02
-5.684650117749331457e+02
-6.551222089179892691e+02
-8.596057244627911587e+02
-1.116740158997036588e+03
-2.017677387221671779e+03
-2.472525349644421112e+03
-2.142373594221610801e+03
-8.801548992134788705e+02
3.192747330431932937e+02
9.737678501364455315e+02
1.672141012929965882e+03
2.318566185011096877e+03
2.713108846036227533e+03
2.836118412458918101e+03
2.613824915550687820e+03
2.278109532372171543e+03
1.259304743797097444e+03
2.469498775357958920e+00
-4.375609004383355796e+02
-9.920629528381045930e+02
-1.788860712563367088e+03
-3.047838389466131503e+03
-3.219458347909807799e+03
-2.355740861602634141e+03
-1.498633547948212936e+03
-5.403115772325362514e+02
-3.803789208374428767e+02
-1.732017442276266195e+02
5.332722341281416902e+02
1.130882553026099458e+03
5.358745435059962574e+02
3.929736776535130502e+02
1.215450159050697948e+03
2.587539338135590697e+03
4.220132810660365067e+03
4.059764256260015372e+03
3.090925309209045281e+03
2.326232565177643210e+03
2.025541763833432242e+03
2.245813401781384982e+03
2.349050777986431058e+03
1.364095708237590998e+03
3.638566256550345770e+02
-1.213235320429862725e+02
2.524531237937282810e+02
7.319416763593171709e+02
1.065348651271524659e+03
9.554644737931675991e+02
1.563432674890243788e+03
2.711099133824802720e+03
3.558898172424741006e+03
3.924669166706870328e+03
3.289402957442321622e+03
3.002045876679456342e+03
3.659555331168799967e+03
3.538094697996002196e+03
3.432808761111070453e+03
3.423500415188875650e+03
2.207980446848720476e+03
2.222547729588614516e+02
-2.994718502887396426e+03
-6.366894219359997805e+03
-6.380260881310672630e+03
-5.785748598617809876e+03
-5.995277910306881495e+03
-6.155853210170282182e+03
-5.106480088627208715e+03
-4.170145196825748826e+03
-3.645975185296120799e+03
-3.215969918327336927e+03
-2.174068498784252370e+03
-1.526010862990172654e+03
-1.352719736508523738e+03
-1.503398830606404090e+03
-6.979071316262319442e+02
2.580766398787688232e+01
-2.267223439990918905e+03
-3.140925053615941124e+03
-3.343322056483943925e+03
-3.596404175836905779e+03
-4.336109335947967338e+03
-4.520607500107864325e+03
-3.191179343055106074e+03
-1.696602765729531086e+02
-1.665838610638809541e+03
-4.577778040918633451e+03
-4.322428969990172845e+03
-4.574727838665633499e+03
-4.914712688354778948e+03
-3.754316968512479434e+03
-2.562375786013731158e+03
9.742240010188162387e+02
9.044533970485941836e+02
-2.122753893054633409e+03
-2.411296005773187062e+03
-2.889097144508568817e+03
-3.170106321364728501e+03
-3.754260865627060866e+03
-2.231561992957987059e+03
5.810460985609498721e+02
1.229694654466756219e+03
7.343582851177784505e+02
2.920756989994672495e+02
4.096599821020070635e+02
1.034951584842773400e+03
1.571188272380811441e+03
2.378370865725771637e+03
3.291481645752907752e+03
3.310686332756308730e+03
3.535163336927793353e+03
3.986911023736131483e+03
3.925870852038214707e+03
3.720114520639705461e+03
3.837784593883521666e+03
3.398821002978596425e+03
3.130254403490678214e+03
2.830130769145425802e+03
2.026417281637600809e+03
1.024041815091121634e+03
1.323112993202008965e+03
2.394723814453446266e+03
2.451837198703505692e+03
1.857474804287521920e+03
1.232651989623190047e+03
3.934731323578573097e+02
2.950577156297250099e+02
8.023078444167800853e+02
1.333207169516739896e+03
1.818814479002955068e+03
2.083126181309889489e+03
2.367451082789948032e+03
2.781832140842143872e+03
3.040154919124616754e+03
2.802505968535964712e+03
2.583966977365665116e+03
2.502660433732958609e+03
2.656160810423778912e+03
2.287140107276720755e+03
1.980023795968751301e+03
1.405174580261634446e+03
9.424099580741129785e+02
4.084842871823591395e+02
2.754118583110937024e+01
-3.990491655823398105e+02
-6.224047472723957526e+02
-6.399570683570702840e+02
-3.536600001898242454e+02
4.335308570641137180e+02
1.010551692931554271e+03
1.533836195819720160e+03
1.931255483326351623e+03
1.782522546551026835e+03
1.984528260151619861e+03
2.355336820378231096e+03
2.665915909778822424e+03
2.153288292237619771e+03
1.520505017894040293e+03
1.000597283916315519e+03
1.986037137044610006e+02
-6.055856011851601579e+02
-9.780425845511881562e+02
-8.578663714088825145e+02
-9.340811124888209633e+02
-1.451611880639437686e+03
-1.826503998213492423e+03
-1.869835780420428819e+03
-1.532522978854484109e+03
-1.064621497982112714e+03
-6.971163530124895260e+02
-3.489583129166300068e+02
1.145867956865470205e+03
2.508243245673515048e+03
2.934081274800322717e+03
2.739470130780548061e+03
2.492470397901404340e+03
2.012155157975946850e+03
1.349390464252288893e+03
7.690743240778148220e+02
2.432286502440630613e+02
-3.222039112478921652e+02
-1.179267146108740917e+03
-1.448989341658502099e+03
-1.668363558394285974e+03
-2.172334788619485153e+03
-2.025037701181263628e+03
-1.627581208164496729e+03
-1.125828359520552112e+03
-5.886977821247518250e+02
-9.521031581301833739e+02
-2.200143153546929170e+03
-4.704886004228513229e+03
-5.358494509267896319e+03
-5.117973260488917731e+03
-4.916247335536459104e+03
-4.299272160069649544e+03
-4.453946125986415609e+03
-5.033301490659888259e+03
-5.241537714551303907e+03
-4.655736814463325572e+03
-4.905897783055376749e+03
-5.426789324350831521e+03
-3.611664720449895412e+03
-1.488600882004977848e+03
-1.002631631004900214e+03
-1.064817490952866137e+03
-9.381898778846359619e+02
-1.427390468578130651e+02
1.515927964951824549e+02
3.719344106786771249e+02
9.002993734410173374e+02
1.569600282695476153e+03
2.030795309964852322e+03
2.207927675514644761e+03
2.493015333047695549e+03
2.410083272547544311e+03
2.098136479737543141e+03
1.807098079284980486e+03
2.036883900613292553e+03
1.567488680120277650e+03
7.429229373877656144e+02
2.292142021503965452e+02
1.418126493190436710e+00
-3.653918193965565706e+02
-9.012818558777818225e+02
-1.313414690813779771e+03
-1.329890551169392666e+03
-5.818051025512700107e+02
1.919914033555597541e+02
6.666470181410637679e+02
6.500799676883970051e+02
1.182273792501938033e+03
1.838256597380371886e+03
2.172140760447533012e+03
2.120052036151078028e+03
2.084890803882320142e+03
1.995506421170875456e+03
1.834927900813956057e+03
1.778222806678315237e+03
1.287405362298097089e+03
5.894208132614828628e+02
-4.147000121362854657e+02
-9.809453768443230501e+02
-1.438360350245562586e+03
-1.930909494732428811e+03
-1.939548644555102328e+03
-2.447285455909243865e+03
-2.376081578345196704e+03
-1.696843160811284179e+03
-1.222658271874831598e+03
-5.945887919090464493e+02
4.244375370798916833e+02
1.838365053446672391e+03
2.068223302325880923e+03
2.047265262851081843e+03
1.986377497335945918e+03
1.894493205586914428e+03
1.772741371709793384e+03
1.584071117122597570e+03
5.085029409829427323e+02
8.805500036545302578e+01
-6.330946104732042556e+01
-1.047481964774661492e+03
-1.919518594009880644e+03
-2.153533882746686686e+03
-2.148424968260586411e+03
-1.753207816484537261e+03
-1.237942591751321743e+03
-1.966500659033984846e+02
2.907245026004031843e+02
8.303652481572464694e+02
1.572376025686855883e+03
2.101748186300116686e+03
2.259484961851130720e+03
2.386607771557074557e+03
2.161163213229925987e+03
2.164034659539740915e+03
1.409222403564740262e+03
9.849395635729498508e+02
8.573495389649981462e+02
1.842955850534744968e+02
-2.824085078317284001e+02
-6.188893741426742281e+02
-1.016264329375773968e+03
-1.368416044603948649e+03
-1.502294312177917163e+03
-1.613933820403281516e+03
-1.607348541170874569e+03
-1.115299220482316969e+03
5.740810159630520104e+01
8.614815848310112187e+02
1.391757266119079077e+03
1.750280491255593461e+03
1.595157950573579456e+03
1.351478393818423001e+03
1.509375481851216136e+03
1.218885278678072609e+03
4.998198930239320816e+02
2.590884470733186618e+02
6.185442264723607053e+01
5.942218656705514377e+02
6.360071724324916431e+02
9.306059078460663159e+01
-6.285866762646375037e+02
-1.289989853679106091e+03
-2.471098446855703060e+03
-4.003973261706109042e+03
-1.589627824138795631e+03
-9.519964967446759374e+02
-4.801848179244317549e+01
7.184010372134829367e+02
1.085245782789817895e+03
1.390453229159693365e+03
1.780975861266329275e+03
1.745695589211566357e+03
1.635630837904120654e+03
1.727958821571332692e+03
1.213711910849557171e+03
7.728240192705993650e+02
3.464816888718978589e+02
-1.243920980944290307e+02
-9.509237154450310072e+02
-1.567093206562808064e+03
-1.825952205624894304e+03
-2.251571995134033841e+03
-1.851884518445232970e+03
-1.178985611365756540e+03
-2.180971026843424625e+03
-2.675790632145494328e+03
-5.974318566483379982e+02
-1.759794599916426137e+02
2.606883634402485654e+02
7.565966442736543058e+02
9.124800478204508636e+02
1.426721549192878456e+03
1.700400032922311766e+03
1.485230936958784696e+03
1.168057770253789386e+03
8.449201284950162290e+02
-1.323178172255051699e+01
-5.845763633615479193e+02
-4.163018017743690393e+02
-4.058771748258426442e+02
-5.685475537253374796e+02
-4.988666510219855468e+02
-8.424718624559010323e+02
-1.012242828478341721e+03
-6.953799756098044327e+02
-2.558521273932193481e+02
5.021557608075399060e+01
6.537313724208972872e+02
1.274960816637499192e+03
1.745826590542269741e+03
2.283364140180507547e+03
2.654575996705135367e+03
2.982418733780199545e+03
2.872643545648152667e+03
2.513255688867537629e+03
1.739288165961633922e+03
1.174706614978442076e+03
6.323931443046490131e+02
-2.438877851506161107e+02
-9.771273485805282917e+02
-1.646362956444101428e+03
-1.667801873880105632e+03
-1.115377165545772641e+03
-2.567861217536439540e+02
1.958575141214929545e+02
6.574670899261371915e+02
9.302798812455224606e+02
1.553206191324275551e+03
2.128172999659728248e+03
2.536213300887715832e+03
2.525135936793079509e+03
2.338102330811227603e+03
2.514150306082005500e+03
2.485243541395017019e+03
2.276177775397711684e+03
2.091936820794503092e+03
1.971767424242745392e+03
1.423740414836394166e+03
7.126813308419195891e+02
-2.613376093063941994e+02
-7.384181874876446727e+02
-1.864696227171256396e+03
-4.161102718899072897e+03
-7.073686207758345518e+03
-7.473547140390857749e+03
-6.048756160126116811e+03
-5.135225249408766103e+03
-4.077814770461126045e+03
-1.933226548888776733e+03
2.040543361700674268e+03
1.725234068501399634e+03
-1.516286193003742028e+03
-2.455831095344361529e+03
-2.562247358300074666e+03
-2.698523030549254145e+03
-3.389784064667294388e+03
-4.254022941801732486e+03
-3.008181201038753898e+03
-8.433485351313947831e+02
-1.712574991986841269e+03
-2.151737115625101069e+03
-3.452716671733103794e+03
-6.826675758852964464e+03
-4.707691847420775957e+03
-1.514726933710672938e+03
-2.896735046898675705e+02
6.715524633572724724e+02
1.907034608722966368e+03
1.876904613129302788e+03
1.530132207707917587e+03
1.417642895977206535e+03
2.242658944101794532e+03
3.387248705278514535e+03
3.260334818726110825e+03
2.890035023631222430e+03
2.552405296115818146e+03
2.030397982458805018e+03
1.496965779356503162e+03
8.260310308108910249e+02
1.006268979302051747e+02
2.270346470204620459e+02
-1.297638853734391375e+02
-1.590193952557495152e+02
5.773497399638853267e+02
1.125650474197821950e+03
1.340812738270019054e+03
1.144708711980709268e+03
1.146345597430690077e+03
1.318862512127836453e+03
2.166387761196780957e+03
2.663172186842014526e+03
2.913228971064718280e+03
3.204271388990866399e+03
3.124556509090883537e+03
2.100233628199861414e+03
8.424459027114592118e+02
5.711626904653884651e+01
-8.668730521338389963e+02
-2.505500454761276160e+03
-3.940566303893275290e+03
-4.249187303820789566e+03
-3.779597815483700288e+03
-2.175876050766577464e+03
-6.558104070854819838e+02
6.488825049859738101e+02
9.563064993630221124e+02
5.373455982740026684e+02
5.870185685680320375e+02
8.294805599702908694e+02
1.533836730217920149e+03
2.341295545666081125e+03
2.563006303427304829e+03
2.268787405325685086e+03
1.410532884905939454e+03
1.329432336540305414e+03
1.794557331722589652e+03
1.788505541371087247e+03
1.503269981658100278e+03
5.281181730741533329e+02
-5.828366663619713108e+02
-1.207833675070843583e+03
-1.701087440545707977e+03
-2.429464437995777189e+03
-2.768981773582794631e+03
-2.560662698520306094e+03
-2.026321838604798586e+03
-1.320868935371462612e+03
-9.352996875121540370e+02
-1.755804191512561658e+02
3.272446809781508250e+02
2.441089406950784735e+02
-1.978529024809557768e+02
-4.187524644849626156e+02
-1.087733891518239261e+03
-1.359530338913262995e+03
-1.212339300665093788e+03
-5.862991765424819732e+02
6.249038179008609859e+02
1.413270777946963562e+03
1.160894457081017663e+03
-7.320669008710291337e+02
-1.833066324998475011e+03
-1.736275671587698980e+03
-2.102362486773734872e+03
-2.373310968337843406e+03
-2.745381851666662442e+03
-1.373592337759894690e+03
1.097162795530736048e+03
2.376017642121566951e+03
1.953799214805744668e+03
1.303258335186731983e+03
1.560803682497977888e+03
1.960506201474591762e+03
1.321221483535688321e+03
5.138422162739661871e+02
-3.667144806747928953e+01
-9.506166416574250206e+02
-1.377851213799033530e+03
-1.205142582356916591e+03
-1.480179110244029744e+03
-9.438970076009794639e+02
7.275418023340529317e+02
7.517501759816241247e+02
3.302723689161920788e+02
5.210090865547907697e+02
-3.457859338128872082e+02
-1.258130808875686398e+03
3.320775853036384433e+02
9.828198599872098384e+02
6.259417986746010456e+02
9.183631700407373728e+02
1.377404955357845438e+03
1.785023746573244352e+03
2.209880286931570936e+03
1.894900787803763933e+03
1.981315218770082765e+03
1.383201991412062398e+03
-3.984939199744212601e+02
-8.420210112638194744e+01
1.809948760365876694e+02
-9.283250121685351814e+02
-2.658249192146731275e+03
-4.208074072836717278e+03
-3.894590434526314311e+03
-2.441177052368940622e+03
-1.333024635896631025e+03
-2.859388959842207214e+02
1.890885923895884844e+02
6.808750047867497415e+02
9.662733944964786303e+01
-1.117688829669999222e+03
-1.963192561852145843e+02
2.435724455370146643e+03
4.471812690216474039e+03
5.582940001640758055e+03
5.335675636510975892e+03
3.589638846179971097e+03
2.211893939851744108e+03
1.172863476416165668e+03
-8.244913471288290907e+01
-1.962359018218286565e+03
-2.359111323500534581e+03
3.021464731058713369e+02
5.857497974449358935e+02
-5.792339487600764869e+02
-7.502323937168349630e+02
-1.319145568544793605e+03
-1.928653603526387997e+03
-8.367095358051427638e+02
1.455332378006663703e+03
2.238506856563378278e+03
1.833987719987639366e+03
2.357728079708943824e+03
4.302789075526316083e+03
4.556232143844585153e+03
3.726938137469306639e+03
3.449631349811330438e+03
2.317215388573547443e+03
1.203877923893074239e+03
-1.542063923936960350e+02
-1.149282020800298824e+03
-1.434871536954599151e+03
-1.193437456631883151e+03
-5.734430123217380242e+02
3.677245661115219377e+02
1.947593747331288341e+03
2.640163680147020841e+03
1.943845713926121107e+03
1.574836893565019409e+03
2.326065377030302443e+03
2.616579358414823673e+03
3.591471108389136191e+01
-1.498049677360445457e+03
-1.011059301052701812e+03
-1.168084412787491374e+03
-1.646176833212890415e+03
-2.729515942255952723e+03
-3.361229158217372515e+03
-2.696118523420580459e+03
-3.188238505385377266e+03
-4.899557763906606851e+03
-5.153039493146497080e+03
-5.189684535527630032e+03
-6.611397141715331600e+03
-6.727910330784229700e+03
-4.997232826089196351e+03
-6.213563339180755065e+03
-5.519115749115979270e+03
-1.942431992302412255e+03
-4.975374406153756013e+02
-6.526494850201011104e+02
-5.648621785036331175e+02
-2.639734524619894955e+02
-1.645537098649105303e+02
2.135362396181565714e+02
4.019006329767290481e+03
3.494470442354477200e+03
-1.692814012117040193e+03
-3.240645885105892376e+03
-3.251277421091509950e+03
-3.967932188053714526e+03
-3.643801387180125857e+03
-1.260467643100706709e+03
-2.757477301450098366e+03
-4.285128589450435356e+03
-4.400380019472077038e+03
-3.985020710756973585e+03
-2.915214765699267446e+03
-2.258117348026012678e+03
-2.128035983607815069e+03
6.450598033430511578e+02
3.157548580576011773e+03
5.008470499016698341e+03
5.979859223346004001e+03
4.737033278829414485e+03
4.312179373122016841e+03
3.623929661094435687e+03
4.914683916176028902e+02
-1.938746494603605697e+03
-1.265978273201043521e+03
-1.569542228847402157e+03
-2.670262669348828695e+03
-9.250727067198934037e+02
8.498795046294288724e+00
6.935728942173656151e+02
1.568575400930372098e+03
1.402241667307481237e+02
7.039228803445862468e+02
1.400734475892155615e+03
1.413325999702308536e+03
-6.807754946213147207e+01
-1.029847986665537974e+03
4.609441990275198009e+02
2.702922525700120786e+03
2.905176882839202335e+03
3.848780220693884075e+03
4.357880056416345724e+03
3.833627800332083552e+03
4.401169488125060525e+03
4.549595167876129381e+03
3.117161729605359142e+03
2.786052336732416279e+02
-1.934291622321921068e+03
-2.936599239094437053e+03
-5.235427476409105338e+02
2.508045752134618397e+03
2.587446190522018242e+03
8.848796713684969291e+02
6.292192315563158900e+02
2.359437023566956213e+03
4.173546853237508913e+03
4.468433898242509713e+03
4.547193427920449722e+03
5.359756711204110616e+03
4.712051477143464581e+03
3.040142768532310583e+03
2.645121219917731196e+03
4.011930841436469109e+03
3.861751953699244950e+03
2.189993498406724939e+03
3.515848513031309608e+02
-8.175003710340048428e+02
-2.075461600353406084e+03
-2.473725683520144685e+03
-1.184246523480392625e+03
-3.469063324971386919e+02
-1.777928072763029604e+03
-1.117507677705529431e+03
2.564221495721102997e+02
-7.607293666350153671e+01
5.341047455163037512e+02
2.026992153538399862e+03
3.352406367899822726e+03
3.717390732357415345e+03
1.994047335079606910e+03
-2.006220106105895695e+02
9.403824290325728725e+02
2.160109133989621569e+03
-1.774003967376848436e+02
-2.516253285463967131e+03
-1.464577161782004850e+03
-6.532720233268166510e+01
-3.936228864273836621e+02
-2.080468237305129605e+03
-3.476950099001026956e+03
-4.114828304773625860e+03
-2.200076587344908603e+03
-4.661599237834579412e+02
-3.109012831715382163e+03
-3.420573438115884528e+03
-2.390822868316856329e+03
-2.562933902140170872e+01
1.903141199701185997e+03
2.158097720524998749e+03
1.883649161995148688e+03
4.702137179183704575e+03
6.564161865627686893e+03
5.333352758320856992e+03
2.314522632471063844e+03
2.768113233612604418e+01
-5.021385757023565475e+02
-2.146053154892479597e+03
-4.817086331260235056e+03
-7.519096815476442316e+03
-9.194985145236758399e+03
-9.695909674037433433e+03
-8.548028097629572585e+03
-5.883490214469199600e+03
-5.199275499173740172e+03
-5.289246549944033177e+03
-3.878350617223478366e+03
-1.748551503373460037e+03
-2.356838679586850503e+03
-2.610306502966437620e+03
-7.758177777155436843e+02
2.441765192144072444e+03
3.071413437698800863e+03
1.389882582516523598e+03
5.290849597434535099e+02
-1.086870941308271767e+03
-3.304186307342450618e+03
-3.340946851463116218e+03
-2.344980478108757325e+03
-1.418353556914860519e+03
3.018403748170646281e+02
1.342554606124385145e+03
1.257805183401326303e+03
2.968584016376384170e+03
4.058900178824866998e+03
2.446781720908075840e+03
3.650410169616481198e+03
2.431809318832820281e+03
-9.980386390842301125e+02
-1.079221310212228673e+03
-1.491945682740593611e+03
-6.263530476150619961e+02
3.302699417273422569e+03
2.811439260347086929e+03
-8.582512494291570648e-02
1.215871479404425827e+03
2.670277948936536632e+03
1.568365560552977740e+03
3.600914956898183164e+02
2.862318809654988172e+02
1.952670926333865054e+03
1.771518962420937441e+03
-2.025025310915496448e+03
-8.299426733519593427e+02
2.101687167836209483e+03
3.473858145409481040e+03
3.555772624946861924e+03
2.783445632966260291e+03
-2.029272089787071991e+03
-5.912311500720311415e+03
-7.407733251891377222e+03
-3.938609532586965543e+03
1.242235646640676805e+03
6.625092781561466836e+03
9.201051366223171499e+03
6.245847379793889559e+03
1.748266549161508919e+03
8.003873434514688370e+02
5.682657918076757824e+02
1.124695978341591854e+03
1.759697588191722161e+03
7.085216417998758516e+02
-1.446783459343196455e+03
8.936127889823692385e+02
3.663581002038591578e+03
1.543177476281729014e+03
-1.281452961332131963e+03
-8.351457800949265220e+02
2.851309241193984576e+02
1.306275782203300878e+03
-2.620433898667048197e+03
-8.207986386090205997e+03
-5.931533436849167629e+03
-3.479933404701891050e+03
-3.315054980118927233e+03
1.161031435999308314e+02
-2.696993101730065518e+02
-2.642599942538645337e+03
-2.401490450679870264e+03
-1.783354024759129288e+03
-3.178043300353113409e+03
-1.858525472307348764e+03
8.129135656005941257e+01
-1.510610825057341344e+03
-3.059212624533942289e+03
1.161341211160224248e+03
6.356997616859643131e+03
7.370851020574169524e+03
3.637013859019833944e+03
6.562890008946054365e+01
2.108743658242845868e+03
5.510418162888167899e+03
5.788646673667552932e+03
3.153483767580707536e+03
-1.353067942394965030e+03
-7.851894303408666929e+02
1.250197399786728283e+03
-2.136762100410399398e+03
-4.766074073615613997e+03
-3.678749843424875053e+03
-1.394855573015934169e+03
-2.883583031102655241e+03
-4.536930369813412653e+03
-4.475648812734058993e+03
-4.405674307925654830e+03
-3.153051818242176068e+03
5.550447482506394863e+02
3.430725552573331697e+03
2.632011336281454078e+03
3.189520205345352366e+01
-4.774873391655855244e+02
7.958585786098598192e+02
-1.758948090880775908e+03
-7.958982168828354588e+03
-9.536239015533385100e+03
-2.998741367552406246e+03
2.438896592547505904e+00
-3.244725684064523193e+03
-7.389411093582781177e+03
-6.467653210147820573e+03
-2.765248870837859158e+03
9.198430357536969950e+02
6.718466855383351685e+03
6.707532824242355673e+03
4.893202940153042618e+03
6.215495017110489243e+03
8.219371985211069841e+03
9.485132453705853550e+03
8.522798078903866553e+03
5.657315801045128865e+03
4.521592359019839932e+03
3.116579376697138287e+03
2.132353067016918885e+03
-7.119986278672140543e+02
-4.238623291479690124e+03
-4.411561427650707628e+03
-2.434655740288308607e+03
-6.904151615386594187e+01
4.699975521378464549e+01
-3.519284594530725826e+03
-1.156994152153706182e+03
1.096234050131280810e+03
-3.742218513844574801e+01
-3.426764300268067927e+03
-5.309800714641535706e+03
-2.566526877441556735e+03
2.834110399329385473e+03
6.050266647784693305e+03
4.056737685166827305e+03
4.718463249860812539e+03
8.483422686069246993e+03
8.816569784093828275e+03
5.729945938757849945e+03
-9.144024646411538697e+02
-3.564607304869332893e+03
-7.938512395880294434e+02
-1.571866216726482889e+03
-2.232594862698270390e+03
-4.575614784295432287e+02
-8.268875013578964399e+02
-4.159544390606024535e+03
1.295794919453029706e+03
7.907028293167053562e+03
6.513440716438041818e+03
4.186057500352397255e+03
1.214137687947323002e+03
1.425597505463286097e+03
3.382542340155809597e+03
-7.013600106902983100e+01
-2.471437165999347144e+03
1.330809257469683416e+03
2.660506232992968762e+03
-1.755240428444654128e+02
-2.026192551002761093e+03
-3.804572899166550087e+03
2.411296885128643339e+02
7.374967896768906940e+03
7.865927401530706447e+03
3.852973061082775530e+03
3.727201977432596777e+03
3.809285679274169979e+03
-1.056772271431691479e+03
-4.766873569537133335e+03
-1.036935628550702859e+03
2.287940339423240403e+03
6.385760060194669450e+02
-1.208083358287008423e+03
-3.349910505908596406e+03
-4.952029936162381091e+03
-4.873433258947403374e+03
-4.007005428612685591e+03
-3.790804028706731515e+03
-1.544867619266414977e+03
-4.251650920758769985e+02
-1.855457253476831170e+02
-1.400938791890758239e+03
-6.116398382067010061e+03
-8.325243776661958691e+03
-4.319630601365439361e+03
-4.860247044796837486e+02
-1.523420583004553464e+03
-1.483110808903536736e+03
-6.082755756516170322e+02
-1.400936233982007025e+03
-1.934991377521633012e+03
-4.218377953892894766e+03
-5.905139315467177767e+03
-5.692125017077028133e+03
-7.497200242750109282e+03
-1.050747568235833205e+04
-1.314107428160674317e+04
-1.372390923685578855e+04
-9.459878882423736286e+03
-2.263852083321964528e+03
2.601206745660799697e+03
2.719264955147048113e+03
4.291250177463685759e+03
6.916054785700054708e+03
6.745740376088510857e+03
3.965561989736545456e+03
2.665352896281370249e+03
2.747001147086349647e+03
3.132682972181296918e+03
3.984374314696319743e+03
2.489052220275837044e+03
1.017753898579889892e+03
6.235512051608158117e+02
-7.315153876116986531e+00
-8.987329524928528599e+02
-2.299020184812498826e+02
9.061831553579423826e+02
1.381853383339440597e+03
1.378170186887172122e+03
2.300911712344434363e+03
1.760086686840441416e+03
8.218923272806230216e+02
-1.192556603195441767e+03
2.587226860091085996e+02
3.787767963872913697e+03
1.633424650046267743e+03
-5.335620543815413441e+01
-8.932087988862811017e+02
-1.795199136686832844e+03
-1.966310465531329328e+03
-4.975851693867585936e+02
-3.804077824524153584e+03
-2.138616441655565723e+03
4.250920594761833854e+03
6.851327199689340887e+03
6.246608842245934284e+03
4.067149806551507481e+03
3.435255488139361205e+03
3.909764882154094721e+03
3.396770793735476673e+03
1.870459242558959204e+03
1.501732511032289722e+03
3.358562590930876468e+03
4.088173167287346132e+03
3.765585834284711382e+03
1.844727074625662681e+03
-5.315074971703822939e+02
-1.882988177854192600e+03
-3.388632656658606265e+03
-3.774509503672788924e+03
-3.152578774683757274e+03
-3.937710230938251698e+03
-3.028745852140556053e+03
-5.201117969778682664e+02
2.137205602271720181e+03
2.585479905995923218e+03
2.162883829393152610e+03
3.067426372982506109e+03
1.854206496648908796e+03
-1.006995687904716021e+02
6.516368655588846650e+02
1.286168857058270305e+03
7.627910294455705298e+02
2.113442802475701683e+02
-1.780933159713199530e+02
-1.242381992256936655e+03
