-2.940741760143537817e+02
1.515481015653892428e+03
3.500132380398725672e+03
3.760793134656973507e+03
3.669505960637610769e+03
3.087440575914085002e+03
2.112621815387885817e+03
1.878024917980293594e+03
1.876692410995757655e+03
2.016649371875716497e+03
3.310969124251338144e+03
3.885723356783031704e+03
3.814927486214359305e+03
4.755525984760803112e+03
4.740433257977696485e+03
1.395805690349545785e+03
-2.712922337425099613e+03
-3.809730929184161596e+03
-2.632872469244179683e+03
-1.205315245437240492e+03
-1.448955227125714373e+03
-2.896729011527369494e+03
-2.727536813552254898e+03
1.398726160392687461e+03
4.329063938629676159e+03
4.194580887166967841e+03
-5.565471197154810170e+02
-2.385946476925968909e+03
-1.045061157331108234e+03
-5.913132566703073962e+02
1.723654725980524745e+03
4.225794718813992404e+03
3.291731711424393325e+03
8.864658795091675074e+02
1.354401015270972835e+02
5.557291105886435645e+01
2.241728995851502077e+03
3.577737336093747672e+03
2.637403971511105283e+03
1.561200569718914039e+03
1.953779702178287835e+03
1.520252573323190973e+03
2.517414724942256044e+02
5.482497726828138411e+02
7.976876518327391068e+02
-2.791965735178918294e+03
-4.679686860405809966e+03
-7.276384955035838402e+02
3.563217660149995936e+03
6.373856569651231439e+03
5.943232736559205478e+03
3.593443991040410310e+03
2.427585606603598080e+03
1.225631786262264313e+03
-6.648837708823693049e+01
-2.073703196197510351e+03
-4.499949385548138707e+03
-3.590324966705131828e+03
-3.485919500978961878e+03
-3.553896896963644394e+03
-1.677231599140517801e+03
-1.281859177659261029e+01
3.945698876976776859e+01
2.146540454071048771e+03
2.540102293715934138e+03
1.258155689314924757e+03
4.938655625838774199e+02
-1.602905490698450876e+03
-4.388275258871773076e+03
-3.775164729354911287e+03
-9.313740506286562777e+02
1.251110067381314366e+03
1.809238308312059189e+03
1.551954673210081637e+03
7.141872089807110342e+02
2.417503737779669279e+02
2.945801232281182820e+02
-8.042063952376462339e+02
-2.538800995732074171e+03
-4.653204766817635573e+03
-6.769270468102804443e+03
-6.664981466893470497e+03
-7.231415154702764085e+03
-9.918537944454898025e+03
-1.102639401876360898e+04
-1.010292883215470283e+04
-7.069054608531099802e+03
-5.119914991802175791e+03
-3.269772666255024433e+03
1.166311409190871245e+03
4.550434737084729022e+03
4.013847389337049663e+03
2.300337221296615553e+03
1.052771022550166435e+03
2.062590736842991248e+02
3.296965949436199708e+02
3.829337538316311793e+02
-8.320845808942654003e+02
-2.114289689375176295e+03
-2.208833460880286111e+03
-8.887902939979287567e+02
-7.460705128008595466e+02
-5.502475960174258034e+03
-8.914935142365822685e+03
-4.845436298660084503e+03
2.294004968280180492e+03
6.500468757147081305e+03
7.184129485735243179e+03
5.390690769144079241e+03
4.746848130586614388e+03
5.833739607168147813e+03
6.506496783602480718e+03
6.690944903031479043e+03
5.622044108636837336e+03
2.806991234143608835e+03
1.634765394615385731e+03
2.292176406682401932e+02
-1.190597985150864361e+03
4.284741794206507279e+02
2.473112689998039059e+03
2.978987577999034329e+03
1.973291803396857631e+03
2.079315507153637554e+03
2.188962039885409467e+03
8.052080468874721646e+02
9.110721805751950342e+02
1.349551110177124883e+03
9.076550624760011488e+02
1.547428164526441606e+03
3.105800892475772343e+03
3.547808689677170150e+03
3.382363816385749487e+03
2.362465196379540430e+03
1.159315224765374069e+03
1.890253105223532657e+02
-4.985004796777094498e+02
-2.415272693603416883e+03
-2.659321664488111765e+03
-1.365686255589439725e+03
-1.109502277019570784e+03
-1.527728369943176858e+03
-7.892557380526642419e+02
-6.400606972252516016e+02
-1.435058160848785747e+03
-2.100220627397555745e+03
-7.915390557296283305e+02
6.900974281854028050e+02
8.576952548759895762e+02
-2.187453352427011453e+02
-1.164156662223616877e+03
-1.954529360914914150e+03
-2.051978370083194932e+03
-7.716816699600874472e+02
9.044020085969032152e+02
1.560455217405467238e+03
-1.532866550011533775e+02
-2.115891123121008604e+03
-9.655227209378563202e+02
-1.621199642205689315e+03
-2.052796130892651036e+03
-2.123333874018540826e+02
5.691410772362724657e+01
-2.104971175876133202e+03
-1.615642310686876499e+03
6.889464930352287411e+02
-1.998320906073716515e+03
-1.290740121799823100e+03
4.485800998474700805e+02
1.843811792299403123e+03
2.130149585338564520e+03
-3.593194892003529617e+02
-6.936293946520057716e+02
-2.656598800805643918e+02
1.915200021507160670e+02
-2.077063045513232282e+03
-4.719407439661229546e+03
-4.114648416932905093e+03
-2.410840165412568240e+03
-3.698908346910023738e+03
-1.854797737586345193e+03
-3.459513971753895021e+03
-1.286003698431099792e+03
4.869202658680464424e+00
-8.617480772695445239e+02
-1.673850152052115391e+03
-6.436892433204826602e+02
1.365562758392208707e+03
3.558046937425718625e+03
3.600090414079667198e+02
-1.781471449579459659e+03
-1.717393266708167403e+03
-1.146619680965733551e+03
-3.141333972629741766e+03
-1.694575536489247725e+03
-8.882713583689555890e+02
-1.316551492663191539e+03
-1.491755252777540591e+03
-6.519537345663118231e+02
2.170774268881843625e+02
4.343511321353707331e+02
1.352850196912159163e+03
2.236445673124432233e+03
2.152928334289542363e+03
1.592454131300841709e+03
1.326299826076808813e+03
2.150424754874454266e+03
3.275750320164548157e+03
4.181401913213639091e+03
4.231517156736254037e+03
3.561165184397345911e+03
2.962243107107595733e+03
2.718594595680459406e+03
2.595343653028105109e+03
1.552414733458125511e+03
-1.105031790831914407e+02
-1.025389743377004606e+03
-9.636542900326860490e+02
-1.299275677353939955e+03
-1.518882208897889313e+03
-1.440548913023999148e+03
-9.699228667779733541e+02
-1.489825030419895597e+02
1.037223295178851913e+03
1.758598065392049875e+03
2.392323734375279855e+03
3.012040517977632135e+03
2.823898584585620029e+03
2.531982391394746173e+03
2.354151477637698008e+03
1.727537509906404011e+03
1.747226171932401940e+03
1.712157267188093101e+03
8.772452673925529325e+02
-2.957722236234265552e+02
-1.057857936101705263e+03
-1.731681751854442609e+03
-2.119288399635372116e+03
-1.824898185838787867e+03
-9.841586483162094510e+02
-1.282075204422056231e+03
-1.762662033777963870e+03
-1.170595174485170901e+03
4.261763926320288078e+02
1.823930393162744622e+03
2.641130798813737783e+03
2.500642255104473406e+03
2.053825020023074558e+03
1.891413827572367609e+03
2.442649191566229092e+03
2.522432232795291384e+03
2.401808709646458283e+03
2.022671883896236295e+03
1.734955555331546748e+03
1.319651202977599723e+03
4.977126675436529126e+02
-6.008825376287849167e+02
-4.840391915253031243e+02
-2.317373422692123484e+02
-1.332276023081036556e+02
-2.416216204585492164e+02
1.901546571015684890e+02
9.441458509518324718e+02
1.682416333910400454e+03
2.415043185712133436e+03
3.088960468020405642e+03
3.248149557780744090e+03
3.119595196154089535e+03
3.102208428893197379e+03
3.111991111783490396e+03
2.578939539126577984e+03
5.379156036052039553e+02
-2.574000574426847379e+03
-4.572518676521933230e+03
-4.767536650630231634e+03
-4.771214206525181908e+03
-5.570732509011414550e+03
-6.255190972827115729e+03
-7.152464702923346522e+03
-7.601440938209928390e+03
-7.587269501144566675e+03
-6.823288897215942598e+03
-4.148480515889832532e+03
7.053830508652866911e+02
1.398826308397066668e+03
-1.898339601949252483e+03
-3.302364230373181726e+03
-3.236168947251645022e+03
-8.318891699910425359e+02
-1.011601339126463586e+03
-3.144133551600204555e+03
-3.219388176113076952e+03
-3.319392494835342859e+03
-3.456225782937145141e+03
-4.054100710772616821e+03
-3.380953959264172227e+03
-1.726003849837445614e+02
-2.094989116671128613e+03
-1.955216797868793947e+03
-1.031232900110747778e+03
-6.869266445915901613e+02
-1.804384128413199733e+02
8.392879870143269727e+02
1.857620880832892681e+03
2.483530627534827545e+03
2.980532654355798968e+03
2.949552959088259286e+03
2.988687897254320433e+03
2.918209540973246021e+03
3.181285440661124085e+03
3.258850225494572442e+03
2.892944256803758435e+03
2.396626678137033196e+03
2.174987999145847880e+03
1.858159743696919577e+03
1.518884593302849680e+03
5.272426112379221195e+02
-4.717467282835087872e+02
-9.712598309302564985e+02
-1.050288764936719645e+03
-9.337162500235237985e+02
-1.027715156167789473e+03
-7.681240776350311990e+02
-2.617606934383672979e+02
5.803900000823193750e+02
1.302509312211156612e+03
1.673749548875318396e+03
1.673930983957429362e+03
1.675864801742633517e+03
1.905554996774271331e+03
1.995117282969220469e+03
1.996614323287079742e+03
1.882111994167573584e+03
1.364590779318078830e+03
1.287053704441627588e+03
7.796381982080598618e+02
-1.036043124239103150e+02
-4.716390086518235307e+02
-9.094389327768915336e+02
-1.175016353152159809e+03
-1.076144850618692544e+03
-1.084606966965517813e+03
-7.564313879821262390e+02
-2.007459313764114768e+02
2.102843377924270385e+02
6.796923909499088268e+02
1.276537495986006206e+03
1.102561775612147130e+03
1.763928512609499194e+03
1.787938075471395223e+03
1.372481760040819836e+03
1.436516265507760409e+03
1.132998232265729939e+03
9.528624218789632323e+02
7.481243457163058110e+02
5.799321668855520784e+02
-2.766860468448672918e+02
-9.528168869887917936e+02
-1.648519540998468756e+03
-1.976739123950692374e+03
-2.519062721458851684e+03
-1.934470891596911542e+03
-9.324933871360412923e+02
-2.924694946945110132e+02
3.177845451817573235e+02
1.058511954975704384e+03
1.314936828450611756e+03
1.318987373453747523e+03
1.082570735771185127e+03
1.388756463924184118e+03
1.187551420524107698e+03
1.097036899984856746e+03
7.233363977017062325e+02
5.623139737854731948e+02
3.450902415044863574e+02
-2.925845449578933710e+01
-6.950043838339729518e+02
-1.140246491868095518e+03
-1.505863481393733537e+03
-1.781721275013547483e+03
-1.922922145520501999e+03
-1.616472943795138690e+03
-1.184211703028145621e+03
-6.541876987213224766e+02
-4.341085443148192979e+01
5.272082227496227915e+02
9.325727822639510123e+02
9.626033993966718754e+02
1.170379663484284947e+03
1.040893042191499262e+03
6.871998481594273471e+02
5.323120555682140775e+02
2.622266917318564765e+02
-8.075503584506872556e+00
-3.525016352943681568e+02
-6.771378890302898981e+02
-1.636121228262909199e+03
-2.336401194368756478e+03
-2.601934184045899201e+03
-2.516832226465472104e+03
-2.347146102638040702e+03
-2.251771478602666775e+03
-2.058659774997855038e+03
-1.204971832737328441e+03
-1.536856134128805991e+02
9.032609401624292786e+02
1.344933964810952602e+03
1.778374231953303251e+03
2.057579180317509781e+03
1.945470509790844289e+03
1.520835394720725162e+03
1.473499293405213621e+03
1.664653226175667214e+03
1.349571887134626195e+03
1.223188586133659555e+03
8.733356867958907515e+02
-9.108134893667435961e+01
-9.148065445965260096e+02
-1.359192732303173216e+03
-1.834297316931798150e+03
-1.661963462285790456e+03
-1.149208562343665562e+03
-1.069402910934763213e+03
-5.547985317269407233e+02
-2.759316177993010228e+02
1.852646840068244671e+02
8.837086125179333749e+02
1.596535237706699263e+03
1.776745188310291724e+03
1.827359026883233582e+03
1.671276196012896889e+03
1.762479853764229119e+03
1.589893800060379363e+03
1.240867348188089409e+03
9.380206394883067560e+02
5.462128282240772705e+02
-4.121446244084780233e+02
-1.492489308354985496e+03
-1.848612894932565041e+03
-1.981865745208781163e+03
-1.814332551175006529e+03
-1.455677376712509158e+03
-1.243748534104697455e+03
-1.130018392108259604e+03
-8.763820693021443731e+02
2.790695516745975056e+02
1.137751896003301454e+03
1.307609563822893733e+03
1.558548894072390794e+03
1.356634528019943446e+03
1.511759640780043128e+03
1.734722287972419963e+03
1.494562453582194394e+03
1.356335582115356601e+03
1.065945465507670633e+03
9.232841226297960020e+02
2.323086909646610536e+02
-3.940022784511043596e+02
-7.987135199102060596e+02
-1.203835233408627801e+03
-1.185283034583812423e+03
-1.429049401993074071e+03
-9.721219147756512484e+02
-4.855936985640636863e+02
3.324883762560970695e+02
1.173138558013853299e+03
1.424417823701110137e+03
1.080441509574916836e+03
1.123262183321192424e+03
1.588826014045987449e+03
1.765095635315268737e+03
1.472054540920413729e+03
1.400769264201590659e+03
1.838202841535494827e+03
9.812590444949137236e+02
-1.805964488509404191e+03
-3.664503949929557166e+03
-2.636392394134225469e+03
-3.369670639646908512e+03
-3.710386082616938893e+03
-5.067573307612003191e+03
-1.953233954205882355e+03
-2.781338766327455687e+03
-1.699891504461411614e+03
-1.857790309827558303e+03
-1.278971415838369012e+03
-2.424739619736109262e+02
-1.842050926295946169e+02
1.378403141014258324e+02
1.518665168594667421e+03
-1.151678342793280763e+03
-1.207169616534099077e+03
1.142152084305329481e+03
-1.870410837381334446e+01
1.658228734076364617e+03
-5.950798599983512531e+02
-6.006516337982213827e+02
-2.232404544651053129e+03
-3.403356865080575972e+03
-4.475547215205914654e+03
-1.815061665894179214e+03
-1.553946571101843574e+03
-2.247129924434053919e+03
-1.042512489445543679e+03
-2.127069272297183034e+03
6.401834419116175923e+02
1.646247502087158409e+03
1.579209608251397867e+03
1.726111932265788028e+03
1.872981772373968624e+03
1.796771646978867921e+03
1.943553908036657958e+03
1.934333653539628813e+03
1.683140705836897496e+03
1.646879872068941495e+03
1.795571562966826605e+03
1.363238825381772131e+03
4.749041428673563132e+02
-1.994913545218038280e+02
-6.039740801413843201e+02
-4.965358571445692633e+02
-4.841826635792996285e+02
-3.358745541166317707e+02
-1.651797706856328674e+01
7.898954687353835880e+02
1.472390265980912773e+03
1.777933501255207148e+03
1.554542086686199582e+03
1.600384235418189064e+03
1.716740432106265644e+03
1.480695785731362776e+03
1.617086849142217488e+03
1.877875710877162419e+03
1.550099746706003316e+03
1.325812403655675325e+03
1.145044676279037503e+03
4.377600332311584452e+02
-2.280547370840092185e+02
-1.109458740129226953e+03
-2.022618889048408619e+03
-1.547572645077491870e+03
-1.385348424169731516e+03
-1.308818390168582255e+03
-8.231634938851519792e+02
3.249128297974502289e+02
1.574393447713326623e+03
1.947141882106378489e+03
1.587450402346011515e+03
2.052319858929788552e+03
2.041661026624105034e+03
1.705477418051462109e+03
1.631851387976040087e+03
1.563654653116174131e+03
1.602569426832012823e+03
1.643052718910682188e+03
1.307944901963554685e+03
1.102212545952622804e+03
2.127778701635120910e+02
-2.984860079691278543e+02
-6.636514024183737774e+02
-6.668071837275414282e+02
-1.022001497199646110e+03
-1.185241951096351841e+03
-8.873916342833456383e+02
-1.614013080194723671e+02
3.077467411852128976e+02
4.629793438910617738e+02
5.493527812295933472e+02
7.458859501640779399e+02
7.135925865299948327e+02
1.169397200642968301e+03
1.282242365868472689e+03
1.556131200291766163e+03
1.717074593479389250e+03
1.530113651245899291e+03
1.380241080298897941e+03
9.884532209394842539e+02
2.587168504092035164e+02
-2.710011460931523857e+02
-7.157100880418944371e+02
-1.179441853305860377e+03
-1.457284344286624901e+03
-1.476210819677216705e+03
-9.392219536334143868e+02
-3.003447479704446437e+02
2.194075091054388054e+02
7.670270990686210553e+02
1.121543767271878778e+03
1.332964815035812990e+03
1.155354328828843109e+03
1.126742399074461673e+03
1.258000298177084233e+03
6.540467768683594159e+02
-1.005019877624583387e+03
-3.774179398876206051e+03
-5.676459030110680033e+03
-6.011904583302922219e+03
-6.524544560024411112e+03
-6.714394827479155538e+03
-6.866451997842010314e+03
-6.799795953335757986e+03
-7.051510972132286952e+03
-6.383524891662399568e+03
-5.750845805656734228e+03
-2.897440585477450895e+03
8.247027208328279357e+02
2.034645593858349685e+03
2.751417526467702828e+03
2.902915813826051817e+03
2.871153989973689022e+03
2.742151280186157237e+03
2.874860803538910659e+03
2.765230019443171386e+03
2.272296770357252171e+03
2.349043858589114734e+03
1.908485833243854586e+03
8.926157203055953460e+02
-2.048328441896260799e+01
-4.979190810744507871e+02
-1.082821000039200953e+03
-9.992130004645770214e+02
-8.530875930244158099e+02
-6.163505209159045535e+02
-6.499511609646984880e+02
-2.259478982691095723e+02
9.378218196647927698e+02
1.926322038994920831e+03
2.658476739896783783e+03
2.680311278328584194e+03
1.847962044583574652e+03
1.774384969285492616e+03
2.270529607521119942e+03
2.343434278589152655e+03
1.951159751837190015e+03
1.776640425497006390e+03
1.645799040850931988e+03
1.043662943326026607e+03
1.402359986265681755e+02
-6.015229227140692956e+02
-8.136505038040920681e+02
-7.971382795381081223e+02
-4.819296144753758995e+02
-2.299983295860300245e+02
3.216417945828267193e+02
1.251080911561463836e+03
1.703281969284527349e+03
2.002218928528397100e+03
2.079017979554429076e+03
2.151740167596242827e+03
2.132455665427188706e+03
1.786137102782584634e+03
1.790637689243085106e+03
1.845954486480757623e+03
1.857265378162527668e+03
1.873555392307177499e+03
1.782686225244529624e+03
5.365899050761296394e+02
-5.616883102203984208e+02
-1.175011718367694812e+03
-1.808435705962310749e+03
-1.510084962533834869e+03
-1.291875432075632034e+03
-1.419715201092948064e+03
-9.454956841216043131e+02
-2.382126820881676679e+02
4.180984631450635334e+02
1.294990910909021409e+02
-1.692829855476183411e+03
-1.842803110854338001e+03
-6.435100849339706883e+02
-6.760388767544234270e+02
5.184363616103427148e+02
-1.066166442528030984e+03
1.019227619874046468e+03
1.624768744259107052e+03
3.535302977041317263e+02
-1.800471387106157863e+03
-1.799184079828627091e+03
-4.506768985565928233e+03
-2.522352096562991392e+03
-4.009967217842965510e+03
-3.142543546493159738e+03
-2.893955130868420838e+03
-1.347099720929517616e+03
-2.604949771279319975e+03
-1.628536082262973878e+03
-6.828868810934877729e+02
7.450106071137876143e+02
-1.658856472642870131e+03
-5.123780150213765410e+02
-9.115425257306105777e+02
-1.602464148720653611e+03
4.979059712662678976e+02
7.456250456116528085e+02
5.126488503526870772e+02
-2.520495399128732572e+02
-2.726560770365414101e+03
-3.158873428308766506e+03
-1.431874238417912238e+03
-3.781519837166509660e+03
-3.480922375580038533e+03
-3.386101161321698783e+03
-3.287126534369102956e+03
-3.378962578043811845e+03
-2.452557053721526245e+03
6.111938968293179641e+02
8.039983465486153591e+01
5.100511857075557032e+02
1.492034259620256762e+03
2.448373679253481441e+03
2.690083990202123005e+03
2.892140419134353579e+03
3.018613113828732821e+03
2.469592620839740448e+03
1.947856409745443898e+03
1.503326608597487621e+03
1.316274861803354952e+03
6.585500037818721921e+02
3.102560327362971293e+02
-8.155167151652402424e+01
-5.599427401811611844e+02
-8.549529733895287791e+02
-1.133886089825194631e+03
-6.818621764055931180e+02
6.072899950037857479e+02
1.809461477264198038e+03
2.947752532786937081e+03
2.993398298452146264e+03
2.956577427658558008e+03
2.877258342013234596e+03
2.387123605430290354e+03
2.730046798160491107e+03
2.721393402878610232e+03
2.567214074910913041e+03
2.311182023399115224e+03
1.875448364829175489e+03
1.502891787858156704e+03
7.088358623209994676e+02
1.514673536802670526e+02
-5.344692544019707157e+02
-8.798046273220109015e+02
-6.828194794049626353e+02
-1.055984307049419385e+03
-9.222959496728234399e+02
-1.367873986502754349e+02
7.498805422852959737e+02
1.512404938609192186e+03
2.010953311821028819e+03
2.159316658747328347e+03
2.275224345882298167e+03
2.010238298641015490e+03
1.887345182595590586e+03
2.103458813188034583e+03
2.260690538462458790e+03
1.751847903384649499e+03
1.649812300306602992e+03
1.603757046463452753e+03
9.370305111165220069e+02
6.381656263263064375e+02
5.409858395662796511e+02
1.591022231404379568e+02
-5.310426374615378791e+02
-7.148310646367169738e+02
-3.151301901349037848e+02
3.961301373458702528e+02
1.161934954323957982e+03
1.275386141922329671e+03
2.060436097836039608e+03
2.330128040408625111e+03
2.348367316507688884e+03
2.054990890134882648e+03
2.028908802328127194e+03
2.053101957217549170e+03
2.018742550687227094e+03
1.614022512295832485e+03
1.081962561331447660e+03
5.442954031417286842e+02
-2.120888491047273305e+02
-6.538952009761735553e+02
-5.100938470362333419e+02
-7.247063099466653284e+02
-7.340350663001977409e+02
-1.400481330181886960e+03
-2.922974222318740885e+03
-4.746231189862341125e+03
-5.178061310352511100e+03
-4.140280681825151987e+03
-3.600006137974545709e+03
-3.385388243802597572e+03
-3.698456245028139620e+03
-3.503297103574795074e+03
-3.354906540504043278e+03
-3.454240263707541089e+03
-3.362244767344517641e+03
-3.175783605990003707e+03
-2.717771915534827713e+03
9.387977079679826602e+02
1.290673942973638987e+03
-1.397192492599474008e+03
-6.162607493997667916e+03
-6.546379858452706685e+03
-4.280547432525084332e+03
-6.031292433566331965e+03
-6.630622337919868187e+03
-5.392560401833949072e+03
-5.162119139582723619e+03
-4.881188907400259268e+03
-3.915818415260396705e+03
-3.041007264748286616e+03
-3.048492146417136155e+03
-1.958350989370720981e+03
-7.328529219679467133e+02
1.521007820022426586e+03
2.936257009514923084e+03
3.334936901239826057e+03
3.729461124100198504e+03
3.356967214069219153e+03
2.069122599975379217e+03
4.008395717961511764e+02
-1.925808824374460926e+02
-6.519933776817683224e+01
3.266555260108176526e+02
2.679244843300198227e+02
9.689194470932106924e+02
1.722892779283337632e+03
2.755830898202082153e+03
3.333460270885545015e+03
3.195663403535641464e+03
3.093642097020406254e+03
2.329399186637228468e+03
1.797037888635280524e+03
1.515839728565845235e+03
1.670916984707457459e+03
1.796003472074828323e+03
1.415756740957143393e+03
1.401167381343180978e+03
1.497535311150026928e+03
1.097119803492612618e+03
1.248057685977550591e+03
1.369241092693454675e+03
9.254049672652414529e+02
3.174665319382075381e+02
-1.314541685402872986e+02
-2.332948580563111136e+02
-1.918695363764332740e+02
8.159330822130360730e+02
2.179365073878390831e+03
2.641446891438179136e+03
1.632847805101224594e+03
1.302448201043498102e+03
1.750298784391966592e+03
1.907596749448635364e+03
1.707544394618449815e+03
1.599036633232726217e+03
1.288051827310264343e+03
1.539551741353542866e+03
1.245508125391635986e+03
-2.531435745459683346e+02
-8.012816298932319796e+02
-1.204607022169468337e+03
-1.953290244733815143e+03
-1.615732868757816959e+03
-7.999642986541099390e+02
2.314263841179620158e+02
6.544206952013663567e+02
1.046929395048189917e+03
2.012997731565430286e+03
2.594521829797398823e+03
2.662439129455459806e+03
2.462001718923846965e+03
2.017554990883540313e+03
1.515069349557410760e+03
1.111292654419229166e+03
1.520154586434125576e+03
1.839555291022443726e+03
1.133473407119619651e+03
-2.579288888548304044e+02
-1.778863350814863452e+03
-2.006255847589396581e+03
-1.970958315308150077e+03
-3.065090985149606695e+03
-2.431822101606346678e+03
-1.541166646538886653e+03
-2.116072743192525650e+03
-2.457467431472879070e+03
-1.335210556864063847e+03
-4.141851634526254315e+02
-1.345437230114560521e+02
4.736830347260336112e+02
1.622622835820148794e+03
2.189235034741372147e+03
1.707284602410082016e+03
1.438765952171203480e+03
1.179896703144388766e+03
7.076295648626507955e+02
-2.742773020023789741e+02
-1.267638514822887601e+03
-1.572202898709207375e+03
-1.577322403511676839e+03
-1.971130094342088569e+03
-1.666468551661769425e+03
-1.734283542202072795e+03
-2.750753421974863613e+03
-2.714043874362858332e+03
-1.787024188423347141e+03
9.340296687079501226e+01
1.899328257194325715e+03
1.751565643307001210e+03
1.286007254999838551e+03
2.236836327860076835e+03
3.158065990232372314e+03
2.528495981505249347e+03
9.349777287389309777e+02
-4.933468138946406611e+02
-5.464188691089497070e+02
-1.457175808465691716e+03
-3.762767049769142886e+03
-5.221309253857497424e+03
-5.669590147135033476e+03
-5.373562160626189325e+03
-5.052468414650606974e+03
-5.479377151794893507e+03
-5.809265981596570782e+03
-4.254061939925783918e+03
-8.346534308221910123e+02
2.389843454545979057e+03
4.506176504256370208e+03
4.672419411758970455e+03
3.182520141798062468e+03
1.273653469470422124e+03
7.265542585373530073e+02
1.176466414095739765e+03
1.672334793849928701e+03
3.647999974788869167e+03
4.202248169531618259e+03
2.522349624588147890e+03
2.820605426732228125e+02
-1.898093317731482102e+03
-2.724420960823411860e+03
-2.014125986111230759e+03
-6.202877002881361932e+02
1.014267261319465518e+02
3.567825891267813745e+02
4.786738124651670887e+02
5.831686577948847798e+02
1.904523166631995082e+03
3.401256215786578650e+03
3.520516617389218482e+03
4.108466004830634120e+03
4.794823069392087746e+03
4.531703019149740612e+03
4.366281048282398842e+03
2.957576048478446410e+03
1.606544819064869444e+03
1.785023917933248867e+03
2.544841347509372099e+03
1.786271426776433145e+03
7.041244503103658872e+02
-5.246282622703513425e+02
-1.670009906989627552e+03
-3.076030955421804265e+03
-3.266761486511720250e+03
-2.454458588134390993e+03
-1.164934695708343725e+03
-1.048066364603098691e+03
-1.073912400042554054e+03
-8.295441782284765395e+02
-1.104760871873151245e+03
-2.954828320489493194e+02
1.385251264247396875e+03
2.174816352892809732e+02
-2.292720405079072862e+03
-1.598405862455878378e+03
-2.425728081286886209e+03
-2.215629229404622038e+03
-1.831359187906452348e+02
1.732753816604337317e+03
4.422092752664172622e+03
3.864894359505006832e+03
9.982695344592196989e+02
-7.667795605570958060e+02
-4.158454900583104973e+03
-6.424779520732479796e+03
-6.035856817294900793e+03
-3.332597666631616448e+03
6.319747472756438356e+01
5.985433994377966656e+02
-1.955522349419917191e+03
-2.474095377074483622e+03
-1.840009402219332287e+03
-2.436058458938131935e+03
-2.736371980080489720e+03
-4.410013126704544447e+03
-2.995921928677087635e+03
-7.542194312013926719e+03
-6.421957366742451995e+03
1.593420705605397991e+01
3.238568989119563867e+03
1.681063840352743682e+03
7.604499946219317508e+02
-1.614349532808643062e+03
9.415493199785001934e+02
1.541057037616362322e+03
2.182613516808677048e+02
-1.725676371279957038e+03
-4.885761785548545959e+03
-4.307014063395557969e+03
-1.563580004427876986e+02
-3.707132912628222812e+02
3.530960828328369644e+03
3.957752724226815644e+03
3.188497183390761620e+03
4.861193004769917025e+03
2.270981576087539452e+03
4.787808711788940855e+03
4.608635381450677414e+03
1.189486602219723409e+03
9.544395274049513773e+02
-4.949325718898782611e+01
-5.973398076104656411e+02
-1.139114147258320827e+03
-1.593899102749523081e+03
-4.257823513718913659e+02
3.532772936446482959e+02
2.487390173810634224e+03
3.926781257526786248e+03
3.288459272458178020e+03
1.533453766314821905e+03
-6.242499255190614349e+02
-1.439649928898883900e+03
-2.357776811536164701e+02
1.807375986540831491e+03
8.238170800783409504e+02
-1.389480597390399680e+03
1.375284269656664264e+02
2.886861755804726727e+03
6.569407535352964260e+03
7.782266671566464538e+03
3.648540223176621112e+03
-8.777858681622291215e+02
-3.140728187075681035e+03
-2.957272100030731053e+03
1.285680612574736585e+02
2.022850595485397434e+03
2.706675556939067519e+03
3.394087630411468581e+03
2.328111681329712155e+03
1.032746053071850611e+03
-3.596070198048911237e+01
-1.422017361538596333e+03
-1.427462283874531067e+03
-7.242752625394402912e+02
-6.855337384365527953e+01
-1.468672158430168565e+03
-4.375236903835580961e+03
-5.469885941311418719e+03
-3.641821311356300612e+03
-9.414882294219286223e+02
2.281356125302018825e+02
7.371480005149388717e+02
6.065058223526316539e+01
-2.084342856339368950e+02
4.060139016993329619e+02
-1.310672285052795303e+02
-7.857902178145683365e+02
2.038844657136751721e+03
4.490021505237476049e+03
3.520777311380416904e+03
1.656700688284835451e+03
-5.561454101065868372e+02
-4.026889154870764287e+03
-2.478511315873984131e+03
1.347022923073025822e+03
1.522643198928773472e+03
-2.576073384438707876e+02
1.763310341612817638e+03
3.801310289813434792e+03
1.988403402126072706e+03
-1.642474095244595674e+03
-2.330379000665339845e+03
1.515908280111426052e+02
3.052431627635728091e+03
2.251096025773923884e+03
-2.114436688797581496e+02
-1.067098846005370206e+03
-2.236905995751782029e+03
-2.649810858658846882e+03
2.242187344729790084e+02
5.297166752380032449e+03
7.311968267332612413e+03
4.021646617820598749e+03
-6.747737698827785380e+02
-2.740317243007645629e+03
-2.098086403862585485e+03
5.339069506625216945e+02
2.309663374808331355e+03
1.118160855907809264e+03
-1.676449730444795705e+03
-3.837217974075414077e+03
-5.892316578710849171e+03
-6.270822947913160533e+03
-5.564607925791086018e+03
-1.707712382618967240e+03
3.446706432394489184e+03
5.190779167392617637e+03
4.515600619183034723e+03
2.572227606377752636e+03
7.565486839431727049e+02
1.439450791284057686e+03
2.029027636586288736e+03
1.953283692891972350e+03
1.373239554215770340e+03
1.485059954994910747e+01
-2.651869750284851762e+03
-4.908836437203569403e+03
-2.487171222296944052e+03
-1.867798331907595411e+03
-4.086673222593169157e+03
-5.605855041899581920e+03
-3.858466021583628844e+03
-2.338552750217176708e+03
-2.394062149649640105e+03
-2.176005103400097596e+03
-3.746435129759484880e+03
-6.601352850808701987e+03
-7.054668612954222226e+03
-3.237354232265802239e+03
1.763621720307526857e+03
3.814373286198352162e+03
4.510918932816034612e+03
3.735138240486011000e+03
2.680010305091812370e+03
3.414693472583828679e+03
1.937219029877534467e+03
1.226583647052772903e+03
2.673767939939087228e+03
2.532802340206040753e+03
4.837394009093209206e+02
-1.283502904334795403e+03
-2.672889545502403962e+03
-3.424373122628393048e+03
-3.018015718089837264e+03
-1.834909485668390744e+03
-1.764021927487729272e+03
-1.340291534954240660e+03
7.842614594239710186e+02
2.473602970913394529e+03
1.486740140165755520e+03
2.548170664137635697e+02
1.357897398870070674e+03
1.678977336851879954e+03
-1.375886900898618251e+03
-1.975708567135982548e+03
1.381574956499568088e+03
1.150955605837824123e+03
-8.906345991790374228e+02
-5.401530846693974581e+02
1.601406054427987101e+03
1.646089489359305162e+03
-5.770009907191332559e+02
-1.511917056192766040e+03
-1.045735517383388697e+03
1.044476725679924584e+03
8.367034985792590760e+02
-4.179062041024199061e+02
9.927513261766955566e+02
3.265602612322307323e+03
3.570697011245606063e+03
1.936105080876111515e+03
6.719449441809948667e+02
8.305987396800286859e+00
6.783078822126360592e+02
-5.548482375498493866e+02
-2.551325550271185421e+03
-1.714174134812210696e+03
1.359051165995766652e+01
-2.610497734751079975e+02
-8.561097706909911267e+02
-8.335019770281998035e+02
-4.412684987559392198e+02
-4.451135725991068171e+01
7.135994002881719780e+02
1.899788590367111141e+01
-7.082629907228952106e+02
-5.180251506436900399e+02
-6.280927897248540148e+02
-8.037756516051987887e+01
3.264041313421992527e+03
4.869131450138957916e+03
3.399897331465176194e+03
8.072439765550767561e+02
-1.784706257664484156e+03
-3.175809893601939166e+03
-8.330502921107790826e+02
5.666186296904016899e+02
-8.638771270107870350e+02
-1.850607574006879304e+03
-1.127665554889683108e+03
-8.660407781099123667e+02
-1.584750500063445543e+03
-3.567532477583829973e+02
