-8.669890595820697854e+03
-8.994550499457516707e+03
-8.553841760337301821e+03
-5.874846360223566080e+03
-2.591546558427807668e+03
-7.050093538022534858e+02
-3.102452788302300064e+02
1.787621663244979686e+02
1.390290276671142351e+02
1.575621011728719907e+02
-3.872664405582672487e+01
-7.967078085288345335e+01
8.645140577321101318e+02
1.286692410275513566e+03
1.383892018866256649e+03
1.051141343676418046e+03
9.933756756642475239e+02
1.230559362639540041e+03
7.847112811814995439e+02
3.327905423505921476e+02
2.907274370602619911e+02
1.844576895909062841e+02
1.869814653327398446e+02
4.163053752254609208e+02
2.693982840593122319e+02
9.525728719065958217e+01
8.383099205051021841e+01
3.500548683589485108e+02
7.539585128521434854e+02
8.425241326214139690e+02
7.257691743373629834e+02
8.707239928091147476e+02
1.288352472053973088e+03
1.253600135390557398e+03
1.261505543967391532e+03
9.610319855250247656e+02
1.018158770800184016e+03
1.056801073973668508e+03
7.589678554915532231e+02
7.006251180803086527e+02
6.327926737563999495e+02
1.994660975378882313e+02
4.062470114490776041e+01
-1.672786936762998167e+01
-4.755839378308872369e+02
1.451649661718934681e+02
4.544452126082319978e+02
7.341759714200736653e+02
1.294354135753527316e+03
1.221981700046220567e+03
1.274067977613942503e+03
1.327638600467821789e+03
1.385708984225206905e+03
1.077240274579999095e+03
1.029196338432171160e+03
1.352648405700873582e+03
1.401596555627827001e+03
1.248006435587375108e+03
1.052906618434920802e+03
4.422854974457149524e+02
2.391952064237412401e+02
1.046269449793112187e+02
-4.944010433844069325e+02
-6.669230943459664331e+02
-1.157952246006163705e+03
-7.414786570721438466e+02
-1.713930342980744683e+02
3.682386433307438551e+02
5.414168973101373012e+02
6.521447051224472489e+02
8.824585825028437966e+02
7.563630380464277323e+02
1.108893871844464456e+03
5.811181896332684573e+02
-1.956951158957397411e+03
-4.709355576177470539e+03
-4.099983242578976387e+03
3.180922707019059317e+02
-5.741820111259414716e+02
-1.993814853408883209e+03
-2.070749572749382423e+03
-5.011911669861373412e+03
-1.282331999510703099e+03
-3.055970339624370354e+03
-2.031928820885199912e+03
-3.745139729073747731e+03
-1.973425595005262494e+03
1.160303766227312735e+03
5.909747884205229411e+02
-3.793416937973169297e+03
-1.391851418573103956e+03
-1.272914047208516735e+02
-4.185693239833257394e+03
-4.340890319390399554e+02
1.573464884140684489e+03
1.297965838302613065e+03
-1.984483932782349711e+03
-2.650879417298584031e+03
1.658031610664243942e+02
-1.657432184524943295e+03
-5.236254819784671781e+02
-2.284720879064614564e+03
-1.604772498029805547e+03
-1.389765427926971142e+03
7.053649942877131025e+02
-2.293351909702776538e+03
-3.249159783869328635e+02
1.503635695075554850e+03
1.782328498797501425e+03
1.987257388295304054e+03
1.794386671287806394e+03
1.530703160357211573e+03
-1.075708344470909424e+03
-3.387663208283116489e+01
1.450195945624129763e+03
1.956484462418119620e+03
1.795046711488062328e+03
1.608934768243342887e+03
1.250136249852667561e+03
1.037592894249403344e+03
8.303410770440179931e+02
1.050378610580850818e+03
1.169564619798405147e+03
1.154993696512310180e+03
1.055997536434188760e+03
1.105283243999759407e+03
1.024674446000348780e+03
1.140413442932585667e+03
1.072915082559758730e+03
1.301007162655996126e+03
1.136865986343191480e+03
1.109161604799586485e+03
1.611102290759549987e+03
1.772403444822199390e+03
1.773079270197205005e+03
1.278382521030442376e+03
7.049726192453842941e+02
1.035913994857872922e+03
1.273154407251739713e+03
8.679740757798858795e+02
6.760488382114120895e+02
7.056610693823229212e+02
7.514685986800358251e+02
5.673599213398912298e+02
4.961283095562358199e+02
5.462349646799520997e+02
6.216604060101484492e+02
6.975214386011415399e+02
6.966894482175165422e+02
9.299252875868809269e+02
9.935654188649225489e+02
1.131215457219921745e+03
1.358050963440532541e+03
1.233342140543441246e+03
1.255810903898832294e+03
1.101499741279506225e+03
9.143205439857292731e+02
1.200845728730459086e+03
1.063199306547833203e+03
8.822781144462043130e+02
6.880876452789686937e+02
5.737898400825739600e+02
2.483242533713100215e+02
2.406236604169262137e+02
3.135850631634219781e+02
7.641963797001667444e+02
9.735556003126094993e+02
1.012602974639306012e+03
7.813023437916427838e+02
4.916457371555584359e+02
5.097104572110670802e+02
1.018390812529437881e+03
1.418675495744487534e+03
1.629523756429798595e+03
1.792923860094096199e+03
1.670995598959387735e+03
1.479718675503854456e+03
1.390989459797866402e+03
1.247779084441185660e+03
1.250146839766382300e+03
9.110975564228651820e+02
7.395780767552005273e+02
4.575451246072668710e+02
2.510006601737622418e+02
4.519492899790881211e+02
6.253756267052918929e+02
6.751755600736282759e+02
8.863695091179629344e+02
5.069694907017495211e+02
-8.390305847768050853e+02
-3.213646971087471229e+03
-6.702817838124022273e+03
-6.988597017751265412e+03
-7.482987348392221065e+03
-6.625012104388878470e+03
-1.993628115156527883e+03
1.776255591016260269e+03
-4.984481908202275804e+02
-5.946826339933899362e+03
-6.549854278264921049e+03
-6.217505368892794650e+03
-5.796707245884350414e+03
-7.274504064251744239e+03
-7.790867808924419478e+03
-7.150831519994164410e+03
-6.839392395505791683e+03
-6.158529713297687522e+03
-2.800317440117884871e+03
-4.490688365786329086e+03
-5.402662139516569368e+03
-2.641577225808181311e+02
1.567790234725621531e+03
2.253140474370230095e+03
1.995995840095917629e+03
2.327446834277609014e+03
2.323465481877068669e+03
2.422904127804046311e+03
2.477792354134212474e+03
2.391378899587761680e+03
2.406681380074272056e+03
2.528544311962635675e+03
2.116918630500824747e+03
1.711211049828682462e+03
1.552524135172711567e+03
1.423648259756523657e+03
1.369299317382793788e+03
1.399335894156439281e+03
1.098816156138932456e+03
1.068770115162785942e+03
1.349245549918335655e+03
1.487400436323412805e+03
1.408252374429976953e+03
1.625748093639517265e+03
1.841905534681994368e+03
1.871724170410303486e+03
1.766339412991350173e+03
1.922863326768328989e+03
1.734201436366543930e+03
1.618234248739416444e+03
1.176052414214519558e+03
9.468625255827951150e+02
9.817808742354959577e+02
1.313726145787025644e+03
1.119668778315526197e+03
3.757197626433843425e+02
-1.111588893490967536e+02
2.529544711389942506e+02
6.390800412872021070e+02
8.751699251709492273e+02
7.772118153232153190e+02
3.622361500644147441e+02
3.893187132571486586e+02
9.745370896502753340e+02
1.441861296164882560e+03
1.524460701222094713e+03
1.427700483604219698e+03
1.091673409943853358e+03
7.900799551735685782e+02
7.615357781370793191e+02
3.755818218851266579e+02
-2.428075852478924617e+02
-7.809518101454859789e+02
-1.216398660881171509e+03
-1.060469698824511852e+03
-6.152904025546345110e+02
-3.207340964141469044e+02
-1.106823144784846590e+03
-1.244545125684256391e+03
-2.271628612523444346e+01
9.444355994561848888e+01
9.383346323177008230e+01
4.415563566090708036e+02
9.387188126813917961e+02
8.733111460263506842e+02
1.129305070879119285e+03
1.228039120967829604e+03
8.697260141573855208e+02
5.981310746121480406e+02
3.911958637360851299e+02
1.850029879753456896e+02
-1.955592725677779811e+02
-3.156165314795537142e+02
-1.401605522169726328e+02
-7.491902895874940214e+02
-8.956867720358951601e+02
-9.086496598780806835e+02
-9.770551667956366373e+02
-5.128769054714204003e+02
-3.761153129653316114e+02
-3.398163658170117287e+02
3.750903064922493968e+02
7.976441439666836004e+02
1.093889947580471926e+03
8.218842975251841381e+02
4.315848423370362070e+02
-2.961345599174164249e+02
-5.862205071854302787e+02
-9.365967635055220626e+02
-1.378167446370234757e+03
-2.148063002765766669e+03
-2.055414006701347716e+03
-5.251607135086228482e+02
1.296729588053319446e+02
3.510856198414599305e+01
5.019056300510246160e+01
-2.251452317449315501e+02
-2.708524315267150087e+02
-7.587669875340073133e+01
7.287968271340681667e+02
6.810953970339421630e+02
5.890370556352726794e+01
-2.437692200311350064e+02
-5.259499564815983064e+01
-1.525618391778812679e+02
-4.319566813049717098e+02
-6.869333735543884814e+02
-7.041713088591435508e+02
-1.016451638963980884e+02
5.184689222011721768e+02
5.551221323455005177e+02
2.102854043562024344e+02
-4.610493900999321681e+02
-2.619466730393785951e+02
-2.504487915487403029e+02
-3.557739023489597230e+01
-1.393271116642928291e+02
-2.726915447739918363e+02
-5.846964198016737555e+02
-3.643541046171865787e+02
-2.907296874961239723e+02
-2.476653754567120984e+02
4.129789806918271324e+02
1.511103697727656481e+03
1.882415534638820873e+03
1.458837748297472672e+03
2.968915841672624651e+02
-4.542630292855652385e+01
3.303496361071448462e+01
-3.356033473380067562e+02
-7.902519180836964097e+02
-2.740519328670481627e+03
-4.046712073350969149e+03
-3.644765558981874619e+03
-2.132043392814932304e+03
-1.419247254341946245e+03
-1.181054589287658246e+03
-9.111507374772799039e+02
-1.041414587099796449e+02
8.900214221257109557e+02
1.401834149905167351e+03
1.238571645103450919e+03
8.693811485851288126e+02
9.956620151723449226e+02
1.203403166491298862e+03
1.304080599821003034e+03
1.455916799820791312e+03
1.209076440553939619e+03
1.550812954621151221e+03
1.264387654518420959e+03
8.809812088368770446e+02
4.245983869113779861e+02
5.120821426248162425e+02
5.418073521359234519e+02
-7.965634567216358164e+01
-1.052298085189713248e+02
5.844907327739800849e+02
5.751353964233687748e+02
6.125206563337100079e+02
1.634518238851133219e+03
1.522324648536107588e+03
1.256726178495209524e+03
8.686226248221688593e+02
6.470431376719840273e+02
1.045121568015668799e+03
1.496885357125254586e+03
1.324301093834133098e+03
1.295276374058611054e+03
1.064738631589478018e+03
-1.028406167922211125e+03
-2.407204147742167606e+03
5.544669052715252064e+02
7.356380845139591429e+02
-2.283746627544285730e+03
-3.544705494973351961e+03
-6.952897889700836913e+02
-1.826516864485008682e+03
-9.494085274199027253e+02
-1.606926090687011083e+03
1.101932087755219072e+03
-3.708514263306354337e+02
-1.296266059501633436e+03
8.946146232596366872e+02
-1.463257646766172229e+03
1.951687732143706739e+02
-9.678539942181400875e+02
7.162948050246025105e+02
-1.841080005378936903e+03
3.239196272644610985e+02
-1.539683651661658132e+03
-2.528937394920299994e+03
-2.551869634507918818e+03
5.844792581209210311e+02
1.131156394889399735e+03
6.931489812317942096e+02
-3.035977979228118215e+02
-2.595088925174814449e+03
-6.473133070926863866e+02
-3.333305818679330059e+03
-4.327987439687569349e+03
-1.230347169628216079e+03
-6.063564597583917930e+02
1.074936258914554628e+03
1.838537357651219054e+03
-1.577579481782440553e+03
1.037585532827312363e+03
-2.018813906549971477e+02
-9.159990269650537584e+02
5.602764174270932926e+02
1.394955565048250946e+03
1.667993721693396083e+03
1.105378547783721388e+03
5.850919681078978556e+02
1.142105383200110055e+03
1.030451097733763390e+03
7.911616858091988433e+02
6.112853953637259110e+02
1.428917050340636251e+03
1.237088140790982152e+03
1.005681062776042722e+03
2.256579896215205565e+02
-6.019055722825731891e+02
-1.009970528952893574e+02
8.793901474155692313e+02
7.332615859333619710e+02
2.166403424552694901e+02
3.015733595291218876e+02
9.881038462418068775e+02
1.032239949203941705e+03
6.389622354847859924e+02
4.463115842289053603e+02
6.642893377981414460e+02
1.094911282199044081e+03
1.139208522046467806e+03
1.162266940678174706e+03
1.383038900570398937e+03
1.515635501194263725e+03
1.371124791596802879e+03
1.750573004771629257e+03
1.246136811964420758e+03
1.032620982273394475e+03
1.135135283231380072e+03
1.202552879262888609e+03
1.694498975760160420e+03
1.605173200442676034e+03
7.710100779070343151e+02
1.162095703132628586e+02
-2.857358317130716046e+02
-4.357456879224705517e+02
-4.445255987077263740e+02
1.401259828858001697e+02
-1.378786474914869018e+02
-1.996045939589298541e+02
-2.340618703986172022e+02
-6.382178866103974997e+02
-9.102859505423388100e+02
-1.373899457818294195e+03
-8.839090402072508823e+02
-1.014882030010207359e+03
-1.985558797956342687e+03
-2.097111431653285308e+03
-1.304501953537263944e+03
-8.357359280157924104e+02
-2.610777342337454229e+03
-4.794621872439384788e+03
-4.091229699689074550e+03
-3.128589022815404405e+03
-4.194712524295736330e+03
-6.335626518525876236e+03
-3.286286356243697355e+03
1.985344985432883050e+03
5.781230549494972365e+03
6.207390681114321524e+03
4.659836425944369694e+03
3.597605185375732162e+03
2.440708168726896020e+03
1.189178511348587335e+03
1.409031238667696243e+03
1.957260966079712489e+03
1.398860897845753243e+03
7.288243485028889381e+02
-3.608879752395888545e+02
-4.392158304104249282e+02
7.699149853060988562e+02
7.354864723383035425e+02
-2.233509834076128300e+03
-4.334049915568853976e+03
-3.769103807338499792e+03
-2.075662431111510159e+03
-1.446771777628941436e+03
-1.405423046206287836e+03
-2.485541338450032072e+02
1.271831315964124315e+03
1.478731759570699523e+03
1.610079551479281690e+03
1.336883359498036498e+03
6.471446597656397444e+02
-6.761155028276554049e+02
-1.424877691665301654e+03
-1.807112526025773604e+03
-3.363862776500517157e+03
-3.512176268344126129e+03
-7.220421730196319459e+02
1.597562268690372321e+03
-9.633020643691627356e+02
-7.448622200897101720e+03
-7.270456813281410177e+03
-4.643773124837946852e+03
-4.623527025595381929e+03
9.982835398710094523e+02
1.932563101000105917e+03
1.282320114734887738e+03
1.516492973598558365e+03
1.304051948210574665e+03
6.892168817247320476e+02
2.510849839713068832e+03
2.673812526029339551e+03
7.681815744709819000e+02
-7.280793658582249464e+02
-1.880002339635900171e+03
-3.519611836224760737e+03
-5.967894523351597854e+03
-5.227872155396690687e+03
-1.499522292906976418e+03
7.416198304818935583e+01
9.801643708406453470e+02
3.331491789999876346e+03
4.900120814817842074e+03
4.542051773115500509e+03
4.002210532802571379e+03
3.362563593505471545e+03
3.061198265128382900e+03
2.830070087315591991e+03
2.492149348144322630e+03
2.105405443897180248e+03
1.809781226049427005e+03
1.056280091262093265e+03
5.679391203135891146e+02
4.797133441916606102e+02
5.565111415247134801e+02
1.811313869723874404e+03
2.773171781458044734e+03
1.705141946891761791e+03
1.304274979219058423e+03
1.867504949386703629e+03
3.527797620722512420e+03
4.011144630041470464e+03
2.828570896210113006e+03
1.670004470422715713e+03
1.114305757301025324e+03
5.334937310441110867e+02
5.345511972131199627e+02
8.444569306006420106e+01
-4.187694919558842912e+02
-7.314152373375590344e+01
6.832705582004135749e+02
6.944409549238231421e+02
-1.373579162996679770e+03
-3.609723840296202525e+03
-1.110071750609567061e+03
2.169326661838655582e+03
2.078476175100714499e+03
-2.796039678764517475e+02
9.340781538052181077e+02
3.397492711790507201e+03
4.213592110185394631e+03
4.109339347832443309e+03
4.128731792389041402e+03
3.785824223772436653e+03
3.644639629841336500e+03
3.388076440782665486e+03
3.093143708009636157e+03
2.698818947356970966e+03
2.475086290057815404e+03
2.216947887262473614e+03
1.527294953407835010e+03
4.721263653974838235e+02
6.127889368689998264e+02
3.180140802976287091e+02
-2.351198007162281101e+03
-6.384948458764397401e+03
-7.410180871040384773e+03
-6.412850081490782031e+03
-5.918877192530649154e+03
-1.491333554529402591e+03
2.592766400120850903e+03
2.545478066476532604e+03
2.549825833050369056e+03
1.433907397406760765e+03
-2.023298714806402813e+03
-7.619892563948958923e+03
-7.950985056911751599e+03
-7.271594763378311654e+03
-6.653693335282847329e+03
-7.060284340778436672e+03
-7.388442194861444477e+03
-6.785180672230851997e+03
-7.535447789689361343e+03
-7.226175078590166777e+03
-3.040343808051256474e+03
-1.490003626656346569e+03
-4.530146716764321354e+03
-5.707385953449988847e+02
2.137208882349314081e+03
-1.777288366854581909e+03
-6.155223089324688772e+03
-6.276544413871851248e+03
-6.507239892143508769e+03
-6.367309096446178046e+03
-6.393774255896233626e+03
-6.987602162117605985e+03
-5.930742951820368944e+03
2.087699676909615221e+02
2.999851921982778549e+03
3.759597793322655434e+03
2.997008927172942094e+03
2.071978763197930675e+03
1.960585017602460994e+03
1.510845422969376386e+03
7.998113993766207841e+02
1.392513983569166385e+03
2.743926480364008512e+03
3.989011951551898164e+03
4.590894201103154046e+03
4.508551591161713986e+03
3.761026732303541394e+03
2.282482651057667681e+03
2.253884751477070495e+03
2.780880631115334836e+03
3.016709699653849384e+03
3.109669827306417119e+03
2.905671178511600374e+03
2.370349807598599455e+03
1.894027956078452235e+03
1.570551163071720566e+03
1.458045972266558920e+03
1.883278047289451706e+03
2.443543890512215512e+03
2.056858977043734740e+03
3.109198010441923543e+02
-1.352064025758141952e+03
1.310906247780634430e+03
-7.658267861829815502e+02
3.512982014295616864e+02
5.259804489916535886e+02
1.389552976810847440e+03
1.909552962829875014e+03
1.949763429208988100e+03
1.551042141853909470e+03
1.911402282354737736e+03
2.278825722742607923e+03
2.000249444657980575e+03
1.505558203526363968e+03
1.337312264500141964e+03
4.442310494724425212e+02
5.457488652663905668e+02
9.685420526138250352e+02
1.515373120283077924e+03
1.622486001724658763e+03
1.582631249618599213e+03
9.919923016285387121e+02
7.099726490328289401e+02
1.071974295426622803e+03
1.080138749183445043e+03
1.574503700607561314e+03
2.326172375732746787e+03
2.236032353046956359e+03
2.147057166043392499e+03
1.753250479484148855e+03
1.205637256319627340e+03
6.522100491896911763e+02
9.994537434373138751e+01
-4.131356520394298286e+02
9.743107114977327399e-01
1.144198078949827050e+03
1.361593680218559484e+03
9.131460121521192832e+02
1.124955523116862423e+03
1.385048088029178871e+03
1.288313577537409856e+03
8.986486552517479822e+02
5.821819054194837690e+02
5.339829459835991656e+02
1.019967188245898456e+03
1.090088426349831934e+03
7.663945134307742819e+02
5.058910703602983290e+02
-5.443366755473810770e+01
-3.425578098228257886e+02
-4.995559704152072413e+02
1.875837843158142846e+02
3.308662896082818747e+02
1.184260319021969735e+03
1.661726764490926598e+03
1.258306076366584421e+03
6.359400657280888254e+02
-1.763263489367195120e+02
-1.894847779279454585e+02
-6.935349855593862003e+02
-1.957482667284133868e+03
-6.353906587817483569e+02
4.988084805897022420e+02
-1.638111835361967508e+02
-4.134268216323987872e+03
-7.346565893427215087e+03
-7.240703374467201684e+03
-6.747729960803761969e+03
-6.868806747365579213e+03
-6.899952203256921166e+03
-7.581808325214874458e+03
-7.673446040881514818e+03
-7.520969781669789882e+03
-7.731429486775032274e+03
-5.557786042017759428e+03
-3.760158597126480345e+03
-5.685382759625335893e+02
-1.408186436637570011e+02
-2.860619109848520907e+02
-1.113560565239228026e+02
7.330917756297155563e+01
2.761055138587936995e+02
8.721016492215684366e+02
1.433129494427951840e+03
1.868139426784520310e+03
1.981249111759416337e+03
1.928626742717598745e+03
2.093837476677449104e+03
1.770568105891713003e+03
1.455807572425553417e+03
1.085802790347690916e+03
1.073730351522562614e+03
6.295829469954238675e+02
6.353883746925755531e+02
1.101148711300225386e+03
1.375766536185970153e+03
1.246224439874494919e+03
1.201602371209182138e+03
4.899162020622508749e+02
1.422164383574726685e+02
4.904312322775874691e+02
8.664174160149576664e+02
7.173159065363887521e+02
8.133762983877417128e+02
8.285790452661642576e+02
1.043743205386735326e+03
8.457560195733374258e+02
1.051679111741045062e+03
1.599529743868746664e+03
1.440237466649825365e+03
1.287746231688179023e+03
1.028155028370344326e+03
9.424598028115216266e+02
7.636590738266967264e+02
4.727843417050924586e+02
-6.106741844589832624e+01
1.371111569648374484e+02
5.162721948747149554e+02
3.515102140166595746e+02
-3.423656771194135473e+01
-3.772095312520506809e+02
-2.255441059291545685e+02
1.581036744277332389e+02
1.182532855024548155e+02
1.507029247700591554e+02
5.112876699250954857e+02
1.030164519778971226e+03
3.780784957532408725e+02
4.163444138690522891e+02
1.087638370050022019e+02
-6.617748688804189214e+02
4.067166736815244690e+02
5.152614751315163630e+02
5.006781302161129474e+02
7.110906645883110286e+02
4.966755839493760050e+02
3.684403162145580950e+02
3.133507649513574052e+02
3.248841106187455807e+01
-7.802574461228442715e+01
1.646014157374659987e+02
2.040892561554655913e+02
2.125552287958855686e+02
5.300538463135750362e+02
7.454480851582667356e+02
9.597721204319161643e+02
5.911891202231453235e+02
1.917539904947371667e+02
2.244778165489732658e+02
2.623304901556846858e+02
2.423222369727737089e+02
-6.955392374835469127e+01
-4.052780369951823332e+02
-8.378488573581973924e+02
-7.031919830691704192e+02
-5.731506570291508496e+01
-4.962524232232295276e+02
-1.146992630468965217e+03
-1.674641352773364360e+03
-1.528189046804502141e+03
-9.144558422597104936e+02
-5.004893971706388811e+02
-3.873391580974605404e+02
-3.381208368644312827e+02
-2.117631766579427790e+02
3.888768953281076080e+01
4.618605322937057167e+02
8.721207674359089879e+02
6.217551973514471229e+02
1.707302009078709943e+02
2.350298145780209040e+02
7.061274557753741021e+01
-4.885778003949893105e+02
-5.245341516001201398e+02
-4.682210374267564248e+02
2.750094066174511198e+01
-5.330579613549326723e+01
-1.460117462006018059e+02
-3.157094246029500937e+02
-3.191769602316131795e+02
-3.022249824647760192e+02
-2.990536421189375460e+02
-1.181601618653829178e+01
1.985429363987778402e+02
3.014681829138571700e+01
2.969840059652347577e+02
6.140315592317276696e+02
6.123002068533584179e+02
7.128389184171859370e+02
9.255863239301153271e+02
7.565743033502853905e+02
6.288454012982650738e+02
-1.302637756719409936e+03
-3.137940370864822853e+03
-4.309775590407379582e+02
-8.077280513609756554e+02
-3.942643127959138383e+02
-5.095045269845284110e+02
-3.803618389018598123e+02
-4.197275297709009578e+02
-3.526329633039464966e+02
-5.660783562866128023e+02
-5.784239821192647923e+02
-3.046844999404045211e+02
2.164078996361836573e+02
2.828061247043114008e+02
3.336011094172739604e+02
7.880519701095548726e+02
1.344360456043486010e+03
1.233169713237020233e+03
1.112335915294878760e+03
1.009935638990703865e+03
5.390941507934697938e+02
1.753340279346674890e+02
9.065893464956657510e+01
2.043827172718532950e+02
2.393858492100804654e+02
4.327048479705621453e+00
-1.296335890851318027e+02
3.410954900658752109e+01
6.472312793944719544e+01
-2.459741997479803501e+02
3.054723825075755173e+01
3.052599217349421679e+02
5.065900412229492531e+02
4.350018707547619670e+02
4.515526921740678290e+02
7.802025216461768196e+02
9.690282199130218714e+02
1.169856006213352885e+03
9.594869327783552535e+02
1.237880277558946318e+03
1.523936353432022770e+03
1.454688102911875148e+03
1.178148103564211851e+03
6.692072310063632585e+02
3.448421326295880931e+02
2.961191242399125940e+02
3.909608300546048554e+02
-3.376225538555478778e+01
3.708978782521132302e+02
5.140415759959215620e+02
8.626656369110166906e+02
1.040813316356849555e+03
8.765413417969660941e+02
5.087712018395099562e+02
6.614718639013726715e+02
9.636149668949409488e+02
1.230210815547381799e+03
1.002247819926743546e+03
9.827802717728010293e+02
7.718445862592947151e+02
4.623985182809708476e+02
6.003692805010629172e+02
3.567194491247803398e+02
3.514322434711136225e+02
-5.474031625037126787e+02
-4.073648057034452904e+03
-4.375350129628530340e+03
-3.076992737759526790e+03
-4.722929119594475196e+03
-1.729342134979455295e+03
-2.502272602429814469e+03
-3.187669445344000110e+02
-2.618972273912070818e+02
-1.470574523692346474e+03
1.128267599028368522e+03
1.692510092983068944e+03
2.431219315079210617e+02
-4.358746994810119759e+03
-4.205067499960295208e+03
-3.469905796478876709e+03
-1.655179660716950139e+03
-2.795996816600596503e+03
-2.859399330127397661e+03
-1.711315654965593922e+03
-2.440733457131007071e+03
-1.464631987485585569e+03
4.740359783531906714e+02
9.072616451854391926e+02
-7.229815263882726413e+02
-2.044673864367745182e+03
3.441730148494743275e+02
1.361543822056999943e+03
1.780530521296451980e+03
1.343146096964238495e+03
1.001443911055980493e+03
1.674486078724662548e+03
1.490298044236071746e+03
1.355869827505332069e+03
1.293235821098415727e+03
1.318377993349148028e+03
1.148213934738191710e+03
6.007915897719918803e+02
6.021810851076817244e+02
7.113470293465514942e+02
7.373120244872192188e+02
5.417952917606400831e+01
-7.102925049558822934e+01
3.046973200551178138e+02
2.133587828332204879e+02
2.689236960491738841e+02
4.714758751524190643e+02
3.160106467080019002e+02
1.405826046618848011e+02
7.783132202450043451e+02
9.192162309361037842e+02
9.802508509418670428e+02
1.193399248101802868e+03
1.353750510600132429e+03
1.017227106661711559e+03
9.378365729629199450e+02
6.936481198745545953e+02
8.360711272454375376e+01
-2.813208287122470210e+02
-3.249519401426670129e+02
-3.979837073602492978e+02
-7.673975433131410000e+02
-7.793294389583536486e+02
-6.157393639504094836e+02
-6.094479253140642641e+02
-4.232781021850084926e+02
1.408201013571370197e+02
3.927204391168583015e+02
-7.864072640268560690e+02
-3.450385626588281411e+03
-1.339648909369841022e+03
4.745193289158228254e+02
9.104082839388703405e+02
9.051803277090026540e+02
1.264950136081009759e+03
1.193732792422205421e+03
6.902658036121201803e+02
5.903157610990233479e+02
4.809781481181855156e+02
2.962420446713116462e+02
1.341231023633764607e+02
-2.143638077365473009e+02
-6.152769395566285766e+02
-4.086508002910069877e+02
-2.054978945586043153e+02
-4.397938954761903005e+02
1.355538619708813712e+02
6.865660304689411078e+02
6.972040653118298223e+02
2.895350916294419790e+02
2.005809655301859493e+02
2.663409947914537383e+02
4.187932378800426250e+02
6.009583538439352424e+02
4.168074913992002735e+02
2.963147278429005382e+02
3.954784678868505239e+02
4.443251443695767193e+02
4.367949940174178209e+02
4.339201627384195490e+02
3.646963558722638368e+02
-1.859216877090370588e+02
-7.893312455401948569e+01
-9.131484745791127011e+01
-1.660979465453400792e+02
-9.429466386459769467e+01
-1.992343884522659891e+01
1.100499276680480847e+02
-5.743313342758762730e+01
1.216171885716216678e+02
3.122108321523699033e+02
7.243705407364104758e+02
1.107081189593733370e+03
1.033293318237419271e+03
7.100110878280114548e+02
6.202395704051285747e+02
8.939832229535732040e+02
7.301481499221551985e+02
2.066736483158809392e+02
-8.840613322638553484e+01
-3.290638782540489160e+02
-2.508353795007034932e+03
-6.044307499716059283e+03
-8.998992274128064309e+03
-9.249351230340336770e+03
-8.892419907869098097e+03
-8.833249396043987872e+03
-5.358953721793684053e+03
-7.074315650452590489e+02
5.113862281539674086e+02
1.290444611525768551e+03
1.514761092004802322e+03
1.451199944193853980e+03
1.562724136820436570e+03
1.818345012057179474e+03
1.998017264698763483e+03
2.187730251640768984e+03
1.827428467595303800e+03
1.490073508366243004e+03
1.212645569730046418e+03
1.136106262266200474e+03
9.333830164944267835e+02
6.414874096148849958e+02
5.663954159559945083e+02
4.770876620243632260e+02
4.225360992494781271e+02
5.817039750940523390e+02
1.106630985673809846e+03
1.519347992819674801e+03
1.724773883060188155e+03
2.016874005308902497e+03
1.962608153086285256e+03
1.902960742080685577e+03
1.730932009067380477e+03
1.812529833632713007e+03
1.820697218177094783e+03
1.601357718532445915e+03
1.581535449017677820e+03
1.459234738842968454e+03
1.344458897074591277e+03
1.405117364842444886e+03
1.231137957123436763e+03
1.321543500195500883e+03
1.241301239845930013e+03
1.069394735057292792e+03
1.004774868218158531e+03
9.344349745292703346e+02
6.933765047150269538e+02
1.403559248825464920e+03
2.369030989340237738e+03
2.772837252793176049e+03
2.461947936327324442e+03
2.156299992838789422e+03
2.501949356013571560e+03
2.725914195745298457e+03
2.375162120561356460e+03
2.011581723365568905e+03
1.577207587902515570e+03
1.440002484476512791e+03
1.154945795212924622e+03
6.089599454189739163e+02
8.910608999853243404e+02
1.010308894227814676e+03
5.916747293775757726e+02
9.291875907584250172e+02
1.336859201379702199e+03
1.079620213320520179e+03
1.085499794230970792e+03
1.656498025959549977e+03
1.404610585612481600e+03
1.376845570814653684e+03
2.130230946291356759e+03
2.514730413379044421e+03
1.486562854715014055e+03
7.988134685110605915e+02
1.545052794620302393e+03
1.018444896898138154e+03
-1.540044309363343245e+03
-6.075318804064206233e+03
-7.571374075367229125e+03
-7.543211492444080250e+03
-7.741838558604675200e+03
-7.940228342344558769e+03
-7.421355562060674856e+03
-6.846195296887913173e+03
-6.661806892631600022e+03
-6.445087678240642163e+03
-5.607950480921655071e+03
-5.220461830141959581e+03
-4.640669948474655030e+03
-4.578529633660627042e+03
-3.009017239407101897e+03
-1.016503818686021532e+01
-2.929932144810295995e+03
-5.313253409000453757e+03
-5.110109546125573615e+03
-5.213535198227644287e+03
-5.006486366410703340e+03
-4.297930690906719065e+03
3.181675900810662370e+02
2.469796243527922343e+03
2.434948381622170473e+03
2.683695069793413040e+03
1.084002035776519051e+03
-4.994094887090141128e+03
-5.957556650124512998e+03
-5.697311015258070256e+03
-5.868321538280938512e+03
-5.441642320002725683e+03
-5.223242274230527073e+03
-6.730855323584319194e+02
2.411917841117955049e+03
3.404743258019245786e+03
3.676426913781072471e+03
4.017975944606754638e+03
3.873409995877821984e+03
3.105803499287767409e+03
2.844187093469204228e+03
3.070510856934808089e+03
2.836755455576828808e+03
2.235028100406600970e+03
2.657329278444344709e+03
2.619675352935941646e+03
2.479023741362756027e+03
2.111491128920667052e+03
2.065126355830749162e+03
2.409926273225024488e+03
2.358898772747355906e+03
2.458028005307166495e+03
2.174348164516656198e+03
2.223910383688003094e+03
2.846706929805147865e+03
3.190790028294621607e+03
2.836169035598323262e+03
2.573838459896047880e+03
2.360896766905398636e+03
2.397220529320082733e+03
2.660768073047380767e+03
1.929126589855348357e+03
-1.006917733407022752e+03
-6.154043190799819740e+02
7.255919677400714818e+02
9.819780271879443490e+02
1.572975454282898909e+03
1.069082535579522300e+03
1.224690921405478093e+03
1.805063982894346054e+03
1.613831250612334316e+03
9.570342620945657472e+02
1.508852073780415367e+03
2.207402903125842386e+03
2.322540789593532281e+03
2.599108974967487029e+03
2.289529304311477972e+03
1.600530693570814719e+03
1.924241759496961549e+03
1.980571762843273063e+03
2.050383299953588903e+03
1.949598645834401850e+03
1.742372971868020386e+03
1.656445708526855014e+03
1.296213822682696446e+03
1.089780604067962486e+03
8.637260212950660616e+02
8.309961185919356694e+02
7.136122878918374681e+02
6.776829439232078585e+02
9.771848040912901752e+02
1.316062313671962556e+03
1.188385906481465099e+03
1.157075433806382080e+03
1.642158215403108215e+03
1.864638884946183907e+03
1.727508282880264233e+03
1.497797861814704675e+03
1.104460504040062915e+03
