-5.950872090519003905e+03
-6.470352183544437139e+03
-6.527163476481112411e+03
-6.411318932262086491e+03
-6.600546807415100375e+03
-6.255297218222050105e+03
-5.714844090526633408e+03
-4.990637208268461109e+03
-4.392482093560822250e+03
-4.226828541537416640e+03
-3.659697508522569024e+03
-2.779283762956832561e+03
-2.214384396920327617e+03
-1.681977812555344372e+03
-1.563166863693740424e+03
-1.508914594598122903e+03
-1.415187332849502582e+03
-1.443002637363969370e+03
-2.562384128224875894e+03
-3.927382095511469288e+03
-4.813922646519598857e+03
-5.229971500887727416e+03
-5.107556475251498341e+03
-5.269649548269199840e+03
-5.460142330978274913e+03
-5.471002938382639513e+03
-4.931142154377151201e+03
-4.258504705327866759e+03
-3.874005246486231499e+03
-3.711522708692883953e+03
-3.025983531370454330e+03
-2.342323392596898884e+03
-1.346411538942871175e+03
-9.702224080395416195e+02
-1.052770827529693179e+03
-9.439107986838846500e+02
-5.666227637989670711e+02
-2.378934428930650427e+02
-6.216442782350753760e+02
-1.395844430160582533e+03
-2.100449480060159203e+03
-2.532355959400119445e+03
-2.125578064985861602e+03
-1.713089154540849677e+03
-2.034873598626938701e+03
-1.617844117167744344e+03
-7.869094685000499112e+02
-1.004115093264552883e+01
8.028394214436654011e+02
1.050817364498353754e+03
1.865954127112900551e+03
2.552323236663602074e+03
3.468932577377522193e+03
3.590822768554275626e+03
3.786103807445632810e+03
3.548898136992097989e+03
1.893286529560086365e+03
-7.327383156971453673e+02
-4.867204803476291090e+03
-5.714121612944474691e+03
-5.158463990621234188e+03
-2.009646986037649583e+02
1.145959803394399614e+03
2.782409022117077484e+02
-2.989079402821003896e+03
-4.529336969299204725e+02
2.031654912745515503e+03
3.179731312620071094e+03
3.582315108817245800e+03
3.951370075016791816e+03
4.422968647770578173e+03
4.956152533289291569e+03
5.405924380122926777e+03
5.619287413553685838e+03
5.565272184586659932e+03
5.695865130841771133e+03
5.917065841338925566e+03
5.678859063410198360e+03
5.422151012957377134e+03
4.729900345517587084e+03
3.938045135925145132e+03
3.210565740183700200e+03
2.983390957898065153e+03
2.893415103797641223e+03
2.676629011827570139e+03
2.328009858402316695e+03
2.614496576487204493e+03
3.193089735581332206e+03
3.791854699116079246e+03
4.371785822837413434e+03
5.561868731069548630e+03
6.410110930414570248e+03
6.890552794426588662e+03
7.142047028922719619e+03
7.345513374727729570e+03
6.956009478591749939e+03
6.155451920344410610e+03
5.659847095567743054e+03
5.144153364558354042e+03
4.442219916696934888e+03
3.316940009201556677e+03
2.769263621338417124e+03
2.070130162792848296e+03
1.716469621664740771e+03
1.092252802974971701e+03
9.984491903912606858e+02
7.950710604570334681e+02
8.010882767774435251e+02
1.289428233957882640e+03
2.450041354194059750e+03
3.315929838993817157e+03
4.135060632395984612e+03
4.417412499747241782e+03
3.496950600009224672e+03
3.176642931498404323e+03
3.331524567687821218e+03
2.418532931505779288e+03
2.245594761347004805e+03
1.861686982071584680e+03
2.077306783813310176e+02
-1.073326061191936105e+03
-1.645565070225045247e+03
-2.427097706161901897e+03
-2.395056263963627316e+03
-3.437389329538850234e+03
-4.870110943475223394e+03
-7.533351922142267540e+03
-9.091139746038694284e+03
-3.908397181039379120e+03
-5.691003741644398133e+02
-4.232812545595372171e+02
-8.069836293215965952e+02
-3.222163960502943155e+03
-4.727872919953210840e+02
-9.489418873196599407e+02
-2.755645465472600790e+03
1.309474866004751270e+01
-1.940752509501592840e+03
-2.818249251419620123e+03
-1.858508754365336017e+03
-5.475650331299043501e+03
-3.114666559686659184e+03
-4.658576294648439216e+03
-6.563387601859340066e+03
-6.916006768718306375e+03
-6.564516656523978781e+03
-3.254014551287521954e+03
-4.915445194689796153e+03
-6.213805721471659126e+03
-3.419070160414552902e+03
-1.265302236019829934e+03
-3.575420353723522112e+03
-2.221323637397456878e+03
-1.959002038741243950e+03
-2.239435208733510535e+03
-5.968550045577389938e+03
-4.469337364185733350e+03
-7.870783864480486955e+03
-3.592896122001026924e+03
-2.587715100305907981e+03
-5.092207913943267158e+03
-6.851361041821167419e+03
-7.427145913133180329e+03
-4.210528249019748728e+03
-3.927425689217810486e+03
-6.759875516458235325e+03
-5.424843649281498983e+03
-3.708201478585671794e+03
-3.007845405655230479e+03
-2.655807590058233927e+03
-1.917965724725119117e+03
-1.313185314750037605e+03
-5.753077741775722416e+02
2.061707484231335741e+01
-5.646233930021806913e+01
2.151910643824213309e+01
-1.753747406762420269e+02
-5.320443041221882368e+02
-1.002439997533189057e+03
-1.304548496076880156e+03
-2.412297810353588375e+03
-3.278656491508117597e+03
-3.170603617542762549e+03
-3.527087451763242825e+03
-3.662036328373440938e+03
-3.654418582906356733e+03
-3.488124871225043989e+03
-4.682085885608542412e+03
-5.330330195487047604e+03
-1.806113096536864077e+03
-3.256663096508138437e+02
-1.890400500326709903e+02
1.086739015997748311e+03
1.799993564866942961e+03
2.013921554702406183e+03
1.923995368465110232e+03
2.205803842734578211e+03
2.135482026921602028e+03
1.522816416904973948e+03
1.320797059429450201e+03
1.252423735531740249e+03
6.887824033252693425e+02
1.630199914634220022e+02
-2.052284556740111157e+02
9.957319513622832119e+01
3.821828612492535626e+02
1.114831887395341482e+03
1.604178935501849082e+03
2.385228377881495362e+03
2.640966430566191320e+03
2.947558400020225235e+03
3.445054193094214952e+03
4.138650465347126556e+03
4.549149626750507196e+03
4.525666277192173766e+03
4.876492792382880907e+03
4.829998618095486563e+03
4.508718875655396005e+03
4.671886865675445733e+03
4.154925202317363983e+03
3.640077439057833999e+03
2.546225900716701744e+03
2.344621264521143985e+03
2.427191609436268664e+03
3.104805354934621391e+03
3.790514833613469818e+03
4.086362029080646607e+03
4.482322670575197662e+03
5.032479606839747248e+03
5.704833975795554579e+03
6.397465046146618079e+03
7.093417681325664489e+03
7.665614763252138800e+03
8.124036284247507865e+03
8.341767490524702225e+03
8.475805792550763726e+03
8.338101709496293552e+03
7.549603674027725901e+03
6.958437397573623457e+03
6.375480134356042072e+03
5.659618032523701004e+03
5.081842230542009929e+03
2.660098161081761191e+03
-7.276596101046827698e+02
-4.611454718597776264e+03
-5.421302774125749238e+03
-5.183190627048906208e+03
-4.201082299893234449e+03
-3.037992272361534106e+03
-2.478909811610504676e+03
-1.958853199458955942e+03
-1.031853456609333989e+03
-3.038297552744266454e+02
-2.128427816886673440e+02
-3.418544472430986048e+02
-4.218825295924011698e+02
-1.201719184432378285e+02
2.935415756450102890e+03
6.061916837731286250e+03
3.171016753212508775e+03
5.555535362311582048e+01
-1.589468458355015173e+03
-5.568833517420359385e+03
-5.843837999990518256e+03
-1.364601638151596489e+03
-1.045130191709686187e+03
-1.254434382884174511e+03
-4.658612342568748318e+03
-2.626724050125651956e+03
2.062263760789816388e+03
3.383306228724955872e+03
4.221374022134635197e+03
4.720437326636333637e+03
4.926351340362414703e+03
4.737070156639561901e+03
3.812616174016419336e+03
2.924953156128548926e+03
1.881992619376192124e+03
4.386564986561127171e+02
-1.253183149709843292e+03
-2.331549336619899350e+03
-3.566530100128189133e+03
-4.425299284389883724e+03
-5.578921786802802671e+03
-6.059400792104369430e+03
-5.899839052725076726e+03
-5.537297711900772811e+03
-5.317779205826696852e+03
-4.627314396489991850e+03
-4.041944334377355972e+03
-3.879733764195139429e+03
-3.671679085944645067e+03
-3.662748594011116893e+03
-3.824044810350570970e+03
-4.211667664613312809e+03
-4.997592347336804778e+03
-5.842871140575607569e+03
-6.004633064908957749e+03
-6.597876743304267620e+03
-7.079726250301631808e+03
-8.086312033301151132e+03
-9.020614919597775952e+03
-9.456763642722131408e+03
-9.974840212064116713e+03
-1.001087296947913273e+04
-9.421854517638284960e+03
-8.957776059377436468e+03
-9.060766922317276112e+03
-9.308795333773417951e+03
-9.429884028777512867e+03
-9.009965924207002899e+03
-7.977070345961551538e+03
-6.554243927082955452e+03
-5.206436374821353638e+03
-4.228607182533681225e+03
-3.013377454564694290e+03
-2.395888873401030651e+03
-1.827307436178244643e+03
-2.137026647661340576e+03
-2.215854176251627450e+03
-2.435648381745405914e+03
-2.441947025203244721e+03
-2.644442685791686472e+03
-2.469399589567919065e+03
-2.169702756682955169e+03
-1.707314662681918207e+03
-9.662296746479943295e+02
-1.404152779407523610e+02
6.941960687117627913e+02
1.580639514391098373e+03
2.508991757623388821e+03
3.119258948842446443e+03
4.502462456262711385e+03
5.684633059273583967e+03
6.406838426736164365e+03
6.808100764537991381e+03
6.961505774905233011e+03
7.089082122494048235e+03
6.630949142263475551e+03
5.964104366410962029e+03
5.260626547274864606e+03
4.477680399249086804e+03
3.248459127152015299e+03
2.100110952611756147e+03
2.086823089385444291e+03
2.264909566451298815e+03
2.860557530556801794e+03
3.608490555241328366e+03
5.333587708941458004e+03
5.681817984800876729e+03
5.358072760315787491e+03
6.053299618016402746e+03
6.261605463361391230e+03
7.041931856845872062e+03
8.254261413822101531e+03
8.300570014088501921e+03
7.761788687977202244e+03
6.883953889055978834e+03
5.839984664183521090e+03
4.903804983756771435e+03
3.849345357284832517e+03
2.829453047234204405e+03
2.523885346363999361e+03
2.696562685242987300e+03
2.661381121119307409e+03
2.343149902353693960e+03
2.320643121596171113e+03
2.307778971052572615e+03
2.332341258779380041e+03
2.226082527556452078e+03
1.960813636623052389e+03
2.913319627005369057e+03
3.442524858971491085e+03
2.939435756984644740e+03
3.602985378203698019e+03
4.076280161276536546e+03
4.138493604307759597e+03
3.824645719794239994e+03
3.182656357328113245e+03
1.653533413608769933e+03
1.304175118990338888e+03
8.055745452800940711e+02
-1.000086886011626007e+03
-1.730648068339158954e+03
-2.090252920247209204e+03
-2.077589462932473907e+03
-1.977701969087276211e+03
-1.924414334864003422e+03
-1.145646604606534311e+03
1.597777879126637401e+02
9.073962008382352451e+02
1.359523559867899621e+03
2.037321389676848412e+03
3.191452143344278738e+03
4.095280864250804825e+03
4.403776344855776188e+03
3.859857147176760463e+03
3.113951694556918937e+03
2.114613505813034863e+03
1.470213900730131627e+03
2.249898240300154612e+03
2.111615373384509894e+03
8.123996229052610261e+02
2.401022086203883816e+02
-6.979512308583630897e+01
-3.052076593865465384e+02
-1.460301335070330651e+03
-1.682927744778187162e+03
-1.473531691369308646e+03
-1.152250612991784692e+03
-7.658606133888707745e+02
1.318978643140065401e+02
2.985139800697303940e+02
2.727707213012187140e+02
2.671811144034964514e+02
-4.136807298326130535e+02
-1.460449536294901009e+03
-2.536683032113005993e+03
-3.452163525918612322e+03
-4.422894329216785991e+03
-5.372978935071893829e+03
-6.402031780514531420e+03
-7.639618106036785321e+03
-8.207874542808249316e+03
-7.795690478430577059e+03
-8.299789513222867754e+03
-8.885932759298775636e+03
-8.188943155197693159e+03
-6.359605389612594081e+03
-5.669718562366992956e+03
-5.502079090713618825e+03
-5.348443050179709644e+03
-5.280584685228611306e+03
-4.912311937462551214e+03
-4.810485417791598593e+03
-5.128877166781932829e+03
-5.237347716135531300e+03
-5.751635690887694182e+03
-6.738573089082079605e+03
-7.400072878768525698e+03
-7.975934041939864073e+03
-9.316001954763178219e+03
-1.048413550870948893e+04
-1.187517620960520799e+04
-1.561290127775776818e+04
-1.441412620956078536e+04
-1.336800448997634885e+04
-1.291528802134317993e+04
-1.150868767787975412e+04
-1.097719007738986147e+04
-7.454635900939002568e+03
-8.980841846305360377e+03
-9.956647858538355649e+03
-8.803951925350438614e+03
-6.261636299904045700e+03
-6.245582234754755518e+03
-6.864705898101181447e+03
-4.247958850188763790e+03
-3.769249877744427977e+03
-5.529505761937258285e+03
-1.954669780432539028e+03
8.024540095169173526e+01
1.755304184988046700e+03
-5.245026974918398643e-01
1.078991599643383381e+01
1.431227987079745617e+03
2.542879842646842008e+03
3.782775747566027349e+03
5.243957703307536576e+03
3.353387690032261617e+03
6.145034790596365383e+03
7.424968141059980553e+03
4.396149313388421433e+03
3.958580949275797593e+03
7.710224182018384454e+03
5.971991010155733420e+03
6.456846288544920753e+03
4.974677701790799802e+03
6.865479196886421960e+03
7.605115450017497096e+03
6.697438618190722082e+03
6.114295465440449334e+03
5.773568094468187155e+03
5.191129151328290391e+03
5.349833774851688759e+03
5.340545896659087703e+03
5.854099976352626982e+03
7.144347590060810944e+03
8.078112275946960835e+03
8.240232100704231925e+03
9.102580487104773056e+03
1.001399747874018431e+04
1.030229508409599475e+04
1.027027150866043121e+04
1.102677481298498060e+04
1.122654505155140396e+04
1.096624667899108317e+04
1.057164657805598836e+04
9.568592087134456960e+03
8.316189532642119957e+03
7.286365872268629573e+03
6.027876625532537219e+03
5.052275937739493202e+03
4.643176039761462562e+03
4.035219448245745753e+03
4.105090283443642875e+03
4.430548762253861241e+03
4.346323058630426203e+03
5.072090663110184323e+03
5.660528411863487236e+03
6.517430086426698836e+03
6.780731723366114238e+03
5.687958313409580114e+03
6.522496667270142098e+03
8.897149790641913569e+03
8.548781882063976809e+03
6.716106323609456012e+03
4.734496783056333697e+03
6.859827027827671373e+03
6.387284255201322594e+03
5.220317480821182471e+03
4.485183143459965322e+03
3.801878963104003560e+03
2.848154626278166688e+03
2.112030840445362628e+03
2.312993051152662247e+03
2.854498754235733486e+03
3.570377374238249104e+03
4.846414967871409317e+03
5.277352525683828389e+03
5.880904368181202699e+03
6.427902998551789096e+03
6.817248318955535069e+03
7.110740308935020948e+03
7.579225172591028240e+03
7.774557212525268369e+03
8.259561120451509851e+03
8.407119826759253556e+03
7.102080848828084527e+03
6.041284978525101906e+03
5.818680790481260374e+03
4.689081353922206290e+03
2.971303895654236385e+03
2.238241506799503895e+03
1.822852873743117698e+03
2.062072694265582413e+03
1.666817145745018934e+03
1.462146452634171283e+03
2.620067571095967196e+03
3.720554217380979480e+03
4.446623832346626841e+03
5.644371145620009884e+03
6.515917479476020162e+03
6.303272977939728662e+03
6.886422293109429120e+03
7.461420147647251724e+03
7.085341736315433991e+03
6.701356488118587549e+03
5.792535569873311943e+03
4.664915271892333294e+03
3.529618835965907692e+03
2.981727567935856314e+03
2.418324066653993668e+03
1.064556923350090301e+03
2.986384651540005279e+02
-1.102324886855658690e+02
-1.685104736468041153e+01
1.729621671625419879e+02
-4.246441704764094425e+02
-2.051438598405853099e+03
-5.032158576219316274e+03
-5.774580668112506828e+03
-5.508398435128470737e+03
-5.747243994161321098e+03
-5.699937589183323325e+03
-5.753088273409171961e+03
-5.996390523461677731e+03
-2.655514385589107405e+03
-1.761139441758592284e+03
-3.600973525713612617e+03
-5.125692409039507766e+03
-7.062945261181137539e+03
-9.344400129463456324e+03
-1.154469660591924003e+04
-1.317646454463840564e+04
-1.474737512250406326e+04
-1.587504255494881181e+04
-1.760504651429282967e+04
-1.940993155804395064e+04
-2.126332472695336037e+04
-2.334678841332543379e+04
-2.599087824809317681e+04
-2.899813803618483144e+04
-3.304207262985181296e+04
-3.693728137000376591e+04
-4.188228599285583914e+04
-4.734863986986428063e+04
-5.256087397003483784e+04
-5.709655746163563163e+04
-6.047919762539519434e+04
-6.204837307305866125e+04
-5.963576273121318081e+04
-5.392093352810852957e+04
-4.990050228333166888e+04
-4.679908970003431023e+04
-4.366537239829658938e+04
-4.153383216550263751e+04
-3.967798954542820138e+04
-3.651346401328175125e+04
-3.399284344794528442e+04
-3.085078764744035288e+04
-2.728294419650859709e+04
-2.399883980323549258e+04
-1.983902764701894557e+04
-1.504413112273138177e+04
-1.006579539165572169e+04
-4.090681702354576373e+03
1.312605751974588202e+03
5.653384905414982313e+03
1.039590820584746325e+04
1.572640936997609060e+04
2.099914468834862419e+04
2.610542222993315227e+04
3.210150050559892770e+04
3.752958216757195623e+04
4.112186505543044041e+04
4.215964635847874160e+04
4.146135351367670955e+04
4.055780178437677387e+04
3.870165706539215898e+04
3.651204546214169386e+04
3.539995776730381476e+04
3.520753141410592798e+04
3.567593844219693710e+04
3.605537665619375184e+04
3.661796704502192006e+04
3.703885300806899613e+04
3.643206080471907626e+04
3.780871764526702464e+04
4.023995026428990968e+04
4.219372192348178942e+04
4.312494810193998273e+04
4.304559240291677270e+04
4.251258233334263059e+04
4.240288478147286514e+04
4.210436395202501444e+04
4.080491224347709067e+04
4.027351191003358690e+04
3.989606991259213828e+04
3.956547261393619556e+04
3.889653403347510175e+04
3.797910772381225979e+04
3.724908294623740949e+04
3.644136065558054543e+04
3.488378399682215968e+04
3.331214571959628665e+04
3.173515679199709484e+04
2.955752750551007921e+04
2.715001735224161530e+04
2.479340608359913313e+04
2.229938107481618863e+04
1.910560997388671603e+04
1.617674501604317993e+04
1.321752798937279113e+04
1.096455707555535446e+04
8.537443282924472442e+03
6.064780849588112687e+03
4.363218476674110207e+03
3.048332146626071335e+03
1.994779383145904831e+03
4.191578695002913264e+02
-8.859147848059794796e+02
-2.141834502124548635e+03
-3.565983330120395294e+03
-4.096776378584715530e+03
-5.974674692909114128e+03
-7.382163625899805083e+03
-8.614733908144922680e+03
-1.006984928983126883e+04
-1.176196863060540636e+04
-1.381762339294409139e+04
-1.565339779888390331e+04
-1.724180209439037208e+04
-1.860935625933387928e+04
-1.971465659181376031e+04
-2.041233961763998741e+04
-2.087784515230727629e+04
-2.119273382017285985e+04
-2.070953414646319288e+04
-2.019369279306405952e+04
-2.033979418452581376e+04
-2.001326473312001326e+04
-2.003059391754121316e+04
-1.988830873261184752e+04
-1.977191336512249472e+04
-1.982793097640444103e+04
-1.997083840562925616e+04
-2.012816360739143420e+04
-2.050437426769822196e+04
-2.080704533663071561e+04
-2.195378838457194070e+04
-2.264860415916840429e+04
-2.281923314342903177e+04
-2.316026247294062705e+04
-2.278112793058438547e+04
-2.265952897129559642e+04
-2.252488351932738806e+04
-2.204181064288012567e+04
-2.126937967147380186e+04
-2.010787585005593064e+04
-1.894885287918192626e+04
-1.804025274855085081e+04
-1.679793009794208774e+04
-1.577919413558947599e+04
-1.509568109730386095e+04
-1.446576208456798850e+04
-1.387352241197793228e+04
-1.353085045067068313e+04
-1.296661670808097369e+04
-1.281242544981366154e+04
-1.294133493234717389e+04
-1.345256344636573886e+04
-1.371168518040653726e+04
-1.382811676841954431e+04
-1.327193588782114603e+04
-1.284127446178705941e+04
-1.291621228506200896e+04
-1.233198393973690327e+04
-1.143412028566676599e+04
-1.028011084223810940e+04
-9.234786141979118838e+03
-8.017984256833653490e+03
-7.029292047694339090e+03
-6.663029421826859107e+03
-6.155913345193981513e+03
-5.501202071148101822e+03
-5.227991986971152983e+03
-4.913163285208285743e+03
-4.482717369248533032e+03
-4.437667608078517333e+03
-4.514931838243576749e+03
-4.403467357997565159e+03
-4.362225057264276074e+03
-4.142139172909421177e+03
-4.009160639238948079e+03
-3.830163828957434362e+03
-2.982946894560329383e+03
-1.847421730439017892e+03
-5.063944261960961057e+02
7.404230835580292478e+02
2.138275537196361256e+03
3.153323063131031631e+03
2.466881108311629760e+03
9.872773305439598062e+02
5.971734710645475275e+01
1.232568631809303724e+03
3.178161809154063576e+03
4.027771806938962072e+03
5.078736157480743714e+03
5.632329287713343547e+03
5.974863854852558688e+03
6.203634806046622543e+03
6.487942010101437518e+03
6.966038400308571909e+03
7.555253912344575838e+03
7.644995881751013258e+03
8.209827629856246858e+03
1.188292061893333448e+04
1.384467641317665402e+04
1.199853579654018540e+04
1.455773872130976815e+04
2.110667058938851551e+04
2.271814706003969695e+04
1.858653460338687000e+04
1.649322752352102907e+04
1.716230434054870784e+04
1.765535952937808179e+04
1.752783083808465744e+04
1.732308810269433525e+04
1.674651873200467890e+04
1.600250503108267003e+04
1.734147506605412127e+04
1.893772399981302806e+04
1.923062905887752277e+04
1.981959670813314369e+04
2.006995379465918450e+04
1.933613246379539851e+04
1.873447791280847741e+04
1.862536299108546154e+04
1.834822719591876739e+04
1.818043555837363601e+04
1.778733581468514603e+04
1.661231540054241123e+04
1.619669485026227630e+04
1.529186522189250172e+04
1.415224593131448819e+04
1.339119388569933835e+04
1.213395291611132780e+04
1.028689159924271007e+04
8.240365887351659694e+03
6.329607498788345765e+03
4.808847677380138521e+03
2.721269311851112434e+03
1.385165196482576903e+03
5.297942855166318168e+02
-6.887214372600880097e+02
-1.950175654196720416e+03
-2.441366774917315979e+03
-2.015095507685294479e+03
-1.900083713675911213e+03
-1.801040688521327866e+03
-2.119842460446493533e+03
-2.294321136871169074e+03
-1.869233946170911167e+03
-1.683419207503514826e+03
-1.934676303791481132e+03
-2.263859803137745075e+03
-2.798885580174132883e+03
-3.447683723983440359e+03
-4.257172824057144680e+03
-5.148262271134400180e+03
-6.165917835071348236e+03
-7.143099390615991979e+03
-8.060832393108586984e+03
-9.293098300783103696e+03
-1.001181356680164026e+04
-1.028398526410806880e+04
-1.115143952290522247e+04
-1.107335953800588140e+04
-1.004561892103993523e+04
-1.019907116124067215e+04
-1.002482343472072534e+04
-9.664938895187739035e+03
-9.264397954672300330e+03
-8.676603853069163961e+03
-8.870330873843564405e+03
-9.056805035375406078e+03
-9.189262624562608835e+03
-9.573874862158720134e+03
-9.791802270727554060e+03
-9.938065385723280997e+03
-1.079367905085269922e+04
-1.178687546390221178e+04
-1.255499921865210126e+04
-1.306722437733865445e+04
-1.323271720363592249e+04
-1.310763351746783337e+04
-1.297715203992679926e+04
-1.268641525589544108e+04
-1.166254183215717603e+04
-1.090564717309795378e+04
-1.011393246258061481e+04
-9.449472331660301279e+03
-8.465381415123561965e+03
-7.694823147997350134e+03
-6.777073426096740150e+03
-6.150466005148553450e+03
-5.963401965999417371e+03
-5.549503194929854544e+03
-5.194434699879194341e+03
-5.155518292062361070e+03
-5.195055896625618516e+03
-5.179433946521631697e+03
-5.106959579445255258e+03
-4.351932558796569538e+03
-3.811863310556065699e+03
-3.296049574932609175e+03
-2.545859318981532397e+03
-1.550641471130448053e+03
-1.077236888617498778e+02
1.154527896728852056e+03
2.123733579973183623e+03
2.928550729685903207e+03
4.258542533414202808e+03
5.449378587596125726e+03
6.557836931377602923e+03
7.363530357741199623e+03
7.532133213447319577e+03
7.651338567349104778e+03
7.822799293003786261e+03
7.137072253841161910e+03
5.485946188974859069e+03
4.024259174269340292e+03
4.857966626613097105e+03
1.567083647044937834e+03
3.925493710391554941e+03
4.954134032774043590e+03
5.027946041954199245e+03
4.836848206295482669e+03
4.689698217434231992e+03
5.132344038965057734e+03
5.393605399701891656e+03
5.166377634303633386e+03
5.241913513311225870e+03
6.083074179681053465e+03
6.615512055004943250e+03
7.295024508104005690e+03
7.126581991224343255e+03
6.932166613307743319e+03
6.157735584088606629e+03
5.305282230184699984e+03
4.062776017102964033e+03
2.924230942182677154e+03
2.229687851090500772e+03
1.405098836803098493e+03
9.314803164461534379e+02
4.748397699588683736e+02
5.421967438179363796e+01
-8.526397785232056492e+01
3.446003020484245383e+01
4.654553148442320776e+02
6.708759576470467891e+02
3.258161722109827565e+02
9.863796226105337155e+02
1.290751585392010838e+03
1.057048285327055737e+03
1.084392513155069992e+03
9.909135271411154235e+02
5.538059404433768123e+02
-7.777694812470053876e+01
-7.577086880749299098e+02
-1.492940596298245964e+03
-2.658242622285326433e+03
-3.437464979884224249e+03
-4.027532719343955705e+03
-4.473389264928940975e+03
-4.985031204431196784e+03
-4.920237751945302080e+03
-5.058841654390020267e+03
-4.916584234934281085e+03
-4.430241084337404573e+03
-3.800751163751328477e+03
-3.448846739077907387e+03
-3.337361692119341569e+03
-3.154119670103792942e+03
-2.895950964298926920e+03
-2.438695538815336022e+03
-1.810177757861931696e+03
-1.968224152376350730e+03
-2.427702775697257039e+03
-2.606480249499090860e+03
-2.788389131272935629e+03
-2.660302569655689240e+03
-3.446065351707140053e+03
-4.439519513981460477e+03
-4.592528705734001960e+03
-5.221981993545982732e+03
-4.797689546430567134e+03
-4.235442033393950624e+03
-3.379061820338437428e+03
-2.571352942448057092e+03
-2.357185976539199146e+03
-1.379374124023937384e+03
-4.287692579051853841e+02
2.367910431087689744e+02
-1.384762143216393326e+02
-2.962436204717069813e+03
-2.865834265011837033e+03
-1.219474782091158431e+03
-5.182628608938946400e+02
4.499047984091262151e+02
-4.339117280645412507e+02
-1.808522656005749241e+03
-2.190787852235995160e+03
-2.883619978558660932e+03
-1.570911794797783159e+03
4.574067256254552376e+02
-2.822504337370698977e+03
-1.805486700483264713e+03
-4.054697573537243898e+02
1.326725013827214298e+03
1.198217819032421403e+03
1.892137397138288861e+03
7.566748389921467606e+02
4.745976257294593779e+03
5.403178151742786213e+03
5.467413094714393992e+03
7.909813366197960931e+03
8.037580943904907144e+03
5.426791390181759198e+03
4.481522342982229020e+03
4.808764567691824595e+03
2.724605862923214772e+03
4.415179985876186038e+03
-2.735316929787267100e+02
-2.239473808750186436e+03
1.742400547535467467e+03
1.202113906256896598e+03
1.694716242735291189e+03
8.193650235779450668e+02
2.061198580125002991e+03
4.180221021159562952e+03
4.729527219756520935e+03
5.195218247474123928e+03
5.593379690159264101e+03
5.486046068637253484e+03
5.343292466562605114e+03
5.546162903502563495e+03
5.102657539270552661e+03
4.679875443645955784e+03
4.292812604310583083e+03
3.609496883894345501e+03
2.786975473234690071e+03
1.556181967804798205e+03
4.980840982386445148e+02
-2.228950024424959153e+01
-4.869588988200501944e+02
-9.849203272010551018e+02
-9.371388921151128670e+02
-2.255212216561210994e+02
-3.449766359859755767e+02
2.258985295590783693e+01
6.062524922858319769e+02
1.040008574932883448e+03
1.544943852998456123e+03
1.671995904774477140e+03
2.199163277360938991e+03
2.034441945560034810e+03
2.000799351729112232e+03
9.772486037358398789e+02
-1.109298253570565521e+03
-2.088970482826994157e+03
-4.087092793002756252e+02
-6.656030550675362747e+02
-1.170845281160639615e+03
-2.675585844459862074e+03
-4.663816492731567450e+03
-5.123660578672385782e+03
-2.371519046426389195e+03
-1.325124248283148518e+03
-8.119734255989221765e+02
-1.789178187262156428e+02
7.374457512966001786e+02
1.387663861621258548e+03
1.951887481427907233e+03
2.314339582368892025e+03
1.952031078382982059e+03
1.899914482214127929e+03
1.316754115846447803e+03
7.924211631243480269e+02
6.971291143712095391e+02
5.765689004612797817e+02
3.643369537558795059e+02
-1.323715634911482937e+02
-7.786601008472940748e+02
-7.167521533815827297e+02
-7.257341260622393975e+02
-6.756727174215953937e+02
-4.016416309686762247e+02
-7.767107132716841988e+01
7.311589953072210619e+02
1.150819166929741186e+03
2.036262374681313304e+03
2.838365682776779977e+03
3.496100694970072254e+03
4.063465495905992611e+03
4.697396554582021054e+03
4.992790571563145022e+03
4.815496817246415048e+03
4.314429876412404155e+03
3.922445899777521845e+03
3.381397088522939157e+03
2.604181262378622705e+03
1.162686299502890279e+03
-4.424736600380010998e+01
-5.257943153315126210e+02
-8.050700846720741310e+02
-1.001150750481039609e+03
-1.076117499229863142e+03
-9.450471849137946947e+02
-6.271256302377599923e+02
1.955351684770045040e+01
7.079224814701514106e+02
9.448565365223167873e+02
1.348260352090010883e+03
1.721071404028218240e+03
1.363188958273185335e+03
9.614882510857972875e+02
6.518959401246170273e+02
-3.169288862279978147e+01
-7.544235014955909264e+02
-1.517407954837477746e+03
-4.058809530107993851e+03
-6.805799596246673900e+03
-1.066841259217802508e+04
-1.216577320589762712e+04
-1.178709936802032098e+04
-1.167039114234888802e+04
-1.149080705581499751e+04
-9.981413987659683698e+03
-7.967283188196895026e+03
-2.589521471813851349e+03
-4.581741322500896558e+02
6.107037059866440813e+02
5.710614962384153159e+02
-6.371627385655749549e+02
-6.970863742975581090e+02
1.638205719057061287e+03
3.546698191170932660e+03
3.900410550973912905e+03
3.657233759522649507e+03
3.381044416636224014e+03
3.349772199973637726e+03
3.165348446027840964e+03
2.931715838662695660e+03
3.187789597949502877e+03
3.257383900393740078e+03
3.159485680173997935e+03
3.313102526301327089e+03
3.687186763807757870e+03
4.595702216842338203e+03
5.276663336270349646e+03
5.732038902830400730e+03
6.191853279942315567e+03
6.826155764619967158e+03
7.398912120349049474e+03
7.457096187707268655e+03
7.620747582222393248e+03
7.616865657988955718e+03
7.209432517859704603e+03
7.003466274304912986e+03
5.890921773668227615e+03
4.550823590870285443e+03
3.271225183620302687e+03
2.221151077152528615e+03
9.156121349441480106e+02
5.159323438935909678e+01
-5.748052912951461622e+02
-8.365093120241429006e+02
-1.007492734983384707e+03
-1.342694684360719066e+03
-1.219038031118195477e+03
-1.476464992017068880e+03
-1.077893274772935001e+03
-3.391764610341274988e+02
-4.517919227671887938e+01
-5.688599892040675741e+02
-5.081862393226161316e+02
-9.340019709475747050e+02
-1.897307333948645919e+03
-2.518750023246311684e+03
-3.293735214080285914e+03
-4.627080942799721925e+03
-6.222914334795485956e+03
-6.874669586080171030e+03
-7.188335306016898357e+03
-7.382942879318829000e+03
-8.744455493341283727e+03
-1.031468881452239111e+04
-7.359630451974201605e+03
-5.611020951454788701e+03
-5.021691041002016391e+03
-4.531691120813133239e+03
-3.421015961704119491e+03
-2.316477270659307578e+03
-2.009977478081873869e+03
-1.912400503853107921e+03
-1.554642334391489612e+03
-9.855118100362080895e+02
-9.749006964208291492e+02
-1.117803782862023354e+03
-1.190135902416465569e+03
-1.511844741734903891e+03
-2.244847618396165217e+03
-2.525153029702461481e+03
-2.493717900189301872e+03
-2.561442656246581919e+03
-2.419273013611137685e+03
-2.252223350596253567e+03
-1.994211136958960878e+03
-1.270217000798657409e+03
-7.361376989411602381e+02
-1.267840412578395615e+02
3.788496713432659817e+02
8.787785604405546565e+02
1.748089550366747062e+03
2.344860414058974584e+03
2.333108104402453137e+03
3.226865316249074112e+03
4.179193768359418755e+03
5.106129905322490231e+03
5.413667151923533311e+03
4.024789675585051555e+03
2.638467997140779971e+03
1.276701441326839358e+03
1.039464508726005533e+03
1.446706633810726316e+03
1.568391984276842095e+03
1.690618591537816428e+03
2.237524695667543710e+03
3.222047340291897399e+03
4.192177819066992015e+03
4.895905488275786411e+03
5.231236617658484647e+03
5.692149090924912343e+03
5.793744748718006122e+03
5.476050112516728404e+03
5.223081847527413629e+03
4.707827982610974686e+03
4.149032011016304750e+03
