3.927922308072451415e+03
3.451514962934907089e+03
3.132546613123478437e+03
2.866953120520839548e+03
2.609844723209123913e+03
2.581328742412947122e+03
2.974464094569796089e+03
3.040275515912456285e+03
3.030807244187998094e+03
3.688159834925381347e+03
3.324310539747957137e+03
2.740315101964004498e+03
1.959220822365251934e+03
1.527061953958884260e+03
1.551795160074188061e+03
1.453529266480765727e+03
1.219400693837861809e+03
2.063419624699675296e+03
2.505557934501844557e+03
2.311981145835186908e+03
2.422991616150602113e+03
2.400973803900900748e+03
1.784788968922141066e+03
1.777533392903779713e+03
1.913139034143818890e+03
1.699442617026671542e+03
1.659882703906309871e+03
1.730403966139837848e+03
1.108986688636633517e+03
-2.193746615456082338e+02
-1.266361808855662758e+02
2.322193639406008288e+02
1.282938365699359622e+02
2.196591580691942340e+02
-3.085770418693577426e+02
-6.252713361208931246e+02
7.161084899312825200e+02
1.530813718577003101e+03
1.278645318392934314e+03
6.426350541141018766e+02
6.517848404268158902e+02
9.338863086731477097e+02
7.358852117176254524e+02
1.930974354203584369e+02
5.964399200893860780e+02
9.045502013694192556e+02
9.446681198374951691e+02
8.628932545775797962e+02
5.223260462148533634e+02
9.358816624619042841e+02
7.445255699201196649e+02
7.582963351510129542e+02
6.652061939857001107e+02
7.363086917837763394e+02
9.786100085359420291e+02
4.791209583984327196e+02
-1.213187755334064377e+01
-3.620974494329748268e+02
-4.027910858026235701e+02
-1.653588661617679634e+02
-2.893059156196363091e+01
8.054107365783690398e+01
1.581532357340851718e+02
-2.120222880717359999e+02
2.203377978647942470e+01
1.353171273772847769e+02
3.870289418434903439e+01
2.113024241621182497e+01
1.116192731660123485e+02
6.109386377231521692e+01
1.215411201308106115e+02
-3.090580525199928275e+02
-8.186421313524955394e+02
-9.292121943158235808e+02
-1.163790714079892950e+03
-1.032470317881023220e+03
-1.176286083984567995e+03
-1.899205797058719781e+03
-1.903313765163624794e+03
-9.356333096077042910e+02
-4.421203833778614012e+02
-2.797794106964548746e+02
-4.576105423792204761e+02
-1.775669757326477622e+02
2.233381333932776158e+02
7.402088820904268118e+01
-2.467613605919274960e+03
-6.900409214847706608e+03
-1.017133070010797019e+04
-9.875434048663501017e+03
-6.273956289880171425e+03
-2.349979195268219883e+03
4.624412847038293535e+02
5.152036116215706443e+02
-6.166126957788302434e+02
-1.155149518964226218e+03
-5.683947891262679377e+02
-4.432126782292253324e+02
3.374060654643138832e+02
-5.070040623746073294e+01
-7.105588541950816079e+02
-7.471058237525080585e+02
-2.995030835849740924e+02
2.891207219241963458e+02
1.327690034155102239e+03
1.949341011942197156e+03
1.677095820379056931e+03
1.663732625729824122e+03
1.732330857532915616e+03
1.211129886811567076e+03
9.480627544115344563e+02
8.448978455068408948e+02
2.084287771483829204e+02
4.137221039979652915e+02
8.827758473217759274e+02
1.025601318828733156e+03
1.117200137079363913e+03
8.405250241293173303e+02
4.574748693027220838e+02
3.691315936487810063e+02
5.207267643581848233e+02
6.163292967932427473e+02
7.127326063607785045e+02
8.638097964391239429e+02
9.935925491517546106e+02
8.129993476823419769e+02
1.257889500831454598e+03
1.326292045500768609e+03
9.482897009564940163e+02
6.978318930739944790e+02
3.207391983555039019e+02
-1.460049042323065578e+02
-1.553707023102767550e+02
1.886659048554832339e+02
3.271368143444666430e+02
-4.319638286895099668e+02
-9.577620319252500849e+02
-1.232310363009944012e+03
-1.372580784311670413e+03
-1.691606250575332524e+03
-1.432324329826866233e+03
-1.280690617360863598e+03
-1.660743003155083670e+03
-1.546513536644090436e+03
-2.146950226981252854e+03
-5.232014736719961547e+03
-1.429715917708895631e+03
1.719940407873275490e+03
3.107911624282190587e+03
4.096302211898712812e+03
4.001094208022186649e+03
3.245262829113617499e+03
2.454839910966502430e+03
2.034798901131569437e+03
1.613146833016016899e+03
1.716943449983612936e+03
1.586162204388447890e+03
1.629795477924795705e+03
2.151965600711786465e+03
2.140756762774684830e+03
1.911073793632357138e+03
2.008164990354935924e+02
-5.470024168539087441e+03
-6.592332297367038336e+03
-4.012051308003690792e+03
-1.032192568746112556e+03
-2.233842236228177626e+03
1.142049314295319391e+03
-7.014432440985260655e+02
-2.290287530268095452e+03
1.973620122925969554e+03
2.772279541151917329e+03
2.995631673819455500e+03
2.164688234234877200e+03
-1.614542643466593972e+03
-2.537991783760720864e+03
-2.527643177025920522e+03
-2.374730669242046588e+02
-4.039491037991388112e+03
-4.644695565461222031e+03
-2.116070933529230388e+03
-4.148521503935452529e+03
1.499723569042461975e+02
-1.260606751128820406e+03
-3.617234312017682441e+03
-5.959208093679385456e+02
-3.326593262221067562e+03
-3.028191694394537990e+03
-2.810675083224458831e+03
3.590016067329727889e+02
8.408693583092552899e+02
-2.032084827603796157e+03
8.210439594228749911e+02
2.489232584475872500e+03
2.262547389091395416e+03
1.662040983113028688e+03
1.278710030136039222e+03
9.755799649682588779e+02
-6.303047502373027555e+02
-1.515938436640886039e+03
-3.105404162219914724e+03
-5.502699040225234967e+03
-2.838738126561924673e+03
-2.222484068284587920e+03
-2.094917165578052845e+03
-2.070968365028590597e+03
-6.476639616575685068e+02
1.063928607593931019e+03
3.161697038323848574e+03
4.178611403439880633e+03
4.469725760985059424e+03
4.360750489232240398e+03
4.522842769884663539e+03
4.318158759748747798e+03
3.854445179007641855e+03
3.421062062965439509e+03
2.662358702794457258e+03
2.110382339842287820e+03
1.530653487290044723e+03
8.701363803179384604e+02
5.223243139951667899e+02
1.661066661860851212e+01
1.234530637194831684e+02
7.198904624492006405e+02
7.701426442155196810e+02
1.252936040334098834e+03
1.627802607291272352e+03
1.753371620538648131e+03
1.643516202101973704e+03
1.283156182851546191e+03
1.118958917944899895e+03
1.363348543110573246e+03
1.793873519083845395e+03
1.439691873009262963e+03
5.918757414473816425e+02
-9.429863884628105097e+01
-3.198881907103587992e+02
-6.559371438246740809e+02
-1.834794143740101617e+03
-3.012368494280094183e+03
-2.307653097726534270e+03
-2.636720080296395281e+02
1.809477429468517585e+03
3.530764227886491426e+03
4.451945502369850146e+03
5.138111421319429610e+03
5.491233898193771893e+03
4.960299602580979808e+03
3.637864013650166271e+03
2.311023705225478807e+03
1.435762686357276152e+03
1.450146303066135260e+03
1.288050914263827508e+03
1.724848132143032160e+02
-8.955804210793210132e+02
-9.601557203876518543e+02
-7.673125829654575227e+02
-2.361801440289152936e+02
3.333161271966132517e+02
-1.147952628283830165e+02
3.844280024703055432e+01
6.440455944590926265e+02
1.016973045584886449e+03
1.464087822762769292e+03
2.109349624399523236e+03
2.819747028176785534e+03
3.520261847492216475e+03
3.571997486333711549e+03
3.830914996959115797e+03
3.751996346397133493e+03
2.521271933252608505e+03
1.567663260593677933e+03
1.739176587169148888e+03
1.869827688531913964e+03
-1.405144099705163114e+02
-4.389862949441931050e+03
-9.064212132924909383e+03
-9.336657474634801474e+03
-8.907193208621352824e+03
-8.328772642735248155e+03
-7.697447156065610216e+03
-7.655188519692185764e+03
-6.848980714677170909e+03
-6.446851644716656665e+03
-6.094816438688343624e+03
-6.069832440822995522e+03
-5.651759051897037352e+03
-5.583704462146080914e+03
-5.523737459912392296e+03
-4.178775220831747902e+03
1.010121908263100408e+03
-1.788995912472178588e+03
-5.938087264826884166e+03
-6.643271067843725177e+03
-6.328533853439002087e+03
-1.377599812112856341e+02
3.445098038501846986e+03
3.747984571138031697e+03
3.196847977133332734e+03
3.073753202398555004e+03
2.912798085409698160e+03
2.024955688172645296e+03
1.385248071138813430e+03
1.539748403472775180e+03
2.501464195386350639e+03
2.425464050169200164e+03
1.689722660111885716e+03
1.191308754137458664e+03
6.642275683980956273e+02
6.985304992249422185e+02
5.212734626977193102e+02
1.344442141632283096e+02
3.251292389312067144e+02
1.346388469629540168e+03
2.736238457298720732e+03
2.820717074703870367e+03
1.348858129431660700e+03
-1.524614631343444948e+01
-2.335458899036424896e+02
3.049963910443526629e+02
1.474433344797852214e+03
3.116730399449743345e+03
3.671936397228969327e+03
3.628122858914835888e+03
3.520325283558247520e+03
2.905592612686370558e+03
2.555996254801922987e+03
2.100606982673281436e+03
2.212513581849776983e+03
2.128767399086078058e+03
2.157346395776624377e+03
1.616344777301613249e+03
7.707683661904447945e+02
5.556727988046288829e+02
-1.167950293547989276e+02
-1.424649162705363096e+03
-2.026934720045848053e+03
-2.322578823796267898e+03
-2.718526201507804672e+03
-2.896694723155483189e+03
-3.232072957088744261e+03
-4.313661227030966984e+03
-5.129508346131037797e+03
-3.057400760200630430e+03
-9.079194263084455088e+02
1.186280116193676349e+03
1.845071559497545877e+03
1.885473679921262828e+03
1.527194299789328170e+03
-2.044958912266946705e+00
-6.662737561402924484e+02
-1.778823743847736296e+03
-2.340827158800112556e+03
-1.385517726528680896e+03
-3.948594629707772583e+02
1.512605121570887157e+01
8.004921572137091061e+02
1.771366885415572824e+03
1.043850808025619017e+03
-7.251324715650187045e+02
-2.487597162631409446e+03
-2.354588234375463799e+03
-1.433086355623825511e+03
-2.584043313426862824e+03
-3.396406868521680735e+03
-9.001407859335938610e+02
1.538767331887514729e+03
1.837299523540581276e+03
-4.452363693209476736e+01
-1.303644915569054092e+03
-1.971118843323409919e+03
-2.478957886565277022e+03
-2.916098929781644074e+03
-3.742542181464135865e+03
-6.050297092984309529e+03
-8.061377615815486934e+03
-7.212820977671708533e+03
-4.388656603050166268e+03
-2.435862865449893434e+03
-1.409495750276575791e+03
3.324457984976533567e+02
1.568958833746173923e+03
1.499017384011270451e+03
1.797561447249557659e+03
3.028623880207606817e+03
3.745203773425681902e+03
3.479278842003448517e+03
2.822818763520235734e+03
1.811786825738413881e+03
1.340130468789672705e+03
1.886764945721753065e+03
2.684716846247694320e+03
3.268970922067909214e+03
3.072471747709841566e+03
2.838177946576534850e+03
2.046037840749930183e+03
1.518029018278273952e+03
1.517051523685412349e+03
1.353057487351393092e+03
9.070524962637533690e+02
1.018911110396271283e+03
1.458619012730899385e+03
1.925375907972272898e+03
2.215580963055635493e+03
1.956147271753095993e+03
1.325116714634307300e+03
1.580459762035270842e+03
2.160180837801967300e+03
2.452268899033421349e+03
2.695739934847934364e+03
2.989437679292062967e+03
3.102317893927329351e+03
2.727319436080244941e+03
1.822317464403903841e+03
1.484144451695403177e+03
1.426590864756667088e+03
1.515656123511108945e+03
1.060680450216182635e+03
7.127262555299652149e+02
9.882113477931957277e+02
8.728054748549978967e+02
6.520401395804472031e+02
4.157324272994673038e+02
5.401300822850822669e+02
1.458072048129578775e+02
-3.498199824451880886e+02
1.614970131803873983e+02
8.298690632491617407e+02
1.053066284953451259e+03
1.258758655778403863e+03
1.003441366170430115e+03
1.229497708175722437e+03
1.320882465136065093e+03
1.352191827928505063e+03
1.361828890317213563e+03
1.274564978531408769e+03
7.721687654376044065e+02
5.512677706085463569e+02
6.761451719074357243e+02
1.079289422038993052e+03
1.058043022124279560e+03
8.484353150331866118e+02
6.539943560514545879e+02
5.351318742360164151e+02
9.655875099602378668e+02
1.139282531751687429e+03
1.521942680283897062e+03
1.696992747389720080e+03
1.847273031065386931e+03
2.115973352521288234e+03
2.094797727633916111e+03
1.829493987440262799e+03
1.605852313468508555e+03
1.601782737383946824e+03
1.560314086919738656e+03
1.678534091968584562e+03
1.379372020500587723e+03
7.718791265024053700e+02
6.791086924258347608e+02
8.536027615430733704e+02
7.595064537808972318e+02
1.079819167811472880e+03
1.257556832494440869e+03
1.302596563344332935e+03
-6.213268456057884492e+01
-3.171737612907686980e+03
-7.822200234917313537e+03
-6.812461611126103890e+03
-5.660484570833497855e+03
-2.864278427478287085e+03
1.829173197404017856e+03
-1.503085884718146872e+03
-7.420339168288847986e+02
1.231365488077315604e+03
-3.304892052975189472e+03
-8.815779514691692384e+03
-8.747232233424976585e+03
-3.121265314384497742e+03
1.222257625743424569e+03
-2.324698915446385399e+03
-7.508116173093800171e+03
-7.862952395626345606e+03
-8.381192513399404561e+03
-8.941854707243302983e+03
-9.021890475672580578e+03
-8.936220940682123910e+03
-8.493755788122352897e+03
-6.159446929854203518e+03
-3.520259128104491992e+03
-6.931158777818955969e+03
-8.494046733904464418e+03
-6.437835478092629273e+03
-4.595453582176343843e+03
-2.280838230713568919e+03
-3.995926934788643848e+03
-4.932561877531016762e+03
-5.135677515840794513e+03
-5.543369640306955262e+03
-5.843672152926146737e+03
-5.954564462191124221e+03
-5.487960760395051693e+03
1.189242865130502651e+03
4.514143116706222827e+03
3.803847733845802850e+03
2.616536973598284931e+03
3.694352699735817623e+03
3.752393460357814092e+03
4.082738297256152237e+03
3.985430232298786450e+03
4.219621566606020679e+03
4.117515798808422915e+03
4.368149763053363131e+03
4.540540633627344505e+03
3.736778436033440357e+03
3.144883832462154260e+03
3.278940895307341179e+03
3.210156647898549181e+03
3.691549107068116882e+03
4.357173223950505417e+03
4.138121763087011459e+03
3.340454000537192769e+03
2.427242301787836823e+03
2.189577714936453503e+03
2.619517149858840639e+03
2.536227485752630400e+03
2.047799125239035902e+03
2.391341081792162186e+03
2.445035177392348942e+03
2.746958036006325528e+03
3.448156760300282258e+03
4.027693353706428297e+03
4.574759002600428175e+03
4.917577749035169290e+03
4.509286984453570767e+03
4.121864531452692972e+03
3.704509560224181769e+03
3.163346838483004831e+03
3.195367864355512665e+03
3.174715353207399858e+03
2.990432691050838002e+03
2.729553405574225962e+03
2.189248388988359238e+03
2.486652922517886054e+03
2.738410198497898818e+03
2.421757497640443034e+03
2.715830709935888535e+03
2.380516007218028335e+03
1.833661067084244223e+03
1.756005563566913906e+03
1.842230068934373548e+03
1.728259271911608494e+03
1.973257236281394853e+03
2.221770687666347840e+03
2.155171980055541098e+03
1.424747864679495251e+03
6.271730627004942562e+02
2.322227944536437008e+02
6.992195125318363580e+01
-1.572047279287713479e+02
8.550297603039981098e+00
-1.988970518771284617e+02
-2.245898264759431697e+02
-1.814363496301113798e+02
-2.193918887789128860e+02
-4.514580284314914138e+02
-6.176321807342519605e+02
-3.289285646196280481e+02
-4.153304134288902105e+02
-6.858248938911344794e+02
-8.534953266831070096e+02
-1.368422556195984725e+03
-1.774635554324084069e+03
-2.063097895157844960e+03
-1.758720867122496429e+03
-1.255517982712457524e+03
-7.005829469261490203e+02
-4.140308890674442068e+02
-5.419562925442389769e+02
-7.484241155670574699e+02
-8.864003528223455532e+02
-1.165903716500186420e+03
-1.378974539198108459e+03
-1.473621297072485277e+03
-1.143881665183731911e+03
-7.477505317463832171e+02
-4.303414267892981684e+02
-7.016929996135198735e+02
-5.808620479758459396e+02
-6.568944058927041851e+02
-9.777717078680253735e+02
-7.455813149954664141e+02
-6.533437179135653423e+02
-6.520754171234696059e+02
-6.139010093353759885e+02
-7.468927108203812395e+02
-8.150897088609096954e+02
-9.035859588208854802e+02
-1.489417401529622566e+03
-4.283611210006409237e+03
-8.651232083794220671e+03
-1.210261190191494097e+04
-1.203385260794008718e+04
-1.081807399470432028e+04
-5.176221159370860732e+03
-1.221355701606910316e+03
-1.019559838128775937e+03
-4.520725816825826769e+03
-1.293998413529050822e+03
8.455973194855841939e+02
9.769242678313389661e+02
7.778485271151075722e+02
6.272234264602446956e+02
-5.160251037153336711e+02
-1.016990042829840831e+03
2.221246108852411894e+01
4.866159228426848813e+02
8.482607060228509681e+02
1.088098260020849239e+03
1.146898241921866656e+03
6.685410031454651971e+02
8.051054465900756441e+02
1.382524178822938893e+03
1.360443641904317019e+03
1.063729475251354643e+03
9.594707161120558112e+02
8.238277324009484346e+02
6.536844969688777383e+02
5.919186388252098823e+02
1.129492194643588846e+03
1.802380285659094852e+03
2.120562148712645467e+03
2.174091568796561660e+03
2.061863921709853003e+03
1.897621365047998097e+03
2.138131134665948593e+03
1.844359321701766703e+03
1.798296712183460158e+03
1.962818520112693022e+03
1.707837847249605829e+03
1.557411339677197702e+03
1.830481774095178253e+03
1.980895201717555437e+03
2.301669634128746111e+03
2.467870160242665861e+03
2.381480077643769164e+03
2.449498853008433798e+03
2.274856727167411009e+03
2.838398314596020100e+03
2.810152237620758115e+03
2.649160585078197528e+03
2.648426420320960005e+03
2.656971391364117608e+03
2.771879614138410489e+03
2.837101237427778869e+03
2.914524127987240718e+03
3.238098850760235109e+03
3.143778789845808205e+03
2.746503270338524089e+03
2.625272028065415270e+03
2.502070565814264683e+03
2.251842335334467862e+03
2.089709150644983765e+03
2.225685418305697567e+03
2.247724249531339865e+03
2.127807112061590487e+03
2.857970672373620346e+03
2.684263701770473745e+03
2.634622994143329834e+03
3.197035606947461019e+03
2.794630925038265559e+03
9.674139985357678597e+02
-2.901558603003004464e+03
-7.539225618658230815e+03
-7.905623607833490496e+03
-8.528726476558147624e+03
-7.884532694233109396e+03
-6.732085887234576148e+03
-6.658323029707846217e+03
-6.951149786666283035e+03
-7.212560829911602923e+03
-7.266590563974586985e+03
-5.969146946424186353e+03
1.798716500847210398e+02
3.222396002567338201e+03
1.603413199141080213e+03
-4.900995650492424829e+03
-6.399832950751943827e+03
-5.833988463286816113e+03
-2.229436890080855846e+03
-1.589120331380470134e+03
-5.647983800500602229e+03
-5.828961111528958099e+03
-5.547980972129807014e+03
-5.871003077410079641e+03
-6.376021109605607307e+03
-6.093029386089332547e+03
-5.938056621766608259e+03
-6.129045945738847877e+03
-6.246910015871639189e+03
-6.084608916501420936e+03
-5.823097221454029750e+03
-5.892374843068269911e+03
-5.386365279021592869e+03
-2.600267938060089818e+02
5.437117023298284266e+02
-3.117123034610079230e+03
2.514500786409969351e+03
4.797630050194562500e+03
4.735331699658701837e+03
4.019713195347956116e+03
4.065787221257111014e+03
4.168549347277766174e+03
4.216007722137923338e+03
4.336265254731231835e+03
4.210413037849614739e+03
3.572428443993497694e+03
3.419329779814407630e+03
3.102194256382361800e+03
3.127994477645290317e+03
3.432767726473258790e+03
3.799590346139078974e+03
3.882595732131692785e+03
3.590946886652534886e+03
3.498769081978033682e+03
3.500723327581851663e+03
3.647912527337410665e+03
3.573444144231068094e+03
3.604221698994925191e+03
3.706881234929721813e+03
3.627121165530508279e+03
3.262848796559004768e+03
2.711570462372078509e+03
2.356469843707879136e+03
1.523440067152419033e+03
1.751067655687554179e+03
1.735926764586334230e+03
2.197511939045914005e+03
2.379728567669612403e+03
2.873574293096571182e+03
2.668323190366026665e+03
2.280015102909695088e+03
2.003705777308302913e+03
1.913703479357314109e+03
1.912441221343992993e+03
2.138439912852524685e+03
2.436022444682265814e+03
2.555756751349680144e+03
2.381563296664955487e+03
2.262164427915951819e+03
2.499457308674954220e+03
2.566409543544612461e+03
2.811318181259095127e+03
2.747095642718060844e+03
2.322734007080574884e+03
2.177198844123516210e+03
1.859414571327903559e+03
1.751499796128129219e+03
1.454630327333476771e+03
1.262930212761373014e+03
1.143478905881156379e+03
1.349420207418914515e+03
1.248784856681264728e+03
8.834759638807187230e+02
4.694216837909619926e+02
1.565779384004184465e+02
4.629501947146171688e+02
1.262481598274171120e+03
1.254234514361007768e+03
1.163193618060949802e+03
1.371362190453521862e+03
1.119725019930975805e+03
9.102248194339872498e+02
1.204826630138637256e+03
1.159535480192080968e+03
1.206308391420304133e+03
1.175028908065006590e+03
8.736692490534850322e+02
5.962958545633320000e+02
5.119164089671386364e+02
9.446561146825045796e+01
3.591782308624719633e+01
2.383128541938466185e+02
4.196540332914127589e+02
5.028908115024294716e+02
4.350624277546941130e+02
9.460916446830665336e+02
1.274853269152627263e+03
5.493240882347373599e+02
-1.815532429916095907e+03
-5.883674555512337975e+03
-8.342042850980153162e+03
-8.889654174793487982e+03
-8.533486353545584279e+03
-9.026563959505483581e+03
-9.182965607392854508e+03
-8.756722850732434381e+03
-8.976731336423970788e+03
-7.633010867246965063e+03
-5.109542937357244227e+03
-7.453464258996555145e+03
-8.168841133710923714e+03
-7.892612906536328410e+03
-8.302863832785229533e+03
-6.423473566067731554e+03
-2.574458511294300024e+03
-5.553878941147253499e+03
-7.926708516134055571e+03
-8.038910737872567552e+03
-7.674501625769418752e+03
-3.719506498714624286e+03
2.023103452671017521e+03
3.266385730989816238e+03
1.596352568405784041e+03
-6.209966575303159289e+02
2.979316262445332541e+03
3.173277456509476906e+03
2.850846819347160817e+03
2.760070879390601476e+03
2.841971828361997268e+03
2.671511140401401917e+03
2.499670236868073516e+03
2.157480818148462276e+03
2.147934911091714639e+03
2.236042281819574782e+03
2.374888706210388591e+03
2.161494181758994728e+03
2.068841274347766102e+03
2.584953490573906038e+03
2.825828247588591694e+03
2.797485198771454179e+03
2.647919371928559940e+03
2.586162708113790814e+03
2.202222531031437484e+03
1.800066890695335815e+03
1.821734342100982076e+03
1.995307710931663905e+03
1.920894956441260092e+03
1.750466448358573871e+03
1.362003129508424763e+03
1.142498811170611134e+03
1.407940720120705237e+03
1.428332490050008346e+03
1.446681478813344029e+03
1.565069373633532678e+03
1.149540634817404452e+03
1.190204517204924514e+03
1.418078335061554071e+03
1.684085917682927402e+03
1.719279537021671331e+03
1.439738175648493097e+03
1.246476999238201870e+03
1.240452026166626865e+03
1.073685657411395596e+03
1.154041914145175269e+03
8.918378929478113832e+02
7.425252135605074955e+02
2.993035089187770268e+02
9.021796295339609628e+01
-2.369044075498173072e+02
4.584981669275254035e+01
2.815217184411345031e+01
-5.826836337537766894e+02
-2.737056370773497065e+02
-1.917505789602291770e+02
-7.029427241583697139e+01
-3.802765396944693066e+02
2.284473431402309131e+02
3.729637591633721172e+02
1.872004340061565699e+02
3.522320900045494341e+02
4.880791215152498239e+02
3.916708266254102000e+02
4.310299792621854635e+02
3.852325432383225916e+02
3.333764385668578356e+00
-5.464104018763356407e+01
-2.556990958630800321e+02
-3.049177814441475221e+02
-4.302866066899752013e+02
-8.217966304045115749e+02
-1.021392812751211750e+03
-6.389763661090398728e+02
-6.055782793278899589e+02
-9.802405926738319977e+02
-1.034927150585909885e+03
-5.616815390869600151e+02
6.948310235724878225e+01
4.595740047335443705e+02
5.265921424422133157e+01
-2.422364245473595190e+02
-3.331034954952677936e+02
-3.690505884046822871e+02
-3.480179434495869373e+02
-1.439528200390512040e+02
-5.558869000567538023e+02
-8.848021770992479560e+02
-1.040637403191994963e+03
-1.592437551636221770e+03
-1.759290253384231391e+03
-1.532199747013436991e+03
-1.560110886985633897e+03
-1.780041672640149727e+03
-2.245022307093744075e+03
-3.543117426590057676e+03
-3.935406647209013045e+03
-3.517827757962767919e+03
-3.461340975060435539e+03
-2.899010504253838462e+03
-1.464832199642347859e+03
8.181537070911106824e+00
1.016004219238761834e+03
1.583570347699167087e+03
1.386871844095515598e+03
9.638929165583249414e+02
9.756220117933726215e+02
1.015055650301874266e+03
1.741543969854468230e+02
2.499130680167828018e+02
-3.568780681627740847e+01
-2.017480693539397976e+02
-2.872806208258712672e+02
-1.833001068628824726e+02
5.411399101517088184e+02
5.029993443160998936e+02
-1.017646663703713585e+02
1.766646528448521565e+02
-4.627733795666951551e+02
-2.885820176744507535e+02
7.963924077062374636e+02
1.514035063404716993e+03
1.806506796818171097e+03
1.845400369225488021e+03
1.569734466450876880e+03
1.306282786478332127e+03
1.754780453355067266e+03
1.882725849033203986e+03
1.471865150858086963e+03
1.173877304602103550e+03
1.534645926213610892e+03
1.625028510275133840e+03
1.378243650247731011e+03
1.326436787334948576e+03
6.958136284406155028e+02
3.759913504694374069e+02
2.767729588416419801e+02
2.776218783231219049e+02
4.116910098053423326e+02
9.109350440604830510e+02
1.852008195633519335e+03
2.465452452728650769e+03
2.932629232158586092e+03
3.368034945278987379e+03
3.267057198657821573e+03
2.894340401868290428e+03
2.790739991193826881e+03
2.541620315155929347e+03
2.264469062907045100e+03
1.917635635927509838e+03
1.722721429227745830e+03
1.737872836518350368e+03
1.980827391613134978e+03
2.041519883497776163e+03
2.122162014339164216e+03
1.957441064021703369e+03
1.745202500888136683e+03
2.377597915629302861e+03
2.964558587186381828e+03
2.982003843222069918e+03
2.697320492073517016e+03
2.725244043240341398e+03
3.012662231493837680e+03
2.948585573567187112e+03
2.879122262097094790e+03
3.068221375282109420e+03
2.865874841231847313e+03
2.520034174186844211e+03
2.544626914098341786e+03
2.205608256819600228e+03
9.869758297087489609e+02
-2.174196501041406009e+03
-5.802928959043791110e+03
-8.977220749168520342e+03
-9.503068930783394535e+03
-8.774480746088102023e+03
-7.921498206257351740e+03
-7.399032478585631907e+03
-6.699102669153383431e+03
-6.574694072692282134e+03
-6.691745407709018764e+03
-3.110229298008648129e+03
2.475914359003907066e+03
3.284663603547283401e+03
2.491994775938878320e+03
-3.339100778991419247e+03
-6.422574309613388323e+03
-6.858462017027641195e+03
-7.182699245171755138e+03
-6.429235681209188442e+03
-7.540348000746462276e+02
-1.276054232643318755e+03
-6.456237936567895304e+03
-7.348614198571629458e+03
-7.217218892025067362e+03
-6.846027941504174123e+03
-6.187980791850212881e+03
-6.449061360086646346e+03
-6.031225564151538492e+03
-5.565406011450347251e+03
-5.662617697054099153e+03
-5.106786383442527949e+03
-5.066839132344237441e+03
-5.943723804453805315e+03
-4.981388655300375831e+03
-1.778456796037978620e+02
1.609957069843949967e+03
3.029074905080542976e+03
3.002531179925660126e+03
2.839348736378010472e+03
4.055592890443962460e+03
3.858353417164043094e+03
3.609670642525736184e+03
3.201572887363620339e+03
2.525119022756016420e+03
2.496299568215975341e+03
2.963205050390077758e+03
3.905875553191208382e+03
4.010293943210645466e+03
3.660539024895184866e+03
3.790661696376337204e+03
4.152696510594400024e+03
5.031714681944613403e+03
5.189721149214744401e+03
4.379757957862283547e+03
3.828904472489968612e+03
3.173204054687535518e+03
2.295692496090743134e+03
1.906433946712025545e+03
1.779455056205290248e+03
1.434747320643946068e+03
1.495342779127171525e+03
2.201282828938177317e+03
2.635616316632439521e+03
2.272309964574680635e+03
1.808418688830699693e+03
1.079059295926688264e+03
9.123260686572779150e+02
9.543537832412787338e+02
9.101853461217439190e+02
1.267090437418534520e+03
1.319081581446798282e+03
1.038233244481111569e+03
3.665098853536997581e+02
1.024910476999206821e+03
1.636684412419972887e+03
2.463435343903301145e+03
2.639045420687396927e+03
2.100008296390605665e+03
1.796087216108618122e+03
1.000319868691376541e+03
1.144751448128138691e+03
8.302312912700468814e+02
7.682688002579544673e+01
-2.382001469342691564e+02
-2.733222933262301240e+02
-6.734294579839408357e+01
-5.311901407596894842e+01
8.238719346475591010e+01
2.366755027728729601e+02
3.126185468992865140e+02
6.812559851263141582e+02
1.011192672065201350e+03
1.078792734036732327e+03
9.801542143334902448e+02
1.053303246300143655e+03
1.587223054512410272e+03
1.718899743475846662e+03
1.432318953191640503e+03
1.156473932732336834e+03
5.703731071604062208e+02
3.519890552998348312e+02
7.782942779701386371e+02
1.194229437839236880e+03
1.350830080854535481e+03
1.209115859323499080e+03
7.690158340516023827e+02
3.005173000608046436e+02
7.063350858004059774e+01
3.493708491518559072e+02
7.807491506042266565e+02
4.127056872909877256e+02
-2.427893474895338102e+02
-3.206490073905891336e+02
8.861285668057186058e+02
1.474475843027015117e+03
1.637279994330529007e+03
1.516517852866589919e+03
1.353127940662742049e+03
1.026019496982318969e+03
3.561565388126913945e+02
-3.644799335151377022e+02
-6.149248563377050232e+02
5.082536565219455582e+01
4.247420601095374195e+02
-3.212543689547890491e+00
-3.180979717710069394e+02
-7.596281897822278495e+01
8.317749143301868742e+01
-1.006647594123555223e+03
-2.496490560617095070e+03
-6.964385602338028548e+03
-9.260403291330881984e+03
-9.122543845911333847e+03
-9.364805062189781893e+03
-9.585160340317932423e+03
-9.301586109133915670e+03
-9.090007332548564591e+03
-7.932525940787681066e+03
-2.666243764122537414e+03
-6.001862528173779765e+02
-6.335136794496336279e+02
-3.722654440670120835e+02
6.458363911676903513e+01
4.440873899930146536e+02
1.469131402205620589e+03
1.393649870798257325e+03
7.286702142878783661e+02
3.321692691008738620e+02
3.130765248470974029e+02
-1.146090986714317523e+02
1.580692592591544781e+02
9.920579423162516832e+02
2.017423954242593254e+03
2.310158818261670604e+03
1.964253817489136964e+03
2.058708473482020963e+03
1.491522343781880863e+03
9.956633631066646331e+02
1.781079368839876224e+03
2.101752585065454696e+03
1.657695306683390754e+03
1.565943893075435653e+03
1.440463971744680293e+03
1.311152643769284396e+03
8.910044420616421803e+02
1.014060484411743460e+03
1.271381287624149081e+03
1.593979843711469812e+03
8.527925729759837168e+02
1.298247566767722958e+02
1.990776281878209488e+02
9.650626658870764629e+01
-2.338307715421331920e+02
3.550979583475963750e+02
1.041258704698322617e+03
6.606659788328563536e+02
4.853513730700229871e+02
1.102547213281710356e+03
1.516383519017032086e+03
1.960760082012936664e+03
1.484484492567409234e+03
8.065342326596728526e+02
4.681541021975362469e+02
6.746561433845855618e+02
4.121384772271683232e+02
4.193314001512552522e+02
6.800193191399721400e+02
9.100642558855466859e+02
6.053268231706632605e+02
7.777938872573791969e+02
6.826569350809161278e+02
3.400014037828198639e+02
4.738691124347873256e+02
4.353466356928450978e+02
5.324683794002983177e+02
8.541653276129119376e+02
5.956162911316141617e+02
4.339701249728669268e+02
3.132404280388101938e+02
9.323613008131235347e+02
6.982749859143474396e+02
3.860087259256004018e+02
-1.428464083983856199e+03
-5.266219050720760606e+03
-4.383978285470118863e+03
-3.639705233125963787e+03
-5.972487102867919020e+03
-1.854364414002267267e+03
-2.305193548967150036e+03
-4.747986013532490119e+02
1.118548169948553266e+02
-3.411113062354650083e+03
-3.925637071848271944e+02
4.406514047100632183e+02
-2.323546654945298087e+03
-5.208321080055255152e+03
-3.689814105519190889e+03
-8.042919415402508321e+00
2.438049037763604701e+03
2.482496511161095896e+03
2.128420546105292033e+03
