2.585822288139448119e+03
2.736876634079575524e+03
2.042614990115650926e+03
2.217052899872597663e+03
2.820280090976923020e+03
2.932473236666907724e+03
3.037677524407758028e+03
3.289889607679014262e+03
3.228144030328132885e+03
3.005488909076876098e+03
2.667984619516772455e+03
2.629710289353577082e+03
2.757697168739870904e+03
2.847039019339857077e+03
2.732779396064276625e+03
2.371979672833951099e+03
1.797668146243973752e+03
1.428893851404567840e+03
9.506750388368293443e+02
3.300963324613139207e+02
3.882410813545643578e+02
5.172911212983673295e+02
4.434306500768636283e+02
6.687438867933104802e+02
1.066951156608942711e+03
1.368095992137423082e+03
1.617249561002571227e+03
1.567732749237304233e+03
1.636750536584310339e+03
1.611234889953387437e+03
1.178220306767477041e+03
1.404656639732995018e+03
1.630550724124053204e+03
1.111115770542834753e+03
9.062542894295951328e+02
1.413941199117693031e+03
9.961641836104920458e+02
3.866925796071566879e+02
9.828221631993868002e+00
-6.564606383822508633e+02
-1.178465068657728125e+03
-9.862447000299980573e+02
-6.917505909857064808e+02
2.804064290927042080e+01
2.991571381553305855e+02
2.946499549009380416e+02
5.214863940611420503e+02
4.246570661741509980e+02
4.431825553136822577e+02
5.361163224619700713e+02
5.204229818525333258e+02
6.531007795491121897e+02
5.981957651008359562e+02
6.427454291808812741e+02
4.327068693823476906e+02
2.831067085764696571e+02
2.709622119947749184e+02
-3.198067936411798655e+02
-7.462293719384804263e+02
-1.081319642369904159e+03
-1.182099291083084836e+03
-1.136607944296868027e+03
-9.498418707734418831e+02
-7.167940061275389780e+02
-2.704685016088332645e+02
-7.989797603497237333e+01
7.796459782978973863e+01
-7.494038734256332646e+01
1.433924492882069330e+02
1.289209332663070029e+02
5.661845286885498751e+01
3.145036466229155963e+02
3.285209505704705180e+02
1.796724495466947360e+02
1.579375143040227556e+02
-2.637048807265026085e+02
-5.572962665613897570e+02
-7.158687201463626479e+02
-1.400488002636789815e+03
-1.735212816602839439e+03
-1.311118997639470535e+03
-1.445256971792013474e+03
-1.600599167217924332e+03
-1.270219589290787098e+03
-1.793123665416219637e+03
-4.129291298832064058e+03
-8.190706793318756354e+03
-9.890498074432931389e+03
-5.588660308514843564e+03
-1.162604567714962513e+02
8.226542208010487229e+02
8.941510519975142870e+02
7.541521861635347932e+02
5.286300816146823536e+02
4.275163727324500087e+02
-5.882315360011043595e+02
-5.916013402599029405e+02
-2.177087846560753235e+02
-4.336063501214595703e+02
-4.003492058409661354e+02
-3.370123046121485118e+02
-8.546519146636553614e+02
-6.883345540090873556e+02
-2.490324109528275187e+02
9.325803026973318310e+01
3.334940172594755268e+02
5.526324375665609523e+02
4.956721117300400579e+02
9.055508367322305503e+02
1.262193940144946055e+03
1.247599220183818943e+03
1.358781647087472038e+03
1.427630828569327377e+03
1.503129192213514443e+03
1.652271189383741785e+03
1.635063231698322170e+03
1.197504401337198487e+03
7.355028317878512780e+02
1.000208600710422786e+02
-3.640083277016046281e+02
-8.426247854825039667e+02
-6.608754540696974118e+02
-3.627415931659597277e+02
1.347621882461403402e+02
6.746515852795988621e+02
9.078633263666674793e+02
1.160433607003606312e+03
1.125371389585372071e+03
1.079637290943929656e+03
8.971925881518435517e+02
1.238989578255766901e+03
1.323054625696283210e+03
1.245363973651083825e+03
1.430939158597007236e+03
1.529821481696238379e+03
1.421910860596756947e+03
1.048252305785746103e+03
4.718379347555870709e+02
2.061695558660459682e+01
-1.914664138733567427e+02
-2.364436919627588622e+02
-3.532656862463661014e+02
-4.409487087647473231e+02
3.315110099985896568e+02
8.611370787261225814e+02
9.859145528375256617e+02
9.559105308187334913e+02
1.346110323576370547e+03
1.401444901964423025e+03
1.650043986731206587e+03
1.676919826301604189e+03
2.103012693218284767e+03
2.029369831032166076e+03
1.364985707473454568e+03
1.164881479734417780e+03
1.200111207144473155e+03
8.736412590187159140e+02
3.094540632567899365e+02
-1.144410287075777660e+03
-5.943961597096473270e+03
-5.925107571225276843e+03
-6.483934149610444365e+03
-3.961459390271597840e+03
-2.131599986461489152e+03
-2.649330683220596256e+03
-1.761633664023431493e+03
-2.960423555049180777e+03
-4.697733228286521808e+03
-4.813530586467739340e+03
-7.178168315414206972e+02
-1.722552371521607483e+03
7.030077736281346290e+01
-1.780249622016383910e+03
-6.661605069440946636e+02
-1.510364915730325720e+03
2.391380226566461431e+02
-3.061633904286895358e+03
-5.162646779500330013e+03
-3.003918306042050517e+03
-2.104360391594882458e+02
-2.959173215434385384e+03
-4.401009418540028264e+02
-3.193236762572204043e+03
-8.356951034475036977e+01
-1.830985496119980553e+03
-1.449456423715761275e+03
-3.658885298145040679e+02
-9.242884269967904629e+02
2.044312555632904605e+03
-1.358032773756786810e+03
1.620690161959783154e+03
1.782484882105693714e+03
-1.088640345673170714e+03
1.640299169089139696e+03
2.575419035851423359e+03
2.281733950445179744e+03
1.860279708757688240e+03
1.291010575142776588e+03
8.859516244323539240e+02
6.381405273201700084e+02
1.555601463042774526e+02
5.431902697077423454e+02
1.812011891310926330e+03
1.906129135928707001e+03
1.835554029517961226e+03
2.006353584170482009e+03
2.236523609843245140e+03
1.957050853496608852e+03
1.981960382457117930e+03
1.787241732091275253e+03
1.605904972293611991e+03
1.863882313194388871e+03
1.868124143287762308e+03
2.078944137972264798e+03
2.080788883725579126e+03
1.908923161663202791e+03
1.730954115957800468e+03
1.430879864930351914e+03
8.616585217028123225e+02
3.192473491338944314e+02
1.336528116049878463e+02
5.088039188756057740e+01
-2.202185554958216017e+03
-3.467650573131683359e+03
-1.303649583677329247e+02
1.263678914603977546e+03
1.291749196241137724e+03
1.117667475561094534e+03
5.949400008201270111e+02
7.166584598907339796e+02
1.523314167810362051e+03
2.266924982127807198e+03
2.561284415177992742e+03
2.228323850687552749e+03
1.966990878665861601e+03
1.683313252799894371e+03
1.740241108752195942e+03
9.137970206274877683e+02
3.949201824627944006e+02
4.355138029527735739e+02
1.926667257636508452e+02
2.164870639784956552e+02
4.784314573264452974e+02
3.810525995982351901e+02
6.850461162115340130e+02
1.173297655305456601e+03
1.328626963416006447e+03
1.528821520467238997e+03
1.787902389003208100e+03
1.785880340325471707e+03
1.867784640101782315e+03
1.866538941099709064e+03
1.740082564845612751e+03
1.703455424722589214e+03
1.705622058592411577e+03
1.482567877991690239e+03
1.285285830443149962e+03
9.477134872495676063e+02
3.738141704988720448e+02
-3.703964126585228769e+02
-9.399813331722303928e+02
-3.420134723213934080e+02
2.144672193043592188e+02
6.734294411016595632e+02
1.027872417135900378e+03
1.020804347224622234e+03
1.043254240223516945e+03
1.292242350989789657e+03
1.418697494324570471e+03
1.416585177792515424e+03
1.349881009286142216e+03
1.644562995632744332e+03
1.743654591471060712e+03
1.755177866238646629e+03
1.377092393861939399e+03
1.313404025272566969e+03
1.223086991173817751e+03
7.850597867761777024e+02
2.372939565086416565e+02
-4.751879555849731673e+02
-2.905448807786922316e+03
-6.915491816557992024e+03
-1.060933218746464445e+04
-1.054596920101834257e+04
-9.418390903538629573e+03
-8.702619551813515500e+03
-7.969696390711131244e+03
-7.492687501615786459e+03
-8.037188976018282119e+03
-7.362388434598794447e+03
-7.478320573197755948e+03
-7.908005638334969262e+03
-7.597452534796089822e+03
-6.558584869460844857e+03
-2.675391334772687060e+03
1.430053813137821408e+03
2.334775017352498253e+03
1.956768208199454193e+03
1.859982792404357724e+03
1.446432061067135464e+03
1.128076553403325534e+03
1.305940322073148536e+03
1.450055202726978223e+03
1.315404770265454545e+03
1.235064929181679418e+03
1.852071900480718341e+03
1.857410143096002912e+03
1.611127241564056931e+03
1.771263143062947393e+03
2.218876187540986393e+03
2.133952598717414730e+03
2.317475518858675059e+03
2.487489410323412358e+03
2.447974331819249073e+03
2.387026348470520134e+03
2.337654510806823509e+03
2.070875434643424342e+03
1.262731632643552530e+03
9.152053881289363062e+02
6.043200198662726734e+02
4.110743459865119007e+02
-1.856267817609577619e+01
3.494734880329099838e+02
4.952709920181077905e+02
7.148269983009397492e+02
7.901588605102920155e+02
7.463492382081622054e+02
1.078443152618997601e+03
1.086500635781692154e+03
9.895744659663240554e+02
8.887005146129974946e+02
1.021872026150750798e+03
1.122167722573566380e+03
1.245651988698467676e+03
1.158346663298815201e+03
1.133313664240193930e+03
1.145514322394263218e+03
5.409267823267825861e+02
1.156622140997103827e+02
-5.502361832210052626e+02
-9.227989082658674533e+02
-1.093991677200505364e+03
-9.787377110196424610e+02
-9.598020894838382446e+02
-5.989835975932134033e+02
-7.064834587306432923e+02
-9.091397179046131214e+02
-8.898324676070231476e+01
3.328385538107969523e+02
7.913322415874174567e+02
6.165362330806143518e+02
-9.442664236492400676e+01
7.845504142867828250e+02
8.193556827875129329e+02
7.069738530561651260e+02
7.344736056866989884e+02
7.378655781411915768e+02
2.621671828224000933e+02
-5.205186196508441299e+02
-1.031188730043713576e+03
-1.173872328323976035e+03
-1.210551776416114535e+03
-1.044208090994249460e+03
-5.268358968048413544e+02
-2.624080488324463545e+02
-4.819370014813007401e+02
-5.393638130765814367e+02
1.363719705739666779e+02
-6.071162366838518665e+01
-4.115902456565996204e+02
-3.072701230618776549e+02
-3.397517421166188569e+02
2.669962368045595440e+02
4.019887108448330650e+02
4.342537295596814602e+02
2.258208212259508798e+02
-2.852836659050228718e+02
-8.421083104790698144e+02
-1.406684991769291628e+03
-1.633950858805072130e+03
-1.539946687205454054e+03
-1.861758888039964859e+03
-1.632368092148165488e+03
-9.497848932228849890e+02
-1.600103972462808031e+02
-1.030323545810857837e+02
-2.208242229981658795e+02
-8.140627444671568469e+01
-1.787789452072970562e+02
-6.091484094913190006e+01
4.221535009975839330e+02
2.053841181679452177e+02
2.298241542234061967e+02
6.324596562536289639e+02
8.833085753592609990e+02
5.823204304639255042e+02
6.647992850113406860e+01
-6.924873834221909874e+01
-3.229319648753345859e+02
-4.846297103531608741e+02
-5.154468978018733196e+02
-8.684338251622120879e+02
-4.096422084265337844e+02
-2.500000255177170629e+02
-6.605811613967392759e+02
-4.064381760914866959e+02
2.094303477504329294e+02
4.211555329606625264e+02
9.066529459257734516e+02
1.028872792997141687e+03
1.108809981750591078e+03
1.509296646068595237e+03
1.358253583303217283e+03
1.038723967739148748e+03
9.467615233524207952e+02
7.113514647032191078e+02
1.174686080015176913e+03
8.793097797528740784e+02
1.702762928432148613e+02
8.556829317586080208e+01
-1.788646422869084347e+02
-1.648923120995122247e+02
5.053760604531173612e+02
6.150988113542465499e+02
8.721657901520924270e+02
1.035410909913552359e+03
1.131501205787251592e+03
1.425766898605627603e+03
1.500826977097251529e+03
1.547967912277183814e+03
1.767985332751353781e+03
1.699180219436752168e+03
1.893879942806290501e+03
1.999201088664521876e+03
1.926414033295250420e+03
2.027195837630488995e+03
2.002398601505906527e+03
1.564410759193027843e+03
7.966596576889591006e+02
2.164723839087450017e+02
8.335009572533161304e+01
-6.036567553408981013e+01
5.411136330819030036e+02
1.206646410758390402e+03
1.419273274053732621e+03
2.165805548289785747e+03
2.469970209036468077e+03
2.642683015871457883e+03
2.614129176331413419e+03
2.443098363848485860e+03
2.817776993095550097e+03
2.707996878093639680e+03
3.006867278491603429e+03
2.776334174629874269e+03
2.658342024097548801e+03
2.962822430527208780e+03
3.206764780503183374e+03
3.009169850239416519e+03
2.232893432354348079e+03
2.029802430145823337e+03
1.670959117474400500e+03
1.772448208162554693e+03
1.657255172548018663e+03
1.464222355846523442e+03
1.567338698739857364e+03
1.778586497168319738e+03
1.577987494756794831e+03
-8.034481101786744830e+02
-4.396784704931063061e+03
-7.259035192158710743e+03
-6.908166619879125392e+03
-6.095145992799791202e+03
-5.845983634779287058e+03
-5.910756028559737388e+03
-5.619507728765135653e+03
-5.588185696455017023e+03
-5.434751936248777383e+03
-5.533135938979448838e+03
-6.209412615665814883e+03
-5.968273216391443384e+03
-6.741632955849268001e+03
-7.763906646611979340e+03
-4.911116157835529521e+03
-3.093220924909034693e+03
-6.877217435111003397e+03
-6.629070736133053288e+03
-5.748807983292805147e+03
-5.069500095090871582e+03
-4.115117361473202436e+03
-3.888522526295796524e+03
-3.954580463881252399e+03
-4.268300911669313791e+03
-4.440702101845955440e+03
-3.940803939268467730e+03
-4.031466348799517164e+03
-4.683639081111105043e+03
-3.863213053228051649e+03
-4.971528606245277047e+02
-1.981462883240318888e+03
-4.412052769170672946e+03
2.927369864793034537e+01
3.444391616302948023e+03
4.418254159576114034e+03
4.176022721183321664e+03
3.760753194166077719e+03
3.753478023310933622e+03
4.370227251519260790e+03
4.602978569358095228e+03
4.274740328691754257e+03
4.244489470707317196e+03
4.055361582962765169e+03
3.748547412652536877e+03
3.695152596125151831e+03
3.996188120933679329e+03
4.112669469485391346e+03
3.858665872944620787e+03
3.931343472550192928e+03
3.970745773845943859e+03
3.375740898652893975e+03
2.551402587084914103e+03
2.065822479527972973e+03
1.586041126517041675e+03
1.516097746535518581e+03
1.856034253343402725e+03
1.876942756992804107e+03
1.935860801644679668e+03
1.967866191859998025e+03
1.763086501643234214e+03
1.794570023393194560e+03
2.074386350255646448e+03
2.228606373447807528e+03
2.550325094689236721e+03
2.539595347567737463e+03
2.288331800012146687e+03
1.908592243736615274e+03
1.764416145514356913e+03
1.239266242804401145e+03
1.008436920219029844e+03
6.641847773895442515e+02
4.165742525525043334e+02
1.033535395432844552e+02
-3.684807261961295808e+02
-1.591793044694265518e+03
-4.628731689101595293e+03
-1.826216198556471682e+03
-8.360165829716476082e+02
-9.241700205549766451e+02
-1.062580032199017296e+03
-4.991538216204772311e+02
3.092735026899547393e+02
1.139255820966869123e+03
1.216693951861163896e+03
1.152973827784836885e+03
9.468629385477689766e+02
6.373443539860127203e+02
5.384366025563349467e+02
3.631913322942463083e+02
-5.413225030952056649e+00
-4.454196077035746271e+02
-1.138753964280218497e+03
-1.471361451396794791e+03
-1.467235181711032737e+03
-1.827444390008778555e+03
-1.962902094883954305e+03
-1.633575126283202735e+03
-8.324781098017944032e+02
-1.776030421024961186e+02
-2.018984004363031772e+02
1.166183937618765611e+02
3.396597457869607695e+01
2.411690619247224561e+02
3.201815135470702671e+02
2.889821159882748134e+02
7.015942273022546942e+02
7.470869467429216684e+02
9.474254612493092509e+02
8.925971967167358798e+02
2.785724105979497836e+02
-2.146487451449924038e+02
-4.127611186678450395e+00
-6.088707054932159508e+02
-1.196930231143014908e+03
-1.485326444944848845e+03
-1.795107289478325129e+03
-1.431306263930732712e+03
-9.509300012199635148e+02
-5.409889988064986710e+02
-5.284440234203477758e+02
-4.203076167810790480e+02
1.663740951253548133e+02
7.975558731132394996e+02
1.263189604553471327e+03
1.009234229853379702e+03
7.046737169191997054e+02
8.135407797002690131e+02
9.847853755300507146e+02
8.013765081445184251e+02
-4.867536271783303619e+02
-4.104630059389340204e+03
-8.862346824498186834e+03
-1.079995235988419154e+04
-9.551556568722127849e+03
-3.244277924803795031e+03
-2.692416725037876972e+02
5.153132825128177075e+01
-2.069942044243454120e+02
-6.429607741601995485e+02
1.966795821318710864e+02
1.162069980120894570e+03
1.309950413172744902e+03
1.313317043575467096e+03
1.235105773602823774e+03
1.116216887610209369e+03
8.455630999585374639e+02
8.681504082781598299e+02
1.282960284007195696e+03
1.418916636444501364e+03
1.497935468599858723e+03
1.498943525089022387e+03
1.283849859316198717e+03
7.825637781046667669e+02
2.180407557443743656e+02
1.032722568810709873e+02
1.801695350040747599e+02
4.315898493693808291e+02
8.435709883088068182e+02
1.084077398291398140e+03
1.296055140394654018e+03
1.672471184811589183e+03
1.660191515636185841e+03
1.748205237942650456e+03
1.812470628820252841e+03
2.222920416689401009e+03
1.811504979030110917e+03
1.474183120911533933e+03
2.148905802246756593e+03
2.775614041996448577e+03
2.541233354558895826e+03
2.325773949879695920e+03
2.040152144204067554e+03
1.426248541930434612e+03
8.729936020354033417e+02
4.613999012107967133e+02
3.814537646821566454e+02
1.871039861699037488e+02
3.233010294616142914e+02
5.310562148248434369e+02
3.382882280936939310e+02
7.820248417322100067e+02
1.036230860596653883e+03
1.544863804352229636e+03
1.766927294859223593e+03
2.351396762494836366e+03
3.111268488873178740e+03
3.412485601025598498e+03
3.344026094301782905e+03
3.238879560252295505e+03
2.731032883884062358e+03
1.400509777836394505e+03
1.041197704831017290e+03
5.021005896658361962e+02
-8.026842852448710346e+02
-1.713240190394541514e+03
-6.596369319821923227e+02
5.261234656803459302e+02
1.369046805896324486e+03
2.179164288704009323e+03
1.753527188098780243e+03
8.851612117029272895e+02
5.530534446532092261e+02
1.141242378485794916e+03
1.011726290867547846e+03
-4.354427451396933861e+02
-3.544293280569216222e+03
-6.848784769199147377e+03
-6.874857841002953137e+03
-7.108540996006127898e+03
-7.310815215116365835e+03
-6.831665328959412363e+03
-5.615141381981745326e+03
-6.009195518882973374e+03
-6.661816444582273107e+03
-6.250962863072765686e+03
-5.502652668151312355e+03
-6.099826067437120400e+03
-6.115433644546767027e+03
-5.126422329389009974e+03
-8.447579267388564404e+02
-1.329391064453710442e+03
-5.526274317317534951e+03
-5.678349984958185814e+03
-4.981598645091010440e+03
-4.023993648076295813e+03
-2.652511423545750858e+03
-2.558052915145648512e+03
-2.950581732639581787e+03
-3.300047463020622217e+03
-3.358400663709696801e+03
-3.602604835800705587e+03
-4.279689464439636140e+03
-5.686651924320030957e+03
-5.221408559995140422e+03
-5.959601862769063700e+02
-2.669222390945772531e+03
-4.757177499745828754e+03
9.332634488127773693e+02
3.379182614431351340e+03
3.209573284279863401e+03
3.906535302061106904e+03
4.362093461053451392e+03
4.402322742526288494e+03
4.056299654836221634e+03
4.083992713587416802e+03
4.285437900900461500e+03
3.915741098263877120e+03
3.215989238697186011e+03
2.530182030501214740e+03
3.124355947196123452e+03
4.376547719603038786e+03
4.182800472426805754e+03
3.523150297742050043e+03
3.033658930449714262e+03
2.729356793405831013e+03
2.704197718837246157e+03
2.470338027306626827e+03
1.925936515591838770e+03
2.147197933741523684e+03
2.860221864631856988e+03
3.531031822470739826e+03
3.308699775027864234e+03
2.211271185084426634e+03
1.154725543590557209e+03
1.990988936704963521e+02
2.643750235312520545e+02
-7.453443028860948516e+02
-4.350528450390700073e+02
1.727153466931327557e+03
3.912403977455492623e+03
4.782789807252313949e+03
4.989171804736344711e+03
4.852419698031787448e+03
4.452650942848037630e+03
3.948852762317061206e+03
2.874040796106906782e+03
1.735245106559444139e+03
1.541462438978500359e+03
2.147714372215280036e+03
2.349015085536010702e+03
1.771447466204569764e+03
5.900214193318746538e+02
-5.353445703119068639e+02
-1.663592409263668287e+03
-1.528748750340442029e+03
-1.790900484507575129e+03
-2.553053922218927710e+03
-2.545270574204262175e+03
-6.906013692353103579e+02
-3.131643405997293712e+02
-8.847847730118160143e+02
-2.517211862285646760e+02
7.649428234726904066e+02
1.955224455058954845e+03
2.927079798554539593e+03
3.198424923590002436e+03
2.803227267750246028e+03
9.725272437150947553e+02
-1.636817753282457488e+02
3.636010982287324396e+02
1.458401262277700198e+03
2.147687150168755124e+03
2.162383061060500495e+03
1.919489062610355404e+03
2.786999210023067917e+03
3.687872117172188609e+03
3.384088052710505963e+03
3.324635746939035471e+03
3.753524184299010358e+03
4.017719973793987720e+03
3.675199207287098488e+03
2.974904114259914877e+03
2.810774795971216918e+03
2.145792333234693160e+03
1.372921326804634873e+03
1.237136088585115886e+03
1.294444166249603086e+03
1.304835311274940295e+03
1.358260164076101773e+03
1.410689613284837833e+03
1.646100424253666688e+03
-2.695033495761441600e+02
-3.302121158944717081e+03
-7.871759475244874920e+03
-8.291475069777401586e+03
-7.853273552939122965e+03
-7.159214097001240589e+03
-6.932289129443902311e+03
-7.367522551492571438e+03
-7.329921200528850932e+03
-6.202493176139112620e+03
-7.404188819948706623e+03
-8.594818895468244591e+03
-8.619887407650567184e+03
-8.446329217111497201e+03
-8.259082281350649282e+03
-7.698156811713599382e+03
-4.263640463973314581e+03
-5.883588625413550290e+03
-5.962003189086030034e+03
6.121857005611652767e+02
2.336984451976615674e+03
2.490386027322989321e+03
2.798414508702972853e+03
3.134031572448568113e+03
2.889216747500734527e+03
2.157973851717776142e+03
1.998300036731436421e+03
1.997229537843683829e+03
1.869745593298296853e+03
1.330822081102487800e+03
1.096496662042352455e+03
7.707309998735676118e+02
4.265003133745552759e+02
3.877195497444097896e+02
4.363809853943960206e+02
4.895367198801018844e+02
8.262169562603941131e+02
1.394444225494249622e+03
1.429201931577320465e+03
1.204614470445369079e+03
1.035656771203808376e+03
1.159327734497579740e+03
1.302653531431371221e+03
1.422612824975760986e+03
1.407240012398116505e+03
1.263588254221368743e+03
1.348683754857167287e+03
1.484483812974255216e+03
1.355072154342515205e+03
1.116507443217814625e+03
3.378325294019566059e+02
-3.009505797193226613e+02
-1.138912481211663589e+03
-2.088012028410043058e+03
-2.325234127234235530e+03
-2.067542274612861092e+03
-1.912887993754611443e+03
-1.791270810749107568e+03
-2.029668700138225631e+03
-2.319042734765149362e+03
-2.296287380908706382e+03
-1.962356696200894248e+03
-1.570330402389079381e+03
-1.285283463582429249e+03
-1.034172200566445554e+03
-1.976382293945505069e+02
5.787738960821875480e+02
1.564283123829061878e+03
2.476748980463454700e+03
2.232939304533196719e+03
7.354378846503545901e+02
5.838098287118796179e+02
4.360767560054461569e+02
-8.460887173480236925e+02
-1.649665848233928955e+03
-4.786893860347625491e+02
-7.812439826126019682e+01
4.311257027812576439e+02
8.500901423560646890e+02
9.618282801405027840e+02
6.903935920171113594e+02
7.028214647930915362e+02
8.061205972104279454e+02
8.442989423167153973e+02
8.934205532014402706e+02
8.874733008295686432e+02
7.044897988622072944e+02
5.434874898775480005e+02
4.055518859511656729e+02
4.447582812569150406e+02
2.161150482509700907e+02
-3.773959487094734300e+02
-6.587883525052006917e+02
-9.590611220969706210e+02
-8.181908960343585022e+02
-4.351723011378928163e+02
-2.719942493307164568e+02
1.603943908695152061e+02
8.130338940428076739e+02
1.152947154590329774e+03
1.181126252174898127e+03
1.158688320520966954e+03
9.766347968365181487e+02
8.718706735775379002e+02
7.023564181454279378e+02
8.201783216234047131e+02
1.038347518783656369e+03
8.768546791449722377e+02
6.177319693635857902e+02
3.549870100778833830e+02
1.766426473245477382e+02
3.767385679794519859e+01
-6.179067146650538689e+02
-5.561374857168398194e+02
-6.970466998341260023e+02
-7.926415097822035705e+02
-7.739827818182936880e+02
-4.880542499146660020e+02
2.270752535694738583e+02
4.924444169371399198e+02
7.290581949955115988e+02
8.288584789045280559e+02
7.078577642573159210e+02
6.820126095501574355e+02
7.923214443518432972e+02
1.048793626489764392e+03
8.324867790741157023e+02
4.912733771174927142e+02
8.951758736547496937e+02
1.008268928583301772e+03
7.194658557163713795e+02
-1.341228214335220059e+01
-4.844459828365668272e+02
-1.020653201625335896e+03
-1.069112970122627758e+03
-4.277669248430099742e+02
-5.246288879816612507e+02
-5.167642522139718722e+02
-5.274388134706367737e+02
-2.034740421484345347e+02
3.952367762780821181e+02
6.663660511679013325e+02
9.873109886807829980e+02
1.282141755022835468e+03
1.368488293883972347e+03
1.648533330739342318e+03
1.771123651988119036e+03
1.725777985085415594e+03
1.649070904236599063e+03
1.682561019854847927e+03
9.665356999620145189e+02
7.235230399020526875e+02
4.364979871186249625e+02
3.076249972615473780e+02
3.399340988273189623e+02
2.386269093972817075e+02
5.520483368050425952e+02
1.165685117764949609e+03
1.449052452563865700e+03
1.803132896233434849e+03
1.856021371907044340e+03
2.210366239659498206e+03
2.006861840583246476e+03
1.853289671590697935e+03
2.141016547839592477e+03
2.347199409253738395e+03
2.446797320106653842e+03
2.211719404539453080e+03
2.074084978180716007e+03
1.951864504089475531e+03
1.990184400903644473e+03
1.514894723985940118e+03
1.287540655392114104e+03
1.293685789406132699e+03
1.142396136998522024e+03
1.185819200496111762e+03
1.390095614392081416e+03
1.451015486254757889e+03
2.029520484722092988e+03
2.129589732385345087e+03
2.108145888082377496e+03
2.453163938579484693e+03
2.692640870985066158e+03
2.842601566190293852e+03
2.656015470231865493e+03
2.800733088969097935e+03
2.739656797700826701e+03
2.431865906557039580e+03
2.657407742959641382e+03
2.972273130882044370e+03
1.634401911207180319e+03
-1.286234548988624283e+03
-5.626626882557518911e+03
-8.960782827358923896e+03
-9.063786459545895923e+03
-8.670683752053753778e+03
-8.090477675365398682e+03
-7.480104875226479635e+03
-7.002461981469110469e+03
-6.529528809618895139e+03
-6.392245123014825367e+03
-5.369753378235951459e+03
-5.079081620395564642e+03
-5.452813886072542118e+03
-5.573450420494141326e+03
-5.211223002382886989e+03
-2.292599021784118577e+03
-1.106680557716807016e+03
-4.764528172379186799e+03
-5.788093319552443972e+03
-6.144362003568925502e+03
-6.295255684887511961e+03
-6.094738298198022676e+03
-6.273830063436509590e+03
-6.691540189642842051e+03
-6.409869890965912418e+03
-5.836732687275457465e+03
-5.473013070177958980e+03
-4.730628881598436237e+03
-4.863474290521146031e+03
-4.521616465847941072e+03
-4.949931239534782890e+02
-1.327500684423068378e+03
-4.704182984627796941e+03
-2.469190617271859992e+03
3.226643354205300966e+03
4.886428018232525574e+03
4.750107524441041278e+03
4.771632018174622317e+03
4.816022973383353929e+03
4.717319202424134346e+03
4.076584488533753301e+03
3.468952016774533149e+03
3.166574082777155581e+03
2.878479504044935766e+03
2.988604803894770612e+03
3.235930941866667126e+03
3.229533046658058993e+03
3.428530891389407316e+03
3.517001739922102388e+03
3.742957383482485056e+03
4.108425598803642970e+03
3.996525500752947664e+03
3.907297402187643911e+03
3.901732378887188588e+03
3.823897343825557982e+03
3.685876715294443784e+03
3.565769567698765968e+03
3.249585181319206640e+03
2.800431719353910012e+03
2.245388717924823140e+03
1.758468302169496383e+03
1.638682887175340966e+03
1.503104061119862990e+03
1.229806361261807751e+03
1.201789434134759858e+03
1.291042283517899250e+03
1.496779471771903673e+03
1.822144746562052433e+03
1.993323455956588305e+03
1.985473401280778035e+03
1.710623687166307491e+03
1.626814861656173662e+03
1.558105202431222324e+03
1.572548839710289940e+03
1.528190668546747247e+03
1.434926454768405392e+03
1.732920745801730845e+03
1.704266450397191420e+03
1.455947742019989164e+03
1.255904993141185287e+03
1.044243265693800822e+03
6.189488634285328317e+02
-1.205326838645853016e+01
-3.617174812861180726e+02
-3.092312696008348780e+02
-1.227468910136300053e+02
-1.982458058138498913e+01
4.283503087558115681e+02
7.676216673416612366e+02
9.050304266720630721e+02
9.476431039288997908e+02
8.525255267073251844e+02
8.526522388095381757e+02
9.309969579950243315e+02
1.035576140751795720e+03
1.290423748054550288e+03
1.256510922897755790e+03
1.409860415462474293e+03
1.042474542001341433e+03
4.503333637554337088e+02
-3.185436468700975183e+02
-5.431564991998965297e+02
-1.062552656445387584e+03
-1.791775641391679301e+03
-1.186815302400222890e+03
-1.089633647084452150e+03
-6.282292149725877834e+02
-2.286379258306065196e+02
-6.182622180671026513e+01
1.212030891264226113e+02
1.124126381356190763e+02
1.568035260278033718e+02
3.234803579480912106e+01
-2.239743721658055335e+02
-2.011476339415179666e+02
3.148257223234330695e+02
5.319240819226915846e+02
1.711519303425185683e+02
1.725195826365097957e+02
3.302695226209150547e+01
-4.393972462964447345e+02
-6.638333630683519004e+02
-7.633253267878066026e+02
-8.179271290412531243e+02
-8.406193591546477819e+02
-6.213820489994295713e+02
-3.232875471286880611e+02
-1.201387327531664369e+03
-3.892718791954221615e+03
-7.746297561270643200e+03
-9.569149249500791484e+03
-9.244340775213415327e+03
-8.751901101111077878e+03
-8.508919459722579631e+03
-8.592493621783489289e+03
-8.424559304705266186e+03
-2.819033994272113432e+03
1.708880967148044419e+03
1.585232043478268679e+03
9.080125448104573707e+02
5.272519733157272412e+02
4.488014346469724387e+02
4.826105245497992655e+02
2.956364706014515491e+02
3.097924715633800474e+02
5.350864890761527022e+02
6.205096022156010349e+02
6.730221922581388299e+02
8.996207017942039101e+02
1.438257725340735078e+03
1.471910730255330463e+03
1.476554729185499809e+03
1.026171230100399725e+03
8.457396432298310174e+02
1.086212898191766499e+03
1.554550703035688230e+03
1.747721805451438968e+03
1.701720234996469117e+03
1.610527759099125205e+03
1.420104358051733470e+03
9.813874565065724482e+02
5.593173946717008675e+02
9.389360068637377310e+01
-5.395250312898460976e+01
-1.582917404980266269e+02
-1.681330505595341833e+02
4.005819712820214136e+02
9.558418581711729303e+02
1.338615457989587640e+03
1.264946669175403713e+03
1.403807782759665997e+03
1.616109450121684404e+03
1.536889915182450750e+03
1.360145483714984721e+03
1.126868452438840450e+03
1.197044650336959648e+03
1.272657566628033010e+03
1.459682148437749902e+03
1.608145479100997363e+03
1.645019399705773822e+03
1.278283036706933217e+03
8.419337047785346613e+02
5.929130874099297444e+02
-1.327976901988057534e+02
-4.992318288071753614e+02
-1.183744701646298694e+02
1.907925411425043194e+02
7.002908559355460056e+02
6.421541637497259671e+02
8.093643461287829268e+02
9.689525536758357021e+02
1.191923934071249505e+03
8.752904216828940207e+02
8.970232369877181782e+02
1.342086215864584801e+03
1.261537127112547068e+03
1.323395450210567105e+03
1.252684772790602437e+03
1.366410487276530830e+03
1.126600553013475064e+03
8.932389341677735501e+02
2.732654758732937808e+02
-4.553187732251880675e+02
-3.622422184414281674e+03
-5.250034071617165864e+03
-6.933187484864793987e+03
-1.128874825112090093e+03
-2.982062728249625252e+03
-3.387350295429128550e+02
-1.872879713039292255e+03
-4.034396026622230238e+02
8.846021862426370035e+02
-2.634767059815106677e+03
3.735212845102459482e+02
-1.867538953503687935e+03
1.498023822909167620e+03
3.202889268391186306e+02
-2.259739114503154724e+03
-1.765060666918003108e+03
1.485356432816087590e+03
