1.569223084499133392e+03
1.840323080081977878e+03
2.191050055357403835e+03
2.573530584625731080e+03
2.701707176639409681e+03
3.018677229924076528e+03
2.897530726507776308e+03
2.356417106484723718e+03
2.089412044717405024e+03
1.739632669401281646e+03
1.107191900673967893e+03
6.152170220334353417e+02
9.255776399610212479e+01
1.308936359685137329e+00
-6.012939230031170155e+02
-1.161167778456097722e+03
-1.543551710023990381e+03
-1.076326811831967916e+03
5.516365587918477331e+02
1.211298036795718190e+03
8.664986607856775436e+02
-2.126077733616709224e+02
-2.222834016672780763e+03
-9.181567458542981512e+02
1.954270060949560275e+02
5.358709216950478549e+02
5.401663117488596981e+02
8.163351453160754545e+02
4.954594106255826205e+02
1.116517379261507585e+03
1.805515708243212657e+03
9.764857010122995007e+02
5.614497540206770054e+02
1.411466709526362365e+03
1.704578779081931543e+03
1.411766757870406991e+03
1.237755796980304240e+03
1.365779875242961907e+03
8.991162160496510296e+02
-7.373522828796726003e+01
-1.351565556677492168e+03
-1.437578878183472170e+03
-1.758362011457696781e+02
7.677179456454248339e+02
1.639100889045859276e+03
2.982447752888715058e+03
3.039772333528451782e+03
2.417073541656492125e+03
2.410355972170402765e+03
2.199605904330893281e+03
2.175856769185119447e+03
1.680969077673031279e+03
1.001082307361748462e+03
9.594127155012004096e+02
2.004809309686322649e+03
2.584097658178066013e+03
2.402375430094979492e+03
1.874657214537294294e+03
7.508346580866726754e+02
-3.760491826056540390e+02
-1.490664981726613689e+02
6.216778607331237936e+02
9.381093812152572582e+02
7.432761253792966727e+02
4.992598660930411825e+02
1.066131732236726521e+03
1.729980238035541333e+03
1.708700201212408274e+03
7.991130068491254406e+02
6.654077732922443147e+02
8.955000345445072298e+02
-6.719273014167385760e+00
-8.222462873190734172e+02
-7.390664710186812272e+02
-3.502179486678894023e+02
-2.207751172385712266e+02
-1.385759916043796693e+03
-3.699227815986775113e+03
-6.160200838390234821e+03
-9.069721587479069058e+03
-9.347697622964613402e+03
-8.416073099079900203e+03
-7.792045442495259522e+03
-6.427697080797258423e+03
-4.489011302956461805e+03
-3.367140353765974396e+03
-3.014816646040515025e+03
-1.670119235678342193e+03
4.279170783384429342e+02
2.418194463615930090e+03
3.336694776294618350e+03
3.081448569469492668e+03
2.650253285042148491e+03
2.044080946971611411e+03
1.265013545640211532e+03
2.071124440966837938e+03
2.509372737506708745e+03
2.051537706832353251e+03
1.052575590423175527e+03
5.164820387425949093e+02
3.151673005975489446e+02
1.469882209650064375e+01
-1.220886576666454857e+03
-1.223608986781007388e+03
-6.004639109797069523e+02
5.853552896762288356e+02
1.188989971028599939e+03
1.440464908245035076e+03
1.641690894714869728e+03
1.222658302100753190e+03
6.853541563564707531e+02
-3.172784362235925641e+02
-9.373305691987166028e+02
-1.485742873571714881e+03
-1.165568453877402362e+03
-4.968235642195523951e+02
-1.023508593785941571e+03
-1.831689813849604207e+03
-1.946432641428988290e+03
-1.939764559816841711e+03
-1.057601585979739184e+03
2.399802857217080145e+02
1.464895721893771224e+03
2.439254337823231708e+03
1.829151892670255393e+03
1.814889028784650407e+02
-7.687200873828292060e+02
-1.195394268179205255e+03
-1.187562270068807265e+03
2.117255214278004587e+02
8.434046036517039511e+02
-6.946550986456431076e+01
2.790500172370307723e+02
1.805959329094617715e+03
2.718290650970886873e+03
2.407028563890487021e+03
9.732379017208309051e+02
-6.730230933676997438e+02
-2.387785421765265710e+03
-3.586060832387967366e+03
-2.518931329618472773e+03
-1.220335994297782463e+03
1.176910301852596206e+02
2.404137980775319193e+03
4.181988155258291954e+03
3.631306074204430388e+03
2.598170952660856983e+03
2.214597084243895551e+03
2.473616190325315984e+03
1.559165806752216668e+03
4.429945320372294049e+01
-1.932948332727140951e+03
-4.843560920107608581e+03
-2.326538073779189745e+03
-1.871789123003803070e+03
1.204663866870400852e+03
5.398460210541713877e+02
4.547490054173026692e+02
7.493964536438764981e+02
-9.332767425515273771e+02
-2.621333205235816877e+03
-3.100760982247138145e+03
-2.263589410355652035e+03
-1.193733434683495716e+03
-3.080967735603735946e+03
-2.121363884989987582e+03
3.377135824478874838e+03
4.523563794032954320e+03
9.918587652237031307e+02
-4.438666051218214648e+02
-3.230604992324004343e+03
-1.444375267634965212e+03
-1.521172473737448740e+02
2.998268306065813704e+03
1.051812043904036955e+03
1.591615088670049545e+03
-1.616453158724799323e+03
-4.628465783186174122e+03
-3.776351077744984650e+03
-2.904108521515119264e+03
-6.537319945984169181e+02
-2.081341520561110428e+03
-4.284892833391965723e+03
-4.184219933626663988e+03
-4.882312836920841619e+03
-4.228163578459478231e+03
-3.023790333861098134e+03
-4.106130737275934734e+03
5.288827191006473640e+02
3.374299264879158272e+03
5.882068107247817352e+03
3.860138663508696936e+03
-1.664505913387578858e+03
-9.907311761161547565e+02
6.284999591920014836e+02
1.228158229717113727e+03
2.801269291081051506e+03
2.639812923340606631e+03
2.008187413611568104e+02
-8.837231988997964436e+02
-7.758948581195489851e+02
-1.752698841880787086e+03
-6.210922161314078949e+02
2.669494737334547949e+02
9.766354273232554988e+02
2.004100580445504420e+03
9.313531472009888148e+02
1.137359999645953621e+03
1.449963900605509934e+03
-3.541204316258539961e+02
-3.977633179884015135e+03
-2.234347022898158684e+03
2.748461268342895437e+03
8.066636462341397419e+03
9.914540962793304061e+03
7.281169457032574428e+03
3.805339487215218924e+03
2.935130373750576837e+03
2.371499261315983858e+03
-1.301797212896583687e+03
-3.342538036546918192e+03
-1.984099337924253405e+03
-1.598249022474861249e+03
-3.081598435004306339e+03
-3.036603232992991707e+03
-1.030137214760899951e+03
1.426672986512985972e+03
2.577675011861716484e+03
3.841195275603738992e+03
4.248967940260713476e+03
4.868209314732235725e+03
4.356928377424313112e+03
4.631965063994618504e+03
4.776306926521257083e+03
4.869925708934300019e+03
4.409601630603027843e+03
3.457147241638357173e+03
2.438877385114618846e+03
1.828769258452806980e+03
1.672710910410391079e+03
1.574687599204832622e+03
8.765487508032949791e+02
4.212472353977705666e+02
-2.396859129667731452e+02
-5.346997914281981821e+02
-7.965784170502909767e+00
7.553739454181813926e+02
9.285655675245685643e+02
7.864930908671598218e+02
6.711020803249582514e+02
7.922974396436314919e+02
1.594098930580729984e+03
2.237539571403321588e+03
1.986619338773632080e+03
-2.116624227830630218e+02
-5.532069126042114249e+01
2.120546490273218751e+03
2.813879081559117822e+03
2.178605692577883929e+03
1.994746856532634183e+03
1.327619970837299945e+01
-1.586818097513746352e+03
-2.885602070805582116e+03
-2.771044492813606212e+03
-1.925073538915966083e+03
-1.437687791102544679e+03
-1.066889146767401371e+03
-1.815656963248478860e+03
-4.462975783196543489e+03
-5.935822576436294185e+03
-5.298230540794274930e+03
-3.539149813824248213e+03
-4.770571415090683331e+03
-5.492585887133667711e+03
-4.497331445913991047e+03
-4.485947391192222312e+03
-6.870362175379942528e+03
-6.935517508342107249e+03
-5.930265092824278327e+03
-6.103554419414452241e+03
-5.391614980150101474e+03
-1.794490407882609361e+03
-3.741387573389328054e+02
-2.742550337751547431e+03
-2.758701415103775162e+03
-2.414499721739495726e+03
-2.117008913895814658e+03
-2.083243755469110965e+03
-2.524022600149825848e+03
-2.656357376704873786e+03
-2.519349003450473447e+03
-2.877927948771116917e+03
-4.032131629455861457e+03
-3.302013457438033583e+03
1.491488539095651959e+03
1.677464861194407831e+03
3.982939949474154673e+03
3.640959289448188429e+03
2.607472475526047674e+03
1.672391452362441441e+03
3.277991502123317105e+02
4.246031403697350015e+02
4.916819525264189679e+02
7.551572419072632556e+02
7.841649165271736592e+02
7.377230835105696087e+02
1.404885981383043827e+03
2.296369356402748281e+02
-2.238881427180356241e+02
2.065324525591916426e+03
2.997263330374607449e+03
1.682858579415015356e+03
1.923113984395495436e+03
2.849078757968969967e+03
2.761782992958226259e+03
3.247299326517328154e+03
3.216706642528674365e+03
2.720989085873715794e+03
7.080666279971986796e+02
-1.269990573043591439e+03
-1.912148698405193727e+03
-1.827400771927598726e+03
-2.667927114318667918e+02
7.416974130981977851e+02
-2.958330540672363327e+02
9.247472379874369608e+02
2.017420996888330592e+03
2.003195596305852177e+03
2.044228098865804441e+03
2.657572858721036027e+03
2.875166264486754244e+03
2.221997478559563660e+03
1.390033053708278658e+03
6.783171257937649443e+02
-3.979637965585379220e+02
-1.705563231240708546e+03
-9.952720349986276460e+02
9.067456408195450877e+02
1.322398141655961808e+03
4.876875248226007784e+02
-2.742517365679180941e+01
-2.561988214923673240e+03
-1.298972324487534024e+03
-6.403386646606560362e+02
-3.180945136018370363e+02
5.099240508147374271e+02
1.523456119322074073e+03
2.803430395227449480e+03
1.972346921129365683e+03
9.001112367710408080e+02
6.035972507718594215e+02
1.691852593502075251e+03
2.767689372035562883e+03
2.188127204230275311e+03
1.088302864363722165e+03
2.182547873818221547e+02
-1.079042869993234717e+03
-1.565569456556696650e+03
-1.414340088987209811e+03
-9.722711181260032163e+02
-7.594163931608177336e+02
-2.460834321901676958e+03
-2.036595568247375013e+03
-8.426262058005775089e+02
-3.008891864911510083e+02
4.665751594000440718e+02
1.489835763102808642e+03
2.374959352827395378e+03
2.303978062245979800e+03
2.569881388458004039e+03
2.307702729400982207e+03
1.782355833095215075e+03
1.792728644771193331e+03
1.679924252521195285e+03
9.399729727213915567e+02
-5.520401565861433824e+01
1.238797224349687376e+01
-2.893486631251669223e+02
-1.912450427596021427e+03
-1.936975925870830224e+03
-1.389940576919579144e+03
-1.925203905109264497e+03
-2.202715752928838356e+03
-9.385187268476184954e+02
1.623905320615805010e+02
7.870120619410292875e+02
5.881903192921507753e+02
1.396972394195255674e+03
1.228492974758654782e+03
8.866571526226956621e+02
5.253304499449568539e+02
-5.265378108355321274e+02
-1.145912406121099139e+03
-7.576935184033912947e+02
-2.138513598205937285e+02
-3.943700739383201039e+02
-6.792739963570892314e+02
-1.687696900986538537e+02
-1.769221927930225036e+02
-4.467716761955903735e+02
-1.582410490819016559e+03
-2.288896996693217261e+03
-2.091119751595874277e+03
-1.353039433132755676e+03
-3.997019957664145977e+02
-7.411173441358768059e+02
-5.002096157458305470e+02
-1.099319346254281413e+02
-3.914342680814801412e+01
-3.728073628515654150e+02
3.196421945003149290e+02
6.182959219584553239e+02
9.468365583517426103e+02
8.074858457661716784e+02
1.634215986068044231e+03
2.028960638280819467e+03
1.261851314812329292e+03
7.069132626425861190e+02
-6.999536453759758388e+02
-1.913875276888609505e+03
-1.121910314422739248e+03
-1.399843984597271174e+03
-1.166932413517395162e+03
-9.776352675260901606e+02
-1.604648879542659870e+03
-1.116575766752393520e+03
-8.605709933823128495e+02
-9.864549080337432088e+02
-1.280585602043714971e+03
-9.679800860602019839e+02
-4.128226148613577493e+02
1.224252530719202014e+03
1.812993331586977320e+03
1.496695356968043825e+03
1.700372648741566536e+03
1.762701166250029928e+03
1.965674098931616754e+03
7.471462401231326567e+02
-8.036162873475092283e+02
-7.375022164981529613e+02
-5.057561832348751523e+02
-4.663276276340868662e+02
-6.863189382193677375e+02
-6.058039306123755523e+02
6.042824226676417254e+01
1.296892558908436513e+03
1.855662744252634411e+03
1.421693596809430346e+03
6.323420635034682391e+02
7.680266740854195859e+02
8.402590391657588498e+02
5.389213204456486892e+02
3.300693873261355407e+02
1.555801221823481342e+02
4.935748444505229031e+02
2.362188715707240760e+02
-4.075814939065140834e+02
-1.088915939582537476e+03
-1.377670364803652774e+03
-2.644973355748551512e+03
-3.269865074603139874e+03
-3.764371014309206657e+03
-3.733514280535047419e+03
-2.561145579317649208e+03
-6.903270808728447037e+02
8.939650107790846505e+02
1.877906556296233930e+03
1.621742836352425229e+03
4.410786780032120191e+02
-2.415413413016999129e+03
-1.130778889712602449e+03
-5.808439680704816510e+02
-1.475311324314648346e+03
-9.120285228412288916e+02
-2.371479655043239632e+02
-2.534702249044593827e+03
-1.794409010214682894e+03
-4.080339879249567275e+03
-3.063683805493328691e+03
-1.973678937215904909e+02
-1.720295030270190409e+03
-9.095767201211175461e+02
-1.530361903156199560e+03
-4.225728005238753212e+03
-2.388589430423124213e+03
-3.790906033334921631e+03
-2.078598058556176511e+03
5.431857943154354729e+01
1.193931230964940141e+03
2.728238891220962159e+03
3.564252710453140480e+03
2.261990842570012774e+03
1.918475652159463152e+03
2.807745530995749050e+03
1.926820486893076577e+03
1.676699245993830118e+03
1.931388501607518492e+03
7.558780607936001843e+02
1.074252839635139935e+03
-1.416514880455737739e+03
5.116178258376232861e+02
4.896519871805409139e+02
-1.542517859737734170e+03
-1.158842204421696351e+02
6.926377692480375572e+02
1.474072791660110397e+03
1.580412068772826160e+03
1.887701866767830097e+03
2.508913606233339578e+03
2.618033512232810608e+03
2.436126824236767789e+03
2.521388078543754546e+03
2.734636765255381306e+03
3.051674479819603221e+03
2.370568584208174798e+03
2.259458171505468727e+03
2.144316538321891585e+03
1.862319120063396895e+03
1.044449745969106516e+03
1.897275743263050458e+02
-2.379923556474842314e+02
-3.858155793779208125e+02
-6.097701080478847189e+02
-8.947670687886915175e+02
-8.785616305125967074e+02
-5.439104802180027036e+02
-3.884801705436900221e+01
8.154430789127178514e+02
2.085893850465431569e+03
2.614732835584299210e+03
2.393918745784320436e+03
1.824354487063537590e+03
1.472065391442614100e+03
8.412147332400464848e+02
1.211544700793962647e+03
9.539918590707784460e+02
9.798119529120574498e+02
5.449755300794645336e+02
-6.706963623035035482e+01
-1.077329313766784935e+03
-1.730647019197038844e+03
-1.974080848002909761e+03
-2.183505686670902378e+03
-2.496927011427415891e+03
-2.102302811378576280e+03
-1.601573923035265580e+03
-1.051739439086960374e+03
8.416325977782057066e+01
1.831668384306302642e+02
-5.776440101623635428e+02
-4.913211445665357360e+02
3.185660656629761789e+01
7.481339066198540877e+01
-9.266735222261155513e+01
-9.939434795234159026e+01
1.016335618952486470e+02
1.328463257998598237e+03
1.506157258854346537e+03
5.535245444345428041e+02
-4.474612524174761461e+02
-9.218320032313436059e+02
-9.825734545630257344e+02
-8.596772548416844302e+02
-1.108248420231954015e+03
-3.891373425134841568e+02
1.165320841548686914e+01
6.388998084895883949e+02
1.478681999981284662e+03
1.981164297916314354e+03
2.183274518347836874e+03
2.014918143902766587e+03
1.559140702375482533e+03
1.412889185276163744e+03
2.038126675016013451e+03
2.072891797158694771e+03
2.419358695301479656e+03
2.416542120435718516e+03
2.004356461872084310e+03
1.375735678518354007e+03
7.745389563463817240e+02
3.247668090377144381e+02
9.859774970835042041e+01
-1.361423339245525028e+02
-3.175031934551337258e+02
-5.139106503168170548e+01
5.312055846643826271e+02
8.763152691187137862e+02
1.199944581766500278e+03
5.181709297573744379e+02
-1.757948750479706632e+03
-4.211432778750057878e+03
-5.045212994305552456e+03
-4.735261973617982221e+03
-4.553759743199662807e+03
-4.502830702278541139e+03
-4.839428973053097252e+03
-5.014447890872124844e+03
-5.109975911075609474e+03
-5.597521529265596655e+03
-6.646428747910343191e+03
-7.048746788001053574e+03
-4.078460003302800033e+03
-3.887608418843813070e+03
-5.806256887842822835e+03
-2.471415848150801594e+03
-1.178894069907932760e+02
4.673985395916635071e+02
1.293450978536085813e+03
1.204186961205813532e+03
9.385884848530206455e+02
1.385802538869768114e+03
1.512895237326310962e+03
1.434859235322740233e+03
1.769758070619331875e+03
1.665533027984189175e+03
1.347157286351724906e+03
1.273659992789757098e+03
1.049061239528064334e+03
5.605008267202507568e+02
5.499009031289198219e+02
7.461954987821459326e+02
3.634199000860544402e+02
9.555208466538972800e+01
4.255374132981334583e+02
5.544514675032697824e+02
7.763971586001306378e+02
1.503420837702265771e+03
2.200542055027970036e+03
2.078859145822924802e+03
2.179390210229199965e+03
2.336168004259166082e+03
2.154260734273649632e+03
2.098717051575179994e+03
1.871437288033518143e+03
1.996471279825622560e+03
1.744979155321878807e+03
1.386874219766452143e+03
1.385109705075130023e+03
7.537974804837584770e+02
-1.090262268537507708e+02
-5.945045390007269361e+02
-5.825873367470060202e+02
-8.382705417670674706e+02
-8.324930427217871056e+02
-4.293030106186455441e+02
2.964395874543765785e+02
1.144827369420166406e+03
1.418879945249989760e+03
1.237682974092669156e+03
1.187224195343065958e+03
1.131391883921995714e+03
1.005154567371539542e+03
9.537636737513711296e+02
7.523136292472067908e+02
4.879262677611421282e+02
3.225660754893050921e+02
7.020837002386648464e+02
6.725984531772389801e+02
8.604232684040363210e+01
-5.976516944722394555e+02
-1.338503186701665527e+03
-1.430479437924577951e+03
-1.577521575341130756e+03
-1.828686949798766364e+03
-8.109441784253162950e+02
-4.112894123641801229e+02
2.413876132846207554e+02
8.790190222496327124e+02
9.276067263052950693e+02
6.761603218950757537e+02
8.288003140408102354e+02
8.524358119623103676e+02
6.790515144944641861e+02
6.517246799974099076e+02
5.484421357013990246e+02
4.742635424082996565e+02
4.112352253008916136e+02
3.151961705198527284e+02
-1.298173994056199376e+02
-9.908153398658578226e+02
-1.343819339978311064e+03
-1.414766828020665344e+03
-1.882744845899017719e+03
-1.757787123541324036e+03
-1.501865944419373363e+03
-1.248919506814278293e+03
-5.789768679150837443e+02
2.589295025899118627e+02
5.036847220624754868e+02
7.133520449842360449e+02
7.229880855357295104e+02
3.185526728634373512e+02
2.260173709213638062e+02
2.482974580680883889e+02
3.195292164563069832e+02
8.247291924252292574e+02
4.107486174629364086e+02
-1.814177508973237423e+02
-7.207726411021718604e+02
-1.420336092992771000e+03
-1.664138567887960335e+03
-1.895259897062810978e+03
-1.920792660311263262e+03
-2.129778203080332787e+03
-2.218137284445062051e+03
-1.271841638179388383e+03
-7.989604235126871572e+02
-4.194924260985113165e+02
1.195703573657534662e+02
4.892581738059943746e+02
1.007510145609412916e+03
1.129238387176073275e+03
9.454329931173745081e+02
6.220958936948475184e+02
5.201950638460393748e+02
9.396920015783225608e+02
9.106580208649945689e+02
5.070239404498959743e+02
2.237312668692602244e+02
-4.232967650993591064e+02
-9.201635805300086304e+02
-1.099018515997712484e+03
-1.486918800126004271e+03
-1.370886942478883157e+03
-1.253864863985171041e+03
-1.288898340485209019e+03
-1.869159886786894731e+02
7.443422464767542124e+02
8.907806134117212196e+02
1.259117932268821960e+03
1.661426607371428645e+03
1.685546284710485679e+03
1.525822827587006486e+03
1.136823058778265477e+03
1.522929620473245450e+03
2.126579240516194659e+03
1.904699122022064103e+03
1.381640577200613507e+03
9.341457393262360256e+02
2.504040146425315356e+02
-5.052898116202351844e+02
-5.966905432454491347e+02
-4.754077596403245707e+02
-3.698205597485854810e+02
-4.448304644899300229e+02
9.248032687018144316e+01
6.539759060337026995e+02
1.418539012930353465e+03
1.844538325203500108e+03
1.985811290239232449e+03
1.898264722781594855e+03
1.804081924682630188e+03
2.010293212477041607e+03
1.984696601968689492e+03
2.230357603652896159e+03
2.086078245737395719e+03
1.977104254092092106e+03
1.983056110390194362e+03
1.272214570824558450e+03
7.836695315411931233e+02
7.199535021905433041e+02
4.993707561410382709e+02
-6.823122194818949993e+01
1.210950916914647912e+01
4.843329695815737068e+02
8.033961320517039439e+02
1.089366469363330680e+03
1.614267200405495487e+03
1.934059642098972517e+03
2.009758056771698421e+03
1.745348855054393198e+03
1.847922195718284229e+03
1.898446560408186315e+03
2.091834759085953920e+03
1.948076926820441258e+03
1.920245750556197663e+03
1.169379156011051691e+03
-3.985493693129160420e+02
-3.094558881632770863e+03
-5.340631482844897619e+03
-6.042782215454310972e+03
-6.101038399902381570e+03
-5.977402907972953471e+03
-6.212896586683034911e+03
-5.872571655895286312e+03
-5.391434940237573755e+03
-5.051391006135765565e+03
-3.972381756091091574e+03
-3.102378584105682421e+03
-2.584339592669119156e+03
-3.319168100161551138e+03
-3.722964833760471265e+03
-1.568650409693073016e+03
2.053737737849645328e+03
2.745240726271222229e+03
1.976864855625790597e+03
-1.071309809390668761e+03
-3.422278172003140753e+03
-4.040049763599106882e+03
-4.757600458695831549e+03
-5.200916667813945423e+03
-5.386035811275526612e+03
-5.213914167189792352e+03
-5.092564633079309715e+03
-4.909065645846686493e+03
-4.405284594504771121e+03
-2.236080883800351785e+03
2.173502479366047282e+03
2.441480388742267678e+03
2.589931898622488461e+03
3.041910684843140643e+03
2.818419449351868479e+03
3.217462011787622941e+03
4.037942126866518265e+03
3.952919593081442144e+03
3.646522251268646869e+03
3.249812559796358983e+03
2.908779054224625270e+03
2.682416048503592719e+03
1.924764322001115033e+03
1.118863977024999258e+03
7.716718780990925097e+02
6.032374302327768874e+02
6.255176580703824811e+02
5.705241428518913835e+02
1.182324227248714124e+03
1.670982260074884834e+03
2.059582799310609062e+03
2.613201318440971136e+03
2.367848606558486608e+03
2.100502889236144256e+03
2.295248515438614504e+03
2.301099281286502901e+03
2.289061283991541586e+03
2.155174410813725444e+03
1.942498437572394550e+03
1.505064696865705400e+03
1.276890150939786508e+03
1.078985589047847952e+03
3.204369433701450589e+02
-3.817421859665805641e+02
-1.067597784066790609e+03
-8.041875416148811837e+02
-7.285133986953126168e+02
-5.983940396360262639e+02
-6.676860201929149241e+01
2.095369083585873398e+02
8.387158799791404817e+02
1.390843146205396806e+03
1.633824884589666908e+03
1.822669888509549537e+03
1.311421178409075992e+03
6.241217520506421579e+02
-1.531297346570426498e+03
2.617378517086200773e+01
1.029557115774927297e+03
1.086932190285034949e+03
1.022316286302364006e+03
9.546318921200671639e+02
2.329421030717054180e+02
-3.977527829861933242e+02
-8.968989129999207535e+02
-1.213460859026832850e+03
-1.126369694968342856e+03
-7.326570670132954319e+02
-4.201875970296991341e+02
7.106828423330647126e+01
5.710603921607304301e+02
8.168129960557263303e+02
9.963449748969532038e+02
7.646662409136982888e+02
4.857777564456802111e+02
7.067012594292749554e+02
8.464035650027119573e+02
3.798346973233846029e+02
5.840456051862030336e+02
7.110026027954911569e+02
6.036852957014431240e+02
2.751451592287479002e+02
-7.336290283008797815e+02
-1.156663059194951529e+03
-1.535946921032831597e+03
-1.309529154447144265e+03
-1.721473925438131346e+03
-1.617797368977048791e+03
-1.067404513197513552e+03
-4.112943611803298722e+02
2.174612234690043806e+02
8.238656915817834943e+02
8.539001388401993609e+02
8.046069453970931136e+02
9.349937752573688385e+02
1.059051106436063264e+03
9.167569756533547434e+02
7.919795753181734881e+02
9.907692425585988758e+02
7.101444774532714064e+02
9.060538576548925676e+02
5.764487628398297829e+02
-1.966459336498170387e+02
-1.034247529192264892e+03
-1.456371318062049340e+03
-1.287106607786212862e+03
-1.272555315911524985e+03
-1.352750002159828455e+03
-1.740689132572025756e+03
-3.115347979994701745e+03
-5.398693560577688913e+03
-5.785739546465546482e+03
-5.432555708067613523e+03
-2.548063872414644720e+03
-1.370996243919151141e+02
1.732575406107529830e+02
8.758938714501865661e+02
7.617730899026496445e+02
3.628944891965024340e+02
1.032524716751831448e+02
5.448212383625092343e+02
3.915878866135482212e+02
-1.953725836440397643e+02
-4.141954972518097975e+02
-1.121145212012369711e+03
-1.088175874160649073e+03
-9.733875468533709636e+02
-1.247842823981153288e+03
-1.474552590082681718e+03
-6.243992549730676274e+02
2.446023325829703765e+02
7.444200612260442540e+02
1.066103562520070227e+03
1.274654127811519174e+03
1.113060724473088158e+03
1.399293945150120180e+03
1.645297611653035574e+03
1.374054737212803502e+03
1.495554922271435998e+03
1.400796858930954613e+03
1.264702833074429464e+03
1.144232452290461424e+03
4.274096292229996834e+02
-4.158373744800839518e+02
-7.465010650100605289e+02
-7.816339876303937899e+02
-7.592958652885256470e+02
-7.055048248599772478e+02
-4.152528747940273206e+02
-3.655418131156617534e+01
6.247006602433201579e+02
1.142549051210202151e+03
9.799906612777464261e+02
1.224037788912085716e+03
1.234654598143203884e+03
9.556738845305043242e+02
1.039170949296908020e+03
1.228236951652766948e+03
1.165925029862044084e+03
1.286221710227551512e+03
1.387939197620755294e+03
1.442021971092450940e+03
7.405286606091848398e+02
2.244862359395702924e+02
-2.680964947260240478e+02
-6.012826740147845612e+02
-6.830274650795627167e+02
-7.513704551721515372e+02
3.365922371454736606e+01
5.500738831134026441e+02
9.639175621947504169e+02
1.120248243163313646e+03
1.218164312623583101e+03
1.086664946170395297e+03
1.120677865105054707e+03
1.340172991232873756e+03
1.552205656187332579e+03
1.453741046415664414e+03
1.242769377858462576e+03
1.456484844991202181e+03
1.308964984207307452e+03
9.701326614074672534e+02
3.849094192745035912e+02
-3.567653492246683413e+02
-2.813772906647417130e+03
-7.043062738059617004e+03
-3.713741053967697098e+03
-8.808384557142574067e+02
-2.579295421186651765e+03
-1.604129224839281051e+03
-1.903351542103220027e+03
-3.528445102187535554e+02
-9.834963633975171433e+02
6.465419439766286587e+02
-1.445868394170469173e+03
-2.034670759387301587e+03
-1.977538460325329424e+03
-2.675412210850621705e+03
-1.939435818769153457e+03
9.623874739818296575e+02
-8.558101665359507706e+02
-6.340036230886175872e+02
-1.860194395342398821e+03
-4.855172991195084364e+02
-1.299547350185625589e+02
-4.094396472058748486e+02
-2.572919392812749720e+03
-2.111569650714987347e+03
-2.715385254547941258e+03
-3.042340264578871938e+03
-2.468344895817695033e+03
-3.944451352920166869e+02
2.254055346146455463e+02
5.375346693838024521e+02
-8.301175085511039242e+01
-5.163764916558901632e+02
-1.404578956053451066e+03
-8.659638749002161262e+01
6.026836168442673625e+02
-1.267817737462843297e+03
6.687249899237938280e+02
1.372288898604224414e+03
1.295975362252008381e+03
7.967904363782921564e+02
1.838258029298003464e+02
5.413277039430736437e+01
1.265187611115975486e+01
-2.076888634254981980e+02
6.113392126781641345e+00
3.649570088078141339e+02
1.030885156132204429e+03
2.028963211700728152e+03
2.052326037838847697e+03
1.722176616458265244e+03
1.606659585868764452e+03
1.732679475295593420e+03
1.804222485949687552e+03
1.842424688931552964e+03
1.992426516155557238e+03
1.783296625784252001e+03
1.361720460324951318e+03
1.120505159452302223e+03
7.316900921830956577e+02
-5.266182181192102263e+01
-5.145018289324013949e+02
-4.519739626182322922e+02
-5.150510936045340031e+02
-8.986546008020405907e+02
-8.837406449377155013e+02
-1.271623525615001284e+02
2.510543838683502713e+02
9.748346137061934087e+02
1.407944723429591249e+03
1.733259706630569099e+03
1.625023349286064786e+03
1.694990155969715943e+03
1.746282082676447317e+03
1.728872141618390970e+03
1.746750773539403099e+03
1.476199229019676068e+03
1.090138280226680536e+03
1.171376705492104293e+03
9.668086618588904457e+02
1.165111663299297504e+02
-4.094607174651018795e+02
-4.931365552025387160e+02
-7.617777782709363237e+02
-6.995442755600005285e+02
-3.272958531300900518e+02
2.747256649537451381e+02
8.403424089430534423e+02
1.484957034292189064e+03
1.876645432734640508e+03
1.846266847433417524e+03
1.841640852789883411e+03
1.970786469846898626e+03
1.919070499502229495e+03
1.730528646839389239e+03
1.874953949303309400e+03
1.773317299663905033e+03
1.748519272470075975e+03
1.806329756907157844e+03
1.210487588036647594e+03
6.111740728546657238e+02
1.695513646990361281e+02
-1.734619742877407020e+02
-2.748524925097515847e+02
-1.988393627464664348e+02
-1.535428505264059993e+02
7.017135354919761880e+01
5.594305081302991312e+02
1.352255273316034163e+03
1.666551563253942959e+03
1.679178426936798360e+03
1.728267730112332629e+03
1.666047219212728123e+03
1.425586035786945786e+03
1.008780301392163665e+03
1.247280853802798447e+03
1.357126569937644035e+03
9.554254632733031940e+02
-3.198248772922352146e+02
-2.541622385107697937e+03
-3.081819961834057722e+03
-4.503282109478833263e+03
-6.467181400019380817e+03
-7.473751501646833276e+03
-6.673150379938799233e+03
-6.115416297971536551e+03
-5.645205735551656289e+03
-4.805328414715922918e+03
-3.836857796465951196e+03
-3.737786508528839931e+03
-3.642944364154024242e+03
-3.949876751265194798e+03
-4.249680477782020716e+03
-4.036125591209905451e+03
-7.822882799829270652e+02
1.544797727378029549e+03
1.789268911065183147e+03
1.688051375245135432e+03
1.734219070746611123e+03
1.136884980755083461e+03
2.919777829230270072e+02
1.664674627327572125e+02
1.073544540040112878e+02
7.257314292517735055e+01
5.308608657772098383e+01
3.789596846777005368e+01
6.530879187388381979e+02
9.878123874482710107e+02
1.441155337428838720e+03
1.787116664752937368e+03
1.317667152615161967e+03
1.098769285166151121e+03
8.533421691386945440e+02
5.734853567386003306e+02
3.613502891790056424e+02
5.003843894229598277e+01
7.045490300314452270e+01
2.047248423224890814e+02
-4.715030319008234017e+01
-4.613237423155648003e+02
-9.167560553034392115e+02
-8.143616169278730013e+02
-2.571008494745203166e+02
-3.219976769914869692e+02
-5.710139444077548205e+02
-8.793340664143580625e+02
-6.978566700968182204e+02
2.525335295678906959e+02
1.123788552420497354e+03
1.962935363739622971e+03
1.720077282928089289e+03
1.596202429011188315e+03
1.494317693709482000e+03
1.121540738962441310e+03
7.168967911734691825e+02
5.184703088001746210e+02
5.792918677854959242e+02
1.272335371448492424e+03
1.723648606659590769e+03
1.512204463166497590e+03
5.879872560555262453e+02
-7.868602830727311357e+02
-1.786423539672846118e+03
-2.315622891383156002e+03
-3.010322399919497457e+03
-4.587453671066077732e+03
-5.400950388103491605e+03
-3.871854882189033106e+03
-2.695047261475441701e+03
-1.860630653123497495e+03
-1.396749862096224433e+03
-1.201339697297576777e+03
-9.913424600477472950e+02
-1.031616025566697544e+03
-2.971776772250019576e+02
2.038922157250153987e+03
3.282618635182489470e+03
2.955853552572064473e+03
3.093768013275474914e+03
2.614389125430267995e+03
1.598672553861099459e+03
-1.224420367710758200e+02
-6.798336396011096667e+02
-8.644123772973916857e+02
-1.399297824783797523e+03
-1.316529856223672823e+03
-7.609539788666610320e+02
-1.760755919376317280e+01
8.125581095573002131e+02
1.344451157916691955e+03
2.012080944358409852e+03
2.530611693362683582e+03
2.794967590195334651e+03
2.673171056078914262e+03
2.454219888250308941e+03
2.252079913922890682e+03
1.815827738122784922e+03
1.813502865272747158e+03
1.339019381387578960e+03
6.722930860729343294e+02
