5.985668148944469067e+02
6.077506755537896197e+02
1.963423159293885689e+01
-1.105842490383950917e+03
-1.466709281724975881e+03
-9.279433684743114554e+02
-3.946143568163993791e+02
-5.017421978842427848e+02
-8.011703471829439422e+02
-5.628889730630282884e+02
1.070679730029011978e+02
7.067616763925528858e+02
1.140130591897551994e+03
1.307149791730046672e+03
1.282809431949860027e+03
1.349072909775443804e+03
1.032884756103275095e+03
1.693050304842820424e+02
-2.086035941310003636e+02
-2.528710680237807367e+02
1.794643355953805042e+02
7.634074575028975005e+02
9.729972367093272396e+02
2.481650749467985122e+02
-3.751190781629758817e+02
-5.378819615524886331e+02
-8.451352217185902873e+02
-1.268872032617981858e+03
-1.295102246140107809e+03
-9.827802793286399492e+02
-6.079947601929875418e+02
-3.778050547435625504e+02
1.427660187822182252e+02
1.047718341925238519e+03
1.026009779198811202e+03
4.296712850516030358e+02
4.366648747421014036e+02
-5.459884239123394991e+02
-2.081202861983612365e+03
-4.382031839055959608e+03
-4.167602508885122916e+03
-1.138901742258552531e+03
-5.939020322915739598e+02
-5.025583402462555682e+02
-1.952899346718493007e+03
-3.201023349491968474e+03
-3.542952972725895052e+03
-3.153780612003226452e+03
-2.599516285023101318e+03
-1.334198238082693706e+03
-3.288804369020653553e+02
8.044246391140159176e+02
1.428747167537920404e+03
1.858114097764661665e+03
1.485623452814628081e+03
5.810113437070225473e+02
8.711016607805410672e+01
6.512933485717663018e+01
2.511970162442418371e+02
5.211754364015708916e+02
9.069039292957188536e+02
1.148525310932421462e+03
5.950544970360175512e+02
-2.505959889406606464e+02
-7.485251079720604821e+02
-9.457756836546569730e+02
-1.073521157963482210e+03
-9.545733815162202518e+02
-3.270217202323880770e+02
8.951117589891941861e+02
2.481791259321909820e+03
2.949038408822812926e+03
2.308957877634612942e+03
1.494562543330460358e+03
9.744083456735653499e+02
8.537797714279832917e+02
8.514392156450352331e+02
6.654431290346628884e+02
7.940996389254543146e+02
9.391610637669469952e+02
7.167308186600638464e+02
2.436240814029784758e+02
-4.572150377811173030e+02
-8.125259755762220948e+02
-9.805630645499255706e+02
-9.632609042937793902e+02
-7.745559591208377697e+02
-6.477491503571095564e+02
-8.718980270766656986e+02
-3.898189297960832391e+02
3.823028147339093721e+02
1.208726797289539263e+03
1.946317187397239877e+03
2.227132539085124336e+03
1.906227122207957109e+03
1.498291598061627838e+03
1.118509501275024149e+03
4.588628102956331531e+02
5.943716603692723766e+02
8.100087036346001241e+02
1.158804317811307101e+03
1.188784754662473460e+03
7.419527546403238603e+02
-6.871656886324983304e+01
-7.111756958151861454e+02
-9.894643699741822047e+02
-7.656569391343103916e+02
-9.717470343522728626e+02
-1.539732884184481691e+03
-1.329543917621519995e+03
-6.183967878442823363e+00
1.373360892311541875e+03
2.004092671563481645e+03
3.402831929075156125e+01
-1.469851367561682309e+03
-5.225166973713681955e+02
-1.458437958972556316e+02
1.801338192081031480e+02
1.044390908864818073e+02
1.089056512590236025e+03
-6.220062928153013218e+02
-1.570728892876922828e+03
-1.800716503453758150e+02
-8.710302222535085548e+02
-2.517737850073359823e+03
-1.457186213239117478e+03
1.457405540511968809e+02
-9.671782356261844349e-01
5.069304857675355436e+01
-7.461844941470827735e+02
-2.848504452577339180e+03
-1.311314977177236642e+03
2.384105962592632011e+02
-2.508306503889249598e+03
-3.634482809085748613e+03
-2.356091387134348679e+03
-2.840043685785156413e+03
-2.322308202137885019e+03
-3.999462828833883918e+02
-1.364965721812945276e+03
-2.296327942012435869e+03
-4.910357911579022812e+02
8.489714728170553144e+02
-2.061275794924792535e+03
-2.339744826721106620e+03
-2.046486794347297973e+03
-3.675224036758919510e+02
8.831519190087702782e+02
8.485800372099749893e+02
5.218460049840446118e+02
7.870201135243896715e+02
1.000073835311487642e+03
1.153959234037071383e+03
7.976947492895736787e+02
3.054189877843143677e+02
2.570963393151552054e+02
5.407158059327737192e+02
2.693635470178627997e+02
4.030374585742541171e+02
1.177747728074745282e+03
1.275536438646641955e+03
1.243472314330445670e+03
1.293526607898412067e+03
1.361667517708807736e+03
1.496952150538998239e+03
1.212366505892244049e+03
4.959589628485053936e+02
1.927785350512988884e+02
-2.241115925883068769e+02
-3.550284173800384480e+01
5.064777009602689191e+02
1.754765740714674166e+03
3.054417250739467363e+03
2.592575316788657801e+03
2.041127723352425846e+03
1.955090128615120648e+03
1.039371074963498813e+03
-1.166364449782069869e+03
2.162336593377717975e+02
7.573915203647677572e+02
9.030457878679283112e+02
4.720916468521646152e+02
6.367194574591713945e+02
8.929411201346591724e+02
1.186697183872661981e+03
1.668592464467978289e+03
2.212110435891755060e+03
1.898075508732771141e+03
1.391622391376945643e+03
1.202803453421252243e+03
1.879537641217507371e+03
2.488031041270140122e+03
2.577119300504156399e+03
2.255834297012496336e+03
1.771900372547261441e+03
1.179489685140204529e+03
9.554405611556557005e+02
1.037626866022098966e+03
1.128311426726846321e+03
1.343300628365032026e+03
7.746313238513546366e+02
3.092793139264057913e+02
1.121309575089227053e+02
2.574573487573306352e+02
-1.798132336001636418e+02
-6.157032335600563329e+02
-1.028324967049113411e+03
-1.182674447931119175e+03
-9.157054547957768591e+02
-8.574744889916611328e+02
-1.556904823087124896e+03
-1.462997402428383339e+03
-1.265797287789190477e+03
-6.433357325207672375e+02
-2.506871242460353812e+02
-3.087027772435329709e+01
2.950919031438613160e+02
7.318128800180716098e+01
-5.575769767804696357e+02
-2.541001739014396037e+02
1.035339934434724114e+02
-2.586040880796464307e+02
-2.604875566881464124e+02
-2.415287683575453315e+01
-2.335897175454183241e+02
-1.348217571774883652e+02
3.051291633461652850e+02
4.991204787087316959e+02
1.680980602615387340e+02
-1.088885593668701404e+02
4.141613209977887777e+02
1.259247352530178659e+03
1.868384342363319547e+03
1.793550020736844090e+03
1.369739543658903813e+03
4.349707053806184831e+02
-1.357580588436098594e+02
6.522295609291753671e+00
6.716821904915822188e+02
-1.972825640906306148e+02
-1.744259583689691226e+03
-3.999175617144588159e+03
-5.878074221218249477e+03
-6.577103729689317333e+03
-6.824222599395227007e+03
-6.824475163880300897e+03
-5.754888397320890363e+03
-2.161469056774747969e+03
-4.442266972562408114e+02
4.778762164159555823e+02
1.469874737101411029e+03
2.538747173440553070e+03
2.758519720282239177e+03
2.547264827435160896e+03
1.818993712933442112e+03
1.101589183317135621e+03
1.111928051713669674e+03
1.787986186155667610e+03
1.928891762374341852e+03
1.776687633122681063e+03
1.423477739010065079e+03
1.342302852367375635e+03
1.039979041322405010e+03
3.224860113113593911e+02
3.239737696517530026e+02
4.005207592685375175e+02
5.130523678573749748e+02
9.774691903303081517e+02
7.558245131932220602e+02
6.771655934469797558e+02
6.805346125937837769e+02
8.529214858436216673e+02
5.742833211237190199e+02
5.346995433336995802e+02
6.301662938610430729e+02
5.726613087504493933e+02
2.352123015257648433e+02
-2.862366854477133415e+02
-6.086425791226321280e+02
-6.399637982669750045e+02
-5.141426496970509561e+02
-7.351281290478369783e+02
-8.239064882576143418e+02
-7.934276167247719513e+02
-5.466195932705398945e+02
4.547595520886810050e+01
1.286138333685022772e+01
-3.795281017103480394e+02
-2.946668203808005160e+02
-2.505756641512278691e+02
-3.682409707380726331e+02
-6.714844484111388283e+02
-8.461949070933044368e+02
-6.494403192703643981e+02
-3.561224847293733546e+02
-5.961593879804607923e+02
-1.136519992052975113e+03
-1.582190989416781576e+03
-1.839158512022747573e+03
-1.046242663130724623e+03
3.232828318495395337e+01
6.617086229154241437e+02
1.041971109007767609e+03
2.040422127161706101e+02
5.378277894484144639e+01
-6.796632571032448311e+01
-1.069080108134962984e+03
-1.247316374837772400e+03
-1.358873126449948359e+03
-6.978191007311220062e+01
4.130834028629510044e+02
-6.814047986026083947e+01
-3.853160649455961106e+02
-7.243306882723075546e+01
4.574235421702508688e+02
5.583639159691780378e+02
4.535317150503064454e+02
-3.707768749355678040e+01
4.860630541364717772e+01
3.639017850369505140e+02
8.017589460943484028e+02
7.418712042012388110e+02
1.929905230940012117e+01
-3.129830086313838251e+02
-3.710054895100684575e+02
-2.659387755931027186e+02
-4.628639578280422597e+02
-1.018672802858841806e+03
-3.151951460188226974e+02
5.846317808197595696e+02
4.181706429737423036e+01
-2.856988301255521492e+02
-1.036129938742447393e+03
-1.543638591988895087e+03
-4.531502316936266084e+02
2.234661320848140349e+02
4.271258714755352344e+02
-9.528154413877678053e+01
-2.147808937316542881e+02
-1.233401096344256160e+02
-3.329299411839176628e+02
-4.925947025531824011e+02
-7.501921835892248964e+02
-2.047733670003197801e+02
-6.054317873418467570e+02
-8.892379823187136481e+02
-9.792486369657815430e+02
-9.045192666601011524e+02
-7.510580700828651288e+02
-2.868450098803284618e+02
-1.558142491564940428e+02
-9.890716454345950126e+01
6.085967804859062369e+01
-4.354464955188999511e+02
-3.947325986296233395e+02
-6.040748788736403867e+02
-8.165295724793334102e+02
-9.801323869494425480e+02
-1.141822286474354087e+03
-1.400574869342609873e+03
-1.019339248821252568e+03
-5.790675844776424128e+02
-5.158170867314338466e+02
-3.746550469056214752e+02
-6.775580096207139604e+02
-8.934808548205824081e+02
-1.100437508242803460e+03
-1.379497229810590170e+03
-1.591734674105775639e+03
-2.071240398854469277e+03
-1.889699063336190648e+03
-1.208829389511396585e+03
-1.107706224538692084e+02
1.665212095630720341e+02
-1.072374121713317123e+02
-4.348112739292063225e+02
-8.053227074896858539e+02
-5.464689059741428991e+02
-5.543188618722067531e+02
-8.159942738407444267e+02
-1.358543888247997756e+03
-1.475765013282006294e+03
-6.988727948034874089e+02
-8.377947180209285989e+02
-1.292434786506529235e+03
-1.393832015332389801e+03
-1.223999861293659706e+03
-1.567674312247401531e+03
-1.547151243263350352e+03
-5.323073678588190205e+02
1.331452434298518028e+02
2.983285272448634942e+02
4.977960662646329411e+02
6.947773746251059492e+02
8.994445279815852246e+02
9.364336098383248554e+02
6.909455425763202356e+02
3.561279869290796114e+02
1.974806413330495332e+02
1.591997163058701119e+02
4.885687870695585389e+02
1.324049584548318990e+02
5.417480146867734447e+02
9.033056008342500718e+02
9.161421193304437338e+02
9.512584270246451297e+02
1.394633528620580819e+03
1.215109798237135010e+03
1.094644707037604803e+03
9.532286106084306994e+02
1.274863459457573072e+03
1.392508588933557121e+03
9.121073797062703079e+02
9.876094365252463376e+02
8.469787248212214763e+02
8.821229384792064820e+02
9.018942329588874145e+02
9.982690474686742164e+02
1.280178398864833980e+03
1.144494363425412530e+03
1.224068932796904392e+03
1.169894315075770919e+03
1.255907310013331426e+03
7.231028913274834622e+02
-8.658108524858352695e+00
1.175520184163202941e+02
-4.043890251688162039e+02
-5.506314730444910310e+02
-8.339070981903282131e+01
9.012990682590658480e+02
8.084253471528697901e+02
5.958188978754247955e+02
6.732389482876379816e+01
-1.724062537051279151e+03
-4.252805148770343635e+02
-3.536459669732830662e+02
-2.606303108228454676e+03
-4.746430474639989370e+03
-4.227152494636552547e+03
-3.106694003787584279e+03
-2.041162673185302765e+03
-4.359695623608532514e+03
-4.175447141845720580e+03
-5.662588238003628248e+03
-4.020180877227774545e+03
-3.202354891120065531e+03
-4.073244673804834747e+03
-1.814999416533879639e+03
-6.518287642114357823e+02
8.961220551692937306e+02
-1.089215975559911385e+03
4.761196974319966557e+02
2.550404576201373459e+02
-8.666661159541677080e+02
8.327914918101283774e+02
3.892751361334460398e+02
5.306305048969696827e+02
8.867906424208101726e+02
-1.105378977055849873e+03
-1.820550429151366529e+02
5.686090771094058027e+02
1.031493250473848548e+03
9.904202532365944762e+02
9.332745033043671583e+02
1.186959882237900047e+03
1.384309001135706012e+03
1.860239761313693180e+03
2.282720404260882333e+03
2.521545112089767827e+03
2.921577571338313192e+03
2.853687104900453051e+03
2.965778507927460851e+03
2.894814332624546751e+03
2.889696302163005839e+03
2.461356240424530824e+03
2.866746731668400571e+03
2.301721727512935558e+03
2.263200385151685623e+03
1.936100994862592188e+03
1.873318627523427040e+03
2.651772078875191710e+03
3.249454025217130038e+03
4.148303488772072342e+03
3.799247714571168672e+03
3.335246095907923973e+03
3.677264043620950360e+03
3.829235073944228589e+03
3.939231585237196214e+03
4.101112986248216657e+03
4.140756645315217611e+03
4.115261069642339862e+03
4.454778224628706994e+03
4.721460662146750110e+03
4.838365818664635299e+03
4.207443472871409540e+03
3.701623502808096873e+03
3.990075624128196978e+03
4.795900520314233290e+03
5.188220499858493895e+03
4.889158182395585754e+03
4.701632997274735317e+03
3.994699688086135211e+03
3.770468551069549449e+03
3.391028121998676852e+03
2.338162650891768408e+03
1.779866909577362094e+03
1.521188519219231466e+03
1.269177890657728085e+03
1.570914884347495445e+03
2.764623062249564100e+03
4.037438721403824729e+03
4.143551589430777312e+03
2.728132594969596994e+03
1.184268694484309890e+03
6.280911121247073652e+02
-2.382055160332183164e+02
-7.174751648443677823e+02
-9.660108747393671536e+01
-9.654615805414736087e+02
-2.276866386077172137e+03
-2.492550399583737089e+03
-1.960375430179534987e+03
-1.831158142563016781e+03
-2.579636647932089090e+03
-2.751645371623389110e+03
-2.422995309810901745e+03
-1.707461931904417042e+03
-1.250827188437666791e+03
-1.314906654296920351e+03
-8.433126036129887098e+02
-1.243853331628593423e+03
-1.880446990875906067e+03
-2.144789267225925414e+03
-2.887580952183867794e+03
-3.082617861019933116e+03
-3.240621281300526789e+03
-3.968298264396704326e+03
-4.480476413286070056e+03
-4.771964156823006306e+03
-4.893518657448120393e+03
-4.482834356219101210e+03
-4.427678833264065361e+03
-4.145820897721021538e+03
-4.828954066050685469e+03
-5.695798624171795382e+03
-6.986147154575827699e+03
-8.126793559129870118e+03
-8.245444034623444168e+03
-7.855816599057802705e+03
-8.096707186397066835e+03
-8.595841678127100749e+03
-9.403912876127478739e+03
-1.181561198720294124e+04
-1.253768723511750977e+04
-9.896943375095841475e+03
-6.463105166608528634e+03
-6.139022040081301384e+03
-5.754462741758986340e+03
-4.682206403841139036e+03
-3.885018112380315870e+03
-4.364565918129005695e+03
-7.331643423234533657e+03
-8.595992695423490659e+03
-6.970336687532275391e+03
-7.674539992436748435e+03
-9.757359097578475485e+03
-1.106772050230120658e+04
-1.207839513666980019e+04
-1.258213524024124490e+04
-1.323773819046373501e+04
-1.529800133346707116e+04
-1.650876209808285785e+04
-1.621780304720063759e+04
-1.609392976588043712e+04
-1.537094761744025891e+04
-1.107472969986326461e+04
-7.113134737642551954e+03
-6.606014529818295159e+03
-5.099164403499133186e+03
-3.752389096666727710e+03
-2.417611357831599435e+03
-2.740748006577735850e+03
-3.636619763201234491e+03
-2.600138675691409389e+03
5.383626365311383211e+01
2.923320754121614755e+03
6.192375464500672933e+03
9.563211094450980454e+03
1.103782751861356519e+04
1.057734149737839107e+04
1.074881107965843876e+04
1.318313871235770057e+04
1.510043415180595912e+04
1.547971740623528058e+04
1.517211965236589822e+04
1.476862366639274842e+04
1.488119716155372043e+04
1.448089613701763665e+04
1.623473426882860076e+04
1.798767285877108225e+04
1.887059362031350247e+04
1.857055709910741643e+04
1.820457013262604596e+04
1.743556165925521782e+04
1.661045410098723733e+04
1.594717713768826070e+04
1.565565125272469231e+04
1.540880427160986255e+04
1.459353694929212179e+04
1.440075266546685089e+04
1.501344913806970362e+04
1.549352174084635953e+04
1.541086489631178665e+04
1.499038467593595851e+04
1.500993637423564360e+04
1.475742679947299621e+04
1.454772485156293988e+04
1.493861299723395678e+04
1.487195121996153830e+04
1.435359932323503017e+04
1.352534966672635164e+04
1.256902333781749621e+04
1.194646832178374461e+04
1.160951807201486008e+04
1.051501815297033136e+04
7.144804318170474289e+03
4.153661773477130737e+03
4.358352178996537077e+03
5.247612499885106445e+03
6.561210687929304186e+03
4.087993039985723954e+03
3.882774666503240951e+03
3.124348848103390083e+03
3.370522353024495260e+03
3.127005781419890809e+03
3.770611469178693369e+03
1.604108167816710875e+03
3.363092705251748384e+02
-1.454056448841262181e+03
-1.665336357726401729e+03
-2.292724288153852740e+03
-3.446441561139974056e+03
-6.206739858577626364e+03
-7.798868998557166378e+03
-1.009606936794172179e+04
-1.072558045199765729e+04
-1.235076243939227788e+04
-1.129384412285547660e+04
-1.361006595369817478e+04
-1.500469444433954413e+04
-1.295896137472462942e+04
-1.350510708906060609e+04
-1.421532896530418657e+04
-1.296684798350854180e+04
-1.519188557210375984e+04
-1.495870957727574205e+04
-1.527956634585833490e+04
-1.550673318486059907e+04
-1.415639646092372095e+04
-1.439587053877952894e+04
-1.334047854314514734e+04
-1.275338159678702687e+04
-1.215682436157483608e+04
-1.246700776580947786e+04
-1.288001767455708432e+04
-1.293205862455370698e+04
-1.291140285974582184e+04
-1.305431586819202494e+04
-1.288998771162949743e+04
-1.220155061157114324e+04
-1.162918803343672153e+04
-1.091310850301581922e+04
-1.035748247921965776e+04
-9.653550143602355092e+03
-8.878414152994197138e+03
-8.602260323542432161e+03
-9.293299155113560118e+03
-9.063800624012690605e+03
-9.030864602181496593e+03
-8.493581415336057034e+03
-8.269080474380096348e+03
-7.979495962143368160e+03
-7.400077086059989597e+03
-6.960899705756690309e+03
-7.068016849175274729e+03
-5.814590396738859454e+03
-4.780764059866178286e+03
-4.669612285641337621e+03
-4.829266893703415917e+03
-4.589866832112687007e+03
-3.711038801059991329e+03
-1.547184768320254079e+03
1.908337437816834097e+02
1.225016192216715126e+03
1.818247214141564655e+03
1.730365470759663594e+03
2.035372675990661719e+03
2.393039128291923134e+03
2.791687834527946052e+03
2.902164267268961794e+03
3.084533187741059464e+03
2.975599369274596484e+03
3.039171168702200703e+03
3.931547323642353604e+03
4.061428988705515167e+03
3.542815319055138389e+03
3.289717242029163572e+03
4.051510853789004614e+03
5.407789044940994245e+03
6.304782656359212524e+03
6.695581570408976404e+03
7.168001568922449223e+03
7.653391354714616682e+03
8.293676484054120010e+03
9.045895925578161041e+03
9.557280814770094366e+03
1.026369461368999873e+04
1.059620302423835528e+04
1.015782703021354064e+04
9.628649591728179075e+03
9.551779978063337694e+03
9.266282653112099069e+03
9.240232265212127459e+03
9.480710676040527687e+03
9.245790225208891570e+03
8.717582225157992070e+03
8.290213838337062043e+03
7.738790739840733295e+03
7.828435017357509423e+03
8.109247108463997392e+03
8.209299638488160781e+03
8.340754789318829353e+03
8.623738738809932329e+03
9.146422199985561747e+03
8.911865380197510603e+03
8.468263230165366622e+03
7.981718150335158498e+03
7.638282061239165159e+03
7.459102861857314565e+03
7.379223144918356411e+03
7.162854260347532545e+03
6.336211984386822223e+03
4.750368249876582013e+03
5.132417674412708948e+03
4.457443352901586877e+03
1.941622054823407552e+03
-4.638915222856472269e+02
-1.809963808551612374e+03
-2.177508599553029399e+03
-1.776437939690171788e+03
-1.483567011405211360e+03
-1.745690767915256174e+03
-1.795671065715337591e+03
-2.028431867383223789e+03
-2.504787017188481059e+03
-2.171596366996679990e+03
-2.705745618292613017e+03
-3.043178719896996427e+03
-2.520677611846622767e+03
-1.361529025617758180e+02
2.305487353526155857e+03
2.870409000904441200e+03
2.503718744391693690e+03
1.742571719450025057e+03
8.240264680339085999e+02
5.360347545870185968e+02
-3.633907073604999738e+01
-5.269717050901233506e+02
-7.487271770694048882e+02
-1.013413207953073652e+03
-6.278703777424040027e+02
9.198101268726803426e+01
5.962842305918859438e+02
3.341145098125385857e+02
-3.834873632457036479e+02
-1.327394430440244378e+03
-1.863459216160842288e+03
-2.475678385903448543e+03
-3.221066939384592388e+03
-3.084592033145769165e+03
-2.876140597195384998e+03
-3.546663526163676124e+03
-4.037154142186260287e+03
-4.494562066826566479e+03
-5.336817924911771115e+03
-4.490876168846776636e+03
-3.636739402141435676e+03
-4.513319882347631392e+03
-4.742571189743894138e+03
-4.466475423175853393e+03
-4.942911588321794625e+03
-4.894907175614303924e+03
-3.807438080028618515e+03
-3.266438719376893459e+03
-3.794851599433893625e+03
-4.472671550202274375e+03
-4.423897724284130163e+03
-4.373612044037817213e+03
-4.127820297515648235e+03
-3.690562414792233540e+03
-3.255765566438118185e+03
-2.918406489207874984e+03
-3.263448256947416667e+03
-3.374863981268991211e+03
-3.437707458426297762e+03
-4.235021014617533183e+03
-4.592831969318152005e+03
-4.125179746083100326e+03
-3.333084211613065690e+03
-2.795235534151991033e+03
-2.973644720772307664e+03
-2.720590298210356650e+03
-2.540061663559677072e+03
-1.905940251853354994e+03
-1.674521863654466188e+03
-1.600905822022541088e+03
-1.594131144378298814e+03
-1.369162657150541236e+03
-6.918531601826825863e+02
-2.573181443178049790e+02
-2.208401324815143880e+02
2.266981999181659830e+02
5.164139422541968543e+02
5.132965743230759017e+02
1.730505483924044086e+01
-5.426037191317983570e+02
-4.544072249044402838e+02
-3.859504766012216805e+02
-2.293448427015389086e+02
-5.585055646254171791e+01
-6.656828733988388080e+01
-9.262260659085806935e+01
-1.122932129518427189e+02
3.357875940351989774e-01
4.453561816187093996e+02
9.196592414343774635e+02
9.631703851504420300e+02
6.058987401612733947e+02
1.192969859055680445e+03
1.210370977540534795e+03
1.214834156708462160e+03
1.459224074444415464e+03
1.788546450937450345e+03
2.483589702889021737e+03
2.374145665383151027e+03
2.299297005328079649e+03
2.260190110659522816e+03
1.921692445314839233e+03
2.236598500753923418e+03
1.983886240955937410e+03
2.280664765267207258e+03
2.469988371142418146e+03
2.289854851144685654e+03
2.451290802486157645e+03
2.919347791844076255e+03
2.956787033428900941e+03
2.518599318224255057e+03
2.186793058714967174e+03
2.414392088552352106e+03
2.474417455280689410e+03
2.358906030932562317e+03
2.174902746107176426e+03
2.204457995034549640e+03
1.986544346397717163e+03
1.390174184932435764e+03
6.534173705799385061e+02
2.772470195476295203e+02
3.195667656036955009e+02
1.383718506962048309e+02
1.907035538750970431e+02
-3.234926127828040876e+01
2.052098827844047833e+02
4.564901265392424534e+02
4.774756324375019290e+02
8.781196834722900348e+02
1.313446728136150568e+03
1.365519478759864114e+03
7.734101299254471087e+02
3.801389017786010527e+02
3.669454931252570873e+01
-8.596606847380614624e+01
1.721645621722102248e+02
-1.594482954221910802e+02
-4.077382057410750917e+02
-8.588989201830805769e+02
-1.014013289929499479e+03
-1.057152706716912007e+03
-1.258909765109015552e+03
-1.455757731513612953e+03
-1.394456475982200573e+03
-1.507057196310419613e+03
-1.271614132144842415e+03
-1.248940395439698477e+03
-9.130633317457969724e+02
-5.456584121600101298e+02
-4.897354324641945027e+02
-6.296320625417666861e+02
-9.050724176260216609e+02
-1.008846863824884394e+03
-8.430144363158701708e+02
-1.113628020186181402e+03
-9.407470817307648758e+02
-1.039196032489372101e+03
-9.989348142483988795e+02
-1.261360334927539725e+03
-1.768025328245272931e+03
-2.130173759639263153e+03
-2.434895692417912414e+03
-2.272193143758618135e+03
-2.067719397069122806e+03
-1.667861657063415123e+03
-1.400345982682954173e+03
-1.030158857050285178e+03
-6.544433828243269318e+02
-2.180233987764717938e+02
5.066668389926895344e+01
-8.991144873375200177e+02
-1.497372189482749263e+03
-2.551168078713838895e+03
-3.098589443676897190e+03
-2.558668135931722645e+03
-1.709441047998029035e+03
-1.596932571007652086e+03
-1.778124530245993810e+03
-2.019002640445192128e+03
-2.123589343387004647e+03
-1.550903996128781728e+03
-1.368943962311464247e+03
-7.548140002068679451e+02
-8.755229963324751452e+02
1.248858557751440088e+02
1.450347904296981369e+03
2.032917110932250125e+03
1.386675141482825211e+03
1.182511493657464825e+03
1.928355692947156285e+03
2.306092362554493775e+03
2.412816511435368739e+03
1.696572934891746854e+03
6.792627429502534824e+02
6.528612557655856108e+02
6.404426081899539440e+02
8.828594360943550328e+02
4.640550404886092792e+02
-8.429706884001597018e+02
-3.809206761746555912e+03
-2.782638271276012802e+03
-2.823337622853378434e+03
-1.029529322546499088e+03
-7.881897825511656492e+02
-1.876258046561728861e+03
-2.104688225381349184e+03
-7.614168568270840751e+02
-1.562525291041813034e+03
-1.426016921990051742e+03
-5.708921008286590677e+02
-2.891039215970655505e+02
1.069361659963615921e+03
-4.084699140956503243e+02
2.054041128059172365e+02
3.799153584529198611e+02
-2.559030365935676343e+02
-2.760673623468466644e+02
8.353539934155230640e+02
-8.868700872292461668e+01
-1.832228772264767542e+02
-7.532668616531324233e+02
-1.500798483464519904e+03
-2.827611582971854318e+02
6.782022992641331882e+01
5.959300468800842054e+02
8.606041832422902189e+02
1.429906901747078791e+03
2.189809799131230193e+03
2.268323354023845695e+03
1.942568703015615256e+03
1.900579309128231444e+03
1.928303823112859163e+03
1.756796084288613656e+03
1.796032276786711236e+03
1.565952233066029294e+03
1.322592127133377062e+03
1.640987371248277896e+03
1.557166175426865038e+03
1.853245477845306141e+03
1.867183796468948685e+03
1.332950289853074082e+03
7.556307407522926951e+02
1.066214318073556342e+03
1.066685694533605556e+03
6.580611289605816410e+02
7.853424870353951519e+02
8.545549417778584029e+02
9.147412256975948139e+02
1.287876788702232261e+03
1.064052968634409808e+03
6.142469875143771105e+02
1.022448846129728963e+03
1.582665817474600772e+03
1.621089523067348864e+03
9.386896283971618686e+02
8.087703511347509675e+02
8.604666212097321250e+02
8.764991099958369887e+02
6.907091732881037842e+02
-1.886383164785006556e+02
-6.575089746963271864e+02
-1.108883304237653874e+03
-1.602715425553125215e+03
-2.145031523318459676e+03
-1.222875290330883445e+03
-1.072074636245507833e+02
4.169440501038890829e+02
1.726784938704944921e+02
5.660902355511923361e+02
1.067947149361974198e+03
1.098864679069339672e+03
9.230240979009241755e+02
9.586689042060855854e+02
1.924868401848371150e+03
2.426421401965334553e+03
1.495292006368960983e+03
1.002450220501294666e+03
1.191915270845753639e+03
8.877015802609400907e+02
-8.251002969994154057e+00
-7.649188040902604371e+02
-1.056298049519796677e+03
-1.143397304130840894e+03
-1.107303427916733199e+03
-3.230041254758028231e+02
-2.803824490270195611e+02
6.463966988472354558e+01
5.980126982694317803e+02
1.038732238322684680e+03
8.407976536104614524e+02
3.011384452456208010e+02
4.472499398232141488e+01
-3.483609273200193002e+02
-2.261104327143623038e+02
1.674124627086150099e+02
1.861723355946830054e+02
2.669893481687990402e+02
1.378527651619857579e+02
-2.670415796280635732e+02
-6.867711003399531364e+02
-5.494096348456444048e+02
-6.439055701679301364e+02
-7.302491180316860664e+02
-9.276163954497038731e+02
-4.920152709300238030e+02
1.156497558806171639e+02
9.334733795926940729e+02
1.369347351237526254e+03
1.479189476878605092e+03
1.346029334699825313e+03
1.115866382301859176e+03
7.876266709769769250e+02
2.043239732556475019e+02
-2.019788432231126194e+02
-3.513358085481240778e+02
-3.218090495027461770e+02
-1.139334072931427727e+03
-2.923893937902706057e+03
-5.807532006098548663e+03
-7.005325207869391306e+03
-6.917283563358325409e+03
-6.387305937274452845e+03
-3.308441468626369897e+03
-1.317823676415578404e+02
2.555487981370828834e+02
7.746188941089044420e+02
1.326414106348022642e+03
1.643926517937138897e+03
1.369136929952903301e+03
1.168002618664004558e+03
6.745327248145988506e+02
-2.032200955430170950e+02
-1.047266044908318008e+03
-1.334611577250172331e+03
-1.712262776422203160e+03
-1.863216085989707608e+03
-1.439489671141794815e+03
3.387920792626430710e+01
1.471906319629881864e+03
1.790631607622594856e+03
1.299078582847658026e+03
3.392119842431689563e+02
5.149383113001071024e+02
1.028299293887467911e+03
3.843148144839266820e+02
-4.052614300458174945e+00
-7.848147460371947091e+02
-7.179287351127201191e+02
1.068253961521394046e+01
4.579565708846131429e+02
-1.550763760747889535e+02
-3.141499180260956692e+01
1.775965006730165214e+03
2.836998014162708387e+03
2.671656163035524060e+03
2.596993075753957783e+03
2.923985940493474573e+03
2.381675078010976904e+03
1.917117352290832059e+03
1.294250807322186574e+03
8.781384143906337840e+02
5.317962006626752327e+02
-2.173134453009180334e+01
3.295143908573957106e+02
1.028549732963075030e+03
1.185340332995203426e+03
1.852947478822762605e+03
2.284425760852775056e+03
1.937809638035790158e+03
1.610061324153614578e+03
1.062183649697124793e+03
6.591906506900692193e+02
7.791565301403036301e+02
7.390143803189405389e+02
7.527864071194701410e+02
8.896032296279474849e+02
1.124544795536133734e+03
8.735902141138437855e+02
3.476494935096557697e+02
-4.782691020287327888e+02
-8.871234297918173297e+02
-1.222892434382723877e+03
-6.006188406971210725e+02
-2.582669221398103332e+02
-3.819275488705481170e+00
-1.625122393486487837e+01
5.044655568016086988e+01
4.052834643238718400e+02
5.103163467177890880e+02
3.885557691050591416e+02
-4.650672699135633366e+02
-2.805487933912222161e+03
-2.518492765293584853e+03
-1.922168720846252882e+03
-9.615799118322273671e+02
-1.747277773645692776e+02
4.243857197365741172e+02
2.512840846918727038e+03
2.596889157350047981e+02
-7.711731479464046402e+01
-3.666107455130955373e+02
-2.284745932546551103e+03
-1.112544956504340689e+03
-3.633027163736945113e+03
-1.765219735562539427e+03
-6.801226188310431553e+02
-2.868639821764385033e+03
-2.354746064035840845e+03
4.495404765479910338e+02
7.262624080290349866e+02
9.604298300772264838e+02
-1.022920203253374325e+03
4.821201044978228083e+02
1.589556598114480039e+03
2.214134449729334335e+02
1.056778743714383381e+03
-8.793320042705088326e+02
-5.739805227846020443e+02
-2.864253428389388773e+03
-9.931816493144000333e+02
-1.831714765000028592e+03
-2.893823351854250632e+03
-1.411518078973584579e+03
-2.093824694780681511e+03
-1.797608807374760431e+02
-1.947339355938787094e+03
-1.903483925048984929e+03
-1.220604658526002737e+02
1.197864436912311476e+03
2.028243415353409091e+03
1.857080132306341056e+03
1.082345905476058761e+03
2.810020398548567186e+02
-1.909509788682118199e+02
-5.765396444021366733e+02
-8.277814478039789492e+02
-4.806997683743036873e+02
2.986563970507291401e+02
3.563682593505967020e+02
5.383784797610372834e+02
7.256704435864656944e+02
5.421943861167275145e+02
9.048781663107882878e+02
1.628653951420034673e+03
2.151541962963822243e+03
1.830603570792772189e+03
5.919572977675222774e+02
3.486175220880614916e+02
1.050629974459670393e+03
1.168034168781990275e+03
1.143838633243667118e+03
1.820983978706292191e+03
2.450467743535200952e+03
2.706281661113609971e+03
