2.748084469636927224e+03
2.881449920623962043e+03
3.430398335213872997e+03
3.697035110850692490e+03
5.211655386837872356e+03
5.931171177506479580e+03
5.330973997042412520e+03
5.576950562705274024e+03
5.854338090413378268e+03
5.387244010052336307e+03
5.541576867593847965e+03
5.707335617282398744e+03
4.951619022700140704e+03
5.341410268366339551e+03
6.798799635145728644e+03
7.155914445523300856e+03
6.453859156077713124e+03
6.049346026076818816e+03
5.387771546698239035e+03
4.583996170045388681e+03
4.621631458480858782e+03
4.755896353194996664e+03
4.597876764002696291e+03
4.413453672638462194e+03
4.881072840932789404e+03
5.576603868146366949e+03
5.513141162579002412e+03
5.047120155158149828e+03
4.585803179297756287e+03
4.502519111541770144e+03
3.827264560624072146e+03
3.145252265452900247e+03
3.723057871182779309e+03
4.527006492269211776e+03
4.284187882321546567e+03
3.670619369048652061e+03
3.542083510074778587e+03
3.310006527017927056e+03
3.438457096546247612e+03
3.537134092572030113e+03
3.125131351663965688e+03
3.003855090779355123e+03
2.679489525673846401e+03
2.490605646556033662e+03
2.416133490791228269e+03
2.298008931211726576e+03
3.280815142943379669e+03
2.968021586879794995e+03
2.352707723715706834e+03
1.544105427781743856e+03
1.208828690605988641e+03
9.674882532510529245e+02
2.773124036628822068e+03
4.485896841378890713e+03
4.912214943180895716e+03
4.135428989798641851e+03
3.891836114359774456e+03
4.024621327114521137e+03
3.416097591290498258e+03
3.327545078559983267e+03
3.271220437763312930e+03
3.231479028865565397e+03
4.064598395958044421e+03
4.243788700475543919e+03
2.814318655380048767e+03
8.405889202639522182e+02
-1.875049572069392070e+03
-2.703314491972545056e+03
-2.627796133433386331e+03
-2.558134307829642239e+03
-3.537111005476873288e+03
-4.191382952494635902e+03
-3.875655624669042027e+03
-3.701597791133026931e+03
-3.972774736212394146e+03
-3.999032319521987574e+03
-2.402251895928289287e+03
-2.782158062727860397e+03
-3.684422637914003644e+03
-4.269576739798518247e+03
-3.078548234268281703e+03
-3.953316688387265458e+03
-6.283878745025313947e+03
-5.863162364524489931e+03
-4.526940589288475167e+03
-3.182996554848719825e+03
-1.899189355973373949e+03
-1.431357409802566963e+03
-3.295240462617010508e+03
-1.910642441388964926e+03
1.893381544655403843e+02
-1.062385206553634305e+02
-2.561419427826091919e+02
-8.841845000882995009e+02
-1.500074548769782950e+03
-1.670688211005659468e+03
-2.025915571807537845e+03
-1.850541096804960262e+03
-1.759305420475128585e+03
-2.066057951608967414e+03
-2.079752256049751395e+03
-2.411247418017234395e+03
-2.738362381204956364e+03
-2.935949636552302309e+03
-3.323822189450100268e+03
-2.981927551159843460e+03
-2.325033062671026983e+03
-2.613886024422812625e+03
-2.130283864401854771e+03
-2.044040012516043362e+03
-2.357101089276115999e+03
-1.957370529423373227e+03
-2.082828466631201081e+03
-2.736351613394945161e+03
-2.986989367436815883e+03
-2.952773837796689349e+03
-2.650655198928576738e+03
-2.861476326436034014e+03
-2.558213101942772028e+03
-2.128870084424386278e+03
-1.903437800423205090e+03
-9.699050251522008921e+02
-1.229528643003545341e+01
-8.255527569538534181e+02
-1.659762847879442234e+03
-1.422915434842544300e+03
-7.300690510544581002e+02
-3.722690830134870907e+02
-6.614544174870312645e+02
-1.010666504238236257e+03
-1.254115189463963816e+03
-1.799739681259512508e+03
-2.731138152057015304e+03
-3.540049729457184185e+03
-3.998686672857231770e+03
-3.923987564840289906e+03
-3.853995791571250265e+03
-3.289859892905978086e+03
-2.051528170000183309e+03
-2.174023286597324386e+03
-2.702598350802797540e+03
-2.933483345353681216e+03
-3.456592439424910481e+03
-3.238210525688150483e+03
-2.646471240022472102e+03
-2.353435219776519716e+03
-1.984122578779944206e+03
-1.872458479668894597e+03
-2.047596094106730334e+03
-2.437739658566151320e+03
-2.696007878628880917e+03
-3.568438205846286564e+03
-4.084158571264471902e+03
-4.129266562330468332e+03
-3.890867523773699759e+03
-3.944126817140323055e+03
-3.666073390841124365e+03
-2.957790596414937227e+03
-1.999539627171937127e+03
-1.456528141781522891e+03
-8.597928301275712784e+02
2.405707210965004492e+02
4.423626268166934210e+02
-5.356794502684196146e+01
-4.003374445865995312e+02
-1.180445831782843271e+02
4.718698878484449466e+01
-7.098585132812344227e+02
-1.983705697279589515e+02
9.095196228514444101e+02
1.212649234026519707e+03
7.038148721026177554e+02
5.828331340706191668e+02
9.333676301148067296e+02
1.317164644795286449e+03
1.752078481596822940e+03
1.965889727057645587e+03
1.868316025046548020e+03
2.249091970102431787e+03
2.290036950408667508e+03
2.204005252676800410e+03
1.789844856245875008e+03
1.510283663998638303e+03
1.407088529023952105e+03
1.502072675431186781e+03
1.691934791166312380e+03
1.928444971708355752e+03
1.898430154322195676e+03
2.114594393263465463e+03
1.897754098633782860e+03
1.106557976825982678e+03
3.677293476370328449e+02
5.089109803068187148e+02
5.866665025815859735e+02
3.937059340019688420e+02
3.369351833465383947e+02
2.391109341842558536e+02
1.318674196272094832e+03
2.856225080915366561e+03
2.825505848480835539e+03
2.358259322958953362e+03
2.698263975330743051e+03
3.107266633621021811e+03
3.530024177341122595e+03
3.451210359813705963e+03
4.059768975039085944e+03
3.930424291474671008e+03
3.998780047317017761e+03
4.681515484449218093e+03
4.788532223448927652e+03
5.173261228352394937e+03
5.319937768848121777e+03
5.454540962588120237e+03
5.753219271327116076e+03
5.491234650533055174e+03
4.681376652178919358e+03
4.066429034433233483e+03
3.860006871755681459e+03
4.386985909584916953e+03
5.528882948253431096e+03
6.503850674654387149e+03
6.160069751277060277e+03
4.597013675215716830e+03
3.316447992581560356e+03
3.296484679601927382e+03
3.709761088995828231e+03
4.140972035871443040e+03
5.908973861173238220e+03
7.466815579467190219e+03
8.586051794342583889e+03
8.228081536293178942e+03
7.250879019707790576e+03
7.199352259047673215e+03
7.784602295051963665e+03
7.246956605195082375e+03
6.116313550096863764e+03
5.254635896099779529e+03
5.520545873870552896e+03
6.943141063094503806e+03
7.528994335868550479e+03
7.872824502806018245e+03
9.053790660536227733e+03
8.684928668965420002e+03
7.331578549424930316e+03
6.748240087570073229e+03
6.509702188732179820e+03
6.173877395528139459e+03
4.868711947579889056e+03
3.767270120996504829e+03
3.007487137928051197e+03
2.208340365132893112e+03
1.984906140713011155e+03
2.299184967838056309e+03
2.266162737544932497e+03
1.226028443734036500e+03
-1.090153475405504224e+02
-8.448841940992510899e+02
-1.125468190186338461e+03
-1.189603692742791054e+03
-1.315110922008565012e+03
-1.978962376779587885e+03
-2.527090297553279470e+03
-2.476093401826665286e+03
-2.490601362377341957e+03
-2.406430576422661488e+03
-2.166337890198620244e+03
-2.340980833138042271e+03
-3.476093014016645157e+03
-5.502261248193942265e+03
-7.409068117910155706e+03
-5.920333335781167079e+03
-4.657804825060200528e+03
-4.132067407893341624e+03
-6.470630276172989397e+03
-4.988150522592527523e+03
-7.918318143885666359e+03
-8.280764024785079528e+03
-7.722135976002244206e+03
-7.495037433898116433e+03
-1.040603979041217644e+04
-8.889740372894726534e+03
-8.036780320081275931e+03
-9.016713278615095987e+03
-9.696011476348441647e+03
-9.745143354559262661e+03
-8.684578382828074609e+03
-1.146293142455103225e+04
-1.033973625912195166e+04
-1.203843395327005419e+04
-1.330949534836601379e+04
-9.917474031670983095e+03
-9.670772949792539293e+03
-1.423378895496896803e+04
-1.464104735599338528e+04
-1.432401131551171602e+04
-1.219116193050094989e+04
-1.279199530846009293e+04
-1.022089768041111529e+04
-9.197320664318041963e+03
-6.898650020108487297e+03
-5.890342961788833236e+03
-6.801825199859897111e+03
-6.967522813741351456e+03
-6.472934488624453479e+03
-6.216337264677101302e+03
-5.943106282639529127e+03
-4.899673201209495346e+03
-4.103518113200564585e+03
-3.737056906355666797e+03
-3.572894574878414460e+03
-2.639494533397812575e+03
-1.983229743000008057e+03
-1.612461920065161848e+03
-1.485707671557064259e+03
-9.724982010583956935e+02
-3.272462919906118373e+02
4.755683205965680713e+02
1.065488173169501579e+03
1.883046124749127330e+03
1.591665310697609357e+03
7.638920035393242642e+02
9.502367984229266540e+02
1.644211366196277368e+03
2.368401717329117673e+03
3.144262206461370624e+03
3.515276274493347501e+03
3.660959411355984685e+03
3.557917118749960991e+03
3.784554860944092979e+03
3.567164050821582350e+03
3.754194918654680805e+03
3.795086023246922196e+03
3.435168780836197129e+03
2.065554599955316007e+03
1.643784327412341781e+03
4.823308698610750980e+03
6.733451829868688947e+03
7.828442226609682621e+03
8.789502453574268657e+03
9.637807048752198170e+03
1.064453775639458763e+04
1.161383838258709693e+04
1.192794147358820737e+04
1.161495071736104001e+04
1.110804141162704946e+04
1.101564108607868002e+04
1.068976497105757880e+04
1.048624424318337879e+04
1.020517456510277771e+04
1.009759668351619985e+04
1.023761428938603422e+04
1.020428359644955708e+04
9.926555243704140594e+03
9.772343920691357198e+03
1.006851058732698584e+04
1.086198166464328278e+04
1.209465451480762931e+04
1.219926279521115612e+04
1.153376554122595917e+04
1.135007896862624330e+04
1.150600524227315327e+04
1.175039523473817462e+04
1.128307557450258355e+04
1.034181208768017314e+04
1.011741436366144626e+04
1.005053817218366021e+04
1.002489391380330926e+04
9.656461678461611882e+03
9.729872121553287798e+03
1.033170901393092572e+04
1.002860006014986720e+04
9.569159299796454434e+03
8.970995569520808203e+03
8.874678393615748064e+03
8.713689628135209205e+03
8.821553752869529490e+03
8.626882148164999307e+03
8.111110982169597264e+03
7.504606380314482521e+03
7.435788504403240040e+03
7.160359395995948034e+03
7.042866747437924460e+03
6.180771523855529267e+03
5.352461102206735632e+03
5.085385634473868777e+03
4.530030357447662027e+03
1.502888257842593475e+03
-3.198563435444618335e+03
-5.131962309556282889e+03
-5.290902550236648494e+03
-6.498989107046613753e+03
-7.880816045927518644e+03
-8.892036639692214521e+03
-9.891285052391749559e+03
-1.027429691991032269e+04
-9.438839719871557463e+03
-8.583487190074609316e+03
-6.233911541332733577e+03
-4.245589404115215984e+03
-4.226094202996908280e+03
-5.692217894200711271e+03
-7.496672019417099364e+03
-8.710162070521670103e+03
-8.095263457895521242e+03
-7.907560721402590389e+03
-8.742679705305696189e+03
-9.181208298759087484e+03
-9.386768100791707184e+03
-9.713875831725370517e+03
-9.436037957824093610e+03
-8.925044419189789551e+03
-9.643595384566538996e+03
-9.110346520735747617e+03
-7.704069151834126387e+03
-7.886456568912587500e+03
-9.533143355605159741e+03
-1.062870784992221343e+04
-1.071276521929060618e+04
-1.058492189427238191e+04
-1.054761633407082263e+04
-1.049733750164566300e+04
-9.309647738076600945e+03
-7.868165341865062146e+03
-7.362379207596346532e+03
-7.231658063854022657e+03
-7.155538438787482846e+03
-6.008519986257448181e+03
-4.062024157179526355e+03
-1.585316949058618093e+03
-1.978102689350865830e+02
-1.549460747736087001e+02
-3.080939860676932085e+02
-9.206196636370098076e+02
-1.803858921750873378e+03
-2.933195734829655066e+03
-4.216019989602375972e+03
-4.836581497881674295e+03
-4.835153152073905403e+03
-5.034997698951179700e+03
-5.526351873306302878e+03
-5.480447063221673488e+03
-5.943511883532288266e+03
-5.417802360684901032e+03
-4.468488486631297746e+03
-4.420723893043244971e+03
-3.015684499044326913e+03
-1.449387999818041408e+03
4.091333285491492333e+00
1.276643883751978592e+03
1.261754826326480554e+02
-1.677342882399657356e+03
-1.210895290454016049e+03
9.385074377225153057e+02
-3.516811137075649185e+01
-2.205061458166339435e+03
-4.081227883309501522e+03
-5.452528596105281395e+03
-6.522917079857670615e+03
-7.858366136970950720e+03
-8.471849184712380520e+03
-9.910262589768813996e+03
-9.089606024309419809e+03
-1.005755218398469697e+04
-1.095403278512873658e+04
-9.776941675125162874e+03
-8.968135906181598330e+03
-8.439491699574593440e+03
-8.681887016426186165e+03
-9.612065373943158193e+03
-9.633770502139081145e+03
-9.770795120046006559e+03
-9.918902571853184782e+03
-8.543820227002814136e+03
-7.374286244138130314e+03
-5.812047628459763473e+03
-3.163907253172109904e+03
9.713210348371708278e+02
4.228817551918750723e+02
-2.095912140347530567e+03
-2.601633357260778212e+03
-3.058007496161887047e+03
-3.474852087040852439e+03
-3.655894688452277023e+03
-6.598133167542194997e+02
3.950717918135627770e+03
4.672036938349396223e+03
2.142407544737299759e+03
1.097225923315646014e+03
1.758803960181546245e+03
3.709375401073402372e+03
4.948271479216725311e+03
5.724887080681080079e+03
5.469652413136609539e+03
6.150936036563451125e+03
7.647981106421893855e+03
4.621014561173714355e+03
3.304294984501420913e+03
2.113032056287585874e+03
2.509499119254165180e+03
6.224094380917990748e+03
9.055226607999986300e+03
1.117411575694183557e+04
1.207206613373828623e+04
1.236841281298897957e+04
1.275452596479003842e+04
1.241668160516037096e+04
1.210714486828489316e+04
1.191924678241351103e+04
1.170328083184401294e+04
1.101844601060580680e+04
1.070291923602895440e+04
1.107211547180676826e+04
1.073431050709032388e+04
9.615585302062696428e+03
9.231114095936849480e+03
9.597105803869524607e+03
7.681695155366842300e+03
5.064157911077441895e+03
3.946650324309940061e+03
3.173241156277021219e+03
2.290089875601237964e+03
1.124311386602488255e+03
-1.579823094440392879e+02
-1.376651849593208226e+03
-1.152492899265178039e+03
-3.944852710844412513e+02
-2.251786809715819118e+02
2.942183903693851335e+02
9.900039505927684331e+02
2.571909610374163094e+03
4.399269112830615995e+03
5.263863885687071161e+03
5.657982409319929502e+03
6.264459780475864136e+03
6.928252561121438703e+03
7.505523339306909293e+03
7.690404181190049712e+03
7.438532847272116669e+03
7.405747658041840623e+03
7.499294653351600573e+03
7.910362515423051263e+03
9.003863153193457038e+03
9.204375834756951008e+03
8.174363856187984311e+03
7.379533745921694390e+03
7.992764435460471759e+03
8.150344248215182233e+03
8.254408902916131410e+03
8.857224946073622050e+03
9.138325884194813625e+03
9.230110934523030664e+03
9.318516233170772466e+03
8.718947848273552154e+03
8.157727020989262201e+03
7.519566671499867880e+03
7.161519333677247232e+03
6.458108711382320507e+03
5.760145932715422532e+03
4.874814791601872457e+03
4.135913738499133615e+03
4.074217041599431923e+03
4.354640227692460030e+03
4.320133393315002650e+03
4.000338996247932755e+03
3.946078230730121959e+03
4.055346491086792412e+03
4.349096127867080213e+03
4.687077663420553108e+03
5.032142969227795220e+03
5.071252666887672603e+03
4.538421936806757003e+03
3.758452833561525495e+03
3.180100801534459151e+03
2.821246833474242521e+03
2.707705100557980131e+03
2.531459857197164638e+03
2.497498671615860985e+03
8.107310015610631808e+02
-1.975084664619197838e+03
-5.367995981638772719e+03
-8.143978261927118183e+03
-1.023509915073613047e+04
-1.170647365052166242e+04
-1.222110318638279205e+04
-1.278510382989156642e+04
-1.396255428339624814e+04
-1.454225176165868470e+04
-1.474622334880441304e+04
-1.506358211923674207e+04
-1.669632746491839134e+04
-1.766922152949128940e+04
-1.759043743313504092e+04
-1.683031492082470868e+04
-1.433770615625116989e+04
-1.387963029059578730e+04
-1.635512418090937717e+04
-1.724409696682172216e+04
-1.792557699040451189e+04
-1.767053776269611262e+04
-1.792683492973197281e+04
-1.852827221903192549e+04
-1.779258507212966288e+04
-1.455461931709634700e+04
-1.279612305718548305e+04
-1.260219431962540875e+04
-1.238884896751883753e+04
-1.169379099912602396e+04
-1.027968947351343013e+04
-8.617327072265628885e+03
-7.544343242088361876e+03
-6.858496150375943216e+03
-6.052923407700691314e+03
-5.662517327278409539e+03
-7.168882922083196718e+03
-8.238582525339903441e+03
-8.770358461220695972e+03
-9.844937505208472430e+03
-1.100715527312110498e+04
-1.122593903321113430e+04
-1.115988807706372791e+04
-1.135042193563471301e+04
-1.193084745893498621e+04
-1.324016549467745244e+04
-1.136722771405699859e+04
-8.916789751491414791e+03
-7.531565640990032989e+03
-6.783171732686852920e+03
-5.755230166099663620e+03
-4.217296867292319803e+03
-2.282965613720926285e+03
-1.825804085997387119e+03
-1.250315095107788920e+03
6.396319157201382950e+02
1.475305822656860528e+03
1.232096871012492784e+03
-1.075788530103287570e+02
-8.603838055614442055e+02
-1.211961507267370962e+03
-7.290226781464206169e+02
-5.549906542514519288e+02
-5.905821383949843266e+02
-7.407322741154434880e+02
-2.120045598980954651e+02
1.310496812362218179e+03
2.067686832092366785e+03
2.397056746744941847e+03
2.672885045533651009e+03
3.484616147903690944e+03
4.564748820548272306e+03
5.829793202092595493e+03
6.561998003025254548e+03
6.575737386959439391e+03
6.119169064462302231e+03
4.458372244695096015e+03
4.948665778218432024e+03
6.162641981907159789e+03
6.368830855240187702e+03
6.205563801950508605e+03
4.876988140062401726e+03
4.330455917617441628e+03
4.227318217898053263e+03
3.940955645533582810e+03
3.944279382056370196e+03
4.167612843527616860e+03
5.248367242518161220e+03
8.630675190392612421e+03
1.102476670362182085e+04
1.329689339502395160e+04
1.532943980219990044e+04
1.597041192958928696e+04
1.607381312128223362e+04
1.611697783120834720e+04
1.598743352290275106e+04
1.542735878271357069e+04
1.488276934166385763e+04
1.500795477536528597e+04
1.508405697970028814e+04
1.473607582739763529e+04
1.350105230162026419e+04
1.205306951816579021e+04
1.082334880752948993e+04
9.769013777973157630e+03
8.789080223673483488e+03
7.198560113306990388e+03
6.638501527123263259e+03
6.361979841022985056e+03
6.018123911310353833e+03
6.004030505391451698e+03
6.282746708699433839e+03
6.815402781391144345e+03
6.548105160141103624e+03
5.845797233312644494e+03
5.483310894727180312e+03
5.149583024373820081e+03
4.455554930684716965e+03
3.932030041850018279e+03
3.555757182910796018e+03
3.243536700289630971e+03
2.280193935564206186e+03
1.449357331100472720e+03
3.797407443979259938e+02
-1.003809381606201669e+03
-1.523611618451009690e+03
-2.323875562687219372e+03
-3.619889782525414375e+03
-4.488037669632236430e+03
-5.045416364076521859e+03
-5.067129573948735015e+03
-4.576626581492168953e+03
-4.175391003446397917e+03
-4.117438884717153996e+03
-4.076926800513949729e+03
-3.925122547447565921e+03
-4.223281366610855912e+03
-4.125748972090330426e+03
-4.457952636138890739e+03
-4.478352754825371449e+03
-6.506140745719098959e+03
-5.122927266176046032e+03
-4.974906431966362106e+03
-5.072274499008234670e+03
-4.529333707485662671e+03
-4.985397342506167661e+03
-6.015074629069688854e+03
-6.568804382717056797e+03
-6.453005103149212118e+03
-6.123205062877766977e+03
-6.124800062488273397e+03
-6.322177223719186259e+03
-6.265803064027800247e+03
-5.796058330420740276e+03
-5.185460227462256626e+03
-4.600606613945725258e+03
-4.131321514554269015e+03
-4.457864704176046871e+03
-4.493248853404000329e+03
-4.904941830290453254e+03
-5.882344852463336792e+03
-7.037945087386506202e+03
-8.178084735011660086e+03
-7.583431747383769107e+03
-6.216623576125932232e+03
-5.347764779971981625e+03
-4.690017451766063459e+03
-4.909847637624930030e+03
-5.621825459836186383e+03
-5.642501119944321545e+03
-5.928064809366986992e+03
-5.682154910733900579e+03
-4.692153991289373153e+03
-3.356269129553583753e+03
-1.394932201104137675e+03
-3.611190023935733961e+02
-7.032811192114488676e+02
-5.258093135851422630e+02
-6.370428109787682160e+02
-6.476473093057682036e+02
-1.267193660138519135e+03
-1.682139587098252832e+03
-1.772764776815048208e+03
-2.005337805068727903e+03
-2.491267491236452315e+03
-3.130886137014952510e+03
-3.288500762198765642e+03
-2.476373791629968764e+03
-1.559734722910049641e+03
-1.709919013193609544e+03
-5.733084438847978390e+02
9.357715123745691699e+02
1.262060840021335252e+03
1.558344297438116200e+03
2.290324084967718591e+03
2.330728343727757874e+03
3.055449968238310248e+03
3.736256305155012797e+03
3.874870293674634013e+03
4.107088728128419461e+03
4.136558600784682312e+03
4.103966818235389837e+03
3.839144837665106934e+03
3.538921228698145114e+03
4.069460571537504734e+02
1.144971991212134299e+03
1.636741760132730633e+03
5.770903031839934556e+03
5.684374710143373704e+03
6.160956409282102868e+03
7.190279843948157577e+03
7.022232323294951129e+03
6.486702430273589016e+03
6.043524721974663407e+03
7.550372093242930532e+03
7.527049791144422670e+03
7.239451533590575309e+03
4.401570222584843577e+03
2.649216350937816060e+03
3.801241928452648608e+03
5.290380686121207873e+03
3.226409658474229218e+03
3.609349022531563605e+03
5.017282460080323290e+03
2.841102182208873728e+03
5.536689176756126471e+03
3.268024842256697411e+03
2.576068118118715574e+03
4.846836649407598998e+03
4.518360983121513527e+03
5.630668828955502249e+03
2.475692549766421052e+03
1.968524236684483640e+03
2.819287264825847160e+03
5.328092400307463322e+03
5.420024457443879328e+03
3.683155622541448793e+03
3.883531552943135011e+03
3.821335729224560509e+03
3.194571487416586479e+03
2.961331918152405706e+03
4.018775259191419991e+03
3.192025951709755191e+03
1.446175281939241813e+03
7.413967943379487906e+02
8.978976169921961628e+02
3.678136245531152895e+02
-7.247237481515651325e+02
-1.080533432724077784e+03
2.575831894032034484e+02
1.357932241019953381e+03
1.196706172191315773e+03
1.263154372278968140e+03
1.314953772268641501e+02
3.889056567491052760e+02
7.566016935114370199e+02
4.459220749770832981e+02
-1.208781316878929829e+03
-2.194159276270388091e+03
-1.805809321673229306e+03
-1.056233750075000216e+03
-1.219113875209910930e+03
-8.862479188274230637e+02
-1.815469602411466894e+03
-3.278313687236739042e+03
-2.299286393624131506e+03
-6.831308593709128445e+02
-2.188301641600557730e+02
-7.122824468425251609e+01
2.142243135575821725e+03
3.095940427855189682e+03
3.560091852408545492e+03
5.201989319018774950e+03
5.962811749495955155e+03
5.802672434621043976e+03
6.166361248415975751e+03
5.610115989142349463e+03
4.295272026956324225e+03
2.750111282044316795e+03
1.343013273487366405e+03
1.341355832011369557e+03
2.121432865359587140e+03
4.507514522027215207e+03
4.058818016802304101e+03
7.506934270553497299e+02
-1.534538632866379885e+03
-1.985569489800423526e+03
-2.357164509857095254e+03
-7.950243017201160001e+02
1.804254019114653147e+03
4.680320769107966044e+02
-2.322420062773619975e+03
-2.841688200377754583e+03
-1.827234232794333593e+03
-1.487691670614138729e+03
-5.237919314616432303e+02
-5.190745499854817808e+02
-3.479083386019344289e+03
-6.608517596783479348e+03
-7.339061333700447904e+03
-1.968370990554137279e+03
4.909854854568544624e+02
1.175407348684079807e+03
3.820005323420737682e+02
-9.060154993375228969e+02
-1.247217240356575530e+03
-2.245174600398653638e+03
-2.506590831442053059e+03
-2.470281542651859581e+03
-9.319793309556664553e+02
2.889847957311936170e+03
4.636497106822934256e+03
5.019055509758780317e+03
5.257832317406258881e+03
5.854331715886569327e+03
6.512994833707371072e+03
6.696127925947766016e+03
5.647071110005406808e+03
6.093025213261696990e+03
4.917327398559495123e+03
-9.336898278234313011e+02
-8.360720965827387772e+03
-1.402046363027010375e+04
-1.681273165361156498e+04
-1.682728619999916555e+04
-1.678088567567536302e+04
-1.729819343479567397e+04
-1.687401561125883018e+04
-1.433016620199240424e+04
-1.316940080168334862e+04
-1.107939591424936953e+04
-9.926931360953938565e+03
-1.228074730434407502e+04
-1.367241637348400400e+04
-1.166288550030536135e+04
-8.258080901558038022e+03
-5.826759786499470465e+03
-6.221731508804077748e+03
-6.039769581106467740e+03
-3.200701600096189850e+03
1.293608267497925908e+03
2.292743357667143584e+02
-3.085932785921027630e+02
1.180120817927791904e+03
9.354852344101881272e+02
9.244074981150513395e+02
1.378934141476921241e+03
2.723191804656658860e+03
2.642218862240891212e+03
6.991568917903664442e+02
-1.575901691383156958e+03
-1.596915829431911334e+03
-1.489817044590030719e+03
-2.682523018201408831e+03
-2.077039184276361084e+03
-1.465429983009885746e+03
-2.661653085504419323e+03
-3.963745589033292163e+03
-5.420643257745002302e+03
-6.340329231175704990e+03
-7.385907030812492849e+03
-9.710394979621554739e+03
-1.213480556098377383e+04
-1.401507915228849197e+04
-1.472243917822443473e+04
-1.488508933390107268e+04
-1.529210981159005678e+04
-1.546966576614058977e+04
-1.431489198961897455e+04
-1.145097265299327773e+04
-8.592060679049445753e+03
-7.112325809747028870e+03
-4.630960360890796437e+03
-3.992008678220227580e+02
3.421766033707123370e+03
5.948762070926341949e+03
8.765446038571188183e+03
1.134655771025122340e+04
1.271400366579622823e+04
1.352451260802235083e+04
1.415982848640488191e+04
1.497769689344111430e+04
1.667879205354505393e+04
1.822893645332753658e+04
1.822388800463771258e+04
1.761339061062586188e+04
1.785501899232399228e+04
1.787434867905750070e+04
1.717501418833641219e+04
1.684858713185538363e+04
1.664072381200620657e+04
1.668005153369311302e+04
1.775318246295030985e+04
1.888080375026130423e+04
1.837546060726180440e+04
1.659171066283282562e+04
1.544916521376736819e+04
1.281888989699186095e+04
9.923012289535354284e+03
8.627186363850483758e+03
1.058704228940194844e+04
1.418811887045997537e+04
1.566204103278361799e+04
1.626148151449032594e+04
1.598603888040604397e+04
1.489727426208387078e+04
1.371878305527309021e+04
1.271217693706852697e+04
1.280602919229769032e+04
1.386386161564865142e+04
1.492222047045879299e+04
1.584859166447087409e+04
1.412352906213606366e+04
9.693630586586519712e+03
7.505479758797857357e+03
6.108578621636095704e+03
4.794552060642234210e+03
2.320066739322307967e+03
7.407140663043822997e+02
-6.038297184262016799e+02
-2.299072277847117675e+03
-3.295535968301417597e+03
-4.616626324659274360e+03
-5.692760127919663319e+03
-7.273260085223540045e+03
-9.286481376031213586e+03
-8.803902728672139347e+03
-1.165077786197648675e+04
-1.600248438764866842e+04
-1.753848476839619616e+04
-1.867413853672708137e+04
-1.931188565276606096e+04
-1.964008602877426165e+04
-2.025700787050550571e+04
-1.859506417031530509e+04
-1.611555402044928087e+04
-1.571285922308602858e+04
-1.648322474983378561e+04
-1.712690702725138544e+04
-1.710015867145342054e+04
-1.764918352368484921e+04
-1.894528739841234346e+04
-2.017973410494245400e+04
-2.064281869083884885e+04
-1.986679740133027371e+04
-1.971988523544996133e+04
-2.022422246513715436e+04
-2.032315329664462843e+04
-2.063793094405815282e+04
-2.098866077502977350e+04
-2.097452335488800964e+04
-1.996075072478140646e+04
-1.903147722399402846e+04
-1.880091544993082061e+04
-1.757217537464473571e+04
-1.509133820929782451e+04
-1.377755442292470070e+04
-1.375486489511475884e+04
-1.325234251860718177e+04
-1.207408597254271808e+04
-1.094725385135752003e+04
-9.227374213272169072e+03
-8.302438768054505999e+03
-8.902739704189069016e+03
-7.727682543599622477e+03
-5.151986010270332372e+03
-3.930682678547779233e+03
-2.324507364542672349e+03
2.147819678840270896e+01
3.158522481750644147e+03
4.673431293681570423e+03
5.732125336417680955e+03
6.945946823306370788e+03
9.524026561602091533e+03
1.177963488833195333e+04
1.405152549022863059e+04
1.475077520268331136e+04
1.447055533506832580e+04
1.451626037451762568e+04
1.506868873661636098e+04
1.484620647515214841e+04
1.490798864117943776e+04
1.467794814585783024e+04
1.397272166934760389e+04
1.407162485888126685e+04
1.434340061208043153e+04
1.473030774648112310e+04
1.389661343296501218e+04
1.279698542793471825e+04
1.240644578441431804e+04
1.247716481245550676e+04
1.307428442116453880e+04
1.331123705320616500e+04
1.290838603659606270e+04
1.333281211318587884e+04
1.241887032343910505e+04
1.169399072416717354e+04
1.181538635505428829e+04
1.165503218869480224e+04
1.044835691072060217e+04
9.594821824209560873e+03
9.516732208834906487e+03
9.345417218828435580e+03
8.734357236769903466e+03
8.122865080575985303e+03
7.238188246769961552e+03
7.027525395380728696e+03
6.147192637704399203e+03
5.635648715209978036e+03
5.123279697887642214e+03
3.977575024916624443e+03
2.157767967002688238e+03
1.402179231756029594e+03
-1.727712219576954169e+02
-2.734558163106285519e+03
-5.578888639387605508e+03
-6.051537090239402460e+03
-5.875215107478857135e+03
-6.526565239402556472e+03
-8.229324448897557886e+03
-7.975043710435232242e+03
-5.561163010918755390e+03
-2.493463611853203020e+03
-2.280778010425232424e+03
-4.317655369913835784e+03
-4.856577282010711315e+03
-4.461525790997819058e+03
-4.086160416198691109e+03
-3.008070779846489586e+03
-1.162935366371036480e+03
-3.738436672535515299e+03
-3.913282576859740857e+03
-4.174122793187433672e+03
-4.454514071257502110e+03
-4.577921797906030406e+03
-4.695047617590904338e+03
-4.804563134955236819e+03
-4.090183672492226833e+03
-7.567848436810647854e+02
7.456297164865335390e+02
1.236554481376299009e+03
1.535596103580358431e+03
1.991973186454150209e+03
1.986737519998334847e+03
1.913192442720333702e+03
2.236455951482573255e+03
2.527548344394261221e+03
1.946010423384498836e+03
1.682229751417615489e+03
1.599304625317874979e+03
1.680378627772621712e+03
7.977055248799308629e+02
2.593205509213681808e+02
5.464647014386132469e+02
9.485347497742707219e+02
1.170738687910150702e+03
9.681159706181614411e+02
1.290302736549023848e+03
1.280604302796805314e+03
1.404245479382236681e+03
9.734539456826048536e+02
8.874189247657895976e+02
1.605194484517388219e+03
2.431942341484912959e+03
2.157753886203434377e+03
1.713721871304104752e+03
2.678799581714175929e+03
3.673741466108272107e+03
3.252689870264391629e+03
1.619750814878397705e+03
9.829818126686091091e+02
4.164140709719023334e+02
-1.260021967042632411e+02
-1.262259887176296331e+02
-7.220712469421831656e+02
-1.242647151200970711e+03
-1.624932991863902089e+03
-2.086593079849963488e+03
-1.613330621667456853e+03
-9.379502012858098396e+02
-1.125615739435067326e+03
-2.105530530840984284e+03
-2.263762304664252952e+03
-2.618207895392141381e+03
-3.436948343900151031e+03
-3.931376790510589217e+03
-3.613566540624441586e+03
-4.064591797921651050e+03
-4.713643940793969705e+03
-4.117553790652203134e+03
-3.298333354506604792e+03
-2.959628330276286761e+03
-2.658780577505540350e+03
-2.524867862152952966e+03
-3.092872716770095849e+03
-3.051990201165273902e+03
-2.819648959212950103e+03
-3.196213938035445153e+03
-3.725497524207695278e+03
-4.237704885464871040e+03
-4.382062684333683137e+03
-4.151639879974735777e+03
-4.836648980324162949e+03
-4.573328068336555589e+03
-4.437928112424246137e+03
-4.376575192410029558e+03
-4.301271750587165116e+03
-4.355129222406728331e+03
-4.179514003588244123e+03
-3.726575418500168780e+03
-3.594331913186191741e+03
-3.731147038037729089e+03
-3.208314431199855335e+03
-3.340870297294901775e+03
-3.392955566022199037e+03
-3.259800904880136386e+03
-3.995715282472438048e+03
-4.420915366598354922e+03
-4.260484007837791069e+03
-2.960551373996614075e+03
-2.228285143229883033e+03
-2.428009116267239278e+03
-2.216978058975435033e+03
