1.663480471614565204e+03
3.214448356813102691e+03
4.529102791763251844e+03
5.353529459059446708e+03
4.230765629266747965e+03
2.583837787990926699e+03
1.739781071125836661e+03
1.869563487985324173e+03
2.267186490386662626e+03
2.872670031687064238e+03
3.580991508053906273e+03
2.399226086524147377e+03
8.664678852565434681e+02
-2.322942773481086647e+02
-1.367114785137450781e+03
-2.686028933067995695e+03
-3.956156314703628141e+03
-4.937622397580270444e+03
-5.778346233444427526e+03
-5.234209954967752310e+03
-3.907254451076975784e+03
-2.029478644743998302e+03
-1.066719251454765299e+03
9.813625858766395140e+02
3.529942514678953103e+03
5.940802148679366837e+03
7.195967453418287732e+03
7.039333169996545621e+03
7.459920209582515781e+03
9.053882680476950554e+03
7.803032161613904464e+03
3.870509432009206648e+03
2.930416810450370576e+03
1.983680993836556127e+03
1.218331227462499555e+03
1.403897918541579202e+02
-1.005272448742578831e+03
-1.664129671927969412e+03
-1.682329492949876112e+03
-1.003269531703383677e+03
6.333972686321621950e+02
2.814060649612879843e+03
3.143301529026629851e+03
1.886690347985394737e+03
-1.524215229392208357e+02
-3.683164744455507389e+02
1.929688092682701210e+02
-1.737142563284661776e+02
-1.072319732264487811e+03
-1.754870380892469029e+03
-1.072396949177719989e+03
5.051115738066552581e+02
2.876482336073319743e+02
-6.979086554840397127e+01
-2.393461189119079222e+02
-4.770802813273913330e+02
-1.022975534457673348e+03
-1.231093608805854501e+03
-2.063606126234195983e+02
9.103123047329602286e+02
1.562965815545049963e+03
2.707553051545909057e+03
3.141063276942433276e+03
1.428518144286899314e+03
-7.370565696831009745e+02
-2.642685173681960805e+03
-3.544380690844508081e+03
-4.040187121538851443e+03
-3.756131344263795199e+03
-3.959108009713645970e+03
-4.070039456499259813e+03
-3.601979420110140381e+03
-3.701945539913177527e+03
-4.750851090246422245e+03
-4.396778675969989308e+03
-1.456822362344074691e+03
1.772949641046316174e+03
3.479423662495925782e+03
3.659652999404585898e+03
3.751760053746001176e+03
4.529807595553171268e+03
4.839851780159681766e+03
4.234825998578999133e+03
4.266707551601792147e+03
3.506576386900334455e+03
2.636450348121827119e+03
1.401326883786145117e+03
-4.688529319917337830e+02
-3.627077850639512235e+03
-5.759330716710651359e+03
-4.466641870006144927e+03
-3.741955757786454342e+03
-9.044266119832713230e+03
-1.549355754582060945e+04
-1.734376751250741290e+04
-1.889091454179721768e+04
-2.008020026452256934e+04
-1.890771207015223627e+04
-1.394643138306033143e+04
-1.140522806939612929e+04
-1.112914621790004094e+04
-5.995197919642718261e+03
1.180741784538166712e+03
6.935687485883507179e+03
1.088763475894178373e+04
1.332863582260371550e+04
1.435367726862881318e+04
1.377172346960329742e+04
1.274076288122174992e+04
1.015685919888666285e+04
7.819024199050399147e+03
7.295282272013920192e+03
6.699607697974701296e+03
5.502021533600113798e+03
5.078543614489999527e+03
3.753128298162353531e+03
2.333633411936669290e+03
1.012935330179434345e+03
-8.090814576058822638e+01
-7.158274464505200285e+02
-1.547831558817380824e+02
4.302981217095453985e+02
7.024725984356458639e+02
7.677575686763543672e+02
1.313203453066668771e+03
1.862866811259138785e+03
1.697749015461783529e+03
7.677453839048826012e+02
-2.422909826902770902e+01
1.959033251583365711e+02
-3.518184944323193122e+02
-2.035889350168320178e+01
8.934199284907755612e+01
-8.587673981227927698e+02
-6.206904924860559731e+02
6.435163297929100281e+02
1.105838535532808919e+03
1.021223353600015002e+03
1.529644718051971267e+03
2.278201939131947256e+03
2.724944908054464577e+03
4.102947961624855452e+03
5.444166719733492755e+03
5.422550085400954231e+03
4.933123843906523689e+03
4.109860160576612543e+03
3.678715250055199249e+03
3.820767105584389355e+03
3.548148924790690671e+03
3.261177060696812532e+03
3.229847532759706610e+03
3.275941939687111244e+03
3.352435909920619906e+03
1.973329977764621844e+03
9.786451039828298235e+02
3.223480475911644021e+02
-1.777115579094580369e+02
-4.955613457291759119e+02
-1.450257644355283446e+02
6.508901599442167480e+02
1.239851903515844015e+03
1.072025893307292563e+03
-1.135307658499203711e+02
-2.946804800340513793e+03
-3.951668544486244173e+03
-4.610136001566990672e+03
-4.993289638817985178e+03
-4.013186863561948940e+03
-3.018806303249239136e+03
-2.213106155643106831e+03
-1.758994614103970662e+03
-1.903438944416595405e+03
-2.666448568391360823e+03
-3.668951799371372999e+03
-4.734979769137198673e+03
-5.337565149953894434e+03
-3.804728638780420169e+03
-3.271600707315789350e+03
-6.336280624617740614e+03
-6.852702696309933344e+03
-5.739818900344441317e+03
-3.594639101966609815e+03
-1.885090800731027912e+03
-1.511149989429008883e+03
-1.983738242421818541e+03
-2.826844778488937663e+03
-3.137483404104073543e+03
-3.122717674271504166e+03
-2.689563398921272437e+03
-1.970046946867154929e+03
-1.803133900669852892e+03
-1.577996478412343606e+02
1.256958775415424498e+03
1.574090898238385535e+03
-8.744051021741303487e+01
-4.975660490521335305e+03
-6.439660809083817185e+03
-6.409483063980477709e+03
-6.700146910531717367e+03
-6.425611346414566469e+03
-4.644793613513823402e+03
2.003731265800359722e+02
1.527875673637792488e+03
1.418738665343094681e+03
1.793029207020688773e+03
2.154740686043886853e+03
1.995946273105867249e+03
2.391578176978693591e+03
3.048452808833377276e+03
3.000588164128814697e+03
3.074987041688035333e+03
3.001700979731609550e+03
2.674749466744908204e+03
1.591057543053647805e+03
8.636475935765924987e+02
7.154871411737765357e+02
2.114809166247219991e+02
2.149334402333113303e+01
1.864639904024693067e+02
6.294485758861011391e+02
1.121489260364626261e+03
2.270581713687485262e+03
3.270717710284767236e+03
3.488272183273561495e+03
3.424451195997860395e+03
2.966109634771086348e+03
3.158039436496690087e+03
3.465267413460329408e+03
3.697662244192742946e+03
3.627186459253679914e+03
3.547050698008324616e+03
4.029964717792477131e+03
3.816204608060092596e+03
2.296432008690942894e+03
1.096546925559667898e+03
2.716624670278214353e+02
-3.893180917573787383e+02
-7.003306376317533477e+02
-1.070921556085768543e+03
-8.006037574042293272e+02
1.636004036395649450e+02
1.471717135688076269e+03
2.989837398647890950e+03
3.802990261825921607e+03
4.128005294133361531e+03
3.751103977929531084e+03
3.774280852613176194e+03
3.849366148393238291e+03
3.813414122925814809e+03
3.899567505632944631e+03
3.743744118452760631e+03
2.961619596582149825e+03
2.252422234487276455e+03
1.189945763783797474e+03
2.493000381111114621e+02
5.535685922982391816e+01
-6.500817639372313295e+01
-3.968853191087908385e+02
-1.028350670960208163e+03
-7.944294847883990087e+02
-1.230921577928545503e+02
7.518233688385718096e+02
1.572408616785009372e+03
1.972667419868679417e+03
1.681580494577521904e+03
7.401388790986159165e+02
-2.737209351255191336e+02
-4.390403652892836703e+02
5.826656139059276995e+01
1.052204995584244898e+03
1.754697376160247586e+03
2.653792438019103884e+03
2.832564111404500181e+03
1.709036655721728039e+03
4.622468372580858613e+02
-2.408746318753558171e+02
-1.835474766013874387e+03
-4.472675852428476901e+03
-7.461561360571994555e+03
-7.542056435241564941e+03
-6.633268594996264255e+03
-6.090269678679497702e+03
-5.092090529552450789e+03
-5.073661068132991204e+03
-5.995814440507626387e+03
-6.072531468173373469e+03
-5.929919260940793720e+03
-5.789764595735498915e+03
-5.028925872875222922e+03
-4.770623193096874274e+03
-3.635802319778399124e+03
-1.682459994787250253e+03
6.304599960952558604e+02
-1.864020586678707332e+03
-4.904909375769490907e+03
-4.494284886136977548e+03
-6.191982766534474649e+02
3.732661273278772001e+02
-3.220017000141917833e+03
-5.909913066729037382e+03
-4.410219778903927363e+03
-4.273818374644855794e+03
-3.090828860237300432e+03
2.307792784709229181e+02
2.372111736744443533e+03
2.071248496708089533e+03
1.999225779336048163e+03
2.651862248328108763e+03
3.241995798093714711e+03
3.323789707342906695e+03
3.594209878340660453e+03
3.539304779563036391e+03
3.229089837029296177e+03
1.914612560925116895e+03
1.147944226394406996e+03
6.720103787199911949e+02
3.877536668211498636e+02
-1.578822175643638843e+02
-3.559938823032977098e+02
-4.184771636170214038e+02
4.387421914451806515e+01
1.127209717383648467e+03
2.369595187098171209e+03
2.795051755171291916e+03
2.446610770071067691e+03
2.114199017861485572e+03
1.750938275529751081e+03
1.771839370905143141e+03
1.841729407942734497e+03
2.264546068266879502e+03
2.514398598335646511e+03
2.468297669352469256e+03
2.413038216715397084e+03
1.347522765729209368e+03
2.189124801023982414e+01
-8.757905551657257774e+02
-1.451481977683060904e+03
-1.411253532941678031e+03
-1.321096289084627642e+03
-1.158925292288196260e+03
-6.117264158276104808e+02
1.885131613152248633e+02
1.255771358314309509e+03
1.890277952729935350e+03
2.023327763020733300e+03
1.574159025638211460e+03
1.392805849282453664e+03
1.645098209790985720e+03
1.603114544526748205e+03
1.485969479774076035e+03
1.476651653570067765e+03
1.892122488623969502e+03
1.674559851823816871e+03
6.149939897478747071e+02
-5.998030555352061128e+02
-1.260980066189252739e+03
-1.849498524147677017e+03
-2.542420846778158648e+03
-2.717334990625793125e+03
-2.117515797187149929e+03
-1.489843007498022189e+03
-6.362835279207753274e+02
5.092136770064227562e+02
1.318805868362143428e+03
1.399659300194620073e+03
9.018537524509187051e+02
4.985634082009066219e+02
8.157775601211131971e+02
9.203222779172099308e+02
7.382491142851760060e+02
9.585909533263898084e+02
1.452308811419696440e+03
1.548548375014623844e+03
9.343476904351846315e+02
4.367849895017189965e+01
-6.864494721413860816e+02
-1.224993009666696253e+03
-1.566070480409940274e+03
-1.827774562770065586e+03
-1.784086241353636751e+03
-1.237890355283309646e+03
-3.232220118658437400e+02
1.099914572277994012e+03
1.755585294574608497e+03
1.443931609690791220e+03
7.729974350287833431e+02
2.787047148714079867e+02
2.870429134446903845e+02
4.149094999830510915e+02
5.372372708111954580e+02
9.570744083772816566e+02
1.620412023044997795e+03
1.950194958838143293e+03
1.293465121176815501e+03
-9.780837921307494298e+00
-8.715912766368600160e+02
-1.526997968297273019e+03
-1.893099286554460377e+03
-2.133043533003887205e+03
-2.191843720095646859e+03
-1.595375494472916444e+03
-1.170658491558108153e+03
-2.054621875409332915e+03
-4.412324819057792411e+03
-5.160678452989331163e+03
-2.651507391136773094e+03
9.717624186698247968e+01
4.762295176914967669e+02
9.525181463166812819e+02
9.209837667267917141e+02
8.967809817580867957e+02
1.392816851599289521e+03
1.503099030861212213e+03
6.756490649578475995e+02
3.414374007074162591e+02
-7.450896359195344587e+01
-6.983159552518649207e+02
-1.360048109980697291e+03
-2.191770701441726942e+03
-2.749582889985227666e+03
-2.146074534786720960e+03
-7.192107590237883414e+02
6.589441648718520810e+02
1.320504108579985541e+03
1.510169813813001610e+03
1.173031296377789204e+03
9.458693801532834868e+02
1.150005231870538182e+03
1.358220471293734136e+03
1.625598861541894166e+03
1.964842023636552540e+03
2.240227299112681521e+03
2.563821105179092683e+03
1.906226035796220913e+03
3.515664511655903652e+02
-7.648656478092675570e+02
-1.428243918570992037e+03
-2.357819896481785236e+03
-2.540679113804941608e+03
-2.409996793126791545e+03
-1.728498103331122820e+03
-3.762710844830434667e+02
7.617959259601977919e+02
1.407655618601176911e+03
1.635455676057466690e+03
1.143951171379825155e+03
9.931020967375799273e+02
1.647028229404146487e+03
2.288532410437564977e+03
2.178429645646908284e+03
2.062901086549385582e+03
1.914185340713352616e+03
1.674308443085682484e+03
1.433144605829861803e+03
6.427422612945571245e+02
-4.148814912791438019e+02
-1.448782372750735931e+03
-2.061226931899716419e+03
-2.578773153731178809e+03
-2.250025095640518884e+03
-1.375796339886752321e+03
-7.102358883591775793e+02
4.356572404379302270e+02
1.680943981354022071e+03
2.069603067577179900e+03
1.900611363860200754e+03
1.485050854744832350e+03
1.075919970668472615e+03
1.025194136790431003e+03
1.054870136700078547e+03
1.167995993564875789e+03
1.304523311459242223e+03
1.880436566557933247e+03
1.896764625212686951e+03
7.284989330975921575e+02
-3.573794791985777692e+02
-1.205928202841587108e+03
-2.263209897164314498e+03
-5.162382892553068814e+03
-6.146214834739071193e+03
-4.815687735103609157e+03
-2.938775674598387468e+03
3.856147635129802893e+02
3.764792646668043972e+02
-7.361670782441188976e+02
-2.569301319913442512e+03
-2.444907679953681054e+03
-1.361991214893902452e+03
2.484252987644528332e+02
-1.411635667163895278e+03
-8.200811810713041723e+02
1.044034928989208993e+03
-1.142753869688545478e+02
1.709103796359890566e+03
-1.024827181021327078e+03
-7.840539235420660589e+02
-2.200656467969981804e+03
-4.716677982657364737e+03
-2.907177913509779046e+03
-1.900176731110033643e+03
-4.478639071021384552e+03
-2.285527074660940798e+03
-2.873741021716019972e+01
1.036734483642009081e+03
6.595359136784182397e+01
-3.103193599731472574e+01
1.104820938979366474e+03
-1.097444516912559493e+03
3.792084212870843771e+02
-8.222304853035774386e+02
8.252799001683057440e+02
2.115749160641574235e+03
2.391128353367675572e+03
2.216444506165824805e+03
1.537747034630524240e+03
6.090720424691867265e+02
-2.605851121536470600e+02
-1.159267424073082111e+03
-1.884050432608635674e+03
-2.108965200868921784e+03
-1.555926202642981480e+03
-4.598095616695622994e+02
5.394902293213376652e+02
1.664017736495523195e+03
2.269770467584302423e+03
2.438738192054051524e+03
1.734879543761054720e+03
1.282212535118204642e+03
1.326680218814216460e+03
1.536285523014228147e+03
2.482131190680650434e+03
2.720291404055574276e+03
2.550760799700070493e+03
1.840566613994769114e+03
9.128389739738913704e+02
2.748079695405048710e+02
-3.826258947529768193e+02
-9.996160102585579352e+02
-1.671134204922848085e+03
-2.322240255739413897e+03
-2.222803749541886646e+03
-1.177606296030149679e+03
1.771838647189654807e+02
1.792631487696416116e+03
2.043764614033061662e+03
1.758473456818397381e+03
1.840793463136348919e+03
1.889655295101614456e+03
2.090028184190404772e+03
2.203776206766809082e+03
2.475009226239916643e+03
2.249949851222279904e+03
2.042424200609075342e+03
1.902162118760588783e+03
9.715409019989365333e+02
-1.272069334119775021e+02
-6.805013877357366709e+02
-1.199550001926786990e+03
-2.049072238120665588e+03
-1.916265151510692021e+03
-1.383322313012844461e+03
-4.740282975131514718e+02
1.100895270477663416e+03
1.894160736637039008e+03
1.750730459445082715e+03
1.955580340040826059e+03
1.294749818037175373e+03
1.106194653609585430e+03
7.608821928848402649e+02
3.468165756332650176e+02
9.410780693588972099e+02
1.961649359035747921e+03
2.674544636734719006e+03
2.294742264992659784e+03
9.822290573577332680e+02
-1.408500057116422077e+01
-1.189236048705148050e+03
-1.886236797025591613e+03
-2.398223184212108208e+03
-2.272309027748876360e+03
-1.628434126252491069e+03
-1.239459262900275689e+03
2.956380956052190072e+02
2.300783523629227602e+03
2.872977611314017850e+03
1.895278129923610550e+03
7.616540862359607900e+02
7.400972418367103955e+02
9.365843543132184550e+02
7.830704539363927097e+02
1.388628305762028276e+03
1.404318010522178611e+03
1.685058946258984861e+03
1.644840187476345363e+03
1.059615545797124923e+03
1.563517964293965576e+02
-4.700310782953008584e+02
-2.430599485607280258e+03
-6.011384978415686419e+03
-8.355486285619128466e+03
-8.588886684002480251e+03
-7.933486874441803593e+03
-6.481178024180789180e+03
-3.535986708347784315e+03
9.010049155401804910e+02
5.617818606356291866e+02
-3.302685364217744791e+03
-4.991179724361413719e+03
-4.817750085897378995e+03
-4.214464668457986591e+03
-4.130324519112506096e+03
-9.623525329997715971e+02
2.058388331076133909e+03
2.864924455965042398e+03
1.598279266392938780e+03
3.241579995261110980e+01
-2.578531059202861186e+01
-3.883212798664094976e+02
-1.085254473414767290e+03
-1.003717091830396271e+03
-4.596864301397010877e+02
4.379842940865502783e+02
1.640343166504138253e+03
2.406359604373865750e+03
2.333010771905504043e+03
2.612344842114363473e+03
2.374440049407618517e+03
2.021291576594494245e+03
2.314797104718211813e+03
2.654900971234303597e+03
2.317624909825631221e+03
1.874080327832022249e+03
2.175376471578649216e+03
2.169425612211171028e+03
9.831365408966325958e+02
-5.244368287346351281e+02
-9.873121109423005919e+02
-1.478560980807912756e+03
-2.022283587017802347e+03
-2.530520271040022180e+03
-2.147173298315038210e+03
-1.081177563926093399e+03
2.745056308047161906e+02
1.015978611548471122e+03
1.526255443259540016e+03
1.101295160614379256e+03
1.412315630624801166e+01
-1.702467581890270480e+02
2.961310964731467834e+02
9.822053048398198598e+02
1.381989278660415721e+03
2.073592778352728601e+03
3.122121059493626944e+03
3.023612518806551179e+03
2.205942053111507903e+03
1.466145034378266246e+03
1.113243912272088437e+03
-1.168193882302503965e+02
-1.117062588439059937e+03
-2.896422535107601561e+03
-3.143741323852058485e+03
-1.218087994335286794e+03
1.181275175297352689e+03
2.634612612923484903e+03
2.845013310100562649e+03
2.528412817224726950e+03
2.755859207769730801e+03
1.994430708757486627e+03
1.499105775781872126e+03
1.428773015015337251e+03
1.244472119372772795e+03
2.446203354606872381e+03
3.111098038374703719e+03
3.273173715134620579e+03
1.985413006725762216e+03
-2.277128343417941323e+03
-4.019468625914323638e+03
-3.995709665609932927e+03
-4.501868914711494654e+03
-3.037090532749919475e+03
-3.608299375161370790e+03
-2.413397471437139757e+03
-3.759311350959710126e+03
-6.879849114669480059e+02
-2.663714637636539351e+02
9.775418227786170746e+02
-2.055190270128935936e+03
-1.985486800567430691e+03
-3.193491856280945171e+02
-1.111893248523350621e+03
-8.301060446765826555e+02
-3.578989745060486598e+02
4.027190741618758238e+02
-2.925139897016971702e+01
1.482279877567516166e+02
-1.831893306090024907e+03
-1.291632657858422590e+03
-2.620992374996957096e+03
-3.076017792262855437e+03
-3.685861648906418395e+03
-1.718450244440578444e+03
-1.982665881034412223e+03
-2.174350371857416576e+03
-9.215157185261981567e+02
-3.240841169914805420e+00
-1.134490598749667470e+03
-7.382065453134608788e+02
1.011596600714719330e+03
-8.400422753994499772e+02
-1.932188134079860220e+03
-9.249029925451142162e+02
4.457939588888885964e+02
2.274974245359613178e+03
2.978678690870961873e+03
3.619171154091522453e+02
-1.592788258315055714e+02
5.599956886794343518e+02
-1.733845915568193874e+01
-5.802514924906653278e+02
-9.208847342756400849e+02
-9.603009612111518436e+02
-8.624219285535468771e+02
-2.221839016197672549e+02
7.444968783115723454e+02
1.476673485661652194e+03
2.031349837410872851e+03
2.376494378528275774e+03
2.239039230239935478e+03
2.352927685941326672e+03
2.401062164866003968e+03
2.567436869605060110e+03
2.875171089482290427e+03
2.792273341975949734e+03
1.894711749827634321e+03
-7.006533240301826027e+02
-6.063580823191168747e+02
-1.074491798176691191e+03
-1.760017162478161708e+03
-1.976490100248203589e+03
-1.794915636415438257e+03
-1.314283736160317403e+03
-5.463231970000629190e+02
1.660718422745707414e+02
7.844651945343723582e+02
1.760199188304966583e+03
2.397192424686546474e+03
2.629602441502612237e+03
1.886294737387348505e+03
1.012090238787675958e+03
1.343009318773228188e+03
1.826785081789461401e+03
2.293812012466268243e+03
2.234801330270671315e+03
2.293923090649991536e+03
2.008361709499136623e+03
1.762779839071182096e+03
1.247984634524953208e+03
4.714559779633556786e+02
-1.174989169035131482e+02
-7.089400091032723594e+02
-7.469294734825035675e+02
-5.121768841887953840e+02
2.733446915619031756e+02
1.347503613734207192e+03
2.135765167007489708e+03
2.586915624223090163e+03
2.835969820181624982e+03
2.875707437933825531e+03
2.634953848771597677e+03
2.505935852529168642e+03
2.506529672292448140e+03
2.303629884732755727e+03
2.665149099696685425e+03
2.903210081449576137e+03
2.323950873149191466e+03
1.053394799961758281e+03
1.014988309239627853e+02
-3.558210344808582022e+02
-5.957859965914503846e+02
-8.906421914543408320e+02
-7.645032012320109516e+02
-1.793101455474973704e+02
5.349889090702110934e+02
1.425541290926676766e+03
1.988410172271297370e+03
1.877580597606718811e+03
1.392079473096388938e+03
1.145873616412967522e+03
8.789332504301918334e+02
-6.276824625363282166e+02
-2.685975172893952731e+03
-3.382961856916872875e+03
-3.017666066049439451e+03
-3.668147374063275038e+03
-4.418429101268359773e+03
-5.644530200043604054e+03
-6.410445136723213182e+03
-5.513236873183157513e+03
-6.112953882120249546e+03
-5.759660940205215411e+03
-4.916439072897936967e+03
-4.649090418922231947e+03
-4.246519703444479092e+03
-3.563794223866034372e+03
-1.743915961861084497e+03
-3.409094453839574612e+02
-2.466790096706932218e+03
-3.418461021267622982e+03
-3.642856550034368411e+03
-3.271056258791065829e+03
2.428610660947811368e+02
2.637070929496245299e+03
-2.912737355632170875e+02
-2.441168866580722352e+03
-2.320545189942339221e+03
-3.586360969402036972e+03
-4.876704030635220988e+03
-3.837658227115886348e+03
-8.324226390853593784e+02
-8.861073958814894240e+02
-4.965283426255783752e+02
-1.284805674927915504e+02
5.580242189462277338e+02
1.184062134664691712e+03
1.298576593459010837e+03
1.290598666390288827e+03
1.205189606717110109e+03
1.305339602442072646e+03
1.960052208485386700e+03
2.781216070377039159e+03
3.426804403368423664e+03
3.432936613654801477e+03
3.239710460807529671e+03
3.686252380755367540e+03
3.427623746464511441e+03
2.154817433912626257e+03
8.968426825243396934e+02
6.257132878633245809e+02
7.084775799554050764e+02
-2.369829580856817302e+02
-8.817939868177379594e+02
-6.088434400432525990e+02
-3.980735107012670682e+01
6.775586198037212853e+02
1.157166409159777913e+03
1.292934549930153935e+03
1.419857050092932241e+03
2.027850272136738567e+03
2.009997247736692088e+03
2.209303916142162052e+03
2.656638971671019590e+03
3.072047990531671530e+03
2.796580688954044490e+03
2.246279236233597203e+03
1.788321109376396407e+03
5.361546624951569129e+02
-8.941811157696500914e+02
-1.574846261869532100e+03
-1.404891782138541885e+03
-1.201433344020189679e+03
-1.481542837069617917e+03
-2.222039429551685316e+03
-3.592453490771121324e+03
-1.924812714355254684e+03
2.175454885498066631e+02
1.450727127796681998e+03
2.034860503298950789e+03
2.095077214941310558e+03
1.759233032289197808e+03
1.770288431154517866e+03
1.979922435467247396e+03
2.335191399155035015e+03
2.149155140764225962e+03
2.317827376242721584e+03
2.238288010647333977e+03
9.376342935538360734e+02
-4.172226298774436941e+02
-6.433335566797783258e+02
-8.987178977468524863e+02
-1.664502939781098803e+03
-2.146652730658676319e+03
-2.217086548651018347e+03
-1.474885467249050407e+03
-9.297023888820953630e+01
6.327055801078302011e+02
3.951800910275748606e+02
-4.924100202222141434e+02
-5.588443174119342984e+02
8.990099569113039024e+02
1.521953707021243872e+03
1.070928916292527219e+03
1.269070198953191039e+03
1.567323123023374819e+03
1.537541139940834228e+03
6.216744959602589233e+02
-2.923257969976554591e+02
-6.934576591126192397e+02
-1.422740328362508762e+03
-2.486229410882498087e+03
-2.463035776463258117e+03
-1.855206074412383714e+03
-1.649842354547057084e+03
-1.117970782365350260e+03
5.851437511157276816e+01
1.084669602448233036e+03
1.274482720520851899e+03
3.720645697555249853e+02
-3.925618104342158290e+02
1.765217584172036709e+02
1.328279811795834803e+03
9.947517563262665590e+02
9.749279039322020708e+02
1.279739159559761902e+03
1.485108880194343328e+03
1.272147201473308769e+03
1.668879511499171713e+02
-1.317632277996622179e+03
-3.087510314237289549e+03
-5.466980539488001341e+03
-3.812238813281254806e+03
-2.839449563089785897e+03
-2.534364605562362158e+03
-2.193887427615667548e+03
-8.409527782544552110e+02
1.034577244058931456e+03
1.244797217496620306e+03
6.847190371945821425e+02
1.160405287513683277e+02
8.787084107997363844e+02
1.511234626242802733e+03
1.624545229158288294e+03
1.968158229332444535e+03
2.052030854321425977e+03
1.805224486245246680e+03
2.287105165011508689e+03
9.454560781663775515e+02
-4.301289021495408065e+02
-1.425419897732332174e+03
-2.511784477733163385e+03
-3.306921395333289638e+03
-3.410242204940095689e+03
-3.536541184305718616e+03
-2.995167768453674853e+03
-1.150732872855696087e+03
1.034283814241387063e+03
2.114034923107604300e+03
2.345428703211896391e+03
2.415625076073089986e+03
2.316587470033022328e+03
2.304110655742635572e+03
2.179531775914048922e+03
1.843566825344248628e+03
1.393265455401904092e+03
1.425617033041600962e+03
1.776464436525163364e+03
-2.095620319922434582e+00
-1.643849823010583805e+03
-2.519258184823373540e+03
-2.314058741484744132e+03
-2.045230245130103185e+03
-1.963984108186010189e+03
-1.250335273449777787e+03
-3.229943979757250645e+02
5.599431169764498009e+02
2.160015069115338065e+03
3.093472695254863993e+03
3.309450709239652952e+03
2.521718720099815528e+03
1.980123397161343746e+03
1.616454819277816341e+03
1.568015293480768833e+03
1.973874970039653135e+03
2.118060327211082040e+03
2.033429424791642987e+03
2.451013535438680265e+03
1.827812488940175854e+03
6.557732256611211596e+02
-3.681321299713436588e+02
-1.287926176428558165e+03
-1.535670079504278419e+03
-1.095447884053780854e+03
-8.291210894222507122e+00
1.162851644121659547e+03
1.952091972264738843e+03
2.370542247552109075e+03
2.259193334797513216e+03
1.651046521884340564e+03
1.267080912936230106e+03
8.382765482488335920e+02
-7.387813735132771953e+00
-3.497936116782704630e+03
-3.689957642874693192e+03
-3.411713799556473532e+03
4.857911363760019299e+02
-1.268376207624413155e+03
-9.022473905652564099e+02
-3.361855119430550985e+03
-3.754171837411097840e+03
-3.726273433088003458e+03
-7.897151659012468372e+03
-6.727844020691146397e+03
-5.139402838694456477e+03
-4.246749076340262036e+03
-2.359790497483221770e+03
-4.104098335059439933e+02
-6.315834117507131396e+02
-1.024347624950312593e+03
-7.696286990537960264e+02
-1.343431313390412470e+03
-1.329735782148512499e+03
-9.856086857441172810e+01
1.757121405269743036e+03
1.202300277513641504e+03
3.596978780211986304e+03
2.291254010679777366e+03
8.301493011420052426e+02
-2.518308646193734603e+03
-4.602132211322391413e+03
-5.780321515431347507e+03
-7.404906572155198774e+03
-6.366003540868005075e+03
-3.762581989098483973e+03
-2.890505499366430740e+03
-1.356758160842683537e+03
-1.600293047680245763e+03
8.099423523613675115e+02
1.921023615328191227e+03
1.405974896166138024e+03
-7.911205939026369833e+02
-1.754285937050058465e+03
-9.835425550848883631e+02
6.121535158626915063e+02
2.791917861004439146e+03
5.654795143024485697e+03
7.314750531446527930e+03
6.359816005018549731e+03
4.192044376559197190e+03
2.159432008706005945e+03
1.149255693871127448e+02
-1.261536110377208615e+03
-1.830972959046187270e+03
-2.120331061122622941e+03
-1.717486875097661141e+03
-5.163929058017262150e+02
1.079318009879649054e+02
1.466512837527984175e+03
2.583733866062671495e+03
3.417785393327283145e+03
4.381634836357901804e+03
4.665218069332656341e+03
4.665582396287152733e+03
4.240717282542253088e+03
3.693645844006401148e+03
2.916393676217453049e+03
2.515903903413297940e+03
1.797259197498177627e+03
4.204030873301918518e+02
2.422961295349278430e+02
7.520125736012274729e+02
7.546576295857740888e+02
6.378780811451946420e+02
2.455515615307064650e+02
-6.551481606207984214e+02
-2.829243189609489377e+02
4.682080949547698197e+02
7.120792762551224087e+01
-1.757905748624278658e+03
-2.809153457719835387e+03
-2.623616972270738188e+03
-2.154265333018070123e+03
-8.502209912839174422e+02
6.725923005020729306e+02
2.179373910762617015e+03
3.264188609234237447e+03
2.170860000433798177e+03
1.733027388323578677e+01
-8.814945784799506328e+02
-3.017521919968351654e+02
3.785488798859424833e+02
1.008298205450065211e+03
1.084457905174426287e+03
1.054023697775964138e+03
1.392026136952285469e+03
2.537497543198587664e+03
4.478447719351469459e+03
4.921823694140774023e+03
3.534600554221987295e+03
1.784786469438548693e+03
5.734734219659128485e+02
-6.836282917601315035e+01
-1.318936346558824084e+02
-6.941617733205403056e+02
-1.022132996824041584e+03
-9.468123808871182518e+02
-6.922740731752454622e+02
-9.344886250454824221e+02
-2.482418935997306107e+03
-4.580126474153251365e+03
-4.865719043150224024e+03
-2.617246833355413401e+03
-3.598251787139696489e+02
1.198529993136214671e+03
2.300873672840910785e+03
3.006221435834864678e+03
4.138506326400757644e+03
5.628771659797058419e+03
4.874945475226362760e+03
3.420984418302005906e+03
1.237925257704707747e+03
-1.338216378388322028e+03
-4.450486698900069314e+03
-5.026998465088083321e+03
-5.102731180812796083e+03
-5.932673312223490029e+03
-7.074866356723184253e+03
-9.438331539520291699e+03
-1.161610776588324552e+04
-9.378222560546804743e+03
-4.823689915690367343e+03
-4.400454127975721349e+03
-7.554701171342152520e+03
-8.542669663155571470e+03
-7.669347862125403481e+03
-5.408643623105615006e+03
-8.545460087557552242e+02
4.995948614810894469e+03
5.652830024148462144e+03
4.648123585053902389e+03
3.220800574998250340e+03
2.836846208095236307e+03
2.901164126642516294e+03
3.691726281565238878e+03
4.043579640089533768e+03
4.227751739882591210e+03
4.667175903266398564e+03
3.890853085725967958e+03
3.071761139428822389e+03
2.200902778109986230e+03
1.662250391452236329e+02
-2.042357958700148629e+03
-4.600991353545767197e+03
-6.784739475944187689e+03
-7.606497935774888902e+03
-6.331149364210345993e+03
-3.050728663187942857e+03
-9.524166721005282170e+02
5.828471676178985490e+02
3.038224005957417830e+03
4.695678142515379477e+03
5.671174544607683856e+03
6.138688621488839999e+03
5.937225580417704805e+03
5.736777344227375579e+03
6.366307384555354474e+03
7.554949796317871915e+03
8.362763283567737744e+03
8.542560744990363673e+03
7.399292613417679604e+03
4.662969606513395775e+03
1.867508887723191492e+03
1.018502672635518991e+02
-1.393028241625964483e+03
-1.076004490285091606e+03
-2.809355906658911977e+02
2.641980998366164499e+02
1.355266577947289761e+03
2.427228121826253755e+03
2.974273989776396775e+03
2.796433669453709172e+03
2.001722340249833451e+03
1.648090839702894982e+03
1.931538778527462227e+03
1.861148746874915787e+03
2.150913441465202141e+03
2.186888728777690631e+03
9.011748671537932296e+02
-3.376178190569374692e+03
-6.152061708610880487e+03
-8.682434860717625270e+03
-1.013055697158509247e+04
-1.092856768187051966e+04
-1.017657341149428976e+04
-8.320345475575524688e+03
-1.023371501770220493e+04
-1.145661845816872665e+04
-5.488131297012972936e+03
1.102775866766019135e+03
1.119179245669980901e+03
-3.344865479018197675e+03
-5.844300565636396641e+03
-1.473075904236511860e+03
7.987022916296067478e+02
6.501871265251506884e+02
2.143414104858842620e+03
1.271446333685277978e+03
2.140365264356498756e+03
3.026213774286348780e+03
5.200976597968975511e+03
4.552711626109746248e+03
4.757418820288507050e+03
