3.488089403064895123e+03
1.223377436208214249e+03
2.965511123934939405e+03
5.276535179164067813e+03
5.585469627936477991e+03
6.888405999971113488e+03
8.140445225075050985e+03
8.046590759146344681e+03
7.805866692823873564e+03
7.687293320215097992e+03
7.752866004860434259e+03
6.638663620471123068e+03
5.690660397170586293e+03
4.844813598303357139e+03
3.931235964457426235e+03
3.280982505783289980e+03
2.689229100116145673e+03
2.427774673474492374e+03
2.119869081011873732e+03
2.486595496608622852e+03
3.051975265701908484e+03
3.679035605224707524e+03
4.635846669921543253e+03
4.984331545936229304e+03
5.241529442539293996e+03
5.539597693083457671e+03
3.842554241140004251e+03
4.710083740047938591e+03
5.274207072820655412e+03
4.193977986531383067e+03
5.097256143354850792e+03
4.597559744250427684e+03
3.839405685015600739e+03
2.428703659622125997e+03
1.819526299824718080e+03
6.648132392732863991e+02
-6.864797371616072041e+02
-7.313870300173344958e+02
-3.849732555009472890e+02
5.779429082561696518e+00
7.948423789386504268e+02
1.659248614661020611e+03
2.312948873553048088e+03
2.758932875887791397e+03
3.504010786119943987e+03
3.949180691242849207e+03
4.035962806408246706e+03
4.087691445952613776e+03
4.501464727230543758e+03
4.266235878541848251e+03
3.529765546840150819e+03
2.743288363459766060e+03
2.008464324553984170e+03
1.134256296753147581e+03
2.025051366836726174e+01
-6.392740322334617531e+02
-1.080587445902323680e+03
-1.211754871253928968e+03
-1.535816016924034557e+03
-1.047847972218575251e+03
-5.598920294861956108e+02
4.830970310538185117e+02
1.375084308417953935e+03
1.816062730526752148e+03
2.886026964825701270e+03
3.188952279967194954e+03
3.489781570511449445e+03
3.349519404630581448e+03
3.121107753107043663e+03
3.026481207426017136e+03
1.912613494820995811e+03
1.731455299270240630e+03
1.545938976687895547e+03
8.719530385804818025e+02
-6.135658255919324802e+02
-1.478689035285755608e+03
-1.840469353759520118e+03
-2.153015929917917674e+03
-2.237372872855004971e+03
-2.350574810725318912e+03
-4.173651318950742279e+03
-7.719549873432692038e+03
-1.075626937829991584e+04
-1.015082752805346172e+04
-9.438218799640682846e+03
-8.145460974956972677e+03
-7.143555174464485390e+03
-6.767502174173539061e+03
-6.570361504106065695e+03
-7.274152971687769423e+03
-7.049907861911189684e+03
-7.236534474697247788e+03
-8.180771764289286693e+03
-9.313139521667999361e+03
-9.720738949200056595e+03
-7.003600907953376009e+03
-5.474667383435950796e+03
-9.968087007950587576e+03
-1.084582103384425682e+04
-1.052984176579774066e+04
-9.703139010541766766e+03
-8.130737262774210649e+03
-1.646076441457646524e+02
3.577298677815729661e+03
3.164982683462125806e+03
3.533511275272771400e+03
5.467881588147722141e+03
5.736120103186674896e+03
5.712237508337104373e+03
5.626270797103930818e+03
4.984177328887314616e+03
4.558964586122832770e+03
3.995647158065467465e+03
3.040208864531705331e+03
1.596624787754585213e+03
8.418890497255836181e+02
1.129311634730898533e+02
-4.162307564617000821e+02
-5.405936546875773274e+02
-4.251461433435805475e+02
-1.378595682465033292e+02
9.063739846236793483e+02
1.993629977723047205e+03
2.447959252502942036e+03
3.300403924564860063e+03
3.767996451313385023e+03
4.053825762812939502e+03
4.730929757270192567e+03
4.776326527354349309e+03
4.737046911844998249e+03
4.113160482314270666e+03
3.038726621498328313e+03
2.265775556922222222e+03
1.768270462720219939e+03
1.021763409024223392e+02
-1.113449862919310135e+03
-1.406635268544275050e+03
-1.514374779647097512e+03
-1.686602384992360157e+03
-1.558254405611159655e+03
-1.002217374668252660e+03
-1.424882476433380418e+02
9.720092258058582502e+02
1.937319250213683972e+03
2.410364402344390783e+03
2.567181236449281641e+03
3.132983706628450818e+03
3.472444000707375835e+03
3.470741203810829575e+03
3.378062194187833029e+03
2.778145398026964358e+03
2.167001227595284945e+03
1.384501756272600232e+03
1.024531744873235510e+02
-2.172961568490113677e+03
-4.693923931307916064e+03
-2.881643979378303356e+03
-2.651928360924980097e+03
-3.079823060253135736e+03
-2.553313506513575703e+03
-1.883314986796245876e+03
-1.285789477956141809e+03
1.563808534119236242e+02
1.252250828991051776e+03
1.448904541015848508e+03
1.753359276213354178e+03
2.142667166657906819e+03
2.377911929690612396e+03
2.713100007346258735e+03
2.391255557610289543e+03
2.102423741089295163e+03
1.521621160984957896e+03
7.838613799302906955e+02
1.101083681418592306e+02
-7.096049877068400065e+02
-1.655305939183379223e+03
-2.319008514229441062e+03
-2.612725453075955102e+03
-2.835470742849618091e+03
-2.762249622645122145e+03
-2.530012142089395184e+03
-1.875710036039008173e+03
-7.852681345199821408e+02
7.533581307273925631e+01
5.001228571088263948e+02
9.731159421266116851e+02
1.473361988455430946e+03
1.626854139427585096e+03
1.653614408404732103e+03
1.790642651701301702e+03
1.629921883632391200e+03
9.704613838353976689e+02
5.862259743911480427e+02
-1.828146061151672370e+02
-1.180740913217625348e+03
-1.831596682754899348e+03
-2.140435662548234177e+03
-2.596372844091181832e+03
-2.795447080803458903e+03
-2.717622626329070954e+03
-2.300932226272518164e+03
-1.565322870038681913e+03
-8.118080732840973042e+02
2.685554363683884276e+02
1.104806074971522776e+03
1.518940107140967939e+03
2.171981472910470984e+03
2.629876846411819315e+03
2.429632061688912017e+03
2.484160139819427968e+03
2.799357699181807220e+03
2.084373635010368162e+03
1.408039416597342324e+03
5.652615297556463929e+02
-4.209984870543976285e+02
-1.297832724010220090e+03
-2.068327093910360873e+03
-2.227550530258970866e+03
-2.556686225753176132e+03
-3.908031688082561232e+03
-4.081021890919160796e+03
-1.204384318882868911e+03
-1.490875327695120802e+02
7.658784717490327694e+02
1.463938940555043246e+03
2.339463450905665923e+03
3.302122282602386349e+03
3.724857334176064796e+03
3.895680860059469069e+03
4.103436869361215031e+03
3.583225898587755182e+03
3.272119225990385530e+03
2.651560654634518869e+03
1.923957142970822360e+03
7.688289703592962496e+02
-3.858789396837962045e+02
-1.025344972274209567e+03
-1.712904619954656255e+03
-1.808674768434776070e+03
-1.213433142341763187e+03
-3.760987671870382201e+02
4.362543341604530269e+02
1.359903980863566630e+03
2.005387109087364479e+03
2.464968735267253123e+03
2.928750598376554535e+03
3.709250059493741446e+03
4.604900857329678729e+03
4.665274173060241992e+03
4.586644371281196072e+03
4.067566312043215476e+03
3.599140210552409826e+03
3.231206781342941213e+03
2.489101662890194802e+03
1.807717366529861010e+03
1.019219527580277258e+03
2.657899718339748460e+02
3.164344032400212541e+02
6.433139986869676363e+01
-4.209101469248612659e+01
2.754302757050490982e+02
8.541502944419123651e+02
1.739926754404466010e+03
2.593625803103794169e+03
3.375308516270835753e+03
3.813006713157771628e+03
4.065745957552452637e+03
4.612525816280236540e+03
4.829398561729598441e+03
4.866327722799015646e+03
4.024322974082338533e+03
1.062396295309223206e+03
-3.826481633059415344e+03
-8.405329084566166784e+03
-9.582192884092406530e+03
-9.742078888647754866e+03
-1.009703873985600876e+04
-1.041307699536003202e+04
-9.618174802641164206e+03
-1.015534894301769782e+04
-9.688568050334013606e+03
-8.028779280760576512e+03
-5.217992983385093794e+03
-5.092952833619725425e+03
-5.582815898080712941e+03
-5.586154116572833118e+03
-3.505866656416126261e+03
1.033758990751992769e+03
-2.307188517175573907e+03
-4.572653311973735981e+03
-4.344562450568065287e+03
-4.552917367655501948e+03
-4.925630046129973380e+03
-5.349665138065563042e+03
-6.134084597805548583e+03
-6.955870233459400879e+03
-7.606047817568058235e+03
-7.517606788413307186e+03
-8.175474068977880052e+03
-8.629597462335956152e+03
-8.120943615281239545e+03
-4.315434380730317571e+03
-5.739566631046290013e+02
-4.111404079318360345e+03
-4.854686711847048173e+03
-4.345796375317575439e+03
-7.675768390313190821e+02
5.185089284171199324e+03
7.259261621414991168e+03
4.981958444907974808e+03
4.557271256428046399e+03
7.250289624057045330e+03
6.975040397945334007e+03
5.912568850302678584e+03
5.060888878232923162e+03
4.050032019259344906e+03
2.847965378334371508e+03
2.556744810663157295e+03
2.045433843878770858e+03
1.645109622546823857e+03
1.593799221543085878e+03
2.389541405067677260e+03
3.012485826063891636e+03
4.029727543436964879e+03
4.978384707422317661e+03
5.369569456408370570e+03
5.671377047317406323e+03
5.941952847989792645e+03
6.211240095569499317e+03
6.204275715421003042e+03
5.839215726316596374e+03
5.276175444399241314e+03
4.580157413791348517e+03
3.883241233136285700e+03
3.026380575471554948e+03
1.786570444625965365e+03
5.687094566114712961e+02
2.792873210396163230e+01
-1.455427886894514415e+02
-3.952296531497005390e+02
-2.532599424448282548e+02
3.554639744555817629e+02
1.264931270121036505e+03
1.899228967628824876e+03
2.502435335176963690e+03
3.160687055310611868e+03
2.776208344899797339e+03
3.152864636654995593e+03
3.775586841126164927e+03
3.344497286987360894e+03
3.956567217081452782e+03
3.335866998199524915e+03
2.709260108264798873e+03
1.687149968071697685e+03
7.932024604305091771e+02
-1.655677589403684919e+02
-9.062126558402404726e+02
-1.701701872265502516e+03
-1.856118068143550545e+03
-2.147751756855940585e+03
-2.516745965327554586e+03
-1.546109204605786545e+03
-6.417789063394673121e+02
2.101011934003435897e+02
7.915882592847934802e+02
1.418709793588606772e+03
1.826521228994717376e+03
2.062135883407348047e+03
2.193593854174886474e+03
2.363909606907259331e+03
2.417048178002968598e+03
2.085948676098774285e+03
1.474512234871157943e+03
1.161696116493887530e+03
2.703848197329882055e+02
-7.614903606123822328e+02
-1.768936972681433872e+03
-2.445983785479239486e+03
-2.742787397643417989e+03
-2.761359845781462809e+03
-2.485670805248824308e+03
-2.005782475014939791e+03
-1.384707549314274047e+03
-5.804089518528470535e+02
1.950636343103477657e+02
6.027963536665447464e+02
1.134858774503281211e+03
1.875270820147465201e+03
2.533880090131802262e+03
2.502514840288131836e+03
2.257226396587454019e+03
1.950137533163112721e+03
1.410248855366573025e+03
5.444384971813631182e+02
-4.074755695789828565e+02
-1.189692677611659292e+03
-1.406263656379378517e+03
-2.062269346918391420e+03
-2.425640370783523394e+03
-2.966443424534596033e+03
-5.590819840701396060e+03
-9.224771352631802074e+03
-1.254922939833574674e+04
-1.162714566736531924e+04
-1.112047284077509721e+04
-1.016539138414448098e+04
-8.746976432660936553e+03
-7.911219809301243913e+03
-6.995866102756142936e+03
-1.250860852061004607e+03
3.502619457432299896e+03
3.051517752075592853e+03
1.317912532142012424e+03
2.291256035500214239e+03
1.513644561415003409e+03
3.491905784287960159e+02
-2.222592472402254202e+02
-9.648236989579143028e+02
-1.240556849239409985e+03
-1.393658271896871838e+03
-1.173300748556248891e+03
-6.905161701965359953e+02
1.707485654472487226e+02
1.307502172571102847e+03
2.144771657246572431e+03
2.550516802235654723e+03
2.963816778957408133e+03
3.572781049923188220e+03
3.840408900479148087e+03
3.566662813270478637e+03
3.900527602066557847e+03
3.410916794374447818e+03
2.838738911213491519e+03
2.380964973861914586e+03
1.601512943241567427e+03
5.843161284828757971e+02
-6.266867644632914107e+02
-1.429494190423183227e+03
-1.501056818729579390e+03
-1.510477325565616638e+03
-1.447756136259386494e+03
-8.097872189196885984e+02
-7.563773710707678788e+01
7.556888860098791838e+02
1.442258575963320709e+03
2.093009691510371795e+03
2.612913351061220510e+03
3.142995792802529195e+03
3.529293093183541259e+03
3.764776602041783917e+03
3.585498776930501663e+03
3.474506225211024230e+03
3.160753797196016876e+03
2.280274590058289050e+03
1.320129806929095366e+03
4.973385675285852585e+02
-5.491717066564807510e+02
-1.072567972359276382e+03
-1.423860709413280347e+03
-1.836039833595690197e+03
-1.659094481324116259e+03
-1.115965848370825825e+03
-4.726072563403321283e+02
-5.092733569152142792e+01
1.092002342526313441e+03
1.689207172352942052e+03
1.205867963261307068e+03
2.564023595706521519e+03
2.793888715492664232e+03
2.715381279838034970e+03
2.839416242189879085e+03
2.790111748478048412e+03
2.452508540252235434e+03
1.925645796240969275e+03
-2.106376916354076911e+02
-6.672165199278904765e+03
-7.244841069708731993e+03
-5.899813044269928469e+03
-5.969363855643168790e+03
-4.046390152045655668e+03
-6.080790260787589432e+03
-2.414447086583147211e+03
-3.008315893718516691e+03
-2.863475962696131774e+03
-2.346909574623202843e+03
-3.176482287055721827e+03
-1.284088923657254554e+03
2.063397424961247452e+03
-1.188923153440344322e+03
2.592034529671946530e+03
1.149252618710959496e+03
1.745545603792323153e+00
2.480577721520851810e+03
-1.492311427821474354e+03
1.032051413190370567e+03
-2.352296775898124451e+03
-3.375446984439344760e+03
-5.431343077294384784e+03
-3.219825210934821826e+03
-6.353952497152236901e+03
-5.679808648215747780e+03
-2.124396887938156397e+03
-4.285675400311265548e+03
-8.616696055347335914e+02
-2.664324581148374818e+03
2.846844770980679300e+02
-1.252415725628008431e+03
3.200356652594782645e+03
1.334678726072712607e+03
1.377493034632625267e+03
4.402263597845450931e+03
2.170792276173454809e+02
2.363845893198884369e+03
3.249432820230433208e+03
2.271811464951382277e+03
-2.523964182854090723e+03
-3.259023364548752397e+03
-2.053580346849095349e+03
-9.376640947664625401e+02
-9.082734079764005628e+02
-1.153438181179295725e+03
-1.071930174197724682e+03
-3.816424525667243302e+02
8.083540165233534935e+02
1.684115797052820653e+03
2.211730672750509711e+03
2.915117280494433544e+03
3.670316607703859518e+03
4.271445010878371249e+03
4.624700812015917109e+03
4.577143637243242665e+03
4.190429293752112244e+03
3.573558384871121234e+03
2.897612328373368200e+03
2.329352043028505250e+03
1.697713149398721725e+03
5.280079616901019790e+02
-5.818771143859755739e+02
-2.451245702141103266e+03
-4.048508291357346025e+03
-6.112240105333103202e+03
-3.113418525516340651e+03
-2.143779588253864290e+02
1.030019717748342146e+03
1.857762023765867980e+03
2.705073269242489005e+03
3.225182231983895235e+03
3.902299218930092138e+03
4.584702387964794070e+03
4.772954702573681061e+03
4.762568209496273994e+03
4.864379909378218144e+03
4.102427913008089490e+03
3.196560418863419727e+03
2.695686052547168401e+03
2.032163346966918198e+03
7.853284079469530070e+02
8.367833865324547205e+00
-3.574209196710799006e+02
-4.768302622542358336e+02
-2.212640721768492540e+02
-1.944420804334405659e+02
5.070262750944064578e+02
1.503603317041181754e+03
2.467871268180471816e+03
2.900479128471498370e+03
3.494505521892095203e+03
4.102652855195789016e+03
4.639771898445315855e+03
5.194293867334799870e+03
5.496987463651739745e+03
5.171663605300108429e+03
4.321342251907547507e+03
3.279118737809188133e+03
2.811956405221002569e+03
2.533968396103416580e+03
1.314079823759622286e+03
2.991089515992129009e+02
-4.463331771936167911e+02
-8.893615912229574860e+02
-1.167847917581627371e+03
-9.879500033355526512e+02
-1.847301676520353624e+02
7.300294605233380025e+02
1.055323933693982781e+03
1.080025047405818441e+03
1.862155188550077128e+03
2.484805237232762011e+03
2.879995490580017758e+03
4.185663791411800048e+03
4.402768759307635264e+03
4.083341001844762104e+03
1.383403831921894607e+03
-3.178066222855899468e+03
-9.258120078762494813e+03
-1.127084114166557447e+04
-1.265219826997911332e+04
-1.334922418986922821e+04
-1.409494978451631869e+04
-1.439841229696323171e+04
-1.476057104703326695e+04
-1.391454231097483716e+04
-1.115136315564900906e+04
-9.037068748858502659e+03
-8.213262682636152022e+03
-6.769935550427104317e+03
-6.194924756930265175e+03
-4.100440750355714044e+03
3.146375116286523621e+02
-3.699695758613695034e+03
-6.665445297313447554e+03
-7.141625618531356849e+03
-7.377220195393241738e+03
-6.574183442570448278e+03
-5.596472930003161309e+03
1.518711401110504653e+02
2.420876767442250639e+03
9.625960813301488770e+02
8.859129644124735705e+02
8.368730319834648981e+02
7.555191994107610753e+01
-7.530818835226374404e+02
-1.024036215985587660e+03
-3.462341502467880332e+02
1.360433068874548098e+03
3.677034936187036692e+03
5.732601302256048257e+03
6.868202657033447394e+03
7.672938431661956201e+03
8.260874759256219477e+03
7.755035178479574824e+03
6.867464889613568630e+03
6.313223945589122195e+03
5.879397017870764103e+03
4.536042110497524845e+03
3.450163400827651458e+03
2.460773962470233982e+03
1.382848838198229487e+03
2.543097644237377253e+01
-8.084942057899069141e+02
-1.546903528493051908e+03
-1.355723837115271408e+03
3.410688515234824081e+02
2.617582037188713912e+03
3.127916374025297955e+03
1.916144453155858173e+03
1.834427925190497263e+03
2.502881189892001657e+03
4.124504073916724337e+03
5.960353348855111108e+03
6.529525933423953575e+03
4.932019608303528003e+03
3.161892943485901014e+03
9.682210627206545723e+02
4.020798675460311529e+02
-3.856365039244112580e+01
-1.882733085116212806e+03
-4.001312644851122968e+03
-5.375186868323682575e+03
-5.238964762299623544e+03
-3.854601713592460328e+03
-4.433095307167459396e+03
-5.794400745705042027e+03
-7.524523875938724814e+03
-5.585419753134699022e+03
-2.033067523135977581e+03
-2.506788412852468468e+02
2.179235970855124549e+02
1.675051203819713692e+03
1.055386142642219511e+03
8.575921521410754167e+02
2.163124410297012673e+03
3.394217591309083673e+03
4.268684415121855636e+03
5.389476826529917162e+03
5.837560127178396215e+03
4.484970623940743280e+03
2.008687571429823265e+03
3.276650778964739175e+02
-1.005127935357692422e+03
-1.929709688851285591e+03
-3.062026201251109796e+03
-3.681005098001466195e+03
-2.500648699057359408e+03
-1.026943345107667483e+03
3.691913619581411012e+02
2.234855357391525558e+03
3.402011464563881873e+03
3.560727069495499109e+03
3.813015161063739924e+03
3.586883837738868806e+03
2.665351458030469075e+03
1.203423426002445922e+03
-1.548660188275706275e+02
-3.125442070292375547e+02
-1.041671888766601342e+03
-1.773302664428978915e+03
-1.303460523975076740e+03
-1.360188193913131499e+03
-1.198516806682155902e+03
-2.284715948503399261e+02
6.788806589763171928e+01
2.205680166546077885e+02
4.815987016620009058e+02
6.569764333383315034e+02
6.017011819909487258e+02
6.517953042551994258e+02
8.232661929536346861e+02
4.611160543275613577e+02
6.443302314608849883e+02
1.405911022798032263e+03
2.769824255513980461e+03
3.656049866602306793e+03
2.669605507195675273e+03
1.606419114938149505e+03
4.174411689377304810e+02
-5.513836430844390861e+02
-1.203166022000474868e+03
-1.958971025178278751e+03
-1.480787553339807801e+03
-2.322665975488912409e+03
-4.139751887118079139e+03
-3.961098189496382020e+03
-3.211658849152831863e+03
-7.235144812244602690e+02
7.255738512831405842e+02
5.234314983382047330e+02
1.155010522168284297e+03
2.015318652628640621e+03
3.185334547906047646e+03
2.483900344334692818e+03
3.510039105214306801e+03
4.428477068659010911e+03
4.164744716385121137e+03
3.148731170571962139e+03
1.415295494418160388e+03
3.295001985713435033e+02
1.540249029892232215e+02
5.298813666944359966e+02
-2.859729981038359483e+02
-2.027054422960660759e+03
-3.050530058095611366e+03
-3.281849988197825496e+03
-3.145936597846110089e+03
-1.920426588152900422e+03
-8.839640960682966409e+01
1.199181947881913629e+03
1.827941267070232698e+03
2.787795237269922836e+03
3.021540002508416364e+03
2.248311185229777948e+03
1.932966925282330749e+03
6.347876955658576890e+02
-1.434007335858709382e+02
1.019574604829321970e+03
1.650055474170452953e+03
7.565913689800307793e+02
-8.974110458206474732e+02
-2.688885397735016340e+03
-5.252307697202015333e+03
-7.811742618076453255e+03
-7.576382731077833341e+03
-4.476904923377695923e+03
-1.662799013286820582e+03
-3.191622616121144802e+03
-6.357817764391126730e+03
-4.513622044486519371e+03
-1.201779832489009095e+03
1.167641048236466304e+03
1.962530250015549200e+03
3.268844452495741280e+03
5.300529245852640088e+03
6.093854433669066566e+03
4.444346440202606573e+03
2.278257916671236217e+03
2.358629582874510433e+01
-3.161768538073488799e+03
-3.803865493909583620e+03
-3.292758949863535690e+03
-3.790535232700569395e+03
-3.126236912778825172e+03
-1.181846711421314694e+03
5.565106389204069615e+01
1.252281545794468229e+03
1.666064261724661264e+03
1.931037369304152435e+03
2.342214226232620604e+03
1.147682674583167682e+03
9.254771316562424772e+02
1.924642939891608876e+03
4.220179206536558780e+01
-1.586834485517454823e+03
-1.404715082618899658e+02
1.680360696594443198e+03
1.755554369173349869e+03
-1.717635483483248436e+03
-2.114998947195395886e+03
-2.569612981495738950e+03
-7.130935025411535207e+03
-7.825966936356009683e+03
-4.588567172846816902e+03
-5.443723402698326936e+03
-2.253446362223232882e+03
-6.659671881063060937e+03
-8.218367977104757301e+03
-1.607471525148471756e+03
2.380925166243990532e+02
2.993846456183105715e+02
1.346480935558853616e+03
1.148455828434220848e+03
1.027376952251793000e+03
5.978231241076826336e+03
3.439062392780388109e+03
4.787955805623521883e+03
1.364904180748228555e+03
1.782913089077482482e+03
3.517020926857260747e+03
-1.592809098711523347e+03
-3.525437093687127685e+02
-1.843201759789506696e+03
-5.134778632116199333e+03
-2.462262821920300212e+03
-2.273599273654358058e+03
-4.127789682889008873e+03
-4.248741437592801958e+03
-5.153799879728514952e+02
3.803241387421066975e+02
-7.325702344355379410e+02
-1.795946060381213556e+03
-1.777748681739871699e+03
-9.279039208019532907e+02
2.030558581113898299e+03
5.331654240828812362e+03
7.855524057928099865e+03
7.051179190397434468e+03
4.864622532910842892e+03
5.131847818113062203e+03
3.843880518369461242e+03
1.245692078717248933e+03
1.491232233828920926e+03
2.168506938017973425e+03
1.591594806941332763e+03
1.224491696308796691e+03
1.931160204859501619e+03
3.077674208559625185e+03
3.590121810247018402e+03
3.701369032188024903e+03
4.132373200728616212e+03
4.519181473060990356e+03
4.555317370496357398e+03
4.574273205715981931e+03
3.870213789203924080e+03
3.424892270801378800e+03
2.929292115307571748e+03
2.581325302610785457e+03
2.223025415635599074e+03
2.310344293515210211e+03
8.523224735499239841e+02
-1.389217313794130632e+03
-6.093437719348029532e+03
-5.632411377598141371e+03
-4.638047426157735572e+03
-2.317122323417899679e+03
-1.388987221961227306e+03
-3.404491612848271842e+01
1.211883797653514193e+03
1.812462340863325608e+03
1.975692241970355553e+03
1.799405752217965528e+03
1.942605338901963250e+03
2.149191012887860325e+03
2.088000989604053757e+03
1.846799914221341396e+03
1.742926764765434655e+03
1.126034433575166986e+03
7.778669820778625308e+02
1.191585110195303514e+03
6.830803814087015553e+02
-3.786736576769177987e+02
-1.271758876912384039e+03
-1.509277405976774617e+03
-1.461380940263526554e+03
-1.494194938089168772e+03
-1.240727691397581566e+03
-5.839505201567284303e+02
1.151500063607103641e+02
9.025663920775921270e+02
1.067361677443175267e+03
1.029559472448718452e+03
1.260143006291554912e+03
1.850062518709359892e+03
2.275350603248690732e+03
2.595966553427163035e+03
2.313842031449787555e+03
2.210958123697771043e+03
1.454319222197421141e+03
4.828635162257863840e+02
-2.704400285021920922e+02
-1.939741349263728125e+03
-3.058202647255915963e+03
-3.429934661075068561e+03
-3.570833025818360056e+03
-2.915832602274928831e+03
-1.508036626430053730e+03
-6.715395872930731684e+02
3.258347816212457104e+01
9.792627126561773139e+02
1.002542349870612611e+03
1.042602101261313010e+03
1.930461879660788554e+03
2.812153851714620941e+03
2.909529968235452543e+03
1.609532438328686794e+03
-1.985778573209945989e+03
-7.814358912957034590e+03
-1.106030946826342915e+04
-1.082677000244582268e+04
-1.145487973734364095e+04
-1.156853817184943000e+04
-1.159568766294943089e+04
-1.197232538899793508e+04
-1.246679455595356740e+04
-1.033338012623633949e+04
-5.130070588742437394e+03
2.925552390646370213e+02
2.593328664437574389e+02
-2.319703564959049345e+03
-1.477585905742088471e+03
1.836558250058310250e+03
3.333687999300660067e+03
3.747783942829941225e+03
3.757779656647954198e+03
4.011650397135964795e+03
4.127555069055420063e+03
3.680627629984782288e+03
2.964781875968109034e+03
2.078974276570226266e+03
1.382174950710424582e+03
9.513991131217474049e+02
2.165983531026993205e+02
-4.163620299437300787e+02
-5.535759835633774628e+02
-9.806323127766201253e+01
4.611318868514450173e+02
1.052048199622004176e+03
1.626787225187764989e+03
2.374381770757419417e+03
3.000885270076596953e+03
3.325344560618898413e+03
3.704854334003185159e+03
4.007456201255423366e+03
4.294102678890975767e+03
4.043799354105394741e+03
3.586531285730802665e+03
3.279206802994507598e+03
2.905847042583466191e+03
2.578454499467694859e+03
1.530932165989211398e+03
6.173116583509063275e+02
1.176348122042622464e+02
-1.911028178900310195e+02
-3.799164103133661570e+02
-1.167507259530582928e+02
1.443993710323373136e+02
8.535648850976558606e+02
1.590838960011223435e+03
2.107259706945209018e+03
2.286791446001194345e+03
2.522415651826476278e+03
2.988205199222296415e+03
3.359295202362724467e+03
3.666745708762968661e+03
3.574565879562874670e+03
2.985762731070521568e+03
2.322346022402895869e+03
2.459295131314091122e+03
2.346679440019890990e+03
1.664518714337564234e+03
1.758861130826137753e+02
-1.770183917265848095e+03
-2.712820302395693034e+03
-9.281855141349800533e+02
-9.762230275196784532e+02
-9.557589083356873516e+02
-4.438083656761367024e+02
8.466227117992845308e+01
-1.339423205764228442e+03
-4.541714882924401536e+03
-3.669351997402500274e+03
-3.149354389962836194e+03
-1.137536929159127112e+03
-1.379828913832645867e+03
2.470850599163805782e+03
-1.161531310114978851e+03
1.751943220161218960e+03
1.132236870438655615e+03
-5.909510631532308253e+03
-1.627156467991790350e+03
-3.708761730509375866e+03
-1.381353251892752951e+03
-4.727933079189734599e+03
-2.455577705929431886e+03
-5.167319323939062997e+03
-4.480147329292999530e+03
-4.412974482906601224e+03
-2.461777949679648827e+03
-5.075470098338576463e+03
-2.833896260707811962e+03
-2.210060938569685732e+03
-1.434849419701978604e+03
9.847625918879464280e+02
-1.604060437497345504e+02
6.806713226072781708e+02
-2.513861557623428325e+03
-1.278938861519928423e+03
2.151490263573468837e+03
-2.096475013065629810e+03
-1.068800219289713823e+03
-3.753668274601242956e+03
-4.338358237406291664e+03
-5.737914355516754767e+03
-5.947016415037777733e+03
-7.606485730510726171e+03
-1.888682918084956327e+03
-3.732743402383212924e+03
-6.036225610332706992e+02
2.021805993244326373e+03
2.647510985716936830e+03
2.346422180117390781e+03
-1.063407603590553890e+03
6.782230527259891915e+02
3.282393402959367450e+03
4.227119859929042832e+03
4.331509443446984733e+03
4.087417530462839750e+03
3.356696966607239119e+03
2.649377374498596055e+03
1.912355738631325494e+03
9.364643311206023100e+02
3.316741912490574578e+02
-1.305787042615558846e+01
-2.568584246106033930e+01
-1.691791576578555407e+02
3.214009730032282164e+02
7.891649092650204693e+02
1.415056422723805781e+03
2.040024400654915553e+03
2.709293340358701698e+03
2.978842849565061442e+03
3.198477347172338341e+03
1.325052963155784710e+03
1.030486451365049334e+03
3.241370814593612522e+03
3.600414904880025460e+03
2.975755781412125543e+03
2.592798912574525275e+03
2.550653737638884195e+03
2.121733030012556355e+03
1.262768866556659304e+03
4.794679579780392942e+02
-1.725180034787627221e+02
-3.648133235953222311e+02
-4.497491382520897218e+02
-3.872226099715089163e+02
4.358250466095846036e+02
9.857229398508040958e+02
1.757215724660072738e+03
2.300176170284161344e+03
2.772537329606083858e+03
3.178739847519123487e+03
3.328442133544382614e+03
3.406958585015798690e+03
3.790835121304784479e+03
3.702072014045521883e+03
3.360066535525131258e+03
3.018490904799348755e+03
2.728031451811264105e+03
2.260401226771552501e+03
1.533839095672540452e+03
3.613412641386570954e+02
-1.481236804157426263e+02
-1.726247454243838604e+02
-1.401235243150306076e+02
5.737562512372232959e+01
7.718706682452484529e+02
1.193375258991492728e+03
1.814827526119767526e+03
2.121139261885528413e+03
2.372107297071143421e+03
3.010633914451972942e+03
3.463693670777973693e+03
3.723500404182387683e+03
3.741185984062475654e+03
3.842471990012506467e+03
3.701428653035178286e+03
3.288196424517383093e+03
2.879537264123109708e+03
2.677355955001941766e+03
1.723724668231061969e+03
5.916096344855760663e+02
-8.805431733458102883e+01
-9.835892135294432137e+01
-1.102312586007074515e+03
-4.381881720853204570e+03
-8.922088463404332288e+03
-1.062389706114322689e+04
-9.103261771913308621e+03
-8.283164748283013978e+03
-7.576540808412234583e+03
-6.793355782157005706e+03
-6.664568632246353445e+03
-6.299218617802067456e+03
-6.176326824506752928e+03
-5.541929525244242541e+03
-5.801954943964415179e+03
-5.701333075729379743e+03
-6.554598585375826588e+03
-7.263210390703457051e+03
-3.703294043403439446e+03
-4.814027348273986718e+03
-9.927305178456585054e+03
-1.015518201643828434e+04
-1.015864503693832739e+04
-9.838634623465111872e+03
-9.356110704125771008e+03
-8.277982130934638917e+03
-6.793211393973469058e+03
-6.476755021862361900e+03
-2.708588330575533746e+03
4.781389371790395671e+03
5.621236781610730759e+03
4.699987019952452101e+03
6.326657938202348305e+03
6.355148823926963814e+03
6.159597062925400678e+03
5.663086486395302018e+03
5.164619458468498124e+03
4.324141345957941667e+03
3.183671868397766502e+03
2.421241186726969318e+03
1.746861685271029955e+03
1.442551651962705591e+03
1.357344878580510112e+03
1.396247666040246258e+03
1.619348830821320234e+03
2.316745898750839388e+03
2.984514146148570489e+03
3.543676671736726803e+03
4.140304789779993371e+03
4.263478792033321952e+03
4.304323014788225009e+03
4.320872926352226386e+03
4.301218121682504716e+03
4.302382244871306284e+03
3.692444291545854867e+03
3.133517706982964228e+03
2.637631440973977078e+03
2.507758087444303328e+03
1.784940459546619422e+03
9.881242994909770232e+02
6.523472265419330540e+01
-2.556030983331247342e+02
-4.073456867865727418e+02
-5.339848450122898385e+02
-1.893880551741412717e+02
3.505703894579282291e+02
9.608418807044349705e+02
1.553345611581007688e+03
2.002196194718407241e+03
2.057775465817665008e+03
2.416624864574792355e+03
2.278128301254695998e+03
2.141249223505639748e+03
2.121683870413117802e+03
1.981486949662075858e+03
1.981697151853878040e+03
1.653352640091145986e+03
9.185285108442596993e+02
-1.080744052589283001e+03
-4.313779674568080736e+03
-3.077796873869284809e+03
-2.105428200386171284e+03
-2.246548708656646340e+03
-2.204358257650535506e+03
-1.817830361219896076e+03
-1.320176298418470651e+03
-7.723119026156756490e+02
-1.991015526611010387e+02
-1.214683804141201477e+02
3.356445331109304675e+02
1.248287980489221809e+03
1.659542331828597753e+03
1.708433306745969276e+03
1.665013334908956949e+03
1.480292333158888823e+03
1.034234487280412623e+03
7.849193390667187487e+02
-4.965595205391350220e+01
-9.795298374589120840e+02
-1.747707328761685176e+03
