7.777881073038357727e+02
3.333902468637183460e+02
-1.082594848776887630e+02
-2.391535533856208247e+02
-1.083034342187543189e+02
-4.446858141600450267e+02
-2.572824365861011984e+02
4.659542040523124911e+02
7.180869855034699185e+02
1.821152742434999482e+03
3.994169731719490301e+03
4.574138764763961262e+03
4.868113575405399388e+03
4.060174320496513701e+03
3.278352714635165285e+03
2.751702776708598321e+03
1.635347258335750666e+03
1.040279591842884201e+03
1.551567886478253968e+03
3.733338377094045200e+02
3.006526457738538056e+02
9.655976344397863613e+02
3.261339376667949637e+02
4.842661754993469572e+02
1.212041454931487579e+03
9.088446102763741692e+02
6.105116896382336336e+02
6.305416817934402616e+02
1.349915117222691606e+03
1.064036571931488879e+03
1.703115440477334005e+03
1.025979418609463664e+03
1.323763921854626005e+03
1.464103831955271062e+03
8.993522291171227607e+02
2.358780701198400038e+02
-8.884290527121585228e+02
-1.689148580404880022e+03
-2.023316624905436811e+03
-4.568061781126917253e+02
-5.686424778695250097e+02
-1.657856547526225086e+03
-7.744197629614149037e+02
7.277385333092339579e+02
1.398609196864019623e+03
1.063230029631741445e+03
5.465694130525449737e+02
6.566817740351647217e+02
1.594562722625820243e+03
1.384223696497595711e+03
3.666972484372469125e+02
-1.199761782367455787e+01
8.191504304805046104e+02
1.434203241501673801e+03
7.161366094320276261e+02
-3.610728957150694214e+02
-1.342429010371134154e+03
-1.878971719420529553e+03
-1.905668865933246025e+03
-2.386513012154890475e+03
-1.967541890674441674e+03
-1.266689606658951789e+03
-1.534920580374259771e+03
-2.876274635210904762e+03
-3.672810776571471706e+03
-8.875559556440613278e+02
1.187521817468760219e+03
6.574028882815514407e+02
1.150130406190052099e+03
1.916690805509287202e+03
2.226097659149316769e+03
1.974327025677100437e+03
1.605368861233069538e+03
1.032249984774509130e+03
4.939677019345114672e+02
8.994158631958108572e+02
8.255966316661039173e+02
8.065276185311023482e+02
1.022093993926740012e+02
-1.101421872457328845e+03
-3.494350187770289267e+03
-7.052543424450901512e+03
-9.527095493751701724e+03
-9.504096108242913033e+03
-9.514514361931265739e+03
-9.709312220114314187e+03
-8.382495942890514925e+03
-6.425089720359976127e+03
-3.882166346758926920e+03
-1.530705544282726578e+03
1.871247876365890079e+03
1.562698316203100376e+03
4.406026992395752586e+02
3.109099417917497590e+02
1.342612721497536995e+03
8.546287378816407454e+02
1.135827014607671799e+03
2.805596058689206075e+03
2.995688353784900755e+03
2.624068827824679829e+03
2.625865209086496179e+03
2.205280987082177035e+03
1.844885496727319151e+03
1.346750518314589044e+03
1.112812021888445543e+03
1.193792495902117935e+03
1.353795359088332589e+03
1.511790100647003783e+03
1.682800907573789800e+03
2.172760600185583826e+03
1.998634457938282594e+03
1.703440881206785889e+03
2.397216522924229594e+03
2.330944989632396755e+03
1.755507528258118100e+03
1.932084624251581772e+03
2.219640382087640319e+03
1.746835401703515799e+03
1.545780745894956908e+03
1.564448021417295649e+03
1.228044506929548334e+03
4.902228810286412681e+02
-1.650899153832228592e+02
2.902048709234443891e+02
8.391228486436369849e+02
1.781820304451742004e+03
1.948117146416210744e+03
1.596775473082051803e+03
1.246915302163558636e+03
1.185622808696630045e+03
1.568931761039052162e+03
2.490795072400287154e+03
2.356182408447367379e+03
1.833092261845396024e+03
1.213476266295825098e+03
4.042804659584754177e+02
1.796565200501129027e+02
7.853328895216195633e+02
1.908083782870740379e+03
2.237086280392239587e+03
2.175407771270731246e+03
2.022072005730660067e+03
1.844050775107110212e+03
1.368345741878216813e+03
8.359772219310765422e+02
9.639526804274281631e+02
8.142184684102462597e+02
1.092685755325413766e+03
1.780335788988076047e+03
2.127202308380439263e+03
2.056313361696407355e+03
1.763873690027169459e+03
1.745838513015994749e+03
1.889905996510854720e+03
1.949181858849578020e+03
1.462724469034408457e+03
7.125001491490869512e+02
1.190467529715596584e+03
-1.283161602437284046e+02
-3.232028262421405088e+03
-5.215435178581422406e+03
-3.843275837908771791e+03
-7.132037593638704493e+03
-7.033513513500862246e+03
-6.849670329576219046e+03
-5.725488886239467320e+03
2.829403825659678091e+02
-8.393531238275122632e+02
-5.767243309378899539e+03
-5.638806110360455023e+03
-5.565076023453169910e+03
-5.789961734822159997e+03
-5.933461176314042859e+03
-5.420549480332239909e+03
-3.932529578746855350e+02
2.467387512684264493e+03
8.864889231137177603e+02
-5.002998132183567577e+03
-2.372197581600464673e+03
2.214008500508413817e+03
1.842668334931024901e+03
-1.154287323721515349e+03
-5.492786335710561616e+03
-8.033751854977505900e+03
-7.466126847325196650e+03
-6.418825050170548820e+03
-5.645964523868172364e+03
-4.930708118010502403e+03
-4.692020220765069098e+03
-4.943802289903259407e+03
-4.382952236535228622e+03
-6.724536377284866830e+02
2.653701363150006273e+03
3.081539952574487870e+03
3.678134898902137593e+03
2.751541431808191646e+03
-1.314289098970668647e+03
1.471639848587230290e+03
2.031362867552939406e+03
2.211975139854640929e+03
2.834494590291985787e+03
2.351912132528496386e+03
1.755263504902547766e+03
2.239576544767151518e+03
2.494805143642015537e+03
2.326973219876725125e+03
2.473205326852372309e+03
2.684397032508324173e+03
2.723339832142508385e+03
2.460031152267939433e+03
2.361720042106082474e+03
2.887525753935873581e+03
2.920338897684604035e+03
2.655138484856126070e+03
2.349902420548460213e+03
2.583974204910326534e+03
2.503488171400580995e+03
1.944657903551654044e+03
1.615543173198162549e+03
1.158874306423793769e+03
2.425790560681178079e+02
-4.924762427713865520e+01
1.419939662173991124e+01
8.625833334301540845e+01
7.378220231065976122e+02
1.843895687155069254e+03
2.174482670144026088e+03
1.879679593621167896e+03
1.707627214943307081e+03
1.728158816993158553e+03
1.499162101410673358e+03
1.810550481642272871e+03
2.321757884878516052e+03
2.287752482794406205e+03
2.047216045790194130e+03
2.082483913048577051e+03
1.537615855134374897e+03
9.434088116374031188e+02
7.497650290963464386e+02
9.005983371658627448e+02
1.038952349703219852e+03
9.579162447481510299e+02
1.135203475244558604e+03
1.149580415865149689e+03
1.154371917891346129e+03
7.083644240032118660e+02
4.744631847650672398e+02
9.797241414884492769e+02
1.236139501216084454e+03
8.306785129597857349e+02
1.205298295089723297e+03
1.901040684755653956e+03
2.755933959867303201e+03
3.059970603618669429e+03
2.611075247459114053e+03
2.305318106419599644e+03
1.480734657830232891e+03
8.922576639513832788e+02
1.139875960814746350e+03
1.360624993050097601e+03
1.046483602260702810e+03
7.004342569886672436e+02
5.594655857928052001e+02
5.265002515725969943e+02
9.694764903182842772e+02
1.341404848717098275e+03
1.212220553583969377e+03
1.070797113219788571e+03
1.107237370080271148e+03
1.188522286904737939e+03
1.331724515739754679e+03
1.541880627715841229e+03
3.639666946218833345e+02
-2.457945519808134577e+03
-6.026875581608034736e+03
-6.158958019239064015e+03
-6.367095367226980670e+03
-6.348420961731745592e+03
-6.958980007240704253e+03
-7.661654842532191651e+03
-7.331506378332926943e+03
-2.881626717738601201e+03
2.040441251162598348e+02
-8.914601690966973138e+02
-5.224075927038568807e+03
-5.473921255043519523e+03
-2.994976350828928389e+03
-1.732304988095104818e+03
-6.563752212963425336e+03
-7.265384049025535205e+03
-6.550310623232991020e+03
-4.041440550201798487e+03
-1.991695529778220816e+03
6.669184966781051571e+02
1.302370792106527915e+03
1.811638413467537475e+03
2.040554235743269601e+03
2.006186331292674367e+03
1.508636258682975495e+03
1.163787999378675977e+03
8.565439254556844162e+02
7.039458935569093683e+02
5.500783343104924370e+02
6.019637865952806806e+02
5.545471856885715169e+02
3.947268051095533110e+02
1.806113730979742797e+02
1.033212706460375472e+02
3.898129252524469166e+02
7.529899855389629693e+02
8.098712057651642908e+02
1.033582539169612119e+03
1.208202926785200361e+03
1.134732736516904879e+03
1.054135471919412566e+03
7.924019971461273144e+02
2.836256366087987431e+02
5.127100589541503268e+02
8.835990190947464953e+02
1.364367706919076909e+03
1.483125753404422085e+03
9.068618665607427829e+02
5.182852520177016231e+02
3.014244507436014828e+02
3.014805130167384846e+02
3.563870070398917278e+02
1.091580557667823683e+02
-1.891376225757367990e+02
8.653844463366176853e+01
5.072060340065041828e+02
8.499184716329926914e+02
9.947247476875617167e+02
8.065382149448639666e+02
3.794272418785766376e+02
1.614177804701300261e+02
4.664802213083468700e+02
3.296811694375342654e+02
4.551489465349438888e+02
5.333090111100481181e+02
-1.880831895285844624e+01
-5.523386019362044408e+02
-3.692871970912440815e+02
2.524058886319974135e+02
5.816423201710848616e+02
1.903472410379074802e+02
2.715127585096187204e+02
3.943601443222329408e+02
3.054620274576105317e+02
5.360556156323945061e+02
5.202019154093989073e+02
2.017790924243847428e+02
-3.793116606044500827e+02
-2.775906101489858429e+03
-7.307168082825388922e+01
1.930940937793626517e+02
-1.683484058644604033e+02
3.786919993223597771e+02
6.922375573149066668e+02
4.373199944313653873e+02
2.679119949485953498e+02
-8.790892641800361673e+01
-8.010733554723982763e+01
-5.873835406550535509e+01
-5.337892299571698231e+02
-5.332172788668605108e+02
-5.630323103524967792e+02
-7.002393415946941104e+02
-7.407898999721197697e+02
-5.996404595493352190e+02
2.912740464977513355e+01
-2.624065942966983016e+02
-1.891650823287625940e+02
2.707977584406313554e+02
4.894509818142702784e+02
7.418584127039840723e+02
8.700171441743981404e+02
6.649131219343429393e+02
7.626045686468672784e+02
3.171140883601262317e+02
-3.857766005598025316e+01
1.846559023872528016e+01
1.352377737895492942e+02
-1.743106723097038753e+02
-3.991454771986352057e+02
-7.561839472444808052e+02
-1.093445390159807175e+03
-1.029931231502082937e+03
-1.141688967840678288e+03
-8.658057559508350778e+02
-6.541709027794400981e+02
-2.517628716837588172e+02
3.244274753621381251e+02
6.844496228596008223e+02
6.372657782225871870e+02
1.607768132561886603e+02
-6.080602992707756584e+02
-8.262507852628212959e+02
-1.101816548930890804e+03
-1.419769164187254773e+03
-1.630106356984516196e+03
-1.214756538883691064e+03
-3.707205226600262336e+02
5.898672667192363406e+02
9.010424123548338002e+02
5.447729022410625248e+02
3.329930090587761242e+02
5.566567607054677183e+02
1.006756414235797251e+03
1.201324999166854241e+03
1.119350589054535021e+03
7.807064722171631956e+02
1.122194997240451585e+03
1.344242889258299329e+03
1.072942749353589988e+03
8.012256369844400297e+02
-1.703012972012970295e+03
-1.337649590893885261e+03
5.061641987825985325e+02
-5.099713357677202197e+01
-1.594205610424030226e+02
-2.026428170939101392e+02
-6.103684238011727530e+02
-7.691221480792935381e+02
-2.130930494121716094e+02
5.240271300279300704e+02
1.198652357421155557e+03
1.221522088197783205e+03
1.052261768224195976e+03
1.310253365283158473e+03
1.475241269134335425e+03
1.645092462572928071e+03
1.783535595021481186e+03
1.785706445207911884e+03
2.036789931337943017e+03
2.050808623056613669e+03
2.023733492049389952e+03
1.738183202706977227e+03
1.420194860921003965e+03
1.432875148288709170e+03
1.258803203211398113e+03
1.251574583740613889e+03
1.414699946281944904e+03
1.183391271428672326e+03
1.363943127307888972e+03
1.215973053145685526e+03
1.221418479592019821e+03
1.378369404761147962e+03
1.176677237444689354e+03
1.291172377673161236e+03
1.695901751489704793e+03
1.575879660913160478e+03
1.873022303321102072e+03
1.960354937847817837e+03
1.977183708782195708e+03
1.787943843032719087e+03
1.782753156396682698e+03
1.929600745245725648e+03
1.768422212809517532e+03
1.381256095392956695e+03
1.399125224459455012e+03
1.255949202964082360e+03
1.255725277911294597e+03
1.694475222933999248e+03
1.172172424117961100e+03
1.067764610673992820e+03
1.075265845011008651e+03
1.026708080192579018e+03
9.470793680962779035e+02
-4.806850319029528578e+02
-2.843524034024213961e+03
-6.884420320001344408e+03
-6.495362095439646509e+03
-6.429386415107953326e+03
-5.826506097512088672e+03
-4.682667539794264485e+03
-5.076844723981523202e+03
-5.480013267504905343e+03
-5.271159164186940870e+03
-5.978483438158683384e+03
-6.068615586388462361e+03
-6.104643073590901622e+03
-6.124717251140486042e+03
-6.270891791601743535e+03
-4.988155045913306822e+03
-1.511426212731619216e+03
1.244341746671327201e+03
2.412114196863487450e+03
2.389937047812461969e+03
-1.593189128904490872e+03
-6.033293817365364703e+03
-6.121284961996629136e+03
-5.915097623652156472e+03
-5.346771953416838187e+03
-4.941268803356615535e+03
-4.592473578229529267e+03
-4.910457361937288624e+03
-4.919218442166970817e+03
-4.009712459370645320e+03
-2.488934112749069243e+02
8.120579669676043011e+01
2.595618251334299202e+03
2.916382598818513998e+03
2.777584918705063501e+03
2.859244255902612622e+03
2.521323679741598426e+03
2.456848164167244249e+03
2.611895689203020538e+03
2.510413813473159735e+03
2.282430357496044962e+03
2.467969235377350742e+03
2.940106658501279526e+03
3.074921375387468743e+03
2.956434814457637003e+03
2.650740951641615538e+03
2.190848954171117384e+03
2.180729580766498657e+03
2.327398573597592076e+03
2.768940569187041547e+03
2.820390498830332035e+03
2.539773180630057595e+03
2.230069113429574827e+03
1.797291350031152433e+03
1.662453034024616500e+03
1.535605041402903908e+03
1.653789108816346925e+03
1.497048733339689534e+03
1.184407334479792780e+03
1.270917088049705399e+03
1.292560149105970368e+03
1.627444911556539637e+03
2.295683014245691083e+03
2.623388747111808243e+03
2.633377340906987229e+03
1.941969092383542147e+03
1.491204454185377699e+03
1.318177301418317484e+03
1.201933740411993767e+03
6.354147522326214812e+02
-1.937015751050206234e+02
-7.283873499039575563e+02
-2.935793054209386810e+01
1.767252290267529418e+02
-2.363640080244170179e+02
-4.938413325238668676e+02
4.135010049622250961e+01
9.248644533900570650e+02
4.246280351732690406e+02
3.321449332793347935e+02
1.149054124283583405e+03
1.404272723932401277e+03
1.445884619031941156e+03
1.609422765916441676e+03
1.801899114768400295e+03
1.411020142678366938e+03
1.146741759638636040e+03
1.368114077640938831e+03
1.316126988472516359e+03
1.250791654009791046e+03
1.301104080494233358e+03
1.346064266400037013e+03
1.225648725014714273e+03
6.378608374237060161e+02
2.136837573548383205e+02
2.581377147502275875e+02
1.202365160375370579e+02
-1.070673440679894810e+02
-2.538135464597436339e+02
-2.449688587881387605e+02
1.294520937672861294e+02
3.014656490886690676e+02
1.470983203554265515e+02
1.873519441419780378e+02
8.912052216803652982e+02
1.275691833997262847e+03
1.296751292013289458e+03
1.232338880660233144e+03
1.128448932080283839e+03
9.640893463862876160e+02
6.992786867488390499e+02
5.000131016278405127e+02
2.282501785150018918e+02
-1.750451593385035949e+02
-2.358758558247154724e+02
7.474142209867395081e+01
1.377662431813542980e+02
3.192418944531725256e+00
-4.604183239183500120e+01
1.990189339779545890e+02
1.245862303495854384e+01
-1.673230588309657918e+01
7.543133299350925824e+01
-1.452062619928572303e+03
-3.643266770642589108e+03
-6.849168065384124930e+03
-7.308791351017546731e+03
-7.442154793174001497e+03
-7.413228252376495220e+03
-7.778045336876920373e+03
-7.893719513033897783e+03
-7.859270864193094894e+03
-7.985670280776250365e+03
-7.207940983401090307e+03
-2.695134720050999476e+03
-1.351207804351539608e+03
-1.881531818675551335e+02
7.859571029431823490e+02
9.280934982011964394e+02
8.542606025604690103e+02
1.251462402112570771e+03
1.358884830763400714e+03
1.686113637785150331e+03
1.316346238384408935e+03
1.239604095912467756e+03
1.577764419304358626e+03
1.680839824142962243e+03
1.111849395642772379e+03
9.857696650615167755e+02
1.305582627377444396e+03
1.022230664749635821e+03
7.516913150803022745e+02
8.650365953743013279e+02
7.272090385862426274e+02
7.421855546920064626e+02
5.699832396594853208e+02
5.955607569914293435e+02
4.468782010870828572e+02
4.869006048372690998e+02
8.457159155925968435e+02
1.177270477003156884e+03
1.223515378489059003e+03
1.210475778691201413e+03
1.260157302560912740e+03
1.255556087390782977e+03
1.581691081415697681e+03
1.660512902390119280e+03
1.323061734620719335e+03
1.166344453127421730e+03
1.121324557732842777e+03
1.004982333738493139e+03
6.373048195316341662e+02
7.703011147838931265e+02
5.800325851670079373e+02
6.234976909210216718e+02
5.946474177681250239e+02
1.515074997193062813e+02
1.890570922729451979e+02
9.526891777152422947e+01
-7.386576843982716412e+01
1.246718483134322213e+02
4.829173726208226185e+02
6.578757715875370877e+02
1.281620070278794856e+03
1.508150980034932900e+03
1.264436782676523080e+03
8.424995486418844166e+02
4.633771237257576558e+02
8.160322884491838522e+02
1.292456762579708766e+03
8.866048523846130820e+02
8.374436475633909822e+02
1.100057377255946903e+03
1.386447223136645789e+03
1.150623676425651183e+03
6.015812894196345724e+02
3.832657559418188953e+02
5.197425478372006182e+02
-6.359390846949626166e+02
-4.805756544892935381e+03
-4.295771990062737132e+03
-2.416902840876035043e+03
7.498640654874794791e+02
1.527563111851239682e+03
2.064456149462887879e+03
1.489349881176742201e+03
-1.324888724279844610e+03
3.719301810354850204e+02
-1.462192383224775085e+03
1.162726611238455234e+03
-1.398281650589894525e+03
-3.362742625373512624e+02
-1.393303986264836567e+03
-1.480424495710790552e+03
1.364038900530400724e+02
-2.826770911514518502e+03
-8.969759983727681174e+02
-1.619217238107323510e+03
-3.211413738158506476e+03
-2.773482579777762112e+03
-1.024458717906269385e+03
-4.772456387298961999e+02
-5.075790885731451453e+03
-1.718090683094927044e+03
8.307606284975646531e+02
8.671196217411517182e+01
-2.401202097094824239e+03
7.210656131404450662e+02
3.124886591286990551e+02
-3.691907143074262876e+03
-4.506118613034184818e+03
-7.891318883489926748e+02
-9.890059745298905227e+02
-2.132669755431928479e+03
-2.427140597465441260e+03
-3.612430209059939443e+03
-2.997505776896275620e+03
-5.063778050504490125e+02
5.319781864835924807e+02
1.328616515566934595e+03
1.259511674545612323e+03
1.648642750137822759e+03
1.815001625904134698e+03
2.028643288685432481e+03
2.106551174453266867e+03
2.152697061821410443e+03
1.780119100626397312e+03
1.568833831356663040e+03
1.547847108018226436e+03
1.527172041254247688e+03
1.528721480652968694e+03
1.658357906890591039e+03
1.328207161786781626e+03
1.071393894511712460e+03
9.342610866789264037e+02
8.024392208565967621e+02
5.255741971717817478e+02
6.358747404850457769e+02
6.897567256632675026e+02
8.194614105447849397e+02
1.052643173822417793e+03
8.132647070084889265e+02
6.143150920084036670e+02
8.227454506841014563e+02
1.130655944189248657e+03
9.320966230539000890e+02
-1.855057016223273422e+03
2.652208319649038799e+02
1.650919939190428295e+03
1.872985370199510271e+03
2.020273855583006934e+03
1.548512342638064410e+03
1.231874813499708353e+03
1.386204860583732625e+03
1.059398815372278705e+03
7.645253967074339698e+02
7.786964754607475925e+02
4.552933586023514749e+02
5.633651415332192300e+02
1.094531235389297308e+03
1.177738679786570401e+03
8.079925019331537897e+02
1.472342044114686132e+03
1.301846972730041216e+03
1.160767042951290250e+03
1.316678655856273963e+03
1.600149219215309131e+03
1.429164242413874035e+03
1.161808646966224842e+03
9.903623790346017586e+02
1.059721871844155203e+03
1.172685762086557361e+03
1.259982246511362746e+03
1.158560344554564381e+03
9.735200361047598108e+02
4.198743668611909925e+02
2.025595276440410260e+02
2.405607849912036613e+02
4.988577943389001348e+02
6.464923318059853727e+02
7.405473319223514181e+02
1.022059193584615059e+03
1.124008422120087062e+03
1.281220611397465518e+03
1.305476387489502031e+03
1.505851379434377122e+03
1.696380966729296688e+03
2.029068008729933354e+03
1.830865950222474339e+03
1.936813243713530937e+03
1.871936305483150591e+03
1.560237852125184872e+03
1.277668383620608211e+03
1.306188991108289201e+03
1.327909277329610632e+03
1.807775289238784808e+03
1.879656409128482437e+03
1.418548112892822701e+03
-4.354921194327510534e+02
-3.383470929418796914e+03
-6.950380586074255916e+03
-7.382157579679098490e+03
-7.492763552908892962e+03
-7.427198942432578406e+03
-7.312421452856972792e+03
-7.232493144982993726e+03
-6.743398163013882368e+03
-6.447958910963204289e+03
-6.698237126501370767e+03
-6.884421901909889129e+03
-6.752383043721462855e+03
-6.552078971140122121e+03
-6.537646832577463101e+03
-4.633133621459612186e+03
4.924778131828232404e+02
1.340297128028014185e+03
-4.526833016886171777e+02
-3.979514668716091819e+03
-6.073128340235467476e+03
-2.905511337670950525e+03
1.290328372794431061e+03
2.099489658279996092e+03
2.145046979829907286e+03
2.264063148995261145e+03
2.265568315555126446e+03
2.341507185671504431e+03
2.469898677063883952e+03
2.584763969627361803e+03
2.618285528500763576e+03
2.621513408139688181e+03
2.250320804604241857e+03
1.992805137772524176e+03
2.033028411190669431e+03
1.902898570833674739e+03
1.411437761602559704e+03
1.058714335167007221e+03
7.087915833449931142e+02
5.976026857218132591e+02
6.832052756506124069e+02
9.106355150982076339e+02
7.638811071101110883e+02
8.149863978587088695e+02
9.520642714307642791e+02
8.921562884613742881e+02
1.162304096818937751e+03
1.489531510766179053e+03
1.514908636075647564e+03
1.767463608169827467e+03
1.794211338149215862e+03
1.756214415277174794e+03
1.972608038412483211e+03
1.876318481354434653e+03
1.262217782062547258e+03
1.284492109894127225e+03
9.312491086228020549e+02
9.547490324289034902e+01
3.511722758114922271e+02
4.133897841320118118e+02
1.721250173009366620e+02
9.140575242066476847e+01
9.842931273259516445e+01
9.531252229883142491e+01
3.042579569702912181e+02
5.671506807005113160e+02
8.451302766849601085e+02
8.591294669839884364e+02
2.651188970708090551e+02
1.131803258734046693e+02
4.413266105580044609e+02
-2.943836452521370006e+01
-6.312837111054537900e+02
-4.136541625381848348e+02
1.202595186188254317e+01
1.657365378099883344e+02
-4.964972492500629642e+01
-3.930546536753375904e+02
-9.563925851318216473e+02
-1.216632698811443788e+03
-1.503720381812493770e+03
-1.055753386085915054e+03
-6.456255366976345158e+02
-6.113499476392645420e+02
-2.810311993148459919e+02
1.756708868318435890e+01
3.216009463873971868e+02
3.819590323039519149e+02
1.934632036916599134e+02
-1.528171063272190509e+02
2.512209650737473154e+01
8.025693493094428277e+01
-3.739465997686790644e+01
9.714867430507334234e+01
-7.911194792507038187e+01
-5.091765878319795888e+02
-7.560143178206238872e+02
-6.445986133307990258e+02
-7.769658195306104744e+02
-1.028256381662607509e+03
-1.052483077669538716e+03
-7.965671415239405633e+02
-5.213898456773216594e+02
-2.019269689533015253e+02
-1.162503512226242037e+02
-2.830040654406532141e+01
2.228359122347188190e+02
4.870790752285802796e+02
6.744096848008395000e+02
2.358179120827211648e+02
-1.667231198965485532e+02
-1.526015539299817192e+01
7.826777275072734597e+01
-1.111239499205440353e+02
-2.015833092715810722e+02
-1.821005359973489135e+02
-5.976823427687953654e+02
-1.007392426728974215e+03
-9.801674680176930678e+02
-6.030848558265046222e+02
-5.483152406491802822e+02
-6.473662109525081121e+01
-4.730428217571132166e+01
-1.101825987885146816e+02
-1.113197255781459774e+02
1.993607187833326293e+02
-1.630763090803479898e+01
2.125372655241102393e+02
3.918459458824507351e+02
4.076122987849194033e+02
9.696936018097560464e+02
7.861340653174170257e+02
6.189931792636421051e+02
6.552104146959466107e+02
8.469647847114192984e+01
-7.357318381130431817e+01
-4.770158208505260689e+01
-2.387295806901034609e+02
-8.282470557175419117e+02
-6.375207478430927495e+02
-9.866197549806336156e+02
-1.235717933834848736e+03
-8.927380664087334026e+02
-5.318213371634526538e+02
-1.929021135994321128e+02
2.849741246226067233e+02
1.135401967309753900e+03
1.850695666127094228e+03
2.569575451386578152e+03
2.683774711140692943e+03
2.759464011178063629e+03
2.289836210686627965e+03
2.221485498486831602e+03
2.006632724211484401e+03
8.886951286596448654e+02
-3.499408055853922406e+02
-1.015768753037598799e+03
-8.079152261865259561e+02
-1.250344975127497037e+03
-7.377653369004738124e+02
8.383980283977815589e+02
2.538249852036210086e+03
3.145268520428327520e+03
2.682187666649886069e+03
2.313942737656786903e+03
2.725590103133860794e+03
2.496592184546822864e+03
2.618741221626098195e+03
2.927579639400830274e+03
2.960641183259395348e+03
2.492477982285819962e+03
2.462740905337281220e+03
2.229654423235613649e+03
1.865225966766700139e+03
1.374807136120736004e+03
8.537777324181412268e+02
8.782109618158368676e+02
1.088382952715996225e+03
1.436923422819910002e+03
1.353006757473984862e+03
1.019549907870296465e+03
1.105452643793979632e+03
1.134647927320858116e+03
9.412163501785447579e+02
8.951659180781464329e+02
7.444922930676846136e+02
1.065321353030476303e+03
1.506648191382443883e+03
9.793779756012081634e+02
-1.124509895557811433e+03
-3.082035893617111014e+03
-3.361240297358968746e+03
1.528853781538887006e+03
2.457241349462850394e+03
-1.523066834566002171e+03
-5.307996622862844561e+03
-5.644449301826385636e+03
-5.297484691067789754e+03
-5.259230971143856550e+03
-5.888636534561140252e+03
-5.966637392954115057e+03
-5.712161038260078385e+03
-5.355246175578225120e+03
-4.063939261190463185e+03
-3.310181861010497869e+03
-2.818661755935122983e+03
-1.462690788809603646e+03
-1.662546113303689310e+02
-2.713462481737935263e+02
-4.304903442996310332e+03
-4.863785237683725427e+03
-4.363880869324049854e+03
-4.852269972708903879e+03
-5.444796303215181979e+03
-5.507270713336659355e+03
-4.853789155476106316e+03
-4.787392475050076428e+03
-5.683031696272338195e+03
-6.939799968903266745e+03
-7.634686500612095188e+03
-7.517681488996538064e+03
-6.095686271478624803e+03
-7.995591400786087206e+02
5.316568647058406896e+02
-2.543010972913082242e+03
-2.391548992209983226e+03
-3.912823664449268108e+03
1.543306478270474599e+03
5.389903643080622714e+03
7.303988785075363921e+03
6.409660873064714906e+03
4.344960193143128890e+03
3.748851597246512938e+03
3.781308387331224822e+03
2.931441578220449628e+03
1.736342018169403673e+03
6.579960712861185357e+02
5.964471786969454570e+02
1.733745425728496230e+03
3.751940734054275708e+03
6.108176152951446056e+03
6.604520857484540102e+03
4.743941000889182760e+03
3.913507257566260705e+03
4.038317796648385865e+03
4.108384930850134879e+03
3.317609846611986995e+03
2.942193192839890798e+03
2.785294238697979381e+03
3.062917320623660089e+03
2.835049525306375472e+03
2.401699031547214418e+03
3.281954212999754873e+03
3.514807329586161813e+03
2.431347564225578481e+03
9.925586851916207252e+02
4.563809717292798496e+02
2.463000948069268645e+02
-1.257630468976646512e+02
2.344590002894948810e+01
-1.328827790280320187e+02
-2.604206023998386854e+02
3.931847637268729727e+02
3.055330864825778008e+02
-2.535215704666989893e+02
1.064602804430238848e+03
1.929905033928411285e+03
1.625336232764048646e+03
2.631276807155326878e+03
3.707401379991681097e+03
3.040803362662556083e+03
2.296803757650865464e+03
2.037515101524863894e+03
1.602424146549652505e+03
1.097414369842590077e+03
6.146902690444919699e+02
2.709563021477496250e+02
-4.562199076254655097e+02
-1.645372509017151970e+03
-1.962074046246450735e+03
-2.311374607546218158e+03
-2.141322344586424151e+03
-1.281025058810459086e+03
-1.638468958205664421e+03
-2.243588622950517674e+03
-2.991361291866837291e+03
-1.672788273664063126e+03
1.661414954851929906e+02
-3.805966727175304527e+02
-4.299964149714353567e+01
1.366939908673386299e+03
1.184200417126261300e+03
6.728102566453055715e+02
6.008240596605076007e+02
1.141106885781225401e+03
8.665969851769572188e+02
7.323835668773148200e+02
2.284262773592963640e+02
-9.073005508695225672e+02
-1.371810942546818751e+03
-1.039118791900330962e+03
-8.852334488259442651e+02
-7.151590192520611708e+02
-7.569340119171816923e+02
-4.304388926927470038e+02
-3.156207976372269286e+02
-4.867225827860663685e+02
-4.848169910357503340e+02
7.230724987154206929e+02
9.958994786112828024e+02
-6.112770109535297252e+02
-7.193783957875235728e+02
-4.657682138868756994e+01
1.600753553312166275e+02
3.096049203580451490e+02
2.089167767707849350e+02
-3.330053091262586804e+02
-1.001207878194799150e+03
-1.553770416136510448e+03
-2.381665138812870737e+03
-2.936943161290079388e+03
-3.217695268159483931e+03
-1.669976730247619798e+03
-8.948604077657878406e+02
-1.223324723448376744e+03
-6.112903657966451192e+02
1.712362124495203375e+02
7.021213458384897876e+02
-3.036628318865608662e+02
-3.437096954748777080e+03
-2.124364441806208561e+03
-9.054330510875411164e+02
-1.452311154520752325e+03
-2.150031475669834435e+03
-2.376664418425704298e+03
-1.958246154743010720e+03
-1.178775200845963127e+03
-1.591318410753968919e+03
-1.652972450002532014e+03
-1.928822349417503801e+03
-3.577985316815445913e+03
-2.679396976780261866e+03
-2.649720982015763298e+02
1.453138093358853212e+03
1.443857157870954552e+03
1.637196236527579458e+03
1.766213383474280818e+03
1.907793650562791754e+03
1.993933874737967926e+03
1.936546870996798361e+03
1.606570086194146825e+03
1.367109674636864156e+03
1.298177141665697263e+03
1.827640258201095321e+03
2.456429445715890324e+03
1.337599161766298266e+03
-5.049050926756956983e+02
-1.721138988133024895e+03
-1.375117050094656179e+03
-5.029023722888060206e+02
1.444840448276520704e+02
1.819064566166830446e+03
2.396818740056772640e+03
2.332653259750479265e+03
2.308544104871631134e+03
2.293518135979639283e+03
1.800635675125517082e+03
1.311852401491647470e+03
1.518132323022423634e+03
2.605471937094868736e+03
2.116903253769060939e+03
1.458415561437709584e+03
1.390977719047403752e+03
6.135810746334768737e+02
8.392141915833889243e+02
8.608490409461537638e+02
-9.125670674917628276e+02
-1.085973439759017992e+03
4.635809468401560025e+02
2.141262753533574994e+02
6.196460425208547349e+02
2.501160728069150537e+03
2.972632425238954966e+03
2.957151370328807388e+03
3.057701367330693301e+03
2.685286116360645337e+03
1.025897364596088892e+03
5.074886522964139886e+02
1.427185461327543862e+03
1.750994646580442122e+03
9.959141670092997174e+02
5.439726410651521746e+02
-5.398601171797857887e+02
-3.571568327644769397e+03
-5.103109560076029993e+03
-5.571324667698898338e+03
-4.612276458081246346e+03
-3.034959167998878911e+03
-1.339353861868681406e+03
-6.465404078296057833e+02
5.994908603949613735e+02
-8.762403868766667756e+02
-3.108712575434198243e+03
-4.799975663930665178e+03
-5.250027874874193003e+03
-2.958319797470701928e+02
-1.508329543573805040e+03
-2.006471947264646360e+03
-7.072165013992728746e+03
-7.589424993945318420e+03
-6.958205075526879227e+03
-9.134375354657397111e+03
-6.745892566806734976e+03
-6.254766706953524590e+03
