4.800723785710354719e+02
7.260438979865390365e+02
7.355141890045931632e+02
8.554986665588023698e+02
5.040462298602996611e+02
-4.287971442137866518e+01
-1.093145656207308605e+02
-4.834745337036301294e+01
-2.219990709108871272e+02
-4.902791149527981247e+02
-1.101206147492325044e+03
-1.673826370681918434e+03
-8.671289915837343187e+02
-3.960855326980134237e+02
-1.476268762052717420e+02
2.951009827440684674e+01
1.100300884388227161e+02
4.496415101659715674e+02
8.197318947436713188e+02
9.501003756484711857e+02
1.031541725917598114e+03
1.314300442449267393e+03
1.378322777446257078e+03
1.342794679989056249e+03
1.932625571458728018e+03
1.757459421994817376e+03
1.718249025034833039e+03
1.681918208586420633e+03
1.728267412493070651e+03
1.423234350486492758e+03
9.861220122782082171e+02
1.053710347263042877e+03
1.531975385482551928e+03
1.759847736304486943e+03
1.872120344183956377e+03
1.669648447614768656e+03
1.866116680514480549e+03
1.854189186624672402e+03
1.890682432707715861e+03
2.033321770460901462e+03
2.165305660787635134e+03
2.007222941244752747e+03
2.163330160862336925e+03
1.677816602438012069e+03
1.333759621836701626e+03
1.370442200554809233e+03
1.502000456068535186e+03
1.748837445790272341e+03
1.925630571185472490e+03
1.623277984076048142e+03
1.181713558939150971e+03
1.094865894227640865e+03
8.127903125786011742e+02
8.585035831919623206e+02
1.406888006507057298e+03
1.886944086392852341e+03
2.253678527607983597e+03
2.012080232734454739e+03
2.459156275652534987e+03
2.746906597610472090e+03
2.644326622141642474e+03
2.266382631232600488e+03
2.227085430317565169e+03
1.812402782744223487e+03
8.428521138547941405e+01
-2.671245902493116773e+03
-6.110191623164143493e+03
-6.821569257534445569e+03
-7.235377771852575279e+03
-7.157670379913025499e+03
-3.848423364545026743e+03
7.333374900669347198e+02
2.676467825163302336e+02
-3.004449710920109737e+03
-4.946992689440022332e+03
-6.268996019133129266e+03
-6.732456704766882467e+03
-5.850309812073349349e+03
-5.253547259659414522e+03
-4.921200684323102905e+03
-5.109192494231542696e+03
-5.270498395640110175e+03
-1.975184354482649951e+03
1.534813801000505237e+03
2.760421112786298636e+03
3.444772144572876300e+02
-5.062640595490570377e+03
-5.746825396164418635e+03
-5.596987206877165590e+03
-5.750436468923915527e+03
-6.112180660662271293e+03
-6.345104889345680022e+03
-6.085181190212309048e+03
-5.998402297754829306e+03
-5.643749958422658892e+03
-3.995130499798642177e+03
6.048505512187042399e+01
-4.038404239753875231e+02
-2.202083914401868697e+03
2.527481059986204173e+02
3.542643721206681221e+03
3.910641827431220008e+03
3.570791070844209116e+03
2.860167393923699819e+03
3.293826294197070183e+03
3.305764332876000935e+03
3.190994982800334583e+03
3.102579041737619718e+03
2.874562047407753653e+03
2.259971089814398056e+03
1.829801795385623336e+03
1.774121512572555503e+03
1.810028659273516041e+03
1.949555517969411540e+03
1.873706129044292766e+03
2.025462098457260709e+03
2.263909788337934060e+03
2.594157114408585130e+03
2.792221302227505021e+03
2.628171406822794324e+03
2.537023257696718701e+03
2.700751935732856055e+03
2.116223321084923100e+03
1.893912330573795089e+03
1.861787338472046940e+03
1.684843287185367217e+03
1.708136586767734798e+03
1.553695194293170971e+03
1.402487554408955702e+03
1.292530799099977685e+03
1.358873052004385954e+03
1.026650722748811859e+03
1.132029450707146907e+03
1.388189687013766161e+03
1.386010250312161588e+03
1.404493563387216682e+03
1.107706476958864187e+03
7.947356866896968768e+02
1.159266189141147152e+03
1.316102712340609969e+03
1.448653013305170816e+03
1.592382667182530668e+03
1.255192649762514066e+03
1.149922349043187978e+03
1.269469469669287037e+03
1.022099711676092852e+03
8.008362481079034296e+02
6.827063808001273628e+02
3.533498537378471838e+02
-4.141181928708532212e+01
-6.271479293933799681e+02
-4.338934968204981715e+02
-4.517472882663530527e+02
-4.617271183845086853e+02
-1.397552046559040093e+02
-3.038160832982641182e+02
-2.888011931293366388e+02
1.763563116496295038e+02
3.656499132558086558e+02
5.911462788348505910e+02
9.597014365484676546e+02
7.331396429258059015e+02
1.989173060907200750e+02
-1.103651297233753148e+01
5.520327250137977870e+01
-2.840369366527304962e+01
-4.667880302432733970e+02
-1.106811362390722024e+03
-1.043489475375153233e+03
-1.017019133174376748e+03
-9.865181490769598440e+02
-8.239653126756928714e+02
-7.492937794418089652e+02
-8.324395230142996525e+02
-8.013484125193780301e+02
-6.289430045566205081e+02
-5.352067136483592549e+02
-5.412612359722314750e+02
-4.252031898819907383e+02
-2.160320497495687846e+02
-5.898306907891042101e+02
-3.915594517110555444e+02
-1.360401021279184874e+02
-5.263212832720836332e+02
-7.585439509333832575e+02
-8.767499955798743940e+02
-9.218980902966776512e+02
-1.008919353389232924e+03
-1.295832130475032272e+03
-1.378788763143136521e+03
-1.335785039144553366e+03
-1.557808200642281008e+03
-1.508940510663264604e+03
-9.182638616115306149e+02
-9.607202854087256583e+02
-1.095282544907986676e+03
-1.360966558334808269e+03
-6.587704958030299167e+02
-4.467083540843689775e+02
-1.968149982256530564e+02
-8.615741679728493807e+01
-1.977606832096233802e+02
-1.286094803894127097e+02
-2.808843974770662726e+02
-3.835153024113442370e+02
-4.574970697431704707e+02
-1.419327321883998820e+02
-2.048104431003144725e+02
-4.591833336172351210e+02
-5.430652802872389202e+02
-5.554046128670372582e+02
-7.692099738519789298e+02
-7.186648371472815597e+02
-4.447799618995407513e+02
-4.156060951893013566e+02
-1.692215187425256602e+02
2.063878333108117431e+02
3.803088584512218517e+02
4.505447272563141041e+02
6.309440921470919648e+02
5.304935603765879932e+02
2.533087640244644376e+02
4.522443143818313160e+02
3.811734972943268076e+02
1.961084693491510507e+02
1.872305966347313699e+02
-2.244886733028575065e+02
-3.161241324676734052e+02
-3.738314614286737765e+02
-4.378834821168461389e+01
3.859856816023824422e+02
1.734804590431535303e+02
1.167671435419947414e+02
3.108722719481594936e+02
3.288083802387620835e+02
6.794328214604252025e+02
1.031735953289984536e+03
5.937698930477347403e+02
2.745068473942382639e+02
5.508838628080425224e+02
1.107803000711948471e+03
1.257230385764815537e+03
1.433119793034189115e+03
1.162503792865609057e+03
1.124435010344891225e+03
9.859579745182551278e+02
7.379336014766643075e+02
5.073106183428096188e+02
3.910836578852689627e+02
4.332353689186621182e+02
1.557232931542076528e+02
-3.304465193384224904e+02
-5.334206522076694057e+01
4.580121729378311102e+02
5.846584214897665106e+02
6.226286009486005923e+02
1.171007272674592059e+03
1.332655238170887742e+03
9.045796995067642001e+02
9.528162641649419129e+02
1.301369089100333895e+03
1.384140669565824737e+03
1.550079939984302428e+03
1.295252270714883252e+03
9.156424664393583726e+02
5.880830725930272820e+02
6.007512847472372641e+02
4.360444056375242212e+02
5.279042868284765291e+02
-5.579887323992043093e+02
-1.927731647199297868e+03
-9.641586383628938393e+02
-1.492290284100026611e+03
-5.424126261048949345e+03
-3.636745743642023172e+03
-3.741213928060615217e+03
-6.773572292106894565e+03
-6.789870055624790439e+03
-6.845994698422964575e+03
-2.867773626160650565e+03
9.457174991838485312e+02
1.536323090435072118e+03
1.741153779265101775e+03
1.526276326117839972e+03
1.732687286796610579e+03
1.989403547270876288e+03
1.758423166747736786e+03
1.125748042288606030e+03
9.013290523142036363e+02
9.672859065559534884e+02
-1.000339225036033781e+03
-5.159629160557507021e+03
-2.376204859840649135e+02
1.007675605038104322e+03
8.913715760183990824e+02
-2.122544020597571944e+03
-1.741206142485449959e+02
1.003854483432098959e+03
1.315462566193599969e+03
-1.459385634720725875e+03
-3.096995537678754999e+02
-4.262398044236369969e+03
-3.324427602641983412e+03
1.365092470317684501e+03
1.614080978419240182e+03
1.567618642425402868e+03
1.714793079134331492e+03
4.346113674555247712e+02
2.091596995293599548e+02
5.845662685871192252e+02
2.758669905142856464e+02
2.368972081062817665e+02
4.376083233214857842e+02
7.269915279402530359e+02
8.181986595330943146e+02
9.260585958074165092e+02
8.645333901998536703e+02
8.867798612475131677e+02
1.416911067013509864e+03
1.540959079955901188e+03
1.263856876286469969e+03
1.184728662009523077e+03
1.354793005352150885e+03
1.356087672442285566e+03
1.261473345420008854e+03
1.031083164225138262e+03
8.118454301890425313e+02
2.594481842130113591e+02
-2.115368356871253042e+01
1.744204495445663667e+02
1.540637334816337329e+02
2.376814199846704128e+02
2.976161885816554218e+02
2.789672532388801187e+02
4.728081484797157259e+02
4.280362030122794863e+02
5.613985456323208609e+02
1.010923152584366107e+03
9.235657440658295627e+02
1.199015585756025303e+03
2.400158358586339773e+02
-3.469873099925681800e+03
-3.425196084445659835e+03
-2.120235545716802790e+03
9.898908228110243499e+02
7.016384038872187148e+02
2.602777526611942704e+01
-1.500233456481219605e+02
-1.023335172750373090e+02
-4.700996563517235813e+02
-1.043742108761874078e+03
-6.835112921524638523e+02
-8.811916777525462408e+01
8.353996768267958259e+02
1.334405247326479412e+03
1.548091546995108502e+03
1.169735182741220342e+03
1.004343435486066369e+03
8.999520730582503347e+02
1.128545767207460131e+03
1.317193464374995074e+03
1.358890951470626305e+03
1.283742590212188816e+03
1.056723992596266498e+03
1.098755580776640500e+03
8.857754974414181106e+02
4.268078614974303946e+02
1.658236159832480610e+02
8.169101580735011794e+02
1.114059409557743038e+03
4.782543829051631974e+02
-1.384650653420722790e+02
-1.340728637707640587e+02
1.436661539516675079e+00
2.438720229830559845e+02
7.252227430554955845e+02
7.115315635927358926e+02
-6.126087287061713482e+01
-3.289973386278221824e+03
-1.262485631874367300e+03
3.009742172362165391e+01
8.466558528992636639e+02
1.235312000310823350e+03
1.576057205868861502e+03
1.315920813555113455e+03
9.667635724926665262e+02
5.576128428635649925e+02
3.905334602329604081e+02
3.384526468797633925e+02
-3.515455635550791840e+02
-1.644449785160992178e+03
-1.905328147248534833e+03
-1.214232695506059372e+03
-6.508591237221497749e+01
-2.458521156466146351e+02
-1.017544425025871988e+03
-6.322034893140428267e+02
-4.138406996638508986e+02
-6.722879169829865305e+02
-9.324894366708607549e+02
-3.047657793299646528e+03
-2.541885498089583052e+03
-1.743136188659425443e+03
-3.703664251807928736e+02
-9.851970233587881864e+01
-1.500539724931292540e+03
-1.104792715435901442e+02
1.051630913791407011e+03
5.007992432087282282e+02
-6.269562420257487929e+02
-1.310619191640411600e+03
-2.109339644514917381e+03
-2.183128654636307147e+03
-1.469833623458212514e+03
-5.523111720553501982e+02
6.973878474712608977e+02
4.425521579923527327e+01
-3.607771427043391668e+03
-1.652817792899980304e+03
-3.479018653258331710e+02
-3.848967530914391659e+02
-1.317661319595146551e+03
-1.429119516367888082e+03
7.217076936898472468e+02
2.935676067681234599e+03
3.175633644971035210e+03
1.533753079868603891e+03
-4.202663585676170754e+01
-9.957729974132073494e+02
-1.698506181890057405e+03
-2.187178919960711937e+03
-1.125775255891906227e+03
1.046746427204578822e+03
1.962395040505697125e+03
1.713167013640173764e+03
1.295039976019201958e+03
-4.059353472951963970e-03
-1.111861557353384796e+03
7.244495761783301191e+01
1.123866063033701266e+03
3.494726977648292632e+02
-5.476905527713203128e+02
-7.406336406636959282e+02
4.006259423091029248e+02
1.715075802189073329e+03
1.065747010676296668e+03
6.916093774618810812e+02
1.107690571153721294e+03
3.950329649765805584e+02
-1.122371255062158298e+03
-1.789593478831252924e+03
-1.535582884815895568e+03
-1.304260991129891181e+03
-6.585880058456990582e+02
3.428992374686120570e+01
6.403432314090306363e+02
1.270760249489489979e+03
1.932482119105759693e+03
2.370498440363578538e+03
1.445866319908417836e+03
9.946497265787046445e+02
8.128161151526240928e+02
3.064175560913451477e+02
-2.636004327634222477e+02
-5.342837563696856478e+02
-5.246661070829018172e+02
1.102274806544456709e+02
1.291507653364391672e+03
8.601947313517107432e+02
4.621889220076718061e+02
1.295415273891966592e+02
-9.497360631615614466e+02
-2.111723849957178572e+03
-1.896381017106027684e+03
-9.736970024771480894e+02
-1.683727074202243330e+03
-2.057384057688426765e+03
-5.686133453280395997e+02
-3.214435418038601142e+02
-1.578943515779983500e+03
-2.569078160163433495e+03
-1.250802255251907354e+03
9.128476692418382754e+02
2.711931112654631306e+03
3.254497233981152931e+03
2.140537999496922112e+03
8.110007468525151353e+02
-5.792404017874897590e+02
-1.418195520354155860e+03
-1.402818616261316265e+03
-6.331135555125317751e+02
-5.710369939425349912e+02
-3.376004625006654010e+02
3.971482972702256689e+02
8.122612071773397702e+02
8.698123050118518904e+02
5.217358850207371006e+02
5.179259556435630429e+02
7.237924176010554334e+01
-1.718883223627147174e+02
2.819175715836250973e+01
1.092598585713288685e+03
1.322312738423382598e+03
1.135327549510048584e+03
1.124671786744727115e+03
1.153345782817443478e+03
9.942510838444555930e+02
9.564360513830005175e+02
2.449133306160038330e+02
-6.714876458318477717e+02
-1.479749917952248552e+03
-1.579891772433906681e+03
-7.729561226780823517e+02
-5.399297611690554959e+02
-3.147923048846956817e+02
3.925195383164306691e+02
1.635925927802717979e+03
1.340368740455821580e+03
-7.118751494816228842e+01
-4.087066436374389582e+02
-8.691994981084905021e+02
-4.200690286225323689e+03
-6.091183011679823721e+03
-3.210787684548499783e+03
-4.512844722413124146e+02
4.840544753118526700e+01
-9.278213620764774987e+02
9.208882970115526234e+01
1.074761207050818712e+03
2.260496113392803181e+03
2.964636174969583863e+03
3.018610280084742953e+03
2.218488254646074893e+03
3.454953765268264192e+02
-2.435633311400049763e+02
1.230285945275561971e+03
1.801664533923235922e+03
9.194544902635072958e+02
4.458975958590384607e+02
7.850195444728350367e+02
1.004830043179095583e+03
1.469276176912015899e+03
1.427338119960450967e+03
9.540168948878598485e+02
-5.668895156212688846e+01
7.522159899442799542e+02
2.043694025937485321e+03
2.211920807497499936e+03
1.299072290610240771e+03
1.731892303086897869e+02
-8.222282993746507884e+01
-7.760520173411297264e+02
-2.526179998265105951e+03
-1.905005123770981982e+03
-5.055203114833415157e+02
8.831417012782188181e+01
-3.352464177583198648e+02
8.149059856172259231e+01
1.545800069359177542e+03
1.565449473099053876e+03
3.171519074131783782e+02
-4.026128725096040739e+02
-8.940524493829265111e+02
-1.987220893037745100e+03
-2.093994346789166229e+03
-8.984299077704205274e+02
1.264387005920787942e+03
2.060375932755357098e+03
2.206620831182931397e+03
2.014239547234462634e+03
3.079991433018000862e+03
2.514241269020381424e+03
8.917625592976420421e+02
4.165283569613554278e+02
8.194968808046677395e+02
1.893648947725845574e+03
1.557017246516104251e+03
8.826256699329034063e+02
1.153492730774399433e+03
1.405815012857138129e+02
-9.060724070625527702e+02
-2.874681965115424873e+02
-1.755463833927127553e+02
-5.572868301736244803e+02
7.822908336088191845e+02
2.805184992629526278e+03
-1.056610843398305661e+02
-4.726192776308012071e+03
-5.620435851777249809e+03
-4.752416624740822954e+03
-1.047251435879108385e+03
2.060237593889763957e+03
2.127241874309264404e+03
1.983597424241307863e+03
1.054242701488712328e+03
-3.707738522174798277e+02
-4.853482114244152399e+03
-4.454737425743625863e+03
-1.716276613444870009e+03
-7.085386913350097529e+03
-1.142810771903487148e+04
-9.580601637299787399e+03
-7.311654793716131280e+03
-5.957204139710806885e+03
-1.481246304070994711e+03
2.016183826659725582e+03
2.361821247208037562e+02
-5.396186621241519788e+03
-6.686990046418355632e+03
-5.269317269365305947e+03
-2.781154525496425322e+03
1.450515941322030130e+03
1.282706044435086596e+03
3.037514963308724873e+03
3.065970330117810590e+03
2.080071828325647402e+03
1.241813162795011522e+03
1.376170617109915156e+03
2.697261816832509794e+03
3.926224988895700790e+03
4.390071680498351270e+03
3.915744166523340482e+03
3.127286149596549876e+03
1.766737691223463116e+03
1.686056761748536246e+03
1.605175660677351061e+03
1.436167994700145300e+03
1.610135208570776967e+03
2.543105430614841680e+03
4.057040905120597472e+03
3.446980727754064901e+03
2.478874685061266973e+03
1.482721312152073551e+03
-6.153912280257343355e+02
-3.383685417274317047e+02
9.060583002758479552e+02
1.304484313553553193e+03
2.679310423188089771e+02
5.664876177842296556e+02
1.073206813295917527e+03
1.987077833515825205e+03
1.120145589242378719e+03
4.454692535048837385e+02
7.610782540720069846e+02
-3.691488427856128851e+02
-9.698743887349668569e+01
6.866856039567064727e+02
4.728294304870574365e+02
-5.226156360835052510e+02
-1.057690335238530679e+03
-1.322476000552697087e+03
-1.059117239875678251e+03
-1.465458697395815307e+03
-2.142177987504377143e+03
-4.772463005395695745e+02
1.947346996093990356e+03
2.186673653640542852e+03
1.416950319678169990e+03
5.279146909938826866e+02
-1.936465842771333712e+01
1.759609323978836244e+02
9.590145566456413917e+02
1.023177936618138574e+03
2.921525924066291964e+02
3.076818419372876292e+02
3.818793032595684735e+02
7.267614558376294553e+02
-6.196736462192520776e+02
-3.094454079175853622e+03
-3.915633975543291854e+03
-2.316258221751874316e+03
-1.243373933885488441e+03
1.030088133605765961e+02
1.160079902921819439e+03
-1.790879557006601175e+01
-2.333367864946505051e+03
-3.270318410505512929e+03
-2.168678587134121699e+03
1.626353926538988901e+02
2.363574154331317459e+03
2.674999208098735835e+03
1.529800415242930512e+03
2.537079578924720408e+03
2.932966711184031738e+03
2.602503774194191010e+03
1.771676345525100260e+03
1.159424496155083716e+03
6.667720186246127696e+02
7.736192075031830200e+02
9.298096691805869796e+02
9.113396676612912870e+02
6.423092429400007859e+02
1.047517291235409260e+02
1.577600498820310122e+02
4.413289629174377069e+02
1.272090006258165431e+02
-8.761722188661603639e+01
2.879639144148582659e+02
6.190203394165655482e+02
7.635154321638865440e+02
6.122840555080944114e+02
4.992566477560189924e+02
-6.388715642484343427e+00
-2.096539597584109629e+02
-2.746058534643793223e+02
-2.842181709955600013e+02
-7.294389050802067231e+02
-1.306329326100006483e+03
-1.135939818910084114e+03
-6.402753674426759289e+02
-1.078460487656706619e+03
-2.621537809638734416e+03
-1.846512298456034614e+03
-1.928377779736807724e+03
-2.560134346518760594e+03
-2.451776704275545399e+03
-1.742256684857112077e+03
-1.384573328092026259e+03
-2.357496578002071033e+02
8.571670754414407156e+02
1.130198127186577722e+03
6.483786291893173939e+02
-2.752863742395456370e+02
1.571341557307630126e+02
6.915601264312682588e+02
1.330288163284283485e+02
4.164802384071678034e+02
6.679285455032382970e+02
5.545392406606494262e+01
5.702815818001378290e+01
1.952897690012339282e+01
-9.770946021370713197e+02
-8.677571823903906534e+02
-2.704938523075901458e+02
-2.105881063602546419e+02
-6.426956442035531154e+02
-1.001671597539660638e+03
-9.906432668118144420e+02
-1.358788611469284206e+03
-1.495252232606230336e+03
-6.530713231525378433e+02
3.568405444497269627e+02
1.411656755455796656e+03
1.193401686555086826e+03
9.497452146236273052e+01
-4.754870591421125710e+02
-9.229234635128195805e+02
-9.886562654880540322e+02
-7.537078185281155811e+02
-9.879548039573335245e+02
-1.386267835856072679e+03
-7.178792138362122159e+02
-5.678957223873982940e+01
-2.219526170454572309e+02
-7.525192960133770157e+02
-1.031328139220329376e+03
-8.070806340564026868e+02
-4.921233602507998057e+02
-3.905193695382876626e+02
-4.111598725075088510e+02
7.603356683567889718e+01
9.490157330792059156e+02
9.668073846108119369e+02
1.478403685200504924e+03
2.164757971857111443e+03
1.580738837263974574e+03
1.663811367647813313e+03
1.359862416964963813e+03
4.557164076724244524e+02
3.532882958780165836e+02
3.885545455988367394e+02
8.615565692552023620e+02
1.005255295982831285e+03
9.626360021984564810e+02
3.668155524683658086e+02
4.858676126225802818e+02
2.107567684737681191e+02
-5.154947821297872679e+02
-1.336647276540056055e+03
-3.463753206929775843e+03
-2.986099779170227521e+03
-6.796872932431041363e+02
-4.624481135534031182e+02
1.827092044583407073e+02
-1.625311948082297249e+03
-9.145238662321339689e+02
7.739861780526705388e+02
1.095256991759348693e+03
9.473691108244680663e+02
5.663829331318539744e+02
5.323664671295032349e+02
3.902827038560645292e+02
1.809434985857205334e+02
-5.305782126885721937e+02
-6.391577389397559728e+02
-4.567856685403543793e+02
-2.965081122628008075e+02
-1.242788919370512843e+02
1.958582975124579377e+02
3.289494882464680359e+02
1.440011338899263365e+02
4.321144402631341563e+02
8.171965867661314178e+02
1.549168603988676523e+03
1.930144927154503421e+03
-9.178170859116861493e+02
-1.887165814092028597e+02
1.255426233993837741e+03
1.315722898513671453e+03
1.295267388613282492e+03
1.195868704377795893e+03
1.099509514029612319e+03
1.033167179511576251e+03
8.798912247621899496e+02
-1.348342603486727285e+03
-2.322612907732328495e+03
-2.483838812927309846e+03
2.000949671982133964e+02
4.621763015717095300e+02
3.834027596303265000e+02
4.328765415442357494e+02
7.695426148818073671e+02
7.852545318173999931e+02
-1.051087659050299180e+03
-1.850429632321720646e+03
-7.656927916294852139e+02
-2.668850834765979926e+03
1.389771276737901928e+02
5.529077235435287321e+02
5.589775607120592440e+02
8.112302473596606944e+01
-1.285894804347364300e+02
-2.732171644195976796e+02
-5.937346347537197744e+02
-5.751252206038741406e+02
-8.194746956149045900e+02
-8.136383708581452083e+02
-9.645445920647806588e+02
-5.413142625093903462e+02
1.930679862518281311e+02
2.955866090537265336e+02
5.241375525574386529e+02
4.426400593396379008e+02
8.395390697325436804e+02
1.013014430065565875e+03
7.415782167416917900e+02
-1.538539599919951797e+03
-1.746948827268520290e+03
4.136377981015174896e+02
8.724155098251386562e+02
8.584300645421415084e+02
8.294171761403254095e+02
6.202736553338054364e+02
7.806709691011086534e+02
8.264487896473563069e+02
2.276151620340933164e+02
3.444588498936602718e+02
6.447864664164271744e+02
4.988756218246822414e+02
4.180077025237545172e+02
5.733932529414005330e+02
2.569688338064908635e+02
4.892807741768581877e+02
1.122489914914648807e+03
1.743564454876767968e+03
1.397924649783668428e+03
1.495851890803015067e+03
1.336635491521029735e+03
7.953988085949089282e+02
5.523734023404100526e+02
5.020646313491086516e+02
1.515465616025201427e+02
-3.121395500041968489e+02
-1.576989894233955511e+03
-1.957017357319231223e+03
-8.883408786074264754e+02
1.169733232630903785e+02
5.229941157256704400e+02
1.051753461905684162e+03
1.625236425995458148e+03
1.550480132727253931e+03
1.241408844325404971e+03
1.341050028326768143e+03
1.521359812923672962e+03
1.683335585814827255e+03
1.641893154494247256e+03
2.025975620500742252e+03
1.651734133222441187e+03
1.212184007195724689e+03
1.126304514555539072e+03
1.100247946562539937e+03
1.304837142988278629e+03
1.155955733725976870e+03
6.466467833318333760e+02
7.720444540054930940e+02
1.101025156708519944e+03
1.120570255339953292e+03
8.275910075711291256e+02
8.272632806539393187e+02
7.855792321598645458e+02
-1.165542396515914106e+03
-5.739804182988216326e+02
8.942219606227015447e+02
9.480116013358691589e+02
8.444137333947574007e+02
1.035518409233954117e+03
6.573404930817586092e+02
-3.603186319055337208e+03
-7.947097804964682837e+03
-7.840366152440210499e+03
-7.648988563270422674e+03
-8.062143851303055271e+03
-7.872932956789441960e+03
-7.150239864842566931e+03
-7.527934668621196579e+03
-6.663978303574449455e+03
-6.974419085044251005e+03
-6.757317706490791352e+03
-3.084726326759882340e+03
3.754470367111978248e+02
1.118340912247876759e+03
1.809945305990351471e+03
1.973214739708444085e+03
2.351119161641925984e+03
2.046792781075986341e+03
1.541356645849996539e+03
1.219710908298602590e+03
5.856967574925540703e+02
3.203467035468955260e+02
6.855946525131038243e+02
8.014115910735094985e+02
1.118964319021672509e+03
1.022412537068527854e+03
8.097305402256428124e+02
6.547620572558512322e+02
5.823791126814286372e+02
1.436533877090095757e+03
1.739381158011125081e+03
1.821081338031409587e+03
1.556504418269875032e+03
1.520690894538011662e+03
1.713705724531678698e+03
1.253593443046961738e+03
1.222405159336665292e+03
1.739127887475615125e+03
2.032756369247431849e+03
1.540325043869443334e+03
1.292856463719153908e+03
1.325340526095609221e+03
1.641831545080910246e+03
2.007304866450949476e+03
1.643782003704840463e+03
1.296297194947502021e+03
6.568608125225157437e+02
6.294522991261545712e+02
9.030900492613748156e+02
7.078131789392572273e+02
2.036543807741722389e+02
2.236853355871959934e+02
5.878048829346032562e+02
1.203967443194002271e+03
1.270224706861096820e+03
1.088877672241876553e+03
8.310362372180286457e+02
9.927775090559199498e+02
1.426033840578366608e+03
1.005743988343056230e+03
3.260622657105329836e+02
-3.049281283695909224e+02
-5.994120296173975930e+02
-5.392160016949469536e+02
-2.652787136621428772e+02
-6.336402427827009660e+02
-5.575184157044963058e+02
-3.759499011206161185e+02
-1.107992529991672654e+03
-1.777637655599420441e+03
-1.707898589270478396e+03
-1.051710656505812722e+03
-1.889666052065223312e+02
8.652836265858094293e+02
1.256008950056698495e+03
9.962997033021184734e+02
1.037085703257753948e+03
1.409392204827983505e+03
1.252300173283485947e+03
8.927612324376568722e+02
8.637268444710822450e+02
4.393275825251217270e+02
-2.204794930840204472e+02
-2.787786647957178502e+03
-2.048604773349656625e+03
-6.768706945968083346e+02
-6.485851430150099759e+02
-3.767217533028594403e+02
-5.112409103464747204e+02
-9.291609459439417833e+02
-1.183571041312704438e+03
-8.534946723008440586e+02
-5.919325652021046835e+02
-2.134784688946373080e+03
-1.719999000942520524e+03
6.594070721711078704e+02
8.940558127840552061e+01
-1.584998024390855335e+03
-1.628829766012899427e+03
1.019957555132022208e+03
9.053456273581954292e+02
4.632590812396124420e+02
1.066571235335010925e+02
-2.218423523013645081e+03
-3.422990250778302652e+03
-4.390592343010608261e+02
-1.163678658175401097e+03
-1.850846081635093014e+03
-1.913568204479279984e+03
-1.329842602700138968e+03
-1.090741516867946984e+03
-4.513282353573880528e+02
4.550296740625454106e+01
8.067320778871392406e+01
-2.750835497731276519e+03
-8.693018835095787722e+01
1.538297528780082530e+03
1.712890767687535117e+03
1.810908444657762630e+03
1.054260421661010469e+03
6.959434113511694022e+02
2.898858088362172793e+02
3.860520843205944175e+02
5.313983279277859992e+02
1.810388364499654017e+02
8.689031629541530322e+01
-5.409288824420116981e+01
-6.520363603209921166e+02
-1.411628939589724041e+03
-1.071686829826742041e+03
9.523470181701332749e+00
2.208842641983987392e+02
-2.165118512351053326e+01
4.368423430518112696e+02
1.010360179798361401e+03
9.170040693850162370e+02
9.788531106656148495e+02
1.487828884076046961e+03
1.817579137348870290e+03
1.487392942901853303e+03
1.497336590374748084e+03
1.120333990926030538e+03
8.565625106053525997e+02
5.057015650430172968e+02
3.207808058261587121e+02
1.826477968352262167e+02
5.033101615449911606e+02
5.289205377500766190e+02
5.925642767710564840e+02
6.286919145639630813e+01
-1.037507149308384982e+02
2.444385382237756517e+02
2.783280918127462655e+02
8.151078985625301812e+02
8.775937613986187671e+02
2.969879923799384187e+02
-8.014348493249767102e+01
3.234526216428773182e+02
5.576516181467834485e+02
5.135193179217816351e+02
1.327126611213808246e+03
1.350279746432375077e+03
8.892688416936692875e+02
8.186663280782101992e+02
9.779543631698503532e+02
8.639769268046863999e+02
6.964702662553441996e+02
5.384937882020022926e+02
3.160947426925911259e+02
5.562407503240943925e+02
9.718833023427814624e+02
9.830341655207346321e+02
1.111705245776326137e+03
9.200211183695521413e+02
1.184919121925377340e+03
1.482252171257650161e+03
1.653231018547915028e+03
1.766502362036787645e+03
8.792423672848522074e+02
-2.365519961854082851e+02
2.781422519922221568e+02
1.090258765422775241e+03
1.006764424021325908e+03
6.017374196644015001e+02
-1.648583638313063489e+02
-6.070403261792330341e+02
-4.598026400634316815e+02
-1.780588965170416031e+02
-2.189308016356631370e+01
-6.204107690194242650e+02
-7.735418499567324488e+02
-8.362820639246017436e+02
-1.135714738459997477e+02
4.375520443664329377e+02
-2.523914794894318220e+03
-8.509321606798387165e+02
-3.639300332699041064e+03
-2.602141678984091868e+03
-1.321690700153307262e+03
8.381405932902439417e+02
-1.247572107971994456e+03
-6.350828026037969721e+03
-7.415586705202396843e+03
-6.090907037775383287e+03
-9.607816845789370745e+02
4.078666986762261217e+02
-7.799960306714367562e+02
-6.070373214923952219e+03
-7.510215721063324963e+03
-6.615515135015262786e+03
-1.749274763497487811e+03
-1.882400505439068866e+03
-5.357961849444820473e+03
-9.749620132089486333e+02
2.966032564614308740e+02
-5.335205219420377034e+03
-6.384366425797321426e+03
-2.736838164081071682e+03
1.158435246678189742e+03
1.541441456694221188e+03
1.593176980859679816e+03
1.126694905343330674e+03
6.380436381630788674e+02
9.963002111307914674e+02
1.462377417912417286e+03
1.535185731402882766e+03
2.180737278273689299e+03
2.565055322479182450e+03
2.444160879831934380e+03
2.006060117522389874e+03
1.725837083265763567e+03
1.898506562099973735e+03
1.487103134536900598e+03
1.455610367466840216e+03
1.351066120605506740e+03
1.542487375725007496e+03
1.838839137446986115e+03
1.915253808230263530e+03
1.494734549579445456e+03
1.583242310009587982e+03
1.661830223943478813e+03
1.510499209097421726e+03
1.337214591235342141e+03
1.449986838444665182e+03
1.291761661009551972e+03
1.264569787991667681e+03
6.806814894360047674e+02
5.471710175672176319e+02
3.060621615502732880e+02
-6.757756544459748227e+01
-4.985308503886187736e+02
-1.690807031552176909e+02
2.647353007406738925e+02
1.749852687678567236e+02
3.357437788138093993e+02
1.093024604402654404e+03
1.320802594883039774e+03
1.727549488325644688e+03
1.903626567098158375e+03
1.720585172490723153e+03
1.696068012172958106e+03
1.661955625273822534e+03
1.194169339018652636e+03
1.219959655561501449e+03
1.393768483242238972e+03
1.029263531136434722e+03
3.992044968146777819e+02
-4.417070965634469530e+02
-9.663847832229117785e+02
-7.184574196305950409e+02
1.039797038715456949e+02
4.787718968811372520e+02
7.878770118803485047e+02
9.632883775099849117e+02
9.930626780383753385e+02
8.552054992089687175e+02
1.128714379135557920e+03
1.653612127936367642e+03
1.914908303956063719e+03
1.714507639264071258e+03
1.171413653731058048e+03
8.245946101629314171e+02
9.290717007721244727e+02
9.698524702482372959e+02
8.989252511787581170e+02
4.452837480344768437e+02
1.348871812298084478e+02
7.072261351593112977e+01
2.867441118487175800e+02
4.359913875919676229e+02
5.164859827629862821e+02
2.751999084973839445e+02
4.971787849817951610e+02
