-2.104627525422744441e+02
-4.076646983145897707e+02
-3.663105824988930408e+02
-4.734249600941474796e+02
-5.368512028537464857e+02
-8.725834642808169974e+02
-6.546649529621723786e+02
1.908850357947996486e+02
1.021193294635126904e+03
1.371310287478881264e+03
1.504166239373491408e+03
2.209741787035382458e+03
2.399171680792068855e+03
2.210549418460474044e+03
2.005795122935003064e+03
1.816931209483891735e+03
1.373918026527489474e+03
8.816980655147500556e+02
4.262274185449759329e+02
-1.486000553720026929e+00
-4.973785273431885230e+02
-8.103983513698020715e+02
-1.478343943701067928e+03
-1.429178428109439892e+03
-1.312309594755811986e+03
-9.406095609307344603e+02
-5.776722424392655739e+02
-9.564355644698901315e+00
3.496575938801223060e+02
9.460870753731684317e+02
1.522653679195466566e+03
1.688273638524490707e+03
1.291772282170687959e+03
1.829244029487595526e+03
1.826846644784102409e+03
1.101496165832773613e+03
6.158289639847868102e+02
1.309147929264591141e+02
2.109429066681592531e+02
1.268022386499957008e+02
-4.029420675693672251e+02
-8.883127338184428936e+02
-1.315150478357204520e+03
-1.213404831925790859e+03
-1.441166834900693402e+03
-1.766760417406017723e+03
-1.418098015188990757e+03
-3.970894083048783614e+02
2.762265298938045248e+02
1.135866231969320552e+03
2.109712339263795911e+03
2.270708916427346139e+03
2.497885267808985191e+03
2.274068413919408158e+03
1.976248840937709701e+03
1.465416788476421516e+03
9.704968972022459184e+02
4.213149222558810720e+02
-2.102375849139698687e+02
-9.481560010693474396e+02
-1.410552336108721647e+03
-1.609391113503669885e+03
-1.681654975810650967e+03
-1.158451090633691592e+03
-1.283791782459755041e+03
-1.182841591998762624e+03
-1.362754353712824241e+03
-1.881499553412858631e+03
-1.611823191352514641e+03
-8.627817484073041214e+02
-5.016023854278597014e+02
4.545739571633767468e+02
2.041709782802900463e+03
2.092811658962560614e+03
2.235846146385049451e+03
3.195625375394219645e+03
3.708103201247421566e+03
4.176482964960359823e+03
3.764675676610021128e+03
2.814440524688940968e+03
2.142634154990723800e+03
1.567185814398395678e+03
2.424048842873882677e+03
3.050213260115556750e+03
1.163697074497739322e+03
-2.820620526200858421e+03
-4.452779621748514728e+03
-4.169728348090079635e+03
-4.244622284494123960e+03
-4.373484202461427230e+03
-4.772341655696574890e+03
-4.950202860824847448e+03
-3.719012649700656311e+03
9.742151644918274087e+02
2.774459166883289981e+03
1.970572439362367959e+03
1.090374979893638283e+03
1.410025409821771063e+03
1.941454968352115657e+03
2.705480604780303111e+03
3.612091781790601544e+03
3.810243197564872844e+03
3.394902836178772759e+03
4.181105264457435624e+03
4.706015985911244570e+03
3.452646599965856694e+03
1.799782482090480698e+03
1.685391674784153338e+03
2.167485991991919491e+03
1.970079685816145684e+03
1.010204132552821761e+03
-4.781892829863241445e+02
-1.746111505402582679e+03
-1.533506401129324104e+03
-1.439298973068784335e+03
-1.442540984690048845e+03
-5.732368011342273348e+02
3.775459607195049898e+02
2.286816935651125277e+03
3.652605360037155606e+03
3.212895865630836397e+03
9.187184208052444774e+02
-1.160904689965830812e+03
-2.836856034188066133e+03
-3.993229771643781987e+03
-3.766113739599534711e+03
-4.519361371126790800e+03
-5.171898745865540150e+03
-5.204686642394941373e+03
-2.723601227539731099e+03
8.413067844845214722e+02
6.908097862770281949e+01
-1.219233602042116672e+03
1.384490282938913197e+03
6.078343311730613095e+03
9.174327833956307586e+03
9.085433065637012987e+03
5.885786126150418568e+03
4.201443775028488744e+03
2.580372229087892720e+03
-8.624276228225402292e+02
-4.650820038031482909e+03
-8.301719494476663385e+03
-1.235513812277422767e+04
-1.491500584295594126e+04
-1.463019647630314103e+04
-1.062374857627584242e+04
-8.021509951692670256e+03
-2.865374392563583569e+03
3.369736440390253847e+03
4.410872713660665795e+03
3.040179691583017302e+03
2.377801883019305478e+03
3.001866140085063762e+03
1.620478450758831514e+03
2.070973699187870665e+01
2.483690504573851285e+03
4.786479910046462464e+03
4.181091992595081138e+03
3.383620214755899269e+03
8.861538530651882866e+02
-4.733392824702124926e+03
-8.873846998393757531e+03
-8.903106360531190148e+03
-8.748981428537330430e+03
-4.147416084768986366e+03
1.229564047105532381e+03
1.014095260753017442e+03
-3.146867047744804609e+02
1.593848260466737088e+02
3.924021184013755033e+02
2.524378387093067317e+02
-2.024408548165642742e+03
-4.635037954248919050e+03
-5.873350692841615455e+03
-4.476271379585187788e+03
-4.221674448877164650e+03
-2.529482810528043501e+03
3.677384582164096173e+03
4.662874948747999952e+03
2.655089377495199187e+03
-8.208152241795444297e+02
-2.581776914261389720e+03
-2.627772692561306940e+03
-4.695632806583938873e+03
-4.986224003787772745e+03
-3.038552118083244295e+03
-1.939592601038356406e+03
-1.244259738746057337e+03
-1.844282252599101639e+02
2.110103540640049857e+02
2.838101892839601078e+03
2.865956114902146965e+03
3.242701197785734166e+03
5.086433421922743037e+03
4.525175239029839759e+03
1.006962926262249539e+03
2.490836237525651995e+03
3.690882769418816224e+03
2.644048064905322008e+03
1.690320000204530515e+03
3.404736430621953332e+03
5.480437255376898975e+03
7.205527257788095085e+03
5.653964054694355582e+03
4.674730889999822466e+03
6.271842363026914427e+03
6.482358091462861012e+03
5.455276171059964327e+03
4.700841297683875382e+03
4.152903899872781039e+03
2.410670677263083689e+03
1.138244795328932923e+03
1.681777331782836427e+03
8.350958827448932880e+02
-8.009438434978674195e+02
-4.343557718559906675e+02
2.265992739257986614e+03
2.265084882272042250e+03
2.577010213254498581e+02
-4.789996800843933897e+02
-2.764318694047683039e+03
-5.685899369944758291e+03
-6.583982436244383280e+03
-7.649533205779309355e+03
-4.132119590715407867e+03
-2.481203551729111496e+03
-3.527323883079479288e+02
4.091139831145085282e+03
6.387339619171900267e+03
6.490036414390368009e+03
4.874119919284423304e+03
2.833472484041503321e+03
2.228408856851038763e+03
1.082411123331527051e+03
1.277443143408448947e+02
5.162679895618698538e+02
1.426031551250795246e+03
9.519443197763139324e+02
4.250050159420562181e+02
-5.869862741288562802e+02
-1.634728694911424896e+02
-2.195153880214488318e+00
1.519013312126800656e+03
2.655632695884703935e+03
1.331806466503815727e+03
1.030323766455154782e+03
2.297358787062430565e+03
2.673686229557265960e+03
1.987197067984742489e+03
2.724959512612983417e+03
4.122915936259988484e+03
4.774774885408012778e+03
4.032696984975952546e+03
2.177548379292828486e+03
1.261144023905042559e+03
7.684183143906053601e+02
5.012231204278469363e+02
-3.550431684508632202e+01
-1.753895186826777262e+03
-1.795076780659079986e+03
-1.454140071028080911e+03
-1.614160977991123900e+03
-2.293228944939489793e+03
-1.805500995207489723e+03
-9.440990515744327922e+02
-5.870610727545471264e+02
-1.194397491523489862e+03
-4.402207762500283366e+02
1.330414410770318455e+03
2.106444123174228025e+03
3.417793915314894548e+03
3.968380248944005416e+03
3.455099357199178485e+03
2.364898993736618650e+03
1.332655923095348498e+03
-5.569591063429815136e+01
-2.118281375090679376e+03
-4.026207861070482977e+03
-4.561547167801220894e+03
-8.659399058263530605e+03
-1.201489536766660058e+04
-1.040114909725464713e+04
-9.359204733156679140e+03
-8.741166584508411688e+03
-6.613090836718911305e+03
-4.856069534617355202e+03
-3.938158085367993408e+03
-4.945315369790117984e+03
-5.101528580938953382e+03
-3.476947214706546674e+03
-9.606207439877464367e+02
2.704466024065835654e+02
-7.848433882000186941e+02
-1.537574781574398912e+03
-1.127831279647657993e+03
-4.875691802475039367e+03
-4.358212885526195350e+03
-1.208438262432542160e+03
-2.533379319334019328e+03
-3.448149031176275457e+03
-3.379733599471953767e+03
-3.772244523514176308e+03
-2.958760509316746720e+03
-2.127372861171393652e+03
-1.401400422188752941e+02
1.129931554364689873e+03
1.640813679014197078e+03
2.901570767064924439e+03
3.225201034801450987e+03
3.539749793204925936e+03
4.128222605997815663e+03
4.808651518916532041e+03
4.376016305326049405e+03
3.184234258546052843e+03
2.311268146760959098e+03
5.570765032528205438e+02
-1.573654012828102680e+02
1.359001459229006343e+02
-1.681203267580718830e+02
1.652742239510690325e+01
-9.771235301168035221e+02
-3.057089198310516622e+03
-3.861338327857485638e+03
-1.512827960884480262e+03
8.634227355598567328e+02
1.762349902535410138e+03
2.235045747936040698e+03
2.281492137520761389e+03
2.553649058225725639e+03
3.391663814658412775e+03
2.294540470252691193e+03
5.671745584331084729e+02
2.475594800356749602e+03
4.836868362290912955e+03
4.711047826434466515e+03
3.516185515688249779e+03
2.479271993659550844e+03
1.681352353022520674e+03
7.332886879657306736e+02
8.150915908032541211e+02
6.589199873536882706e+02
4.239856984576131254e+02
8.312320316582919304e+02
5.949042006228013406e+02
4.181784879225535860e+02
1.170913956636996716e+02
-2.635161728487299371e+01
9.187917022683046753e+02
1.963593327018573973e+03
2.898970929397436521e+03
3.199852463614536191e+03
2.505251933560819907e+03
2.769605991447098404e+03
3.023762820165006815e+03
1.903603764960309945e+03
4.890611702024809802e+02
-8.558709114048244828e+02
-2.452120612190283737e+03
-3.571625942991016473e+03
-2.591453553533734066e+03
-4.645386627357765974e+02
-4.426613801049036852e+02
-5.547623329907955849e+02
-5.638463665980568749e+02
-5.149204971566899758e+02
2.415571638943996291e+01
1.335359160617050520e+02
5.533717676578363580e+02
6.497442612017274541e+02
9.225811547740851211e+02
1.344925430311957598e+03
1.958854421959291813e+03
2.063408203343300102e+03
1.753583700824664675e+03
9.532156673758803436e+02
2.172437289022358584e+02
-4.052118551384203329e+02
-7.048519767318331333e+02
-4.511298511052015847e+00
-1.041485352456721785e+02
-1.439756795120192692e+03
-1.963343846914725646e+03
-2.140890713708886778e+03
-2.178429058959590293e+03
-1.213795326172136356e+03
-4.070923088118264559e+02
-1.374848021771228730e+02
-3.187041333262977219e+02
4.142493248518040332e+02
9.970836288999868202e+02
1.122652131139456060e+03
7.360636737744018774e+02
1.068582262770671150e+03
1.784428323288708270e+03
1.663446384664747711e+03
1.228656333467427658e+03
1.469318044163831701e+03
1.604591006744306014e+03
8.306379104535558326e+02
-1.735022687308881473e+02
-3.509952682400402750e+02
-1.075048762530419481e+03
-1.225964562050914765e+03
-1.553636180572068042e+03
-1.879206316524211616e+03
-2.423895820329109938e+03
-2.407402260238884082e+03
-1.999364241643792411e+03
-1.237796806333317363e+03
-5.148110490409519571e+02
-1.962212587895552360e+02
9.199855608426462368e+02
1.827471451420426092e+03
1.876200412412447349e+03
1.891401401665234289e+03
1.565015144270892961e+03
1.772380876509523375e+02
-1.026587410362955779e+03
-1.683418585816196810e+03
-8.845355811666639738e+02
-3.060451927058180672e+02
-8.483103565263592145e+02
-1.463518050264627618e+03
-2.042200801186059607e+03
-1.779176850351194389e+03
-7.256240595738751153e+02
-3.365347898779359070e+01
6.617653702399283020e+02
1.357017756671320285e+03
2.071322991649299183e+03
2.339718020404710842e+03
2.507651901770228505e+03
2.430908093925613684e+03
2.847567545361276188e+03
2.000187176786313330e+03
9.620189655393040766e+02
4.162524498105940438e+02
-1.038315231074206935e+02
-9.502502583237068166e+02
-8.542102425522137992e+02
-5.344979826772173510e+02
-6.192017887599629375e+02
-1.044633673574994191e+03
-1.404788543120392887e+03
-1.480682554269822276e+03
-9.881628726513968104e+02
-1.043378114651979331e+03
-7.545628919631698182e+02
-2.153985169288488066e+02
3.340791522392274260e+02
8.738671429396781605e+02
1.452972489467468222e+03
1.878357929600220587e+03
2.423875755291501719e+03
2.208425468019458549e+03
1.076096598295147487e+03
-2.751057758641318287e+02
-6.374235864822250051e+02
-2.320446225162302198e+02
-7.989554125584743360e+02
-1.606799763564016985e+03
-1.863731623466776000e+03
-2.488955391907895773e+03
-4.773269178412978363e+03
-3.924624182729622589e+03
-5.239997723263347325e+03
-4.684367542220697942e+03
-3.740683969084655018e+03
-2.910375427905274819e+02
9.254800525089336816e+02
8.470703781432603137e+02
2.607983849324091921e+02
1.388445899176045714e+03
2.740814859041249292e+03
1.018059296080169247e+03
1.582282185431736707e+03
-1.856593291037677318e+03
-7.903786155799360813e+02
-1.729084889337676714e+03
-2.410805558335891874e+03
-5.785063909233914501e+02
-2.778703147927168175e+03
-7.730401811826849325e+02
-1.511658600115370518e+03
-3.675898433666041910e+03
-9.805982072586122058e+02
-2.018623862504315412e+03
-1.699858764897458286e+03
4.385706248779194283e+01
-1.811526059427108066e+03
-1.899037469867653272e+03
-1.264627694427696724e+03
1.369622779222837380e+03
2.493553162439884090e+03
9.963021966396019025e+02
2.277890589700382861e+03
-2.116649512511462490e+03
-1.012427846696012466e+03
-4.615173917723464001e+02
-1.902011815924417078e+03
-3.629908043254454242e+03
-3.238965331533793233e+03
-7.052316616292993103e+02
-1.648850224426940088e+02
-1.182970575782673450e+03
-2.077381320329893697e+03
-1.709003298615187532e+03
-1.830945025616030989e+03
7.268205230278141471e+02
2.311430129480794221e+03
2.991944719436672131e+03
3.368338328264570009e+03
3.220570571566517174e+03
3.636605499727239476e+03
3.839501234807032233e+03
3.399413926140327476e+03
2.868201371107413706e+03
2.043747322752430136e+03
1.630990675671508598e+03
1.015959536592163772e+03
-4.180307185288075766e-01
-9.210732698896972579e+02
-1.122878383530383871e+03
-9.408337310802643287e+02
-6.541303606546048286e+02
-3.497934193042049742e+02
1.772849411783708717e+02
8.960284770939992995e+02
1.216453755200887144e+03
1.968639251612499265e+03
2.327663514626511642e+03
3.016574867635798910e+03
3.142387787945081527e+03
3.090131980293402194e+03
2.673903202546463035e+03
2.643504721316321593e+03
1.994432476341452002e+03
1.056809690031970376e+03
4.612181857558312572e+02
-3.283448627218525644e+02
-1.167938199677883631e+03
-2.119739607849580807e+03
-2.973700065988768984e+03
-2.819784600159332058e+03
-2.117905536615315214e+03
-1.345046466639588289e+03
-6.582107847033393000e+02
1.624217627097977470e+02
7.839131888696355190e+02
1.097633053772788344e+03
1.728241864351141658e+03
2.038593686137634677e+03
1.819215396946189003e+03
1.572942313016966182e+03
1.773510667166668782e+03
1.653824402216813496e+03
2.005012152738553368e+03
1.285194226236221539e+03
5.951450745298050151e+02
-8.234058827482900256e+01
-1.430261516137845774e+03
-2.340745230767538487e+03
-3.090752086825380502e+03
-3.479221324002196070e+03
-3.518209427500602033e+03
-3.092650211120972472e+03
-2.324516179237059077e+03
-9.448870523435178939e+02
6.732459758965496803e+02
1.573019031236830415e+03
2.135500745785481286e+03
2.114707131365484202e+03
2.019672212369130420e+03
1.605322195801794578e+03
1.365645587461371179e+03
1.194621626126580622e+03
8.031418191790779701e+02
3.053509980437086710e+02
-2.586932713894112226e+02
-9.310780906836450868e+02
-1.331111775434153287e+03
-2.236802890467720772e+03
-2.514079502599500756e+03
-2.477910817785382278e+03
-2.164233923563869666e+03
-1.382092154880870339e+03
-4.795257092485086332e+02
-7.638975309492330723e+01
2.203453365044627219e+02
1.310464310340404381e+03
2.094944318968119660e+03
2.639932543641864413e+03
2.846557542569092675e+03
3.252861528471865313e+03
2.962735722725997675e+03
2.203200899023042439e+03
-4.879876569392737906e+01
-3.711322495287346101e+03
-8.046364834159145175e+03
-8.666944420947200342e+03
-7.864046818541672110e+03
-6.993713635998658901e+03
-6.795913083512494268e+03
-7.859560063028796321e+03
-7.041758615396603091e+03
-2.959551075590378332e+03
-1.714944439718375861e+03
-3.416004518661468410e+03
-1.983895627930746173e+02
2.374845347399442744e+03
3.688684954329701668e+03
4.208201116667933093e+03
4.552464758169935521e+03
4.745500659882862237e+03
4.497336993204771716e+03
3.942876569760001075e+03
3.381945823448287683e+03
3.043427514702065764e+03
1.876445978907624976e+03
1.087008466917675605e+03
-5.849685153576577257e+00
-8.001557332579287731e+02
-1.325924536459895307e+03
-1.449134556158487158e+03
-1.261702453835005372e+03
-1.211610483043869863e+03
-1.258869726924621318e+03
-9.244661069265315518e+02
6.035807480446367208e+02
2.298309775384854220e+03
2.988735355949812856e+03
2.255922703761268167e+03
5.249915302190999000e+02
-4.699535820519378149e+02
-3.329997671737101541e+02
-2.162413916342008520e+02
-3.326984249293069524e+02
3.387607043918798126e+02
-2.089380429708722886e+02
-1.970811521480034344e+03
-1.704895788781474948e+03
-6.520031329213345828e+01
1.357276906457175301e+03
2.182617569318028018e+03
1.926889683246788536e+03
1.552024476781799422e+03
2.004054507526248926e+03
3.130048848456684937e+03
4.876112618870599363e+03
5.937225138173223968e+03
5.662365954095110283e+03
4.839604942944940376e+03
4.443988553847170806e+03
4.527473774034589951e+03
5.858103647492106575e+03
6.376939566755452688e+03
5.205989929098740504e+03
3.456252379921701959e+03
1.567779911022368879e+03
-2.846319181133948106e+01
-2.234626170850423250e+02
-9.251759091691674257e+02
-2.424566920049994224e+03
-2.052665940338117707e+03
-1.461503134558458441e+03
-1.015004377236177106e+03
-2.441105276467285421e+02
1.381072556903790485e+02
3.545891394110947772e+02
5.584483442337140104e+02
1.036774770875465038e+03
2.726203396864705724e+02
-3.329786439689382860e+02
-9.129526966021250018e+02
-7.982924513063716176e+02
-6.329728179820466494e+02
-1.685175154075408955e+03
-2.503887471482252749e+03
-3.875003862842300805e+03
-4.374526894789222752e+03
-3.830481740619557513e+03
-3.769929354253694328e+03
-5.459900770284955797e+03
-7.586343521014055113e+03
-7.439219057798718495e+03
-5.055547958406706130e+03
-2.813186818339160595e+02
1.015542445511912661e+03
-1.381932848502136721e+03
-1.181686022294649320e+03
-9.197391546600883885e+02
-1.634999554570685632e+03
-3.248419502112049031e+03
-3.594001542837812394e+03
-2.971785894161289889e+03
-3.344723261035028372e+03
-3.133869604831269044e+03
-2.274274911251322919e+03
-2.728929798296675926e+03
-3.553851690345112729e+03
-4.868013861598942640e+03
-3.446421185840773887e+03
-4.154041430495882196e+03
-5.346855398320310087e+03
-4.614895577359368872e+03
-3.571158406842104341e+03
-5.966964851501892753e+01
2.229542540620999262e+03
8.344916980367365795e+02
2.494211636982047366e+03
3.469670419815279729e+03
3.719903828768120093e+03
4.147130371281815314e+03
4.537458458658427844e+03
3.471694667032126745e+03
2.642664926068979639e+03
3.257430440568268295e+03
2.222010445018129303e+03
1.069355591784162243e+03
1.380273255322466639e+03
1.097120327369160350e+03
1.245910777437465640e+03
1.952681396818140456e+03
2.035155022653078504e+03
1.040309594382766363e+03
5.208848980288012172e+02
1.332240630130750333e+03
2.223185979724536537e+03
2.436741206308555320e+03
3.103023326900380198e+03
3.705031581181353886e+03
3.547717285682377678e+03
3.406184247043203868e+03
3.932508268757371752e+03
3.104377549629545229e+03
2.578048654576342869e+03
2.098194187770709959e+03
-3.344507159512303360e+02
5.467547715263335704e+02
8.582186397761264516e+02
-1.663643734969792565e+00
-1.160999689728448345e+02
-4.072729465285560764e+02
-1.247005024175499784e+03
-9.942527616991162631e+02
-1.154538280305906284e+02
-2.501585459564381324e+02
2.566996488874989382e+02
1.241998975143537336e+03
9.972032080529296536e+02
1.251698027797286386e+03
1.722566200971317585e+03
2.069572295293212846e+03
2.516303366363313216e+03
1.856022586977046331e+03
1.469783012651528679e+03
9.956936051755735662e+02
1.089895406934935409e+03
1.443308262415175250e+03
1.231736616402572054e+03
-4.929578993395217594e+02
-2.451686003585040908e+03
-1.704480907013932210e+03
-1.292437092058657299e+03
-9.504958098975449730e+02
-1.499184641724285996e+02
7.530019737313769213e+01
6.142510413395777960e+02
9.739009984654605887e+02
1.042239730011529446e+03
1.551232450637942065e+03
2.825887904563396660e+03
4.067236281385321035e+03
4.482262418091714608e+03
3.601019903310956579e+03
2.168444735221568862e+03
5.665218790982373775e+02
1.352527543227098761e+02
1.065591744477222392e+03
1.121461874539860446e+03
-4.720334892560640583e+01
-4.024868530937560536e+02
-5.437435724546072180e+01
1.692252872149025222e+02
7.028298139032538927e+01
-1.642249558198168415e+02
-2.613792503387342663e+02
3.384154617346693072e+01
-1.715713318129511435e+02
-1.316584006095030418e+03
-1.821207083528744079e+03
-4.179382920388272396e+03
-4.709127640094290655e+03
-3.817409495220832468e+03
-3.320225553398211105e+03
-2.891622039101790961e+03
-3.363609704150251218e+03
-4.387156962209201083e+03
-4.780254195996893031e+03
-5.297004687456126703e+03
-6.874239922908390326e+03
-7.858076342504019522e+03
-6.889632740123231088e+03
-6.607914223887430126e+03
-6.217945903561019804e+03
-2.823719902107009602e+03
-3.310205374493949421e+03
-4.768423157628752961e+03
-4.109314646899329091e+03
-1.184836411612006032e+03
2.421041447620872987e+03
9.392464757074744739e+02
1.162903985909202902e+03
4.374009788765427402e+03
4.794584488163049173e+03
3.916638575280394889e+03
3.213158810746282597e+03
2.304158223239278868e+03
1.491667776236478630e+03
8.266854446716459961e+02
3.412116681732417760e+02
-7.776930764799041640e+01
-6.634254980977208049e+01
-7.214814941966257038e+02
-1.098235334456163400e+03
-7.766537718688351788e+02
-4.176566516866205916e+02
3.968482838989071979e+02
6.179167255164678636e+02
7.185664932496970323e+02
1.868840717474159419e+03
2.470781099553338663e+03
2.296407734551274189e+03
2.837730145478041777e+03
2.789802272181195804e+03
2.592642153418755697e+03
1.760298471445664063e+03
1.402721820090890787e+03
8.779771991839821794e+02
4.300257602318713452e+02
4.178151060510928119e+02
1.143603762766823166e+02
-1.837552300495169177e+01
-2.853648272233389775e+02
-1.321561838264059361e+03
-1.617942704183808473e+03
-1.159525668461874602e+03
-9.112656478846781738e+02
-1.231157872645139122e+02
1.375981725546716916e+03
1.733010402493233187e+03
2.093069239671465311e+03
2.821282104941662965e+03
2.639700566569139028e+03
2.360422553009203966e+03
2.507607088363771709e+03
2.212192827061615390e+03
1.222122005980282665e+03
1.803900935352605188e+02
1.810638902521075408e+02
-5.722101893214723844e+00
-4.949356129463877778e+02
-1.116150794722175533e+03
-3.520181682069513045e+03
-2.894634413106115517e+03
-1.952951147779615667e+03
-9.791839138012456942e+02
-4.532625640803864258e+02
4.728715062403172169e+02
1.636261488035114326e+03
2.777930979665908581e+03
2.921946432416005791e+03
2.899363674058767174e+03
2.878199892081913276e+03
2.525443253140159413e+03
1.922192432624973890e+03
1.666437009620744448e+03
8.992217041918619316e+02
2.165961438643296333e+02
-8.835087856833611113e+02
-7.931950833226495661e+02
-8.644679511941255896e+02
-1.028319315535533860e+03
-9.306983191858384998e+02
-9.006134513334100120e+02
-9.571700938485038250e+02
-1.530388932567602978e+03
-2.257169932175331724e+03
-1.805416668044954349e+03
4.898564112767894585e+01
1.212053114025556170e+03
2.354719489424956464e+03
2.528969467290510693e+03
2.871847254236888602e+03
2.687275909361434515e+03
2.300329878238050696e+03
1.194109493842208167e+03
6.974559744267304495e+02
-5.876234280403709676e+01
-5.315878687573452908e+02
-9.000325703201039005e+02
-1.524054899172470641e+03
-2.102654054313329652e+03
-2.539849072139128566e+03
-2.476681657544429527e+03
-2.176242608138901687e+03
-1.784499982029174816e+03
-1.413346895038087723e+03
-9.876965602299876537e+02
-6.185909711410096179e+02
1.399401734704990474e+02
6.007583549624589523e+02
5.039089396386211206e+02
8.355171983180912321e+02
1.011632222286785122e+03
9.703054790415397974e+02
5.845576899650142195e+02
3.462988905762694003e+02
-7.951934800537905801e+01
-7.828153773673325304e+02
-1.901780481695686149e+03
-1.956455019455430829e+03
-1.252789594112948635e+03
-1.980863283897708698e+03
-2.970669034456729150e+03
-2.818205596410773524e+03
-2.436434792072720029e+03
-1.498479382907218223e+03
-4.673189243379306390e+02
1.491905037986831246e+02
6.542504911489444339e+02
1.795773474104590150e+03
2.076702812557466586e+03
2.361128268966242103e+03
2.804020573213213993e+03
2.882470626198489754e+03
2.280384824798021327e+03
1.325613723593619397e+03
5.401160056445368127e+02
-5.696842385854403545e+01
-2.535403898526068076e+02
-8.107462194148969274e+02
-1.341664184823775031e+03
-1.521821985700033338e+03
-1.548203058271265945e+03
-1.188339033635753594e+03
-6.214672631172808224e+02
-2.145621084807915793e+02
3.494625086257663042e+02
1.227737110841538652e+03
1.518128701732188119e+03
1.933498163915411169e+03
2.525972558594220573e+03
2.800355018408732121e+03
2.797534128150501601e+03
2.004692562857228722e+03
1.267780602353537688e+03
4.469289807607154330e+02
5.279667454857865323e+02
3.157049804893250098e+02
-4.070586574045655226e+01
-6.339723385428847990e+01
-3.173714236460856455e+02
-9.287901382073923742e+02
-1.326542746087083742e+03
-1.382578862341650847e+03
-1.652232530903044562e+03
-2.305523037022838253e+03
-1.176391854905304172e+03
1.306110665428667971e+03
2.627949620959909680e+03
2.760274157808371001e+03
2.803084338311349256e+03
2.778222977487221669e+03
2.623814617550416187e+03
-8.470928869499898610e+02
-2.301626739567655022e+03
-4.478091473886179301e+02
1.252453188095970802e+02
-1.000548997298792756e+03
-1.925128098333725120e+03
-3.244438609892206841e+03
-1.328463034832263247e+03
-2.803334584407508828e+03
-4.942059808898846313e+03
-3.769522895565294675e+03
-1.433825903886897095e+03
-2.513016434589364508e+03
2.879482318172908890e+02
2.531246870714519730e+02
6.834962183515573315e+02
3.038217473720064845e+03
1.612343479977505012e+03
-7.951364590528476128e+02
1.153891051671741479e+03
5.320837345883509784e+01
1.821934777174080182e+03
-7.088511601368004449e+02
-7.052851922460262131e+02
-1.797453026403211425e+03
-8.013692835901166518e+02
-3.707067870314523134e+03
-4.691554157663116712e+03
-2.935572792667482190e+03
-1.203097886656193850e+03
-3.751095744976401420e+03
-2.213454720692915998e+03
-1.744448252162450899e+03
-1.126274847434914363e+03
1.704116042507509519e+03
6.877978543371150408e+02
1.380068726869865259e+02
-1.027157508327308960e+03
-8.995696836955288518e+02
7.017109152581082299e+02
3.202622464153222609e+03
2.981131919117913640e+03
2.536351294197606876e+03
1.704446570211732251e+03
9.801841314252645816e+02
7.566811511312761240e+02
4.190010277768275841e+02
-8.788042820929770471e+01
2.261520563687525112e+02
2.710531463021645777e+02
-8.620460317500084102e+01
-7.862295848347048377e+01
1.998861711901148794e+02
5.182634401931079537e+02
7.392285296876315215e+02
1.561855700910218957e+03
2.262481799007305199e+03
2.857188566132484539e+03
3.239066402653822479e+03
3.175111731586929636e+03
2.905146220568207355e+03
2.295242007528439444e+03
7.354759378272387949e+02
-7.273371559592783342e+02
-6.732099411789321266e+02
-4.089980665110176687e+02
-5.146762897540126005e+02
-1.001157764722614843e+03
-1.433215141693212672e+03
-1.435885446288530602e+03
-1.326298710738276441e+03
-1.410171397075616596e+03
-1.041278476245260890e+03
-3.126096074790218040e+02
3.979559117650641724e+02
8.994321701703233884e+02
1.134771265962497409e+03
9.499053690139459150e+02
9.679971079318563625e+02
8.250877453163870996e+02
-9.678907967780477293e+02
3.189136832640173225e+02
1.102581689333446775e+03
7.291971735976286482e+02
3.287807097599455233e+02
-1.637757043950090008e+02
-7.038755018461099553e+02
-1.189646284081334898e+03
-1.667783190442931527e+03
-1.712115177750621569e+03
-1.801624748740966652e+03
-1.666277025867465227e+03
-2.154350230986834049e+03
-1.401718889132648656e+03
-2.062923408405347558e+01
6.777631975959328656e+02
1.446884257609872520e+03
1.944873494909785450e+03
1.590644343851002304e+03
1.630154735494649458e+03
1.464368414928149150e+03
1.374346134178692182e+03
1.231112341602928154e+03
2.367203321353846377e+02
-2.501065499924035862e+02
-7.623325484433772772e+02
-1.639789917062921631e+03
-2.272519108893840439e+03
-2.149538340945884556e+03
-2.018793556720002243e+03
-1.960156080947031796e+03
-1.968637466124475623e+03
-1.542394813857754571e+03
-9.554069794181323232e+02
-6.716157250020216907e+02
-4.311818663512507754e+01
5.261230696987418014e+02
1.402107010307189512e+03
1.694832312566091787e+03
1.993267832574960039e+03
2.089408596126703742e+03
1.500310403293377476e+03
1.059128449094240295e+03
3.598851296336088694e+02
-4.057023781558343245e+01
-5.713481908001979264e+02
-1.246499674795306646e+03
-1.603177189772941574e+03
-1.810447549034401391e+03
-1.813181634229729070e+03
-1.594419917634525746e+03
-1.591217819001600674e+03
-1.267457662767998272e+03
-6.710157835855424935e+01
-2.571524549704580522e+02
-1.903561094499581941e+03
-3.991301051862104032e+03
-4.381314680052452786e+03
-4.350718828838119407e+03
-4.316555520057792819e+03
-4.164904792910423566e+03
-3.822850803088549583e+03
-1.013363965167308265e+03
-1.581430369609880472e+03
-2.277155216039882816e+03
-1.070992548946598390e+03
-3.961886060248131685e+02
-3.999187292032269170e+02
-4.923769340703965440e+02
-6.567129176924643161e+02
-5.789989623704736914e+02
-4.951802292079707399e+02
-1.873084715449309385e+02
3.077322680753879354e+02
7.868867806809361127e+02
1.127176423317133640e+03
1.635773893377157947e+03
2.087690471169029479e+03
2.528789908466731049e+03
3.743067174440820509e+03
4.281531241175205651e+03
3.724199851529685020e+03
3.180948289459279295e+03
2.365761963284130616e+03
1.842545248926813883e+03
1.420142994418122498e+03
8.705685618872151963e+02
4.280103391352221820e+02
4.305496328430598965e+02
1.099835348183780752e+02
-2.269274771295590938e+02
-6.924482163904809795e+01
2.730271299009772292e+02
4.668026727641637876e+02
1.077114196477332598e+03
1.710995789875839364e+03
2.253468094488458974e+03
2.714475324384635769e+03
3.113163152221711243e+03
3.609499445291690790e+03
3.900339793833952172e+03
3.811670614012371516e+03
3.208444564143140269e+03
2.259673596549930608e+03
1.767393230215561971e+03
1.587449399545330607e+03
1.218662380662379292e+03
9.010146066634490580e+02
6.995437879547380362e+02
9.802973039560956749e+02
1.101275228302828054e+03
1.406432153408719842e+03
1.494647125644491553e+03
1.718949788787703255e+03
1.917383281792363505e+03
1.903889240906348050e+03
2.068512692399299794e+03
2.554354523123985018e+03
3.378294508705932913e+03
3.213173250572652705e+03
3.165093056133618575e+03
2.478113473936132323e+03
1.610169032632308699e+03
1.424125323391991515e+03
7.898607355234762508e+02
1.152202721881540626e+01
-8.728283557800435801e+02
-1.202381593381425773e+03
-2.825222827801951553e+03
-5.919425759866583576e+03
-7.666023660277001909e+03
-6.925975191858687140e+03
-6.333289955309754077e+03
-6.092014919610935067e+03
-5.768964093925229463e+03
-5.566139846526881229e+03
-4.676633968296434432e+03
-3.914420403435502976e+03
-3.640450637215795268e+03
-4.070763352411616324e+03
-4.531400185302631144e+03
-4.440336909101376477e+03
-3.845574707951973778e+03
-9.291187216067899044e+02
