1.456600769971436603e+04
1.365169460322015584e+04
1.224787891919937647e+04
1.217485588627281868e+04
1.196287802508252571e+04
1.144807677255951239e+04
1.097168446987294556e+04
1.059405770168695017e+04
9.678380551951513553e+03
8.022719707363135058e+03
6.276304539957227462e+03
3.988360957982398759e+03
2.597992627376777364e+03
3.264260193015709319e+03
4.975185680040782245e+03
5.140912679752933400e+03
4.985580623175431356e+03
5.392275613537483878e+03
3.747220184646893358e+03
-1.240526374800832855e+03
-5.425875214446979953e+03
-4.783948200836303840e+03
-5.548335665618673147e+02
2.522502664893692327e+03
5.231118026182571157e+03
7.598018026335499599e+03
8.848076636385434540e+03
7.339242775608711781e+03
5.214364968090503680e+03
4.154290891558262956e+03
3.281035513877764060e+03
1.109529703435950296e+03
-2.210449411763783701e+03
-4.510058865228799732e+03
-5.402400453058052335e+03
-6.116651251578777192e+03
-5.106036699508894344e+03
-3.956743453871187739e+03
-5.115995623111783971e+03
-1.456031104270482956e+03
2.643965513226263283e+03
3.600651866432414408e+03
3.911711683133426504e+03
3.711918680209408649e+03
2.400034786934132626e+03
1.446180472333676335e+02
-2.828652433055694928e+03
-6.705995878848397297e+03
-8.098789625129085834e+03
-7.173401990656772796e+03
-6.428231636435660221e+03
-5.648627871117504583e+03
-4.200902501453170771e+03
-1.194443269848130285e+03
2.610368283131781936e+03
3.542170572108363558e+03
3.875460729374522089e+03
4.463762746832076118e+03
4.197767158020019451e+03
2.325046416048833180e+03
5.349781938571958335e+02
7.193195714562425565e+02
3.441976016621916187e+03
3.825444166123177183e+03
3.627520893312384942e+03
3.686264366362265264e+03
4.355402773242461080e+03
4.236374375750639956e+03
3.994539447663647479e+03
4.493465359991459991e+03
6.081858991673395394e+03
7.970068008902772817e+03
8.722388366553197557e+03
8.323453102346784362e+03
9.314780831698340990e+03
9.547020738593277201e+03
7.127643456513780620e+03
5.744584733532749851e+03
5.239779050266466584e+03
4.218296376784092899e+03
3.305247779558037564e+03
3.128005073394858300e+03
3.060324641272350618e+03
2.443723361019860477e+03
9.777463521280445775e+02
-1.403742353271255070e+03
-5.705085408783269258e+02
3.127065868252971086e+03
5.535614317916072650e+03
5.666532446733192046e+03
5.555659134169725803e+03
6.090115763180345311e+03
6.190558886283290121e+03
4.031952247503532817e+03
1.535655037844058143e+03
1.199685233575360371e+03
1.034613958682616385e+03
-1.095482930753315713e+02
-1.055711061010237245e+03
-1.853104757948902943e+03
-1.779037412072736515e+03
-2.463849572242351769e+03
-4.203730073659435220e+03
-5.981927691183513161e+03
-5.565738951125189487e+03
-3.827487854784652427e+03
-3.994314058515308716e+03
-3.655466932670176448e+03
-2.969181924299355614e+03
-1.564629557675739079e+03
-1.065003290030102562e+03
-2.280639118146128112e+03
-3.691723558900999251e+03
-4.542300126936477682e+03
-7.195434247547528685e+03
-9.376272093492587373e+03
-1.102906565559053524e+04
-1.205795216041214189e+04
-1.077395935121226466e+04
-9.998187796636297207e+03
-1.305463077403334682e+04
-1.674628968592751698e+04
-1.822415826393298630e+04
-2.087826860117964679e+04
-2.162656398283911039e+04
-1.882397135535997586e+04
-1.695473727326891822e+04
-1.453743954880185447e+04
-1.054111996772752900e+04
-9.091064312810740375e+03
-1.195227558230175237e+04
-1.392861713503358442e+04
-1.522995356620408711e+04
-1.615223705304650321e+04
-1.554430564064954342e+04
-1.516488741835367364e+04
-1.437885141489547095e+04
-1.411499549748496611e+04
-1.477627780331873873e+04
-1.514780245487069260e+04
-1.624154941253789002e+04
-1.726814776828378308e+04
-1.604019371858045452e+04
-1.191640073949767429e+04
-1.195062004703401908e+04
-1.395559496947861589e+04
-1.300622483074053162e+04
-5.278356942504676226e+03
2.839288386665423332e+03
4.552073215141687797e+03
2.085141341422449841e+03
4.832590021147804691e+03
4.892505935904147918e+03
4.052102724925041002e+03
1.980541483330601068e+03
2.170972197455022865e+02
3.032948718760025031e+02
1.640382200168520967e+03
3.917601018440246662e+03
7.234061845173260735e+03
1.113402781628076445e+04
1.259382304735780235e+04
1.495963839605726207e+04
1.472570436736556985e+04
1.266245548178515492e+04
1.210925610568227421e+04
1.490936039356581568e+04
1.536718117725382399e+04
1.263306610632159027e+04
9.815110362928571703e+03
8.414306104489005520e+03
7.612046070805486124e+03
8.067316311532581494e+03
9.419329898488125764e+03
1.153957672534728226e+04
1.165335471019444776e+04
1.019295196049149490e+04
1.125663325615198482e+04
1.140369109191036478e+04
1.082037530696786234e+04
1.072213803216451561e+04
1.072318936744589701e+04
1.069266383251937259e+04
1.046659127935983815e+04
9.510124554624109805e+03
8.170556563879575151e+03
8.704161291184009315e+03
9.200135060371640066e+03
7.656583686337186919e+03
6.573830214518533467e+03
5.934181924525081740e+03
7.337843321306340840e+03
8.714836894532145379e+03
7.995265755917600472e+03
6.479129753951013299e+03
5.877428548625078292e+03
5.157421052050212893e+03
4.717776444608040947e+03
4.039610038928855829e+03
3.202688463952490110e+03
2.819999606795256568e+03
2.737206931787817211e+03
2.833490482653302479e+03
2.948168894612464101e+03
3.311348059433610160e+03
3.131968462008778715e+03
2.457978227166351189e+03
1.444509022783685168e+03
7.697807956035508141e+02
7.609220131549415100e+02
1.088723265276282063e+03
1.637061183794339968e+03
3.646288463407117888e+03
5.277321966826193602e+03
4.913953233956050099e+03
4.342106079602520367e+03
3.747569995187592212e+03
3.135013114469166794e+03
2.835256344732663365e+03
3.018435552890928193e+03
3.320652855264582740e+03
3.556987882598380565e+03
3.955363067716097703e+03
3.106861736929284234e+03
1.764242101232842742e+03
1.030878861653969807e+03
-1.542480637081026451e+01
-7.068489935061674032e+02
-1.112375718326437209e+03
-1.147811889838407751e+03
-1.810371583292243031e+03
-2.185117697113799295e+03
-2.505054513942212907e+03
-2.555327587817685071e+03
-2.614934181416024330e+03
-1.908957293128813262e+03
-1.184486888841302289e+03
-1.292333356535743633e+03
-2.023761882090552490e+03
-2.428227877519979756e+03
-2.875203346324870381e+03
-4.258240346083744953e+03
-6.627265896433741545e+03
-9.214048295077538569e+03
-9.039760324971768569e+03
-7.946659730377399683e+03
-7.484161460275236095e+03
-7.552712520034599947e+03
-7.243685374318076356e+03
-6.957142771262586393e+03
-4.199323174186227334e+03
-4.253348979138854702e+03
-4.516128009726047821e+03
-5.269866930222084193e+03
-5.689076310545090564e+03
-5.124595618211971669e+03
-5.291430525415154079e+03
-6.031755642773190630e+03
-6.141625200682995455e+03
-6.074046148399350386e+03
-6.175178074528074831e+03
-7.273152954538066297e+03
-8.570045258716620083e+03
-8.448943368293812455e+03
-8.108972933314513284e+03
-8.457170740948407911e+03
-7.897575770081316477e+03
-6.699256592619601179e+03
-5.851218352766325552e+03
-5.496612996984962592e+03
-7.093727448802275831e+03
-8.321677650023681053e+03
-9.090400140153864413e+03
-9.919942748184803349e+03
-9.007396694935740015e+03
-7.557625724666461792e+03
-5.158338236410532772e+03
-4.203556091505178301e+03
-5.035658366747443324e+03
-5.555009788837774977e+03
-5.390601300191740847e+03
-4.613464818805107825e+03
-4.391669583257469640e+03
-4.404186709134800367e+03
-4.595798824408391738e+03
-5.200364549083846214e+03
-5.109849564155245389e+03
-4.722198769236597400e+03
-4.403234530012586220e+03
-4.398725937389852334e+03
-3.756636597804909798e+03
-2.695957313640998564e+03
-2.418569971925156096e+03
-2.035515398353989667e+03
-1.520706446319735051e+03
-9.207841942917059441e+02
9.249278655436431791e+02
1.499441916123117380e+03
1.084180716383211120e+03
1.493283085241209847e+03
2.548915062286306238e+03
2.227278756849847468e+03
1.492604548770046677e+03
1.239143315587728466e+03
5.761693548259714817e+02
7.398110626101961316e+02
7.970478244721433612e+02
7.150287155520777560e+02
1.074957150833944297e+03
1.091000650461028954e+03
1.013160291797467835e+03
1.286454855174842805e+03
1.639255627210907051e+03
1.742843444760630973e+03
2.312475163483685265e+03
2.685369655592982326e+03
1.358870220983290267e+02
-7.146795034817931764e+02
1.370928536208276228e+03
4.218625194623216998e+02
1.789530528716579511e+03
-3.307748792782323335e+02
1.115215247759635758e+03
3.397741581692945601e+03
3.379159005578241249e+03
3.320766277895221265e+03
6.954801949778493508e+03
8.685421673133379954e+03
7.282900918224413545e+03
6.894649485599316904e+03
6.318111698409014025e+03
7.770633042272892453e+03
9.398549705704399457e+03
6.708239298941084598e+03
6.072986923214898525e+03
8.105123954176666302e+03
7.520035912805859880e+03
5.374080905489049655e+03
5.025482010313707178e+03
4.869483133145467036e+03
4.304460020249693116e+03
7.170799980321759904e+03
6.467862107903561082e+03
6.406664387772500049e+03
6.420222694628591853e+03
4.324877431352053463e+03
6.276012169336502666e+03
3.383915524872794776e+03
3.370719537625582689e+03
3.318656467007954689e+03
-1.239903458806404160e+03
-8.863814565949799373e+01
2.186566618670807202e+03
-8.680972543268960635e+02
-6.323289003638743679e+02
-1.509647044726023353e+02
-3.138233480675223177e+02
-1.408856400802074404e+03
-2.309897625074575444e+03
-2.613707895450481828e+03
-2.945093226971233435e+03
-3.545099300355222113e+03
-3.492700850477258882e+03
-3.354672116614671268e+03
-3.664964691258082439e+03
-3.844551707642388465e+03
-3.732479550168278365e+03
-3.894628683672448460e+03
-4.443727013083165730e+03
-3.833763005156375584e+03
-2.588857972069059997e+03
-1.635755507729773171e+03
-1.634359182752454899e+03
-1.380635326964885280e+03
-1.111621522626085607e+03
-2.229408143865711281e+03
-2.907916711859049428e+03
-3.510928206191880236e+03
-3.925388463079335907e+03
-4.404439605419976942e+03
-4.049164204988653182e+03
-5.301804630714670566e+03
-5.760705344668112957e+03
-1.572860907988124609e+03
6.827183784987371382e+02
3.604394195453283487e+02
-6.488403220574358556e+02
-1.757528228263516894e+03
-2.616749262826647737e+03
-3.897800448139676064e+03
-4.394841743441965264e+03
-3.409198362877084492e+03
-2.729171089150125681e+03
-1.056912445163833809e+03
5.724732689534597512e+02
3.369199528578371314e+02
-1.675802877194355688e+03
-3.162847281404258410e+03
-3.020454492952778310e+03
-2.766876060773284735e+03
-3.031968154573125503e+03
-1.618691791405258755e+03
-2.459160661229478819e+02
1.279266678167367246e+02
4.980779251490563979e+02
3.334230950123392176e+03
6.038209743401002015e+03
7.610975263195955449e+03
7.250972226761965430e+03
6.781247960675285867e+03
4.863605624414504746e+03
3.226846102858820359e+03
3.894795822914399650e+03
5.580046781485726569e+03
8.233190015546440918e+03
8.824819412581691722e+03
8.529602971367232385e+03
8.443222406926417534e+03
7.545550188882428301e+03
6.042270605257819625e+03
5.761260618486381645e+03
6.085430625657972996e+03
5.162432623214310297e+03
5.093769274789880001e+03
5.908348866901040310e+03
6.073228904254874578e+03
6.834292933948880091e+03
9.410297760522258613e+03
8.038080913967532069e+03
5.826291935240157727e+03
4.840487981217729612e+03
3.942279418477249692e+03
3.778602161196121870e+03
3.126394074559950695e+03
2.446215459867768914e+03
3.425922712810339362e+03
7.293362885243531309e+03
1.016630125842297093e+04
9.806550184498950330e+03
7.162912419267887344e+03
3.950251846241966177e+03
1.556446508385147808e+03
3.693703536546547070e+02
-3.173193318292790650e+02
-2.017948446372851095e+03
-3.843312309330071002e+03
-4.554434570334976343e+03
-3.417498431679710848e+03
-2.122870298527640443e+03
-2.319837229535961797e+03
-4.031391242601947397e+03
-5.619608085252864839e+03
-6.903639325393386571e+03
-6.836592981302351291e+03
-4.633629256264183823e+03
-1.520814276496073944e+03
-1.819192270650019964e+03
-3.652833828738475404e+03
-4.357811409102438120e+03
-5.089164596402629286e+03
-6.008952167344706140e+03
-5.870406342168617812e+03
-6.603563972582483984e+03
-7.078300529262810414e+03
-5.105600346038185307e+03
-1.702534361132630011e+03
-4.031765421856173361e+02
-1.159531003140039275e+03
1.101288230508090919e+03
2.605170059331712309e+03
1.754086181231095679e+03
8.711534866779458071e+02
4.963435155639872960e+02
-2.136690355636714500e+01
-7.848863036815976102e+02
-1.827093477761502527e+03
-2.753925078252968888e+03
-3.202343489443568615e+03
-3.962355610658181831e+03
-4.274926231462458418e+03
-4.571937541988530938e+03
-5.524278572347969202e+03
-4.873926116570406521e+03
-4.596844654008045836e+03
-4.575948496270459145e+03
-4.516120983452509790e+03
-5.316160684967308043e+03
-6.149953635079275955e+03
-6.801453897411056460e+03
-8.067570566798262917e+03
-1.001239706846615445e+04
-1.281891446121524496e+04
-1.307400749558883945e+04
-1.003853649780095475e+04
-8.465361190969066229e+03
-6.180300875015259408e+03
-4.369234499405170936e+03
-2.737999582790359909e+03
-1.465345102378998945e+03
-1.373112092670104403e+03
-2.049185900615311311e+03
-2.111633858816602697e+03
-1.900360295610514186e+03
-2.235986260278750706e+03
-1.930336711920876496e+03
-4.173074700834421833e+02
9.641791160270502132e+02
9.601128924004638066e+02
5.268796291987089262e+02
-2.436481462599201677e+02
-1.651398614753731636e+03
-2.394252361777295391e+03
-2.942197029923438549e+03
-3.502070848655867849e+03
-4.101698711768129215e+03
-4.113024776058969110e+03
-3.447892000200602524e+03
-3.063136678833237511e+03
-2.512590107415786406e+03
-1.664096545664890527e+03
-9.556302736570256684e+02
1.685969987420278571e+01
8.064852008559163323e+02
1.474232152966003696e+03
2.240219881347245973e+03
2.603509900445896619e+03
2.146190712574901227e+03
2.357602665577355765e+03
2.931732173273784611e+03
3.355614818862608445e+03
3.895359423215044899e+03
4.617917165416706666e+03
5.486256351760961479e+03
6.223315793878338809e+03
6.918255888688227969e+03
7.516339989063175381e+03
8.301616763710604573e+03
9.258094922546681119e+03
9.673716346622004494e+03
9.587524745228773099e+03
9.027563020750711075e+03
8.562861056708508841e+03
8.532494968334072837e+03
8.444496675676815357e+03
8.104903672591850409e+03
7.922709364257368179e+03
7.446912357817642260e+03
6.898596857889661806e+03
6.583612732636395776e+03
6.174955167551649538e+03
5.872662113287205102e+03
6.464736299793702528e+03
6.595117033764928237e+03
6.717677553814709427e+03
8.235470070202572970e+03
9.553543763223133283e+03
1.089180093871709505e+04
1.175521764163939770e+04
1.221096667884922499e+04
1.236405379109253408e+04
1.193246380118393972e+04
1.265013366476769988e+04
1.311984004620462292e+04
1.313457081060267956e+04
1.349032281572705870e+04
1.450405254111051727e+04
1.518273484031403859e+04
1.506617652848970829e+04
1.448031162053747903e+04
1.393912831518439998e+04
1.394852947034335011e+04
1.266536710251375189e+04
1.047147696459923463e+04
7.745423223562438579e+03
6.236245814281343883e+03
5.995352096649023224e+03
5.553698687388003236e+03
4.662237564446048964e+03
3.703068770672638948e+03
2.730177553285209797e+03
1.749043066755555856e+03
5.177445246685957727e+02
-8.747542119413752744e+02
-3.060632666467006402e+03
-5.246000178405242877e+03
-7.260641498623440384e+03
-8.933088195272102894e+03
-8.667106223565937398e+03
-8.388141353399729269e+03
-1.016515416420512338e+04
-1.196897085041733590e+04
-1.298971692021587478e+04
-1.371170486368963793e+04
-1.375290043876339587e+04
-1.400796015825752693e+04
-1.478042299435581117e+04
-1.505121156191567570e+04
-1.499540130725787822e+04
-1.520329475613961404e+04
-1.562069129883316782e+04
-1.575788399629864398e+04
-1.521590260282158306e+04
-1.476645231163395874e+04
-1.380014176441045129e+04
-1.330157529640652501e+04
-1.304710902817026545e+04
-1.348149065163773048e+04
-1.359644204911456472e+04
-1.309942586412760284e+04
-1.247294056779054699e+04
-1.138966526382789016e+04
-1.037656597755959046e+04
-9.061814438825165780e+03
-8.198485645580152777e+03
-7.907571381514985660e+03
-7.766084970635227364e+03
-7.340126653518762396e+03
-7.047740538580913380e+03
-6.212922019783732139e+03
-5.375787993974223355e+03
-4.458324330693891170e+03
-3.665453673851841359e+03
-3.393329247065362779e+03
-3.108025894508466990e+03
-1.736504172240342541e+03
-1.191701607136508301e+03
-2.612668876764547804e+03
-3.768605687495998609e+03
-4.377660723141816561e+03
-4.828734835688397652e+03
-5.688829094400099166e+03
-5.323932429959492765e+03
-3.691951609972549250e+03
-2.661903682980737813e+03
-1.682779931257512317e+03
2.443791249085384720e+01
-1.324504100485818547e+01
-8.728082348385709111e+02
-1.452104784519748591e+03
-1.131150186502237148e+03
1.901675088568637420e+03
1.474471623429231613e+03
-1.591545972739096442e+03
-1.822747402943494137e+02
2.044338649451454557e+03
2.938298337368611101e+03
4.085744061757673535e+03
4.863652691731705090e+03
3.807968922125289282e+03
3.416778225198476321e+03
3.616999186487659244e+03
4.573611333542101420e+03
5.494790337771087252e+03
6.408834834340901580e+03
6.908835307181837379e+03
9.691680987183210163e+03
8.101487508410011287e+03
5.797308420479954293e+03
5.566048126606661754e+03
5.592796867362289049e+03
7.067722072051395116e+03
1.087582015297631915e+04
1.093695909506504358e+04
9.123255266399144602e+03
8.234740602448873688e+03
8.785728164497877515e+03
9.143363392517656393e+03
8.549756988101671595e+03
8.766931433222294800e+03
8.708760325145609386e+03
8.078284803936791832e+03
6.717454482879770694e+03
5.899481046466064981e+03
5.686540641545737344e+03
5.291691395136738720e+03
5.469164287063142183e+03
4.927144666239669277e+03
4.138668996128137223e+03
2.987775299559883479e+03
1.989609492316410297e+03
7.451295766029834340e+02
-4.715845048584702681e+02
-1.168359188285079654e+03
-1.148188344209281695e+03
3.467714973445114879e+02
2.000914712652230264e+03
2.372457396441734545e+03
1.910416899585839246e+03
1.732803541586661140e+03
1.850654757169380218e+03
1.575107877902828704e+03
1.389468079100244267e+03
1.079640166275692081e+03
6.934461388789163721e+02
4.799688973931797591e+02
1.365029809381494204e+02
2.313798204420221793e+02
2.777693668114945353e+02
3.608074784841136307e+02
3.554195421889915707e+01
-2.585015113855313757e+03
-3.060716633249268398e+03
-1.561450873700146758e+03
1.998483303119469667e+02
1.739159041226529553e+03
1.998081057869424967e+03
2.152906779303638814e+03
1.898998021577841428e+03
1.891385212907993719e+03
1.691005746018109448e+03
8.547699981158478977e+02
-1.084445395943980657e+02
-9.817622989520258443e+02
-1.475710489842945435e+03
-1.663997322921232580e+03
-1.132016112541487246e+03
-1.958484361105024618e+02
-1.093463278372323430e+03
-2.551901493851374653e+03
-2.560021186641654367e+03
-2.332785729706507936e+03
-2.390388907207040120e+03
-2.426967417993972049e+03
-1.722384880242233066e+03
-1.823531853143956823e+03
-1.348691050368634251e+03
-9.557622733801056256e+02
-8.444937295455603135e+02
-1.625891770696546018e+03
-3.408880053464592038e+03
-4.898539728088484480e+03
-5.232997340527175766e+03
-4.687156601625252733e+03
-3.783080430338192855e+03
-3.354800964558635314e+03
-2.724305082439037051e+03
-2.470658928171756543e+03
-2.275828234043938664e+03
-2.231746006462173227e+03
-3.284505771045296569e+03
-4.317052892193149091e+03
-4.914402830263321448e+03
-3.553628448820398262e+03
-2.172675006925343951e+03
-8.135402377691904121e+02
9.268129964905114093e+02
6.893793636080230272e+02
-7.967446275564456073e+02
-1.535453372566064218e+03
-1.735992407405615268e+03
-2.381719707453504270e+03
-3.034623884274888496e+03
-3.567785713929022222e+03
-3.746254451104868167e+03
-3.353998773094246189e+03
-3.946061761978673530e+03
-5.787414327198121100e+03
-8.152033603232742280e+03
-1.037895933461968343e+04
-1.000323443183514610e+04
-9.328840264058566390e+03
-8.291830375059947983e+03
-7.579340855725642541e+03
-5.342459804850498585e+03
-1.383079075958296698e+03
-2.170966462257157161e+02
-1.536086782663921042e+02
1.203744708282300024e+02
4.581671632171603648e+01
-1.963104764191711240e+02
-4.610989920536684963e+02
-1.106500931300021421e+03
-1.128526496466028902e+03
-6.121997064028555542e+02
-4.195454146586612296e+02
-6.467387509561345382e+01
6.672687699628702376e+02
1.173374587961978477e+03
1.207549029266345315e+03
6.707704594096675237e+02
1.325096497752093228e+03
1.616389344993955319e+03
1.578603609477216651e+03
2.836890945370550980e+03
3.037221425523141534e+03
2.876473378911246982e+03
2.847610906736275410e+03
3.043620268431559907e+03
2.792456558654239416e+03
2.260130448863332276e+03
1.843663536552902997e+03
2.262097872445763187e+03
2.845297057370896255e+03
3.696158624437085564e+03
4.083689679529775731e+03
4.094870998133925241e+03
3.908705069580313193e+03
3.329229629878355354e+03
2.618506354078858294e+03
2.459506775716189622e+03
2.854211248665212679e+03
2.990627851817539067e+03
2.583803895382542123e+03
3.941732520897861832e+03
4.099310325813479722e+03
3.457500593801766172e+03
3.379273721084850422e+03
3.634582561305734998e+03
3.418344403136919027e+03
3.197567933347478629e+03
2.761260279376746439e+03
2.024258107267418154e+03
8.325973311736923961e+02
2.022589194460209967e+02
8.201758759511167227e+02
1.486403536524219362e+03
3.009950934762545330e+03
3.991788302803543957e+03
3.438799908849249277e+03
3.094028312650085809e+03
3.122495561643913334e+03
3.801101880502715176e+03
4.756702227876387042e+03
3.851214104396648963e+03
2.990694111212795178e+03
2.775208281946604075e+03
1.762673293362511231e+03
-1.610105953564060428e+02
-4.224517087297681428e+03
-3.890788326529647748e+03
-4.018836149790590184e+02
1.709353912718382773e+01
-2.300993567331497616e+03
-2.187167803246567019e+03
-3.556417267670116871e+03
-3.926906134700044504e+02
-1.263006072268460912e+03
-2.340444694267882824e+03
-3.143999959650659093e+03
-8.505979516228255761e+02
3.507936459942906708e+02
2.763163829215711758e+03
1.665500004642582610e+02
1.121931708432450932e+03
-5.249917488210998044e+02
-1.921610592375494377e+02
-1.104438329972688280e+03
-1.072080443805798950e+03
-1.154128011420764096e+03
-2.346698298998686823e+03
1.681171878859204867e+02
-1.639603474333660643e+03
-1.509911109836922378e+03
-1.857002363244202570e+03
-1.322089047615417257e+03
-2.942119548417791748e+02
-1.547271953545392762e+03
-2.443292465928339880e+03
-9.124449246672758136e+02
-2.225838036237427787e+03
-2.764672723714392305e+03
-4.855984940242246921e+03
-2.915819166740970104e+03
-1.184216370667210185e+03
1.263695241737101014e+03
-1.472047100689275112e+02
-2.576935694395221617e+03
-9.986929785816214462e+02
-2.345697014547913000e+02
-2.167067216256723157e+02
-5.452074409048876760e+02
-4.911341520480758049e+02
-6.725034258870109625e+02
-9.994038205046664416e+02
-1.155930800545514330e+03
-1.810182747517601456e+03
-1.757228863913061559e+03
-5.561844571536807962e+02
-6.900995747990924656e+02
-1.195952329170409030e+03
-1.189782564894253483e+03
-4.477279390183191481e+02
1.441193552485878172e+03
2.250108701869336073e+03
1.340062153715883369e+03
8.510148955717611443e+02
6.528106220116898157e+02
7.304586701062593193e+02
5.128716457266702946e+02
1.929064153881211610e+02
-2.634516775664773149e+02
-6.312352057377883057e+02
-1.397695085546193241e+03
-1.349665437652807668e+03
-1.343886684168765441e+03
-1.193452941525734559e+03
-1.039283880588685406e+03
-9.878802967170925058e+02
-8.726393780463520216e+02
-6.906344459894993406e+02
-6.350920949113417464e+02
-1.082004390582417727e+03
-1.009000898212117136e+03
-1.258404093888004581e+03
-1.291035092405976002e+03
-8.788648002589344514e+02
-8.020914158460881254e+02
-1.356446129982966340e+03
-2.269273699891974047e+03
-2.319319668846954755e+03
-1.885608108864311362e+03
-2.220856819417447696e+03
-1.717532879596764587e+03
-1.854156426584677547e+03
-2.356378025756052466e+03
-2.351224891633817151e+03
-1.837807011686928035e+03
-2.227151435583807597e+03
-2.507394527116667632e+03
-1.644170679757223752e+03
-1.922172147124861795e+03
-9.434354857297570334e+02
9.699626612695109316e+02
1.811106352623223529e+03
1.766242615498049645e+03
1.082378596652650231e+03
1.051576194416504677e+03
7.359597580832218000e+02
2.456392182540874671e+02
-1.133223427412490025e+02
-8.998252764398387171e+02
-9.566642555626215199e+02
-7.127154657481156619e+02
-7.088720605733340108e+01
6.899123734510369559e+02
9.808720243272363177e+02
2.461517920376226982e+02
2.809188496873946974e+02
9.782755837301814381e+02
1.495275960357830172e+03
1.141966393122819454e+03
8.463455024537000781e+02
8.525441775268332094e+02
7.747562925972714538e+02
-6.058356379703017183e+02
-2.401049306855185478e+03
-4.622800014915851534e+03
-4.451060033564401238e+03
-4.874786658996518781e+03
-5.184860300148968236e+03
-5.672167657777637032e+03
-6.479620167559641231e+03
-6.885078314719539776e+03
-7.576461453245005941e+03
-7.459669597725156564e+03
-6.787647990212766672e+03
-6.427229383248216436e+03
-6.252048516972798097e+03
-5.944141411628658716e+03
-4.508583101960498425e+03
-1.558325248240464362e+03
-3.838227126335177672e+03
-4.765108342538020224e+03
-3.352881861021746317e+03
-2.069517404863280717e+03
-2.002019087962883759e+03
-2.416289910575635076e+03
-2.479222738732779817e+03
-3.044700424395737627e+03
-7.606626543160072060e+02
4.018928507894387167e+03
4.984069768144546288e+03
4.480805037857729985e+03
3.546138925809708780e+03
2.583219362256374097e+03
2.122138645253867253e+03
1.995825019377102990e+03
1.856344031853782553e+03
1.978812516550092369e+03
2.321225631824388529e+03
1.990462320784238727e+03
9.845802140203087447e+02
7.746067206790161208e+02
1.547570487930582431e+03
2.123432534243320788e+03
4.401206342697850232e+03
5.913930086004977056e+03
5.615597803080448102e+03
6.168143824607916940e+03
5.931405482414894323e+03
5.656316681497296486e+03
5.138831681447520168e+03
4.044817047850257040e+03
3.273184491985809018e+03
2.550826597106163717e+03
2.276616053078879759e+03
2.705750470191033855e+03
3.068260771320811273e+03
2.816002564366657225e+03
2.504738839408238164e+03
2.170308087113511192e+03
2.611513969487340546e+03
2.471173806803329171e+03
2.833337729147544906e+03
3.571026837847924071e+03
3.819089379426039159e+03
3.516388911458036091e+03
2.757935929437146569e+03
2.414697627075595847e+03
1.733310438423042569e+03
2.028392208065284649e+03
2.196759380891164255e+03
2.081383693575472535e+03
1.680565394622846497e+03
1.550239895868235408e+03
1.469196365169736737e+03
1.375128311788014571e+03
1.577852505446010809e+03
1.875159377640588900e+03
1.616972089012759170e+03
1.852905262337886825e+03
3.466696621216882704e+03
3.940286876287225823e+03
3.711326439283671334e+03
3.694522333191021971e+03
3.658649498742906417e+03
2.447527920248131068e+03
1.727981979920311005e+03
1.590836072315434649e+03
2.298915769953603558e+03
3.052068267556331648e+03
3.092057534638955076e+03
1.882628864259493866e+03
2.075639530277210270e+03
1.804820818492697072e+03
1.493007044448310808e+03
2.314211362562415161e+03
1.960117041385315588e+03
8.055282855362045211e+02
8.453201320014709381e+02
1.442228741805313120e+03
1.209127283582566861e+03
5.969938872791925633e+02
1.087933852135999047e+02
-5.686800662575038814e+02
-6.748062546626323410e+02
-1.998445457211607277e+02
1.410078574830755997e+03
1.774698944785437561e+03
1.355875758090602403e+03
1.566436966815700544e+03
1.324091659946748450e+03
6.936472203522004065e+02
-4.008828801104646544e+01
4.577296036132459278e+01
3.431703270892676301e+02
5.449177912779003918e+02
7.698832778973322775e+02
2.075040217920638497e+03
3.464242771202854328e+03
3.751194354026518795e+03
3.980810686302732393e+03
3.897992775975490986e+03
3.390443791028360465e+03
2.869100663712742971e+03
2.190008042903067235e+03
1.737176796512807414e+03
8.846071148399796584e+02
8.032507737494267985e+02
1.139117954154394511e+03
6.711101287733011986e+02
9.130400700735071950e+02
1.417960347925772339e+03
1.245813896591998400e+03
1.014639924332120017e+03
1.589580569475399670e+03
2.581597383617051491e+03
3.232737060341843517e+03
3.302036086445958972e+03
2.451588591287991676e+03
1.764649733152877161e+03
1.624258720335524458e+03
5.274750190076675835e+02
-1.375573938884758945e+03
-2.436130933048474674e+02
1.007701211903201056e+03
9.381665503264451900e+02
6.496410955157340368e+02
5.141623651655832106e+01
-7.751120023767290377e+02
-1.753901629731982894e+03
-1.965601171216990451e+03
-2.133330567953475111e+03
-3.145606284363334908e+03
-4.259232334016624009e+03
-4.444004253152258570e+03
-4.877866334737451325e+03
-5.450499213962625618e+03
-5.229730448233125571e+03
-4.515894318511011988e+03
-5.090974841063963140e+03
-3.913421185794385110e+03
-1.953022938731677414e+03
-2.761350785982081106e+03
-2.900141788270670077e+03
-3.673072768769010054e+03
-4.287734212891061361e+03
-3.131044553741032360e+03
-2.012284775076582946e+03
-1.909167466388605362e+03
-3.420301343205032026e+03
-5.176422222006697666e+03
-5.192121580581997478e+03
-4.170819851667284638e+03
-3.373117384822529402e+03
-2.732756119439812210e+03
-2.897072288416920401e+03
-2.802738272541800598e+03
-2.355178739182882964e+03
-2.054237579642074252e+03
-2.135535459543581510e+03
-2.128710250685443953e+03
-9.659812061032185966e+02
-4.457913798714033078e+02
1.830100358367645583e+02
6.889343924373317805e+02
6.735063466947078723e+02
2.631966930787962156e+02
3.644331179964031548e+02
5.607172750174322573e+02
2.915698403867543789e+02
1.804594809851565742e+02
1.319065195674708946e+02
-4.556584058811130831e+02
-1.066853182552749786e+03
-1.242053642837915049e+03
-1.265797379603717218e+03
-1.178742634696691084e+03
-1.385552106249723465e+03
-1.611856651197110295e+03
-8.011748150324722246e+02
5.460434054934609094e+02
4.862338195833631289e+02
3.168345411014962565e+02
5.382129794801008984e+02
8.248049167155371606e+02
9.930046310451571117e+02
1.221229217835912550e+03
-7.670439054651495780e+02
-2.548474239387493071e+03
-2.061815603712019310e+03
-2.715825607211922488e+03
-1.424837928341958559e+03
-3.623631973227790695e+03
-1.319983247155771551e+03
-3.188574444251220484e+03
-4.339058675301540461e+03
-4.552104532902811115e+03
-7.893800049588793399e+02
-4.866451949666973178e+02
1.946381109506608027e+03
2.873890602688812123e+03
1.127007595320853852e+03
2.864951949960449383e+03
4.009652626807060187e+02
4.632787996272122086e+02
-3.440729344146564586e+02
1.661019483418863729e+03
-4.281569922575492910e+02
-1.887566351048286151e+03
-1.067040882175502929e+03
5.386056737527910627e+02
1.744027836580952169e+02
5.434897668106361124e+01
1.705668623493749578e+02
7.480016498897174415e+02
2.330438850824694327e+03
3.184931991034368366e+03
3.423288511207896590e+03
3.510346447280602661e+03
4.732038122544193357e+03
5.864344296230005057e+03
6.497238790735106704e+03
6.907553324303774389e+03
6.411239456686947960e+03
5.454188705720498547e+03
4.658254986321506294e+03
4.770308348539921099e+03
5.769086553926031229e+03
5.924406208913231239e+03
5.367059751592738394e+03
5.077847987758043018e+03
5.268660706009846763e+03
5.717322826317617910e+03
5.829555171283745949e+03
5.439971199516066008e+03
4.698211816416253896e+03
3.987937253552762741e+03
3.996749238828254875e+03
4.034266958986524060e+03
