-4.586723604403797339e+00
7.182002969871185769e+02
1.169004003753360166e+03
1.608802213501268852e+03
2.276558299940038069e+03
2.254366288124956554e+03
1.957164459267263737e+03
1.812998816863904494e+03
1.190908113362629138e+03
4.389114845266857969e+02
-8.599532233299831319e+01
-7.548608516574565783e+02
-1.236693739118995609e+03
-1.237509167124746000e+03
-1.640323886842062620e+03
-2.320105132260339815e+03
-2.470988102818583229e+03
-2.308051372587578953e+03
-1.650247076404472864e+03
-1.125569354186743794e+03
-7.559626940577272762e+02
-1.204019351411923111e+02
3.891173521724865054e+02
1.605671213037462167e+03
1.878246819675259076e+03
2.451886193915225704e+03
3.022633591298212650e+03
2.541477139847929720e+03
1.797384747831762297e+03
6.803145758982360576e+02
-2.087834013084562912e+02
-9.829218469461180803e+02
-2.058144512578637205e+03
-2.493469703625981310e+03
-3.484612192510995555e+03
-4.003800865667554262e+03
-3.917070814261493979e+03
-3.439130200398951729e+03
-2.210118524371370313e+03
-1.296929743946084045e+03
-7.834623152152572629e+02
3.560825646966893601e+02
1.693460871592160629e+03
2.386068694694758506e+03
2.060639479515637504e+03
1.930363263636987767e+03
1.900242276156991466e+03
2.032119727390497019e+03
8.381311947349905722e+02
-6.026880237031781462e+02
-1.281619382215527139e+03
-1.173651707519525871e+03
-1.068020196970401457e+03
-1.360770246809800597e+02
8.596159942629516308e+02
4.352877110156657636e+02
1.240000133510320666e+02
2.715313975805792097e+02
3.609676749664848217e+02
1.921910178275514625e+02
2.452227163019436773e+02
1.093995637845268220e+03
1.326689032415169549e+03
1.308403934206226040e+03
1.883902431073328898e+03
2.904404008384113240e+03
3.407480422593838284e+03
3.128274823003549500e+03
2.761983684038061256e+03
2.342713279089969546e+03
5.822813571933712637e+02
-1.130757672448067297e+03
-1.483975388454512540e+03
-1.545413603803682236e+03
-2.491267498063386938e+03
-2.781817028013349045e+03
-2.052893276797939961e+03
-1.374461697465054840e+03
-6.613067781722896825e+02
-4.975188863920878362e+02
-3.180681940042849760e+02
2.410605766683186744e+02
8.458572803375994908e+02
1.985279588128406886e+03
2.650417882203818863e+03
2.570270843281858106e+03
2.294826362359143786e+03
2.124093119542828390e+03
2.097120248892368636e+03
1.441967461949964900e+03
2.184858071897671152e+02
-3.364302752042408429e+02
-8.947505016836762479e+02
-1.331400502724787657e+03
-1.472371747088090387e+03
-1.675740871894089878e+03
-2.459527623540081549e+03
-4.972566271300027438e+03
-2.884801473233187153e+03
-4.359524697321072381e+03
-3.243636944286201015e+03
-1.654031647635039917e+03
-8.117014002095153273e+02
1.894416539646731962e+03
7.334657161761954569e+01
1.660066089416846580e+03
2.476606284706049337e+03
1.470224413497799674e+02
4.803079297449346541e+02
-3.495353617476260979e+02
-1.452509568827811790e+03
7.553615117529213876e+02
-1.319537514550383150e+02
-1.607456385859155944e+03
-2.165132795534453635e+03
-2.272982664315673901e+03
-3.047065992124752938e+03
-3.252363497399485823e+03
-3.635814241194474562e+03
-3.745376069925252978e+03
-1.834053576873689508e+03
2.221955387378522460e+02
2.074371870773113642e+03
8.395179026732351986e+02
2.577694265128111965e+03
4.233920078473029207e+03
3.165229645464798068e+03
2.362683176647420169e+03
2.343198659510691414e+03
2.301768731453348209e+03
2.178451742274389744e+03
1.417184910252799909e+03
3.709917548163804781e+02
-8.371396470912297900e+02
-1.246220737848660065e+03
-1.347265103914387737e+03
-9.082782461487663568e+02
-1.824296464741939417e+03
-2.491334811146084121e+03
-1.721332462631337648e+03
-9.782581323759844736e+02
-1.871089598318611422e+02
3.811824094898969406e+02
6.216127190868552361e+02
9.552811197010101978e+02
1.835224578104547163e+03
2.665449321359668829e+03
2.895962277638510386e+03
2.180703234769452592e+03
1.954604661947804516e+03
1.633658036248988310e+03
3.589939479169023571e+02
-9.601797560973067220e+02
-1.414861242847154699e+03
-1.138967514783728802e+03
-1.142452207718396267e+03
-1.402513901680506933e+03
-1.456120346460465043e+03
-6.732815064467821458e+02
2.919624636204905528e+02
1.436248555365031336e+02
2.939487621611841632e+02
7.506285773597528532e+02
1.000793930864176900e+03
1.690746116511941409e+03
2.141148113380380437e+03
2.093975440255500416e+03
2.546432115740172321e+03
2.018341536694053957e+03
1.552653233241119096e+03
1.259645064891398988e+03
2.011371537778164509e+02
-5.061801660854895886e+02
-1.269026679587767831e+03
-1.562593290249205666e+03
-1.521011006330198370e+03
-1.217337299903103712e+03
-1.165604519586725701e+03
-1.456808555396289421e+03
-1.596917669888230876e+03
-1.242942669969040708e+03
-1.058851802569933852e+03
-7.064636103756153318e+01
8.216957733988895143e+02
1.601244310367063463e+03
1.906015417861560309e+03
2.612956243809397620e+03
2.850062795382874810e+03
2.402372136091676111e+03
1.408835198639103510e+03
4.614240444546423987e+02
-8.888623593879469809e+01
-2.870908553674212840e+02
-8.832316863494622794e+02
-1.840387325804411375e+03
-2.795579631057305050e+03
-2.426768023316857580e+03
-1.140987657142904709e+03
-5.832576124787863137e+02
-2.085921074485423787e+02
6.579953828648920080e+02
1.268509837632243034e+03
1.712992666844202404e+03
2.184512492803756231e+03
2.034060144080240889e+03
1.833633019345763842e+03
2.347277461554439469e+03
2.998007245557807892e+03
3.066767599122366391e+03
2.090570782068285553e+03
1.349411857695553408e+03
6.552050272813916081e+02
5.903515912959510281e+00
-6.064909583839314564e+02
-9.950209857562238085e+02
-1.512735966484800201e+03
-3.514681672880522001e+03
-5.608923713370164478e+03
-7.929409057686621964e+03
-7.943918766718711595e+03
-7.131595806459895357e+03
-6.570496583207420372e+03
-6.178604972080996959e+03
-3.759809575311950994e+03
1.373862695081794300e+03
2.957448808999050016e+03
3.891065417738883752e+03
3.442811387378630116e+03
1.969391544166871427e+03
1.293758301094272156e+03
1.538898557674898257e+03
1.143792786281909002e+03
3.784651029867799821e+02
-2.980956662976848293e+02
-8.939670807051170414e+02
-1.637197452305977777e+03
-1.944754944312176804e+03
-2.340583440679373325e+03
-2.230675895591250537e+03
-1.018075619403362339e+03
-7.368437408968554791e+02
4.210655361090694555e+02
1.998668597534209994e+03
2.386018262601354763e+03
2.524171258269788723e+03
1.800137546421467050e+03
1.314925488918041310e+03
1.695484609588637113e+03
3.016856749038674025e+03
3.362046808608196898e+03
2.627059828439888861e+03
1.507843800346458693e+03
6.203905620953041762e+02
2.686659723519628074e+02
-5.534202946538805890e+01
-4.046944270746770371e+02
-3.623718421711247402e+02
-3.603315599604512158e+02
-4.196219528591423682e+02
-6.382179040630072677e+02
-2.780808099787507217e+02
4.827780618002490769e+02
1.020406287570489326e+03
1.513844005454579928e+03
1.900103135371633016e+03
2.247244797918165204e+03
2.607289314915567502e+03
2.406298161103004077e+03
2.128271087489660204e+03
1.467144742670980122e+03
7.808726334564305489e+02
5.515061400683816828e+02
2.670686163644413682e+02
-2.484884440303612791e+02
-7.241698829327424392e+02
-1.296012732534228689e+03
-1.312992976977563558e+03
-1.274132505453038220e+03
-1.301419228378174012e+03
-6.787954050199011817e+02
-3.803207563895131784e+02
-1.318753525425230180e+02
5.904890296985440727e+02
1.260770633655364009e+03
1.923132547897622999e+03
2.364587063267789745e+03
2.280194491745783580e+03
2.093003777027258820e+03
1.061962598528250965e+03
-1.713823693724158602e+03
-1.533178924139357377e+03
-1.491204145850953637e+03
-2.008034939989010809e+03
-1.665759039820384032e+03
-5.109407706836199395e+03
-4.500049134501019580e+03
-2.022617883018774819e+03
-1.500067324773853443e+03
-3.593419677508712084e+03
-9.667126493837906764e+02
-2.397871527296852946e+03
-2.132775705690929954e+03
-8.894145945367611148e+02
-1.658784697944551681e+03
-2.698971316543342027e+02
1.711398389135561729e+03
6.771537983837467891e+02
1.967334118003245294e+03
-8.681296498584799792e+02
4.026941183696307576e+02
-2.843267947845889921e+03
-2.534037050463105516e+03
-8.955746577114148295e+02
-1.548922599805296159e+03
-7.920823257010672478e+02
-7.430840412045957919e+02
-1.023915462939841859e+03
-2.572514817766803390e+03
-2.294959066165390141e+03
-7.931437736598649053e+02
-2.578024188653066176e+03
-2.406361401358167029e+02
-5.360089483227029632e+02
-5.902527830049537272e+01
-1.064618809480995196e+03
1.012190370339790206e+02
2.348522565418973954e+03
4.414326943179490286e+02
1.906885697470650939e+03
3.220720893751591120e+03
3.121957578820505205e+03
1.307170125141733195e+02
-8.100981479304095956e+02
-2.146699104800264649e+03
-1.271130496340621676e+03
-8.553032276301743195e+02
-4.631549383701960210e+02
-5.177405170042815143e+02
-3.751471510983429880e+02
-3.383827350228364708e+02
2.874388609551440936e+02
8.183066483733992982e+02
1.128419488255016859e+03
1.607870353884232372e+03
2.380808059047383267e+03
3.634320597061216176e+03
3.892518721387623373e+03
3.563460999607979375e+03
2.656150306868632924e+03
2.127379563717356177e+03
2.264915397312674031e+03
1.852657347800900197e+03
1.256567251299662473e+02
7.406532864656712434e+01
3.685147354866979441e+01
-3.743791457442077331e+02
-7.593231878746366874e+02
-6.062521290798146083e+02
-3.875485810071590436e+02
3.871417067822404761e+02
8.917714802541321433e+02
1.318716576131618240e+03
1.550683534167036214e+03
1.956659283239042452e+03
2.439818942780376346e+03
3.017966951646977577e+03
3.383169436411911192e+03
3.384296696979530680e+03
2.824126517366013559e+03
2.322959117503332891e+03
2.223758849401507177e+03
1.766538327752611622e+03
8.553454085023873859e+02
1.479121990268141360e+02
-3.667563450741615725e+02
-4.595949741021682371e+02
-5.477192043204416905e+02
-6.552706564065068733e+02
-8.160264233047563494e+02
-5.793786126623797372e+02
-3.837315264125351888e+01
1.650442132327096090e+02
7.987352961533533744e+02
1.671037232480394096e+03
2.342891857142630215e+03
2.616156951355495494e+03
3.259876164374553355e+03
3.131950112762805929e+03
3.155312391949518315e+03
2.931923318312030460e+03
2.361691494100881755e+03
1.631627866794398642e+03
8.818366162008906031e+02
2.943096988776998160e+02
-2.338000882907755056e+02
-6.496479107054558426e+02
-8.913727353038070760e+02
-1.114981475278868629e+03
-8.794263657918633044e+02
-9.996460623118441617e+02
-7.896811732743968832e+02
-1.696044683719213708e+02
7.304384052451214302e+02
1.572437159267782590e+03
1.294441030714153385e+03
1.855646311838227120e+02
-2.240143861752180328e+03
-3.124633291059003113e+03
-2.996939023220315903e+03
-3.312104021002583067e+03
-4.127103953594136328e+03
-4.788039069223530532e+03
-5.300911667388819296e+03
-5.621709966358095699e+03
-5.794380864591692443e+03
-6.134839651586872606e+03
-6.274091783010030667e+03
-4.836075774119966809e+03
-6.234836257204176036e+03
-6.585521509989274819e+03
-2.972026661574777336e+03
-3.577379831788105093e+03
-5.060568972670390394e+03
-3.958464039712622707e+03
-3.333828148388338377e+03
-2.735597220374362223e+03
-2.562831470355241436e+03
-2.533340723361501205e+03
-1.640278264108635994e+03
2.141079767368761622e+03
3.438801787413355214e+03
3.127971151751228717e+03
2.515599939880119564e+03
1.686675408156366757e+03
8.901904117014217945e+02
7.523411886672771516e+02
3.473315894359690787e+02
3.021508536388008679e+02
2.557041651430097318e+02
-1.270730357301330713e+02
2.888307035116122847e+02
1.163331119153112923e+03
1.472479878449865055e+03
1.867305949403599925e+03
2.842099406642115810e+03
3.129209347452569546e+03
3.123517931083925760e+03
3.323792205004868720e+03
3.489062423208130440e+03
3.168424752007691495e+03
2.126936502621900672e+03
1.430673385788240239e+03
9.517372003738597641e+02
5.170958129760085740e+02
1.727547693361823917e+02
-4.621957064844688148e+02
-1.053708831319776891e+03
-1.718825841632576839e+03
-1.832424794187267707e+03
-1.087506281991622927e+03
-6.511564180358129761e+02
-5.302380313301117667e+02
-7.681503065434506006e+00
5.223982462393553305e+02
7.721126268041684853e+02
1.314620408327194582e+03
1.925138815267963082e+03
1.896719415118989218e+03
1.629411046459583076e+03
1.495182658768501369e+03
1.195968177871073294e+03
5.177715036310207779e+02
-3.103676429697178492e+02
-2.476294284529278229e+03
-3.852781667099579863e+03
-2.071617425133751567e+03
-1.655020248557697869e+03
-2.125109210156406334e+03
-2.397807413620068473e+03
-2.005051644563498712e+03
-2.038890802928326366e+03
-1.832536138173991731e+03
-9.207669165379163587e+02
4.803494246060276396e+02
1.979950452424871855e+03
2.589168964042199150e+03
2.588997424950712684e+03
2.462355315938286822e+03
2.267185524943416112e+03
2.047522230167288399e+03
1.297415855889628801e+03
2.958621566547342354e+02
-5.591625867341509775e+02
-8.867043543949371269e+02
-1.062748681793928654e+03
-1.180284744256510521e+03
-1.549480860739030732e+03
-1.502220304228675332e+03
-1.549506068212025184e+03
-1.423542555657932098e+03
-1.086271004247900919e+03
-7.835532958550074909e+02
2.174250393869486331e+01
3.706251658091384797e+02
8.280197289810590746e+02
1.449700385000969163e+03
1.839677385328693845e+03
1.786067017623478250e+03
1.886906013984951414e+03
1.648228287926627900e+03
1.349948830119840977e+03
8.580180927822168542e+02
2.794104590211491086e+02
7.705077532626221171e+01
-4.071526164787020434e+02
-8.992740481696162078e+02
-9.582908062997761363e+02
-8.941262859858854881e+02
-9.359107998301509497e+02
-9.016863223133971132e+02
-7.155235312631775741e+02
-3.804726556728890046e+02
-1.455777523222621994e+02
9.990914487910980597e+02
2.009558173685629754e+03
2.305834189595401767e+03
2.362905258813221280e+03
2.550769729548245778e+03
2.534340650780795386e+03
2.153563420369830965e+03
1.820382656720243631e+03
1.395738395868526595e+03
1.076510213736747573e+03
1.336388451759626435e+02
-6.308731708897341832e+02
-9.301616529621024938e+02
-1.326381667885685829e+03
-1.137519630483352785e+03
-1.399583547048890068e+03
-1.821639727022548186e+03
-1.385797455521992561e+03
-1.353149846974578168e+03
-1.351676291583739157e+03
-8.793765924826932405e+02
-1.361422714505638169e+03
-1.252876869138696065e+03
1.826517358395532028e+03
3.334522917631355540e+03
3.474299689317074808e+03
2.864699210714535184e+03
2.015275489917229834e+03
8.855787296860056586e+02
1.921117812989983236e+02
-4.285887074511308015e+02
-7.652523480269115908e+02
-1.337641826774342462e+03
-1.602409716185792831e+03
-1.472196581767828320e+03
-1.179004646007241718e+03
-8.349808862192091965e+02
-5.220877445618800721e+02
2.592312441070782256e+02
1.218167245701494949e+03
2.386701217425848881e+03
3.610786251225910291e+03
4.142384423640580280e+03
4.785442178843123656e+03
5.609410832295084219e+03
5.641634662826302701e+03
5.024039416095196430e+03
4.646915602257829050e+03
3.622861378070308547e+03
2.103098687928962136e+03
1.213432477961436007e+03
-9.722379195548005271e+01
-8.759570863444306497e+02
-1.558846841360584904e+03
-2.283626163032318345e+03
-2.982676177385214942e+03
-2.596915201942008025e+03
-2.048233359089607347e+03
-1.459809103625281523e+03
-4.026191173473187632e+02
1.173376490684313012e+03
1.830315826424022362e+03
1.604702764305730625e+03
1.930674358750972260e+03
3.057393604602681080e+03
3.752209519548357093e+03
2.885857847257078902e+03
1.364352939055176648e+03
1.058479867413954935e+03
1.191225184487945853e+03
7.345398141737319975e+02
-4.875423364615160722e+02
-1.858061883905381137e+03
-4.351036870389880278e+03
-7.957450452250049239e+03
-1.042724626003993944e+04
-1.250434810306212785e+04
-1.291180892728401341e+04
-1.194965818512145779e+04
-9.804977085437723872e+03
-6.968587101659584732e+03
-2.568404371255260230e+03
1.366821368769461458e+02
4.387304364586419183e+02
-1.432448338292759047e+02
1.793449855033586227e+00
1.903964092938592330e+03
1.730175697172615401e+03
1.226445551413793737e+03
1.382788335959739470e+03
8.331917611576334366e+02
-4.267312412930670689e+03
-5.869662447917164172e+03
-5.699835094178917643e+03
-4.724775847462660749e+03
-3.628463752806253069e+03
-2.623793251600489384e+03
-2.275663072777371326e+03
-1.637997355172195057e+03
-9.127397234688695562e+02
-2.156902139177245772e+03
-2.748402955116095654e+03
-2.105087009879166999e+03
-2.492829739499109564e+03
-1.712563480901434787e+03
7.978483828609889770e+02
-4.165351442325455764e+02
-1.037697858107220554e+03
-7.946603210934779327e+02
-1.566396436484058995e+03
-1.692798458848789096e+03
2.583185367871710241e+03
3.080601586432496788e+03
-5.749797969928501828e+01
4.919693312793048108e+02
-9.791822278764730925e+01
1.379870261277052350e+03
2.775380030249486936e+03
3.582732064238620296e+03
5.568015365934539659e+03
6.890320792623248053e+03
7.087758967090586339e+03
6.476414334158699603e+03
4.107440488931077198e+03
2.146945762507858035e+03
1.682005772218297352e+03
1.885734583446822398e+03
3.027232009284145079e+03
2.506514996832859197e+03
1.671540444075460073e+03
8.874170481571005666e+02
1.044168665227726478e+03
2.271741994668958341e+03
3.169208679584486617e+03
3.597640444581964402e+03
2.936108849935978469e+03
2.219673089670445734e+03
1.551270162481552234e+03
1.256164267294645470e+03
2.032569368226610777e+03
3.629457915048500126e+03
3.861020358355682220e+03
3.087376489637988470e+03
3.159616021887509305e+03
2.561855439311816554e+03
1.422134124538771403e+03
-2.994892730551679279e+02
-1.671988883774855822e+03
-1.263411177682271045e+03
-4.876816660364602853e+02
1.052503692911848674e+02
3.753439408853492978e+02
-1.230418668907341953e+03
-2.138916619973786510e+03
-3.359570223434478521e+03
-5.176848438377945968e+03
-6.467758590578975600e+03
-4.363572535441966465e+03
-2.174073371697319999e+03
-6.492504702461561692e+02
3.887927205312816113e+03
6.111503102257262071e+03
4.726446032704284335e+03
3.298698882956354282e+03
2.683416786162882090e+03
2.020422590808930408e+03
9.126934080910001512e+02
-1.309720313789877764e+03
-2.196842027148205489e+03
-7.057435869820964172e+02
1.199565021441336285e+03
1.683038696950373151e+03
1.969620389312465704e+03
2.180313896590427703e+03
8.020717009736353020e+02
-1.169153071016742842e+03
-3.281325797998975759e+03
-2.750446645363892458e+03
1.676381391809787601e+03
4.263235827899406104e+03
3.368118431944224540e+03
2.299965319834304410e+03
2.035771685488233743e+03
1.366570557513457743e+03
3.634245727969704944e+02
-3.286795817669971598e+02
-8.768075715755752526e+02
-8.140217171034939838e+02
-5.753617289977067912e+02
-2.658780707916183133e+02
-3.456562126438122959e+02
6.553148738385192473e+02
1.291938432734831167e+03
3.880634442463739902e+02
-6.032406144096459144e+01
-3.592478262415123709e+02
-2.216739839468699302e+03
-3.298842062199142219e+03
-3.570543132049835094e+03
-2.693895224785682785e+03
-1.400987670910322322e+03
2.482079653913692994e+02
1.218644746991623833e+03
8.112524087004755984e+02
-8.703316299148619350e+01
-1.478206163846221216e+03
-3.603285420713775238e+03
-4.242235223396471156e+03
-3.328114368569491489e+03
-3.503218886130322971e+03
-4.829602169301145295e+03
-5.902242779804997554e+03
-6.809198052533244663e+03
-6.338619135595873558e+03
-4.957566736593082169e+03
-3.335079531994233093e+03
-2.952261067218730204e+03
-2.282168252994998056e+03
-1.232896333108599265e+03
3.385715570958857938e+02
1.954229210926666610e+03
2.253045747104395105e+03
2.373995965102031732e+03
3.021078065922085443e+03
3.595274570275005317e+03
3.546593670745087366e+03
3.101017699508152873e+03
2.507464881463912207e+03
2.438849044100373703e+03
1.354101943453740660e+03
8.621365101339232524e+02
1.461862680103714183e+03
1.892192475103556717e+02
-1.592851222830250435e+03
-1.989406506674345565e+03
-1.523511132801879512e+03
-5.492311573289729267e+02
7.764519376154095198e+02
7.184801385842906711e+02
1.577948831374121994e+02
9.943181491312684273e+01
1.264349435933473984e+02
9.457505305431179750e+02
1.542444214111942529e+03
1.909459527718958270e+03
2.302779412236197004e+03
2.563394697486998666e+03
1.988235062329801622e+03
5.592755883594251145e+02
-6.774919472888701648e+02
6.684892619262750202e+01
2.972544752809249644e+02
4.947109609125428733e+02
4.081473195342255735e+02
1.755559428137109990e+02
-8.408150622118394324e+01
-6.887746651118086447e+02
-1.097591582442823665e+03
-9.425196821638199935e+02
-8.374873228808468184e+02
-2.354714297679220181e+02
3.994926563692006312e+02
1.053432492596825568e+03
1.498410543276265116e+03
1.909441978723267539e+03
1.235549411898921335e+03
8.867299026327998490e+02
1.408033342497629974e+03
8.854717391219367073e+02
-3.639692439683312273e+02
-1.137365315299568692e+03
-1.350767854790798083e+03
-1.025127207310209315e+03
-1.171437318059074869e+03
-1.652728297718243766e+03
-1.167959962665076318e+03
-1.861024159366415631e+02
-7.071271167703069978e+02
-2.560000776259262238e+03
-2.860656513850202373e+03
-2.834317727842458680e+03
3.730688724943579473e+02
2.591632232747012949e+03
8.044565742929353291e+02
2.753609871901758652e+03
3.151178303755616071e+03
4.031772511346275110e+02
-3.038561595152652117e+01
5.904848878296116936e+02
-1.830173238009137322e+03
-3.268387484297689298e+03
-2.531192709154206568e+03
-1.529540205615529430e+03
-1.063473516949862642e+03
-3.610915584680155007e+03
-2.103926084021827137e+03
-2.973524415496628990e+03
-1.324639713746977577e+03
-3.979273454536185909e+03
-3.014366164518761252e+03
1.461225401720176080e+02
-1.067861589717432480e+03
-1.214232777755855068e+03
1.090095528386205615e+03
4.511469512949468594e+02
2.860062128436750754e+03
3.329959016207727018e+03
1.534801745661479117e+03
3.996649459007592213e+02
-2.946450262968833655e+01
4.541519859196568376e+01
-1.856948864771649141e+02
-1.555755011182342514e+03
-3.918633746506409921e+02
-2.932021711079855777e+03
-3.038177175308345795e+03
-5.224011316062147898e+02
3.402906834164452334e+02
-1.821004582779973589e+03
-2.164177093794873599e+03
-1.488199409748133121e+03
8.898480984724628797e+02
1.968037564627318488e+03
2.902489104165502795e+03
3.515290363067942508e+03
3.850404826613469140e+03
3.687790400914507245e+03
3.508499181522110121e+03
2.869568563105226531e+03
1.589036682313355413e+03
8.179641002646006882e+02
5.394366143376739728e+02
9.634260369444261869e+02
7.961362565295594322e+02
3.794735618520163598e+02
-8.416402774377472724e+02
-1.092303189129836937e+03
-1.290613129582114880e+03
-1.216652941769671088e+03
-5.254709973651689552e+02
7.980844068505307405e+02
1.876119878192274882e+03
2.661624719084113167e+03
3.437375761299193073e+03
4.134522591691838898e+03
4.165232155833020443e+03
3.308341056156421473e+03
2.590643445286373662e+03
2.013756942147972040e+03
1.675569802901322191e+03
1.168931615893686057e+03
7.865540362849830558e+01
-7.313748864326489638e+02
-8.491682161579224157e+02
-5.407277608369164454e+02
5.887597422853804829e+01
-3.693624716112980195e+02
-1.038208968638559327e+03
-1.322846122013127797e+03
-9.373568171711241348e+02
-6.445139148028894738e+01
1.591795291845086240e+03
2.886837441600500370e+03
3.801092094267202356e+03
3.721590159290262818e+03
3.387230329228328173e+03
3.504049183573137725e+03
3.341046484294055517e+03
2.675817737630590273e+03
1.994541391994879405e+03
1.736643694427968285e+03
1.208581523681179078e+03
5.143411717973162922e+02
-3.172835801088866106e+02
-7.203676707374522721e+02
-1.367919161744022631e+03
-1.432076132626188382e+03
-1.822847720584475383e+03
-2.058142484487004367e+03
-1.534912458619731296e+03
-8.869594472428833569e+02
-4.062857792427783465e+02
5.790180187578426967e+02
2.266920613309963301e+03
3.586365937876220414e+03
3.647426627894702960e+03
4.450080596141467140e+03
4.832345967161034423e+03
4.120143896527065408e+03
2.916290616374516958e+03
1.864811831707957253e+03
1.220799261162102766e+03
8.873622323847797588e+02
-1.202609693673962511e+03
-2.138218666126782409e+03
-2.262602640951240573e+03
-5.770844016618447313e+03
-7.116937083816907943e+03
-6.887742708874534401e+03
-6.611186661030716095e+03
-6.052331625181929667e+03
-5.528075617607093591e+03
-4.684297460769589634e+03
-3.765961191636857166e+03
-3.782063726789714110e+03
-3.557765261986779478e+03
-2.906197946088086155e+03
-1.162343604522851365e+03
-2.892936395573909067e+03
-2.868034728559010546e+03
-4.422713511314743300e+03
-3.399931661073514533e+03
-3.884614625322574739e+03
-5.969822078869207871e+03
-6.091831890352883420e+03
-6.242705534673142211e+03
-6.629427013957843883e+03
-6.872213819397749830e+03
-6.731923755048581370e+03
-3.541331306572057656e+03
6.796205848763891026e+02
1.753947087128293560e+03
2.268727950670807331e+03
3.201061452593940885e+03
3.886088222064528509e+03
4.399767741091513017e+03
4.635944054288952429e+03
4.760501835022980231e+03
4.231562080019550194e+03
3.340102363023362159e+03
2.617103274278249501e+03
1.942756057573860517e+03
1.360212643983015596e+03
1.078559561186356859e+03
3.555666955352352261e+02
2.698710661039634147e+02
2.205350833787393299e+02
-1.681571769714821301e+02
-3.541494108005595081e+02
-2.914514045940666165e+02
1.081150234871855815e+02
1.027600032054112717e+03
1.823980422248678224e+03
2.383352646618028302e+03
3.072716519130795405e+03
3.332122813036352909e+03
2.885575618795420723e+03
2.831086489239301500e+03
2.505620596852224935e+03
1.606199177699892289e+03
7.339605806085926361e+02
-3.461258641680765322e+02
-9.750578062871592238e+02
-1.549649736443220490e+03
-1.630891775092914486e+03
-1.338763624377849510e+03
-1.305285412652141531e+03
-7.575077299018417989e+02
-3.155046128892040542e+02
6.981725291237312092e+01
1.366284742787881896e+02
5.059756095697346154e+02
1.102813838924143511e+03
1.227308953252236734e+03
1.724517934571444812e+03
2.538569528075454400e+03
2.423565531811511391e+03
2.410642095510382660e+03
2.509851935843968477e+03
2.036158690460083108e+03
9.253899349720568352e+02
3.847248286397454820e+01
-8.514110622216086313e+02
-1.139226566878774065e+03
-1.591282448701952262e+03
-1.877579534278374240e+03
-2.210145277561726743e+03
-2.535915647210271345e+03
-2.741788985589320419e+03
-2.416790890395161568e+03
-2.304975573803188581e+03
-1.891354875229013032e+03
-1.023829547288394906e+03
2.972986005344874272e+01
9.303635249191952425e+02
1.817998429897557799e+03
2.016728795427819932e+03
2.056590292089832928e+03
1.761492498052268729e+03
1.387541744682163653e+03
9.868089856090122112e+02
1.702396111626482309e+02
-5.492829713649758787e+02
-1.016856107842876099e+03
-1.719540846521727190e+03
-2.660250427077497989e+03
-3.012938183375535118e+03
-2.847586831971579613e+03
-2.830183986743654714e+03
-1.852839061406366454e+03
-1.183506658828781838e+03
-5.371567734277303998e+02
2.651842030468923781e+02
9.315348129210307206e+02
1.335942722831642868e+03
1.903504214426327053e+03
2.126233555362652169e+03
2.196938193990729815e+03
2.230624394614538232e+03
1.548220417195136861e+03
9.667208138393081072e+02
3.710959624968196522e+02
-4.237305038901235434e+02
-1.088691361286661731e+03
-1.509806430011430393e+03
-1.568175753739914626e+03
-1.496832424912961869e+03
-1.734817062801202610e+03
-1.865134840876593444e+03
-1.629846708451604627e+03
-1.207912775398224767e+03
-6.124266801997312086e+02
4.861710559725122494e+01
6.492241070502931279e+02
1.459373412180703781e+03
2.576153646532402036e+03
2.584521910551427936e+03
2.353390981020360869e+03
2.114729868190066554e+03
1.444451337199417821e+03
9.355092347287992425e+02
2.729349560968721562e+02
-4.014369777247442812e+02
-4.858456063863394547e+02
-1.464160293106408062e+03
-1.402338636073726548e+03
-1.017679025834034860e+03
-1.160990244974775123e+03
-1.111468725842062213e+03
-1.096366189391931812e+03
-9.351958330972584008e+02
-4.413326541088110275e+02
2.913305215082650648e+02
8.849262683349202234e+02
1.412365745115552272e+03
1.897424818906680230e+03
1.996213777874767629e+03
1.686977972245182627e+03
1.894311682614347319e+03
1.305094415143738388e+03
1.363378958010416454e+03
8.753500523224278140e+02
2.147594946111027880e+01
1.091234997274232370e+02
2.037401637041267293e+02
2.428042185868398519e+02
7.590814152083036106e+02
6.160700740344578890e+02
4.703273920338565404e+02
2.756858761815719845e+02
5.180493586809060247e+01
4.470600109056957194e+02
1.329079021059289062e+03
1.907144042574520199e+03
2.567201505664164415e+03
3.170040998253001362e+03
3.531888504337238828e+03
3.433531751261498812e+03
3.397908309638056380e+03
2.801153610714108254e+03
2.032092755291454523e+03
1.736161874610288123e+03
7.877622319018211101e+02
1.488085252773273837e+01
-5.816031669513290581e+02
-9.912915134813214308e+02
-7.683574302909038352e+02
-8.159862702025155841e+02
-3.163725905252360349e+02
1.456370051569360768e+01
3.718057832802441567e+02
1.191355313081448458e+03
1.911232986974792084e+03
2.709489737429109027e+03
3.006114069099079643e+03
3.257173568423438610e+03
2.492756854804348222e+03
4.758344961892873926e+02
-2.241623931320618340e+03
-3.037690568080983212e+03
-3.927382860481973239e+03
-4.576666007774831087e+03
-5.025470036675585106e+03
-5.496891014693101170e+03
-4.434929686099343598e+03
-4.648592504507976628e+03
-5.008891562963649449e+03
-4.971899994973354296e+03
-4.304598777826976402e+03
-4.382936960972573615e+03
-4.370848897846552063e+03
-2.322378678996356484e+03
-1.292455493893950006e+03
-3.782944331502015757e+03
-3.882771495056996173e+03
-2.514927197555037310e+03
-9.504158681618339415e+02
-3.672132358991309502e+02
-6.492501461762769850e+02
-7.114768733044724058e+02
-1.163852950980535752e+03
-2.086460518670779948e+03
-2.835372595141479451e+03
-2.461499510958636620e+03
-3.962822425318288879e+03
-5.470325428927937537e+03
-4.044981609078762176e+03
-1.621762363510467594e+03
-3.773678017210158487e+03
-4.229687348970858693e+03
-3.690704894344020886e+03
-3.263682495740899412e+03
-3.116535582688803061e+03
-2.010246849174984845e+03
-5.357122321773505291e+02
7.181994347731773587e+02
4.404513985210207466e+03
5.385221452223402594e+03
5.522419892658640492e+03
5.545193595550003010e+03
5.178560925369589313e+03
4.593530790474039350e+03
3.904163768998373143e+03
2.922406165069944109e+03
2.222321927170992240e+03
1.301047838671581303e+03
8.275650239884687380e+02
2.638569546488123478e+02
-1.760402734434629224e+02
-2.031262199083437565e+02
4.895945464984195041e+02
9.152223030723532702e+02
8.399212712518263970e+02
1.087652642851499422e+03
1.496489982941697008e+03
1.009625796648917003e+03
9.381484852609403333e+02
2.089053550880944385e+03
4.139371884748931734e+03
5.132203023820224189e+03
4.988660877490799066e+03
3.261623852860849638e+03
1.292971925225060886e+03
2.811972443224938729e+02
-1.386113056084968775e+02
-7.145342010401201378e+02
-1.428579788471602569e+03
-1.618749653107405265e+03
-8.869198856303637513e+02
-4.311231753396075419e+02
2.195960521699984156e+02
6.813951884571699793e+02
-1.738733631371424115e+00
-5.798757675041312041e+02
2.393009040154566719e+03
3.071238227745687254e+03
3.299912491349609354e+03
3.553975630847476168e+03
3.868026270629958617e+03
3.555385296522737008e+03
3.085249510458079840e+03
2.300464042960935330e+03
1.261037335646145038e+03
9.819866873309809989e+02
9.443065909989087459e+02
2.498556656248459618e+01
-1.006185171223291491e+03
