3.162926953471448087e+03
2.689535956827167411e+03
3.263284038757544749e+03
4.402303433447652424e+03
5.423653153173670034e+03
5.985444965610082363e+03
6.507749627651798619e+03
5.931698750645774453e+03
5.198371361741796136e+03
4.797830033004919642e+03
5.009122565641848269e+03
6.004370230237328542e+03
5.858732446449373128e+03
5.672484801533722020e+03
5.322917554441490211e+03
4.740102979298649188e+03
3.217770899472734527e+03
1.578917138183750467e+03
4.566003014421276021e+02
4.357721428257187881e+02
1.191367092149741211e+03
1.588374428182522706e+03
1.367018579370727139e+03
-1.046437658746889383e+03
1.123118687392501442e+03
1.286741140121132958e+03
-8.725223512548091094e+02
-4.275549086732579781e+03
-1.119750040744369244e+03
1.011189287874065371e+03
1.257258157095376276e+02
-3.294012471137205011e+02
1.188838143316456808e+03
2.233506343597110117e+03
2.505542444857996088e+03
3.007078601632852497e+03
2.702066827236584231e+03
1.299695681699493662e+03
-1.640285708063826746e+02
-1.350164032698192841e+03
-2.070450406620464946e+03
-2.175759433066910333e+03
-1.922204957070185401e+03
-1.230842305048706066e+03
-1.046471224731899525e+02
3.883722763865297338e+02
2.552100647147071300e+02
-5.421354133552363237e+02
-1.543619000684585899e+03
-1.531273361337865708e+03
-1.121144040113583515e+03
-8.282528895803988007e+02
-1.531562234109783276e+03
-1.600059663831985290e+03
-6.367901254205448822e+02
-4.181791551963979003e+01
6.807367608578494433e+00
8.400468086677404926e+02
1.406869337187157498e+03
7.632163728385105514e+02
-4.329818486807338331e+02
-6.217559816573713078e+02
-9.841119820665459201e+02
-1.191084131437739870e+03
-1.551731013294771856e+03
-3.863144018655070340e+03
-4.581284908252611785e+03
-3.927199371875989527e+03
-2.843910559563344577e+03
-2.081494554526144384e+03
-6.569968347065241687e+02
-9.245696474327951364e+01
5.380304939455126032e+02
1.675445768697464700e+03
3.299797610809100206e+03
3.921058065657593033e+03
2.367134762137624875e+03
2.300876122390890941e+03
2.795264379304111571e+03
-4.127899116905754227e+02
-5.160468556304464073e+03
-1.120783524330845466e+04
-1.286286352339664518e+04
-1.256157493330368015e+04
-1.213991149028886139e+04
-1.193313102620253630e+04
-9.020338006988626148e+03
-9.268489890060493053e+03
-7.616504916241599858e+03
-3.040547011694435241e+03
2.185848408528687742e+03
4.323256137802056401e+03
5.926472557146003965e+03
4.593414936034493621e+03
3.374048289268319877e+03
2.636425417645291873e+03
1.126424703160372701e+03
4.179644653001065535e+02
5.529247998251610170e+02
1.509245975069663018e+03
2.169862559988363046e+03
1.460711208239117468e+03
1.279686193687209879e+03
9.227658599083043782e+02
-2.211273802757027624e+02
-3.829433023516893968e+02
7.812818317716080401e+02
1.834506407872707996e+03
2.035685095635784592e+03
1.398782451297435728e+03
1.368550943098814976e+01
-7.896307454137961486e+02
-1.713143138428482644e+03
-2.161828495717889837e+03
-1.870737297309091900e+03
-8.149564491191164279e+02
1.407522868174479527e+03
2.321673988122192441e+03
1.474368868514411588e+03
6.005063856778527906e+02
-6.794835446094607789e+01
-1.268052392317673139e+03
-1.179811426199877133e+03
7.097443001522680106e+02
2.202560410479991788e+03
2.826624751468778868e+03
4.715926736342335971e+03
6.020434938535213405e+03
5.433146336705999602e+03
4.378026124843475372e+03
3.576099122698549763e+03
3.838370483457855698e+03
3.288841225065943945e+03
2.545480157817375130e+03
2.030261616690377650e+03
2.408164277370457512e+03
3.519136295511498702e+03
1.520223304664492161e+03
7.423977885229651292e+02
1.536349108130890784e+02
-8.900804767216894788e+02
-1.578714185992626426e+03
-1.488393129640060351e+03
4.718827390262452468e+02
2.394085650663713750e+03
3.119203499060878585e+03
3.121255320129641859e+03
2.969285808830487440e+03
2.775342005867663829e+03
2.265391597024266957e+03
5.135968616870417236e+01
-3.829466750287183459e+03
-3.669008382303346934e+03
-2.521335709030751332e+03
-4.866743619699344890e+03
-4.267090312796808576e+03
-2.272352257359953910e+03
1.411504584914868929e+03
-2.762529509609459637e+03
-1.805490132478426403e+03
1.875759674603483518e+02
-3.763333929611731946e+03
-3.710847705029233907e+02
-1.866968955056355242e+02
-1.930146366397578731e+03
3.072579103184820269e+03
-8.175051348223884133e+02
-9.023617271333131384e+02
-1.946959753176194909e+03
-2.808294337569890104e+03
-3.309353075415615422e+03
-2.426157117555780587e+03
1.703739080689584569e+02
1.573301525473508718e+03
-2.896271533886315865e+03
2.426589049133094420e+02
1.037063729630612670e+03
-2.408141363463052130e+03
8.659452382203568277e+02
-3.494667498277796312e+03
-4.617933180390207781e+03
5.180955888336783346e+02
-3.169600669775938513e+03
-1.143961899379429269e+03
-3.313822718106089724e+03
-6.200141327171348166e+03
-2.135043765095165327e+03
-2.063686716270554825e+03
-4.000972738219409621e+03
-3.427827226393000274e+03
9.278625427340531360e+02
3.560149744132446813e+03
4.463067866099166167e+03
1.420654655479067060e+03
-2.820797512827684272e+02
1.004934283730261313e+03
2.851652360367751044e+03
2.460848690289295064e+03
2.084753789984347350e+03
1.754337226547043201e+03
1.516545202557299035e+03
1.486456611653576374e+03
1.528010275578717255e+03
2.120140694465386787e+03
2.342059067232839425e+03
2.348045329550456245e+03
2.225261346555005275e+03
1.821342867496663757e+03
1.654340508778421963e+03
1.455203851756548374e+03
1.375933043356824555e+03
1.198593450314889651e+03
1.513151232760754738e+03
1.938505482946122811e+03
-1.063447611135791249e+03
-3.903898315884394378e+03
-2.529312452681069772e+03
-5.437551193458692069e+03
-4.701147405069362321e+03
-6.432881168986077682e+03
-3.991637541829827001e+02
4.642274715325510215e+02
-3.969200057304873098e+03
-1.434555777552433256e+03
1.349613450309416066e+03
1.152975248404055037e+03
1.293929250088683830e+03
2.027467923947025611e+03
1.984833601850553578e+03
1.781555408349175195e+03
2.093165744858951257e+03
2.080423994994494024e+03
2.506414065659491825e+03
2.843035083162418232e+03
2.564191731974196500e+03
2.483149041236788889e+03
2.134277390351095164e+03
1.752434453617993540e+03
1.441701565040483501e+03
1.142962008314203786e+03
1.157872175885147954e+03
9.900894725869635522e+02
6.734158068473634557e+02
8.471620910526365833e+02
1.241365898642435695e+03
1.729439989328421007e+03
1.460320848911148460e+03
1.327711572828704902e+03
1.740242264614725173e+03
2.225114059909222760e+03
2.015094092861323361e+03
1.830853494907571530e+03
1.738001117678144055e+03
2.051316203726858021e+03
2.318968037618610651e+03
2.554835306450536791e+03
2.301793404824790741e+03
1.774873593559591654e+03
1.208055454805884892e+03
9.362262123973281405e+02
5.493137050196346536e+02
5.233076690533365536e+02
4.572204999718973113e+02
8.390317031493842705e+02
1.167822635816998854e+03
1.309643997299584271e+03
1.101483620707969294e+03
1.442304227113237630e+03
1.558043609506443318e+03
1.582797260016540577e+03
1.781548753740866459e+03
2.352295991683387456e+03
2.716053792199249074e+03
2.316927747281260054e+03
2.183971178907590911e+03
1.575134637097362884e+03
-1.597664543246232370e+03
-6.864500494413888191e+03
-1.018954051266453826e+04
-1.050645575839199046e+04
-1.081699649677450179e+04
-1.100072508872489561e+04
-1.125455908074393847e+04
-1.026706581723730233e+04
-1.003118544736767217e+04
-9.574410945304804045e+03
-9.078737803477823036e+03
-8.930931826863386959e+03
-8.697993590223988576e+03
-7.784064585833295496e+03
-7.730124341235343309e+03
-5.693159677398148233e+03
-2.180163282175596123e+03
-2.098079355774320902e+03
2.471189729298426755e+03
-1.315353210045129345e+03
5.463067848590194444e+02
2.829164632292607166e+03
2.793166186103387190e+03
2.371287130013836304e+03
2.038480561540264489e+03
2.235716914579174045e+03
2.140032687653237190e+03
2.392499749544083443e+03
2.969182888107487997e+03
2.946146500858392756e+03
2.624362146641303298e+03
2.379840654338704098e+03
2.416608660957078882e+03
2.637736047620390309e+03
2.713192302391581052e+03
2.699893650900222838e+03
2.985853618404141343e+03
2.828126069001573796e+03
2.792646446591715176e+03
2.787439443456049958e+03
2.655594656720832972e+03
2.228192978755728291e+03
1.940148860941353860e+03
1.511511331198628113e+03
1.253301287300466356e+03
8.025285759807337627e+02
9.254054863471835688e+02
9.558387898675223369e+02
1.344772567162155610e+03
1.447183681186653075e+03
1.326106247607188834e+03
1.534500543726296883e+03
1.306449230385436522e+03
1.141970039427455504e+03
1.413018348221718270e+03
1.747483742311338119e+03
1.797457444774561282e+03
1.661983151452544462e+03
1.540921206398408458e+03
1.948212077799787949e+03
1.649664816895125568e+03
1.003507490698636047e+03
5.559588509403328089e+02
1.007977464595117283e+02
-1.911320641877290996e+02
5.019050423373702330e+01
-1.649210351820923734e+03
-5.215601660510651527e+03
-4.815756863262306979e+03
-5.112682826835329251e+03
-1.413234336152599099e+03
1.866484714312923927e+02
8.054192819612335370e+02
6.260525821672270013e+02
-6.713973690281413553e+01
8.536727853156857009e+02
1.313438754307043610e+03
1.317248171104758057e+03
1.357103102716770763e+03
1.066956746043579187e+03
6.907093448190719300e+02
4.853705303201959964e+02
-4.939656034767723192e+00
-5.422456273712941766e+02
-1.307535905207532551e+03
-1.240730786099363513e+03
-1.150845429518793935e+03
-8.130225077864841978e+02
-6.082270249858946727e+02
-1.323932618629855540e+02
-3.334510045249407426e+02
-7.712879448449924666e+02
-5.948387864970716237e+02
-2.490586419245651939e+02
7.894968119209468682e+01
6.712177427568126120e+01
2.793804154028889002e+02
5.306333841676241718e+02
3.219346793067853127e+02
-1.245584852219331680e+02
-2.983502276993766955e+01
-5.099319189807534940e+02
-4.617747310077544967e+02
-9.674399718032988176e+02
-1.211131381644207977e+03
-1.071854132386277570e+03
-9.565160125453606952e+02
-7.462374468869232942e+02
-6.540126805187343280e+02
-5.696922298095611268e+02
-4.461915004821253206e+02
-5.094855761394967431e+02
-3.076573059337849259e+02
-1.515980371949630694e+02
1.296968282716329384e+02
1.732198199439651205e+02
-1.381148513909274982e+02
-2.735155005490224056e+01
-8.729327354179574172e+01
-3.070009243013396372e+02
-2.334799088472759934e+02
-2.186966936740477934e+02
-4.316616654783163654e+02
-6.164563560424176103e+02
-8.233238830333569922e+02
-7.041526882469349857e+02
-8.149438354473725212e+02
-9.206599041924423545e+02
-5.842990035648721232e+02
-5.108246708176378661e+02
-2.316141964534782346e+03
-9.710733171019113570e+02
2.264505301767128458e+02
2.110734008414954417e+02
3.852816550280440424e+02
4.700911726605933154e+02
5.531348239969380529e+02
7.482633148515510584e+02
1.090236577311160318e+03
1.356704525685352110e+03
1.205269636897803139e+03
5.368173833624077815e+02
2.348125893879957005e+02
-8.131864984865337931e+01
-1.393618439433040521e+02
-3.211710285035667880e+02
-4.773167719324789005e+02
-3.600907912223639755e+02
2.132762656674431696e+02
3.668934324559798483e+02
6.537525864288539879e+02
7.548564443164417526e+02
7.450885453399341714e+02
5.272584449299795324e+02
7.004518778448474450e+02
1.000139493427987304e+03
1.248708204336958943e+03
1.287331440040953794e+03
1.176356864128327288e+03
9.802448613426608972e+02
1.243592025799977137e+03
9.701809917780542492e+02
4.254678556891918220e+02
3.312137447897633535e+01
-1.232559218890489063e+02
-4.063457123953723453e+02
-5.330423067462993458e+02
-6.568973525374644851e+02
3.938708251415540929e+01
2.420001605649453893e+02
3.917418525581015842e+02
4.892980954004431169e+02
4.837736797558891908e+02
8.482645318341020584e+02
9.880733120680763477e+02
1.443158847371338879e+03
1.639358894193338529e+03
3.161033835998603436e+01
1.140000982400315706e+03
1.864547100851301366e+03
1.708253825988890185e+03
1.556120289151432416e+03
1.229163377938773010e+03
9.173705970049297775e+02
5.707142856665248019e+02
2.512049330937205411e+02
6.783537422093701252e+01
1.226495562629608145e+02
4.927198640251206712e+02
6.120658403953484594e+02
9.147101308952070440e+02
1.053678114791485086e+03
1.255979781433299650e+03
1.012601678063846975e+03
-1.284551297732121384e+03
-4.385939728981722510e+03
-3.995548370701373187e+03
-1.707746229576403721e+03
-4.494193412826662097e+03
-1.099151052631373432e+03
2.615663462816480660e+02
-4.674686641910025173e+03
-3.371624270432191679e+03
-1.318189735803121891e+02
-4.182623335646190753e+03
-1.891371328141119363e+02
-2.310203770193616492e+03
-3.233867691591783114e+03
-3.321249285095184405e+02
-3.361886805961195932e+03
-1.582103818093621385e+03
-3.433820283579138504e+03
-2.555993102667735457e+03
-2.136604068073673261e+03
1.173365974020411841e+03
-4.330026339385596657e+03
-1.392830545957438062e+03
1.889004164034745145e+03
-5.107517700504166896e+03
-1.049389209645818028e+03
3.924134041668951340e+02
-1.478144305422859361e+03
-2.357064264811308931e+03
2.306861266641393797e+02
1.480073467261356654e+03
1.248083029288956141e+03
-1.021330987771939363e+03
-4.231075179692145866e+03
-3.037101510441307255e+03
1.343528481600615351e+03
1.743817677721313885e+03
-2.442144366733907646e+03
4.246704538116013623e+02
2.642673633321396665e+02
2.497604439062697566e+03
3.037680001864877795e+03
2.816487384322177149e+03
2.920044074545047351e+03
2.972386289549182948e+03
2.753527579599320688e+03
2.461422963614379569e+03
2.255082199998302258e+03
1.997481590407594013e+03
1.578582272372995021e+03
1.051336050314962677e+03
8.137610974817325769e+02
6.098897972021421765e+02
5.377084528907291769e+02
6.692062365693612946e+02
1.119365157241533325e+03
1.409197944427505490e+03
1.525704235865269993e+03
1.521843881679666538e+03
1.712625004649045650e+03
2.176088251555670467e+03
2.271194730415856611e+03
2.317055597386183308e+03
2.330789541177906813e+03
-3.384020600059957360e+02
3.722684818807930469e+02
2.077456381484366375e+03
1.228484268363930823e+03
-6.174255297686523818e+02
3.827050449667851808e+02
2.826869881177264574e+02
3.675683889967663731e+02
1.483154493697233818e+02
8.783722819164369033e-01
3.928341656871017307e+01
3.704922782845852680e+02
8.783876374940764435e+02
9.610588986391370554e+02
1.463290193517959096e+03
1.941945733602720793e+03
2.384502594432293336e+03
2.395365632714766889e+03
2.452733923986023910e+03
2.606038996338344532e+03
2.493485044301621201e+03
2.323021657871945990e+03
1.943620010601827289e+03
1.662234233320047224e+03
1.208793469655234276e+03
8.562820647788463475e+02
2.806484480593190369e+02
-1.991936829582106157e+02
-4.062214743182474308e+02
-1.764514755543506226e+02
3.001048498246779559e+02
5.534568153245861595e+02
8.525564165433241897e+02
1.130384492717493458e+03
1.300938008612084104e+03
1.576155059865054227e+03
1.797067024778321638e+03
2.128601349625625971e+03
2.246745744289554295e+03
2.447509998495771470e+03
2.159869231684770966e+03
1.992814195180638080e+03
1.939307907932918397e+03
1.511287727602942368e+03
1.202775969325825827e+03
5.597137627679393290e+02
2.300621934070877614e+02
-2.624801354327674119e+01
-1.982237934852876151e+02
-1.808405684037192600e+02
1.018189963303760806e+02
7.088409106806435602e+02
1.407221369860384357e+03
1.370896632588862531e+03
1.555852054542004907e+03
-5.178817086413263269e+02
-4.150290967455495775e+03
-9.414380852166528712e+03
-9.356255186455695366e+03
-9.250873816607527260e+03
-9.332195272495640893e+03
-9.096236841909112627e+03
-9.297014828467881671e+03
-9.230559741784905782e+03
-9.164015981598582584e+03
-9.665223251128812990e+03
-1.043263720953092343e+04
-9.367759230525907697e+03
-1.733595495594816612e+03
-3.678526091202246789e+03
-2.175425817560402720e+03
-8.942303124219581605e+02
1.808166759306630411e+03
2.341831781977705305e+03
2.331644269365641321e+03
2.230621330422141909e+03
2.540811429525921540e+03
2.975212035700222714e+03
3.021856838912293370e+03
2.975753822362878509e+03
2.953911838051833911e+03
2.889358609787001569e+03
2.550100761037117536e+03
2.019168897101357516e+03
1.909517101754731129e+03
1.212120226438015834e+03
9.039617424008046100e+02
5.530661941027733519e+02
-2.756549825452763258e+01
-4.148442187077396284e+02
2.752688587677408236e+02
1.349757973602921311e+03
1.497685374443157798e+03
1.509023309653993920e+03
1.414817181485639821e+03
1.715087984301468168e+03
1.815874619987105234e+03
2.196239784662041984e+03
2.515219440746383043e+03
2.350780877835251886e+03
2.319957642880696767e+03
2.451785929381028836e+03
1.976308076695880118e+03
1.321525253075447836e+03
1.127406647560669171e+03
8.959675227949536520e+02
4.462604776163555016e+02
-5.071251055079113002e+01
-2.869264880215651488e+02
-2.593412020972156142e+02
-3.399014755124032376e+02
1.584064841790514322e+02
4.396593071718026522e+02
7.628443176310255467e+02
9.270202103452575102e+02
1.564298533579242076e+03
1.608665282122426788e+03
1.775067450763360057e+03
1.961428899303116623e+03
1.978865120938663040e+03
2.054989072302474142e+03
1.822232532152178919e+03
4.499131118888132050e+02
9.090572103931856418e+02
5.515742470287124206e+02
-5.557603217169415188e+01
-9.984011576965991708e+02
-1.772886058151302905e+03
-1.834110921868148125e+03
-1.640686399773315316e+03
-3.172872863595821400e+03
-6.308738935661953292e+03
-1.809031595908225199e+03
1.581906802607729787e+02
5.099852535209469124e+02
8.613741249071673565e+02
6.603308306721415875e+02
9.688781102603453519e+02
9.870399908621654959e+02
1.038838456705199633e+03
9.213679435991801938e+02
7.235970059972111130e+02
5.605902519463668341e+02
1.113122351476186793e+02
-6.062367801094749211e+02
-1.097069964252587397e+03
-1.344170266076576354e+03
-1.293595982485351442e+03
-1.388329400749492834e+03
-1.221356527176026930e+03
-1.032649789947850877e+03
-1.071183127981624921e+03
-6.049095610207403979e+02
-2.508158357772347244e+02
-2.899258068507113535e+02
1.317985056373338750e+02
5.433649343751691276e+02
8.087827089133385243e+02
1.033046218682490235e+03
1.015127175515206318e+03
7.710393239222437387e+02
4.038230346262370745e+02
3.524472545391502649e+02
1.248719311237731944e+02
-2.178950183416460789e+02
-6.618701770007806999e+02
-8.350894316724762803e+02
-9.056279268304882635e+02
-1.323471139270445519e+03
-1.474644747855282276e+03
-1.137094884772384148e+03
-8.538520188364464047e+02
-1.005956004023615492e+03
-1.118387530555898593e+03
-4.061900499308809458e+02
5.836439059101144267e+02
6.822983825198674595e+02
8.095150106789218398e+02
8.512657512852173340e+02
7.645877028206235764e+02
9.474494409947267286e+02
9.278409869457250352e+02
1.059730585473896554e+03
9.121072100934964055e+02
2.169254060428046387e+02
-3.978728297613821496e+02
-7.323125976331359652e+02
-8.984594130494534738e+02
-1.081326981478291373e+03
-1.059964744881689512e+03
-1.250392976241229235e+03
-1.327648424524420079e+03
-2.821801224729791556e+03
-1.348825109921472176e+03
-1.073680729554686053e+02
5.026468973508107752e+02
9.990184307732289426e+02
1.495400701379286602e+03
1.753884932284257502e+03
1.990413378828722216e+03
1.457636799524724665e+03
2.688947417524562411e+02
1.063960769822898328e+03
1.546123671520483185e+03
1.265039980680518511e+03
4.260606270156228561e+02
6.229113399780373150e+00
-2.243972847164267819e+02
-2.209188855116590844e+02
-4.686226115443133722e+02
-6.868561239657710757e+02
-3.372539355197570785e+02
2.150886769711837019e+02
8.795706020215891385e+02
1.002245250613736061e+03
1.362795873531793859e+03
1.582936178580639307e+03
1.793277967902507726e+03
2.192515977425988694e+03
2.384259221343444551e+03
2.243162403807450119e+03
2.175234899689993654e+03
2.020640419260082808e+03
1.831557099075808310e+03
1.040480469853040859e+03
4.444784535945798893e+02
3.710000105316752297e+02
-6.426527221344711904e+01
-4.658321119882760399e+02
-5.145437082338839900e+02
-2.750310302793639039e+02
1.061973044417028262e+02
4.253365630570446569e+02
8.041077108534242370e+02
1.201652247879535935e+03
1.387042531001529824e+03
1.718203124990790229e+03
2.142107588041589679e+03
2.261812055931024588e+03
2.365316302329872087e+03
2.551566027881640366e+03
2.219524211445099809e+03
1.705230578668227963e+03
1.423713940006762641e+03
1.470936499577832592e+03
1.002855110352290239e+03
9.794302181620864758e+02
5.946286711014844286e+02
3.064366306491119190e+02
2.758738249153698803e+02
3.109599226544797830e+02
5.116871534848696115e+02
6.310683063656651939e+02
5.881149052210918171e+02
1.683854728701815020e+03
1.531291297704198314e+03
8.433694614973001080e+02
-2.004625873198802537e+03
-7.637562608944760541e+03
-1.003081377694214825e+04
-9.527430016762118612e+03
-9.066019828917578707e+03
-9.428543813247735670e+03
-9.567121280784023838e+03
-9.577847951829135127e+03
-9.819681545408246166e+03
-9.720646386273261669e+03
-9.663690610249597739e+03
-1.001980063730327674e+04
-9.649001633723455598e+03
-9.398212423593844505e+03
-8.176454051800777052e+03
-2.554707207671725428e+03
2.237088648510078201e+03
2.348015805234343134e+03
7.211089935449475661e+02
3.170365392223510298e+03
3.716844013610031197e+03
3.921588552232358325e+03
3.935656907320343180e+03
3.936088026309626457e+03
3.823924370488623481e+03
3.778159493793434194e+03
3.374852525148474797e+03
3.008037703859564317e+03
2.308724157670211753e+03
1.644951695478289821e+03
1.619715171606418380e+03
1.533025131766144568e+03
1.413930252950327031e+03
1.516459539069514221e+03
1.510698272762225088e+03
1.862677510069098162e+03
1.741476411623366403e+03
1.808098894413036305e+03
2.246647291987487279e+03
2.395212673294386605e+03
2.872892520510553368e+03
3.044710892488523314e+03
2.796699845476680821e+03
2.831934519310080759e+03
2.968380776359135780e+03
2.830090913362575066e+03
2.432086033290596788e+03
1.871406406249264364e+03
1.545042427119208924e+03
5.740080447561405208e+02
3.453207771839091720e+02
2.610370593610832088e+02
-2.983607714664687549e+01
-2.302446440350243222e+02
-9.115474118180273422e+01
2.707251006323888873e+02
8.406464948213023263e+02
8.857410244944813940e+02
9.155680490074864792e+02
1.186094547670945758e+03
1.499677219101657556e+03
1.668505132944479101e+03
1.649647964518945628e+03
2.161484380402450540e+02
-1.636103171185814517e+03
1.155086978848235958e+03
1.569810786430768985e+03
1.343965970132822804e+03
6.311612352558121302e+02
-3.802459372090623901e+00
-6.569310312620218610e+02
-7.967756390553414576e+02
-7.475887602294008047e+02
-6.134454733681923244e+02
-5.633449846400089882e+02
-3.102642856298082847e+02
-5.917867564493826649e+01
2.469259212519567654e+02
4.510871996742621945e+02
8.343420009052141495e+02
1.178692355592427475e+03
1.375116413475795753e+03
1.475639106912303077e+03
1.622278629952162191e+03
1.322041060437328042e+03
8.500053087934126097e+02
3.211766202254706855e+02
-1.654880297866390606e+02
-4.639484643468132958e+02
-9.091639912344651293e+02
-1.330216520663577739e+03
-9.721899512506799965e+02
-1.137078693213348515e+03
-1.339960585281480689e+03
-1.334832234942947707e+03
-9.777203409811530719e+02
-4.566149086623219659e+02
2.743742767920898373e+01
3.864862057332098857e+02
2.676093317851056668e+02
8.227692540749552563e+02
1.093956317493338929e+03
1.278219337222236391e+03
1.108560644581383031e+03
7.369537378256618467e+02
7.934811415889060981e+02
4.010350297650440439e+02
-1.384829153350458455e+02
-5.941167235045759298e+02
-1.010903164028919036e+03
-1.464869239718445215e+03
-1.368119599300806613e+03
-1.671651697528918703e+03
-1.880499467297601541e+03
-1.409657327484412235e+03
-1.003162816138091557e+03
-1.902000009860199953e+03
-4.892171237187551014e+03
-7.246716956131003826e+03
-1.774612172456504823e+03
-3.807866401154814412e+03
-2.235430848101570973e+03
-3.162729733061719344e+02
7.894571994559048562e+02
9.677697195615959345e+02
6.655347712868359622e+02
6.478386284751029507e+02
-1.194315859295044902e+03
-6.469792339518032804e+02
-6.062116999844075735e+02
-1.726025521723760448e+03
-1.032311941759487581e+03
-1.120594453626732502e+03
-8.088553216205765466e+02
-3.999908572328483274e+02
-4.219847088100014503e+02
-1.868448006088639204e+02
1.673634581598194302e+02
1.896459627443960017e+02
6.109380460118924248e+02
7.011929404138452355e+02
1.417409900648726989e+03
1.838533290798945927e+03
2.002545742184302298e+03
1.806476878886318218e+03
1.933263982010249720e+03
1.699773910557160889e+03
1.128000348411917457e+03
6.619634644074823200e+02
1.686185450849924337e+02
-3.310834354014143628e+02
-6.771532507270774204e+02
-5.896304191372995547e+02
-6.975992613206308306e+02
-3.220743108129686902e+02
3.188140190025228549e+01
4.122641286365678752e+02
6.671031038884741520e+02
1.126451373930960699e+03
1.335324284397522661e+03
1.816696168666541098e+03
2.088521140842608474e+03
2.131809779480864563e+03
2.205568184488500719e+03
2.305706737274575062e+03
2.020208336431695216e+03
1.731069833544041785e+03
1.311210748222531493e+03
5.597162970227581127e+02
5.495946145365076063e+02
1.877563893537861759e+02
-1.736425649649986269e+02
-3.106868151963594187e+02
-4.375048206558219590e+02
-4.381703204214109064e+02
2.642999511881525336e+02
7.009787720966987763e+02
1.000862676212035012e+03
1.332953190538642730e+03
1.593276121218124672e+03
1.861843660392368065e+03
2.029706935833472471e+03
2.328791676544390612e+03
2.375077073454280708e+03
2.069671890013126813e+03
1.977610667933518243e+03
1.745872956552191908e+03
1.462448029981363106e+03
1.076337407154852372e+03
5.945262609145337365e+02
-8.006860496673835925e+00
-1.908468879810819089e+03
-6.313574344033239868e+03
-8.159128845746467050e+03
-5.364106703023793671e+03
-1.629674993334572491e+03
-7.314893710369400651e+03
-5.682740948441678484e+03
-5.556193079261837738e+03
-3.067199736352024502e+03
-2.448687509072808552e+03
-1.542656156944239683e+03
-4.083240515272548237e+03
-2.701446000905472374e+03
-1.938250192304621351e+03
1.157451930230806056e+03
-3.511337600365129674e+03
-2.599600360644395550e+03
2.246289351145745741e+02
-4.898631839181354735e+03
-2.645284474052755741e+03
-9.212878997191058943e+02
-3.157686950386444096e+03
-4.505531156277310743e+02
-6.576859709066771757e+03
-2.166589012849821756e+03
7.273648636437415007e+02
-2.029025307070547342e+03
1.719240788800055725e+03
-1.903771106509504307e+03
-5.301050526818816252e+03
-2.609550964453861980e+03
3.021764024482002696e+03
1.788872326116260865e+03
-1.106084088423447156e+03
2.779881702115939675e+02
2.690966942656195897e+03
3.167794397318073607e+03
2.655486265397996249e+03
1.973043999609121784e+03
1.847486759818062637e+03
1.851836749015602209e+03
1.122088527320305047e+03
1.030284869667962539e+03
1.421501652326601288e+03
1.421725836764676387e+03
1.227967214071355329e+03
1.683193504984108358e+03
2.311382152669876177e+03
2.536661873639487112e+03
2.324126219166251303e+03
2.500777080672389275e+03
3.028586551388157659e+03
3.501472458712335992e+03
3.563289001671562346e+03
3.262033756468756110e+03
2.693648300457781716e+03
2.249563628856638843e+03
1.909982356080196496e+03
1.613873941249465361e+03
9.592259663258025739e+02
4.901321014122884776e+02
3.796162553963604864e+02
1.996213247791338858e+02
-1.499043054701868414e+02
-1.607645899897378058e+03
-2.966715807705181305e+03
6.219815048334512539e+02
1.095708984953830850e+03
-2.069715648794278877e+03
-2.208237769065188786e+03
1.085726249788509222e+03
2.223972960571953081e+03
2.232891433019842225e+03
2.215456154290368886e+03
1.556681083727775331e+03
1.340548958850227791e+03
1.311146768514084897e+03
8.685092338026965990e+02
7.085109689848907237e+02
3.550419584032512148e+02
-1.249991700970589221e+02
-2.059804810608690389e+02
1.129155221799854125e+01
3.921581063153415130e+02
4.970486503850926283e+02
7.028021270725355407e+02
9.935211546677982142e+02
1.383311243266781048e+03
1.953102260476346601e+03
2.483842499589694398e+03
2.539427675933124192e+03
2.549895515584595159e+03
2.476251146673247604e+03
2.175409075638151080e+03
2.322367878379243848e+03
2.264082703133788527e+03
1.621599198265753330e+03
1.052053706186873796e+03
1.993106722999416718e+02
-3.208443664327211877e+02
-9.773877924676028215e+02
-1.284329607778943910e+03
-2.059713963149009487e+03
-2.385458437349223004e+03
-1.974561190669001007e+03
-1.224977437863731438e+03
-4.677065392401970030e+02
4.551225091161101091e+02
1.641520111785843937e+03
2.096461469091879280e+03
2.332899738077126131e+03
2.575793058613021003e+03
2.903105580977408863e+03
2.646832784410461500e+03
2.146009785352235212e+03
1.537705659054796797e+03
1.523842600815627975e+03
1.349434124920021532e+03
6.124513739500835072e+02
-1.311316847296743049e+02
-2.283960534770735649e+02
1.776124360339263148e+02
-1.066136264593541682e+03
-4.330642272499376304e+03
-9.455874045720822323e+03
-1.154375027425366898e+04
-1.155327131911637480e+04
-1.149249541124700409e+04
-1.093245810180515400e+04
-1.222604503376108187e+04
-1.216474747747665606e+04
-1.160304177578329109e+04
-1.057888313896504587e+04
-6.477377265135235575e+03
2.564410599130648620e+02
-2.222478131948696046e+03
1.113958134353526020e+03
3.742755038665953180e+03
3.844980890047199409e+03
3.246600104978965192e+03
2.499666129857309443e+03
2.222014267603075950e+03
2.161662808950242834e+03
2.117641416122502960e+03
2.364972829761620233e+03
2.619632476880743980e+03
2.468581788236520879e+03
2.182903970797072816e+03
1.663538390473232312e+03
1.418482589699022128e+03
1.440866955827278616e+03
1.838739464714743917e+03
1.589104261185468431e+03
1.490978868640135261e+03
2.102386223420829538e+03
3.059357781611382507e+03
3.881929297931879319e+03
4.278077103685100155e+03
3.645853533552429781e+03
2.886272278552989974e+03
2.144345229305456087e+03
1.322029877038763971e+03
1.263204073347956324e+02
-4.867216774172903797e+02
-4.800978892008331513e+02
-7.037348505320005643e+02
-7.216724915452496134e+02
-5.448888723508106295e+02
-4.102737537638124650e+02
4.328033349730534241e+01
2.041814818777911114e+03
3.016268978974977927e+03
2.976751236354593402e+03
2.823254572312524942e+03
2.724826592062464897e+03
2.448530678885213547e+03
1.660399225997444091e+03
9.324363770543226337e+02
1.469307474965375704e+01
-8.147804547565748408e+02
-1.392031167469301408e+03
-2.095038101921415546e+03
-2.478660405800600984e+03
-3.103686227297363985e+03
-3.312116359884998474e+03
-3.239507440356843745e+03
-2.388222786932518829e+03
-1.925529597773947216e+03
-1.128474107511673083e+03
-4.080166693181109849e+02
-1.359045844482148823e+03
-1.471338233017535458e+03
-1.160965524862516759e+03
-3.158747302492930658e+02
7.128675535493905500e+02
1.955016778433458171e+02
-9.009746692314906795e+02
-5.496989012444946638e+02
-1.250605056391478911e+03
-1.648708441319635767e+03
-1.340992184945206191e+03
-1.195428933916315600e+03
-8.970102562331097715e+02
-2.327134475801234146e+02
1.974712378163525841e+02
3.315412863947859705e+02
8.235754962843892599e+02
1.093570718283332781e+03
1.230516795571030116e+03
1.825481303897530552e+03
2.215502489196850547e+03
1.383564713712931734e+03
9.707102654534355679e+02
9.979626427396187864e+02
1.115339448934274742e+03
1.042843552618307513e+03
9.594998378990541141e+02
1.310340641942810862e+03
