3.445979604314228482e+02
-4.230333577261700952e+02
-6.683390145654556136e+02
-9.453134451232980382e+02
1.941296960652980204e+02
9.170140658688180793e+02
1.009361262773902695e+03
1.801252529887599394e+03
2.111776481278231586e+03
1.845935073945783870e+03
1.857715067865620085e+03
1.738100550954090977e+03
1.746142398383672571e+03
1.307813286631397204e+03
7.220881183297383359e+02
1.421969380899800171e+03
1.654502531647391834e+03
7.706962145319456567e+02
-4.815005440067526479e+02
-1.053129680875196982e+03
-1.337186535315298443e+03
-1.523651027549687115e+03
-6.884304261154510414e+02
8.159957242844131997e+01
6.374859865079140491e+02
6.173908309135024410e+02
8.691117709974211039e+02
1.311686055692403897e+03
1.541235794740773827e+03
1.544585779665398832e+03
1.479803564258842016e+03
1.473276957347287180e+03
1.228095394056741270e+03
-6.679995002494760001e+02
-1.458116944667435291e+03
-1.324051644942480834e+03
-1.691767096618412779e+03
-2.074028245456217519e+03
-2.668873860659936781e+03
-2.066831570070490670e+03
-1.940205484485221348e+02
1.074403481415470765e+02
-6.624807302762202426e+02
-5.137380967863348360e+02
5.496507710931248312e+02
1.235687826748531734e+03
1.641424005920549234e+03
1.999940017530067280e+03
3.337161082081735458e+03
4.506072824665835469e+03
3.831765107208232166e+03
2.640250528198741904e+03
1.869516121280431889e+03
1.223536016200959011e+03
7.672608269979431270e+02
-9.433396825565664301e+01
-6.782474151533451732e+02
-1.260545602398459096e+03
-1.834255206770420500e+03
-1.519367848545251036e+03
-8.678564204065876311e+02
-9.597311730633978186e+02
-1.209982664849525690e+03
-9.646958864414502841e+02
-7.238814849412326566e+02
-7.665205847397241996e+02
8.732452115489454059e+01
1.275705645472741935e+03
1.499629865881205660e+03
1.251121416581030871e+03
1.316192211575884812e+03
2.082800419539741597e+03
1.252937242733258927e+03
-2.732070542554746240e+01
-6.899826155037526405e+02
-1.414961401573209969e+03
-2.017409011766096910e+03
-2.599504887458947906e+03
-3.127268526856463268e+03
-3.225813811357815212e+03
-2.816132863275286127e+03
-2.266186220291478548e+03
-2.142997172789471279e+03
-2.048606572863040128e+03
-1.628038182580132116e+03
-7.492677921907210248e+02
-3.632317349889955267e+02
1.351121560901467547e+02
1.716753413377228298e+03
1.709609830043940065e+03
1.763705771732825497e+03
1.820049506624609648e+03
1.637619144865373983e+03
1.135351863368553950e+03
7.722747312022994493e+02
-3.864426300103626488e+01
-1.251469965574934577e+03
-1.464303421039105842e+03
-1.812804610500369108e+03
-2.124185261650851317e+03
-2.657680615890703848e+03
-2.469188530363384416e+03
-1.691674264544685911e+03
-1.420250266471173973e+03
-1.085061688196266232e+03
-4.760831286675848446e+02
4.201676193838645901e+01
7.521039212855549749e+02
1.795945863972383677e+03
2.032853447247045096e+03
2.016532094975937298e+03
2.322992497649788220e+03
1.844462547376614111e+03
9.288956366242947524e+02
-1.289823808538801586e+01
-6.570213763737452837e+02
-1.507271876456343534e+03
-2.305419543499564952e+03
-2.585782330121839095e+03
-2.644804226882010880e+03
-2.461239265181814062e+03
-1.637982848610274914e+03
-6.031810448529460018e+02
5.323802265788559680e+02
1.102518939259973422e+03
1.485331710139473216e+03
1.925024094078288272e+03
2.288258056049734478e+03
2.514254795656444458e+03
2.728842802901810501e+03
2.194249973111575855e+03
1.957160686481385483e+03
2.099677723197624800e+03
1.807830399813274198e+03
1.514584627176175445e+03
1.355916462573124591e+03
1.166730124974267028e+03
7.349991260547412821e+02
-1.099959223548359404e+02
-9.224863860383392193e+02
-1.409566534169337729e+03
-1.335274454741894033e+03
-1.015434033227318992e+03
-3.560803686960478558e+02
4.757420899344297140e+02
9.440251141822867567e+02
1.097734974755617941e+03
1.447875338010029054e+03
2.117464504304010461e+03
2.080621716722809651e+03
1.961268690753241572e+03
2.030390197808522771e+03
1.684037667497085067e+03
6.783488761980424897e+02
5.563030380075086896e+02
6.097388939327886419e+02
1.705778278850897323e+02
-1.341433962854621882e+02
-2.712738792885184012e+02
-7.007714264323428779e+02
-1.648749775143019860e+03
-4.308197271300593457e+03
-3.514235818695685339e+03
-2.404949703251682877e+03
-1.960283969939145436e+03
-1.806207144803819119e+03
9.483699432447655226e+02
1.860834802637261376e+01
1.665044515555103999e+02
7.898142720194502431e+01
-5.889806385247928802e+02
1.152699629137005331e+03
1.295015830037485330e+03
-1.662980587780233918e+03
-1.574310478673833586e+03
-2.493913467387274522e+03
-3.237811981158442904e+03
-1.020117460390676229e+03
-1.219847561880717876e+03
-3.192984095606841038e+03
-3.991510995827049555e+03
-2.519398147302088091e+03
-4.977069375432028551e+02
-2.075430160328845886e+03
-1.073484194507484062e+03
-1.197466944255351819e+02
-1.479192626259520694e+03
1.070115834117470285e+03
-1.429760551156464999e+03
-2.427962976256886805e+02
1.028061144702466891e+03
2.077855819481067670e+02
1.992389347824447213e+03
1.972940802838119453e+03
1.474445647721684281e+03
7.717447801280490012e+02
2.567780038417349715e+02
-3.243951090273400837e+02
-9.306504143187280533e+02
-1.504842761028937048e+03
-1.486130791768806603e+03
-9.524797021062158819e+02
-6.748369480769138136e+02
-1.803453401096572293e+02
2.179631809043096382e+02
7.452239510588954090e+02
1.513445905487418713e+03
2.182670346655635058e+03
2.515971698042697426e+03
2.493397272821343904e+03
2.662880143613487689e+03
2.468448387143779655e+03
2.226226502299306503e+03
1.357185459380369821e+03
7.604375873820640663e+02
3.741347477334248879e+02
2.651131241584332656e+02
9.838055677957805756e+01
-1.106996703572364822e+03
-1.206067182905781237e+03
-1.156751164487302958e+03
-1.264976080632252206e+03
-1.241907832446757538e+03
-9.047809377190114901e+02
-5.625371666175605014e+02
-4.240611904649145458e+02
5.147072517471821129e+02
1.225819393425306771e+03
1.995295123469872351e+03
2.420156368532802844e+03
2.399347270906976973e+03
2.558891816581020066e+03
2.603895120405951729e+03
2.294286841787949925e+03
1.425037943497174865e+03
8.010869413905295460e+02
3.929013974889870298e+01
-4.902632899789454086e+02
-6.756070561175681632e+02
-7.587097699457214048e+02
-1.133543280485790547e+03
-1.692161213063005107e+03
-1.624950057074177266e+03
-1.130911177511912456e+03
-8.290836620494752651e+02
-4.501254223715522471e+02
8.832181906113531156e+00
8.117400283031840900e+02
1.730724217293267202e+03
2.025807391697239154e+03
2.663892586068034234e+03
2.788941465669464833e+03
2.167942187312145961e+03
1.931988401943318195e+03
1.385925490408096039e+03
8.247239987357953623e+02
4.194707274228651954e+02
1.107669129376569916e+00
-3.963910640650656774e+02
-7.740685938635409684e+02
-1.067930249255283798e+03
-1.353090046509154945e+03
-1.308472977255159321e+03
-7.630084229465353474e+02
-1.627952806721284560e+02
1.201460120387425548e+02
6.848441864102762793e+02
1.374261890121902752e+03
2.118408558844131676e+03
2.382272109433984951e+03
2.564908869151735871e+03
2.508388280664034028e+03
2.277622562854954595e+03
2.007585824783279804e+03
1.551295068015969946e+03
7.567665747220265757e+02
9.698402716143020541e+01
-5.780911968512214116e+02
-8.785207875967331574e+02
-1.086403325866998102e+03
-2.463743330871932812e+03
-3.391504636959412892e+03
-5.563589924343817984e+03
-7.388975960761830720e+03
-6.827725139367100383e+03
-5.149869059005363852e+03
-4.982488679255318857e+03
-4.571547304840210927e+03
-3.180970331549026014e+03
-2.838726257534930937e+03
-3.553617203722342765e+03
-1.491736133494069236e+03
2.504791760477761727e+03
1.491981536989156666e+03
-6.311794818781958156e+02
7.643603138771204613e+02
8.985114695517573864e+02
7.440943089700851942e+02
1.841808416365195455e+02
-1.871176854352151224e+02
-8.628535786942547929e+02
-1.240125677683115327e+03
-9.598675629900972126e+02
-4.751100354375253687e+02
-4.683379810685229216e+01
-1.110224578444789501e+00
3.311204131409921274e+02
8.680063461208135323e+02
1.236640164120722375e+03
1.630015482048222793e+03
1.920078785367212731e+03
2.078812811105828587e+03
2.292319775561772531e+03
1.838568047563498794e+03
9.375836736917980261e+02
1.514331012780097296e+02
-3.740205650891452933e+02
-5.478843901797990839e+02
5.885929124266242596e+00
-8.366112551143834253e+01
-2.165506797635781027e+02
-9.568492292975969349e+01
-5.180534840483358039e+02
-6.677357781707956974e+02
-7.527732732332074193e+02
-4.170383695155141481e+02
1.748960089535110285e+01
1.182684925630275430e+01
-3.740220227007216636e+02
1.320548387462993105e+02
8.860821371653754568e+02
1.446142835954436805e+03
2.251285133880398462e+03
2.585453476951579887e+03
2.372608073214464184e+03
1.558777089595439520e+03
9.449647792706188056e+02
9.000803671974593954e+02
6.961039677406457713e+02
3.570681326433060008e+02
-2.040174952003216902e+02
-7.832631453129664578e+02
-6.556710942155061730e+02
-4.970248622085355237e+02
-3.912130700079777625e+02
-7.180425447181922891e+02
-9.446389253218291060e+02
-2.921487071168982652e+02
5.215275854865146812e+02
5.324914118754079482e+02
6.807062044718333027e+02
8.041404632774405172e+02
8.578672364764970553e+02
-5.969817394594196003e+02
1.414893241196164695e+02
8.922539530173538651e+02
9.552980242466065874e+02
6.366966504399118776e+02
-5.156590540504472528e+02
-1.550843104902897267e+03
-1.722814416215673646e+03
-1.709557164416195064e+03
-1.729045870668198631e+03
-1.631206171514619655e+03
-9.140436632044199996e+02
1.638639943109365404e+01
3.681364181668772630e+02
1.142628576627216432e+02
3.907534213454899827e+02
1.160695696552470963e+03
1.451165661284881480e+03
1.089177426591340236e+03
9.627187858428503660e+02
1.074825959841837630e+03
1.216513961132359100e+03
2.147295711951403518e+02
-1.086593491347496638e+03
-1.688445282612744222e+03
-1.643898753331117177e+03
-2.031002246047451536e+03
-2.715746657247423627e+03
-2.908089999792804065e+03
-2.956047202611213834e+03
-2.927623501561864941e+03
-1.871786469234348260e+03
-5.355169059881181965e+02
5.451970248028632113e+02
7.804504230238925402e+02
3.202752332027030775e+02
5.496269277082255940e+02
9.035029476166507720e+02
6.238720024371591535e+02
9.979942388826191291e+01
-4.473191975380157714e+01
4.682488455405568288e+02
-1.102324614045827786e+02
-2.142183420384152214e+03
-3.159630776856058219e+03
-2.200633047641451867e+03
-1.363245586343224886e+03
-6.685303325078408534e+02
-6.147634115108588304e+01
3.969404222820153905e+02
4.557350361094686946e+02
3.198726603182618078e+02
8.923386009283995008e+02
6.212174716764484401e+02
2.255339695408480054e+02
3.512270406895348174e+02
8.932814245307087049e+02
1.453805586512188938e+03
1.453768419478732540e+03
6.830499532093828066e+02
-2.752827173629154345e+02
2.207506092272186606e+02
1.180039360077591255e+03
6.545324436140847411e+02
6.751765902719378118e+02
5.813020795378014327e+02
3.387308758329397733e+02
1.921546466738713548e+02
-3.441529210056218631e+02
-1.901146576125624961e+02
7.690653868039036070e+02
8.993761729376439007e+02
3.806883061221653861e+02
-2.878683208871419197e+02
-7.804982524530727517e+01
6.627996239327328567e+02
1.333530223762535115e+03
2.021613282318460278e+03
3.360801471514923833e+03
4.455082269319544139e+03
4.596493331954369751e+03
4.039879672057541484e+03
3.284115402362033819e+03
2.628569496107825216e+03
2.017083521383292691e+03
5.142313316350591776e+02
-4.548339941406251228e+02
-7.931826542070494952e+02
-1.054760954741603427e+03
-5.756953784729449808e+02
-2.478152086351682328e+02
-6.330430587800577058e+01
4.649606838416037817e+02
9.180280698858848609e+02
1.383714485506374785e+03
1.915021302766136841e+03
2.565849523090957518e+03
2.544414425871887943e+03
2.426611727207813601e+03
1.616452763270394826e+03
1.248905553910416529e+03
8.869625338340422331e+02
9.425883676043227979e+02
5.647522077456188754e+02
6.893829139791789657e+02
6.994503596273218591e+02
2.595940848367908060e+01
-6.991709077667670726e+02
-7.069734704646011778e+02
-6.604582637913230201e+02
-8.226926930080718421e+02
-5.806180087609533302e+02
6.769841926821079880e+00
5.124850782014830202e+02
9.065029804427875888e+02
1.043842770746378392e+03
4.395789552249566441e+02
-1.182227654074171426e+02
-1.667609611807438796e+03
-2.854588998973943490e+03
-3.029178313746450385e+03
-3.782404775605671603e+03
-4.492288181949956197e+03
-4.328892438727254557e+03
-3.926192676096061859e+03
-3.949190771486643825e+03
-4.698919520524851578e+03
-5.421407229372162874e+03
-5.600608841318376108e+03
-5.704541093525840552e+03
-5.620223717995750121e+03
-5.227603803302184133e+03
-2.265742981046271325e+03
-1.267622855794264524e+03
-2.895165153439207643e+03
-2.502404501623814213e+03
-1.626293428156064465e+03
-8.357897964477202777e+02
-7.097997581083620844e+02
-1.807307645011170280e+03
-2.189313752161610864e+03
-2.256858385273914791e+03
-2.922921776688460341e+03
-3.011537029203162092e+03
5.130316783112785117e+01
1.674648387974880279e+03
-1.467614066133872711e+03
-2.959499949816278331e+03
-2.289732205646240288e+02
2.649388154270511109e+02
1.693168185044351901e+02
9.611604719679004347e+02
2.042439705079192890e+03
2.503225305780719282e+03
2.281513882155102692e+03
2.071345812764699986e+03
2.772856225755223932e+03
3.282013656636810083e+03
3.574909355389350367e+03
4.280534062426120727e+03
4.282895412338004462e+03
3.731980686416943172e+03
3.027800102901302580e+03
2.117360947254369421e+03
1.199677939667796863e+03
1.100794479442398597e+03
1.591718521178170931e+03
1.882456153116463156e+03
1.742984696629951941e+03
1.495323041211111104e+03
1.062496889948276248e+03
6.275028318607696747e+02
1.632866053659789998e+02
-4.004823861839024346e+01
5.455975552853176396e+02
1.660241034140475904e+03
2.488887261481874248e+03
2.592573010049374261e+03
2.379382936716091535e+03
2.530380026823495427e+03
2.522560375477452908e+03
1.802904165500980753e+03
8.333432330728311399e+02
-1.931722581967287908e+02
-9.242913336876292760e+02
-9.159457082779927077e+02
-1.160021283138222827e+02
4.224774767419356181e+02
6.023196452940062500e+02
-5.074627089069471708e+02
-1.432496797722524661e+03
-1.423961680892521144e+03
-1.213158709591113393e+03
-1.869893044306050740e+02
6.996696948882226934e+02
1.033615212975855911e+03
1.143486267880118248e+03
1.030927533846798951e+03
1.315066415961095117e+03
1.797513559949675937e+03
1.653383132015826050e+03
1.080688988846905659e+03
6.884633623323769598e+02
3.697026462994564326e+02
-2.805426293089977889e+02
-3.403373135684163344e+02
-1.075720559528386048e+03
-1.748674727371384506e+03
-2.378254546838230453e+03
-2.228389707029924921e+03
-2.002066008299405667e+03
-1.334328858036209112e+03
-4.851369184285061920e+02
-3.504768654916273931e+02
-4.883147472679678458e+02
6.834400541205451418e+01
3.175195412475029002e+02
7.462881443403865660e+02
2.020701213397677748e+03
2.540760793889083288e+03
2.064438897930084295e+03
1.210700191743475898e+03
4.494529353809365375e+02
-4.892909240157970885e+02
-3.525506598349141427e+02
-4.822968771516597144e+02
-8.455262941267493488e+02
-1.426301166868210657e+03
-1.395609203462912774e+03
-1.813468222491961797e+03
-2.007877411263174281e+03
-1.487822186062918490e+03
-1.235225703974635735e+03
-1.612163783860919466e+03
-6.856829164788846356e+02
7.372185405674404137e+02
1.505502634104291474e+03
1.566217261412935386e+03
1.765407305138513721e+03
2.300128838689382974e+03
2.099366629595138875e+03
1.658053443682571469e+03
9.732041095008941056e+02
1.073596769538609941e+01
-2.649312144204766810e+03
-5.677867293205074930e+03
-7.075065985611514407e+03
-7.277964474702722327e+03
-3.410620773975525481e+03
-2.098970665251350056e+03
-2.751999092700573328e+03
-2.381769374141040316e+03
-9.563590606390591802e+02
-3.656692268302289222e+02
-2.766987514179596701e+02
-8.419090407892516836e+00
1.300157465328149101e+03
2.196143058417238080e+03
2.542382818551460332e+03
2.547753630401985447e+03
3.112175087519374756e+03
2.853026199809397895e+03
2.083135584988049686e+03
1.096528832642078669e+03
3.522089262848843561e+01
-6.937501487334087642e+02
-6.627414802092287118e+02
-4.836837801832406285e+02
-6.033513697108076030e+02
-9.071573162734787275e+02
-9.128624664523320007e+02
-8.695448267583777806e+02
-6.231155414126925507e+02
-5.675064826163047371e+01
4.317494246997711684e+02
8.621405950302201973e+02
1.385907165619959642e+03
2.009765059833220903e+03
2.395512585264182235e+03
2.062389112240668510e+03
2.023428552808639097e+03
1.736612086500224223e+03
1.126870565187102329e+03
8.620533009009501484e+02
6.933774674990800122e+02
1.275750229860598495e+02
-5.511349425205488615e+02
-9.759793051823783117e+02
-1.367111787996691191e+03
-1.697725616256072271e+03
-1.675446620688082248e+03
-9.780889963706890740e+02
-3.198555734709266858e+02
-2.281106008938953522e+01
-1.770046971279933246e+02
7.016464315446434057e+02
1.548196054527194519e+03
1.906647145847425918e+03
2.161949016530380050e+03
2.261145257859755930e+03
2.281365221676220699e+03
2.147502807131505961e+03
1.625409532799896851e+03
6.982979656475628190e+02
2.049326174434061443e+02
-1.776949917639218199e+02
-5.946118790810623977e+02
-1.222818641514317733e+03
-1.607293304666710583e+03
-1.442134282592840009e+03
-8.402702651650785128e+02
-5.986774780872825659e+02
-8.694348746962931500e+02
-4.095964516951501082e+02
7.648347650749584545e+02
9.167832370482051374e+02
1.700698807505031027e+03
2.704520804880595733e+03
2.749072005152219845e+03
1.882287059788740635e+03
-5.886674946710428458e+02
-1.182845958523838590e+03
-6.292532879872857166e+02
-3.548846686862147180e+03
-3.573649424869121049e+03
-2.449671143269462391e+03
-3.020113098062744825e+02
-1.363783778098978701e+03
-3.277831685000460766e+03
-3.854074246668141313e+03
-1.514561473022680730e+03
-3.433839137705093094e+02
-2.311539438907874683e+03
-1.620981141297882687e+03
-1.016700765503305661e+03
-1.395752176515184829e+03
-1.069158136507098561e+03
1.020190987346207976e+03
-2.746375272991120369e+02
1.452412028987205304e+03
2.633377545012340306e+03
9.332437875995100285e+02
2.489081813355328450e+03
-2.731527848141079744e+02
1.214877018278441625e+02
-6.880730506666892552e+02
-1.646920604295258954e+03
-6.479726894983508600e+02
-3.049182140634186908e+03
-1.143594669354825555e+03
-6.302311477486520062e+02
-2.016040686255209039e+03
-1.889047296586734319e+03
-1.011910300127349416e+02
2.995561586535160359e+02
8.201892371949069229e+02
1.307862818168807962e+03
1.842529637728182252e+03
2.062090967566793552e+03
2.003427964181265224e+03
1.722696774402737219e+03
1.830005807024795331e+03
2.102360090352585303e+03
1.846740547121849204e+03
1.258207239881818396e+03
8.218034317073934290e+02
-1.005809268756075738e+02
-1.791451980649123925e+02
-3.239903165000746412e+02
-5.471059529274530178e+02
-8.554327220519274988e+02
-1.303927196172067852e+03
-8.256043548117837645e+02
-4.242116661525631116e+01
4.486742805695242282e+02
1.150955583770740304e+03
2.131545897207530743e+03
2.975452604047006389e+03
2.450811187068002255e+03
1.962794008601443011e+03
1.913496983763312983e+03
1.673650895313014189e+03
1.042874639091169001e+03
2.311263754214203914e+02
-5.561628957599056378e+01
-8.612831517185912844e+02
-1.158764520710876241e+03
-8.331441109322128113e+02
-1.104334353506195612e+03
-1.494579912825349993e+03
-1.405690763348152359e+03
-1.695699975753529316e+03
-1.605713526734529978e+03
-1.456586445224610088e+03
-8.442513114113882011e+02
9.537156168880181895e+01
8.044768069138017381e+02
1.063006582052245449e+03
1.839935974028941473e+03
2.297318079125705481e+03
2.450011574828565699e+03
2.879878295568534213e+03
2.264050161767075679e+03
1.639567857860887216e+03
1.077175196682363776e+03
-6.737928485147675417e+01
-3.619755184490980469e+02
-3.936629025432335993e+02
-7.305626420288457439e+02
-9.166824026584496323e+02
-9.459817152344000988e+02
-1.145387750641711818e+03
-6.298914632605021779e+02
-4.017320112987694642e+02
4.821828481464477250e+02
1.027973936283843614e+03
1.606596818789673762e+03
1.757106130722264197e+03
1.730761308104390309e+03
1.434755395458606927e+03
9.841398777300423717e+02
6.809564287484965917e+02
4.628083518952870463e+02
6.473339194176537603e+02
4.966926982944065685e+02
4.905290685356452229e+01
-7.557938332398074444e+00
-1.112077448668614181e+02
-1.091860617236148300e+03
-1.571430326518272523e+03
-1.092869805648075499e+03
-8.122789002864209351e+02
-9.524598153538745464e+02
-1.046573706078286250e+03
-5.707789684593242328e+02
8.207268718448052880e+01
5.020409661318571466e+02
2.388697122413207126e+02
-1.122475536240710198e+03
-3.903791398707445751e+03
-4.224971856026644673e+03
-3.760193758761573463e+03
-3.360504979083524631e+03
-4.216882049399420794e+03
-5.583385453064747708e+03
-5.786110648277925975e+03
-2.222989870223319485e+03
-6.998471106490869431e+01
-5.150336580387670438e+02
-7.710325613898780830e+02
-7.450452748385553150e+02
-4.980763171484293821e+02
-2.566113561373887478e+03
-1.246073521351239151e+03
4.050315237325215207e+02
5.600923271349920469e+02
1.068102346384435577e+03
1.443021814096488470e+03
1.687955792272332701e+03
1.896952182260617974e+03
2.289021406918890534e+03
1.918174891304210178e+03
1.500437284600055591e+03
1.475915543433054609e+03
6.156069432887886705e+02
7.446939893438383251e+01
-1.235443790137408513e+02
-7.744515562875593560e+02
-1.155336244107566245e+03
-1.397251653530253179e+03
-1.308173635349313372e+03
-1.433023540042830291e+03
-1.248797241276040722e+03
-7.454712348083110101e+02
-9.504390171711681035e+01
6.334410754567454660e+02
1.265074263857921778e+03
1.877899185381401821e+03
2.241977297629830446e+03
2.259424798421985543e+03
1.956256744259641664e+03
2.337294555730288266e+03
2.270593152941458357e+03
1.556361581810149801e+03
9.177822343300972534e+02
4.179548767188007901e+02
8.378651827015296760e+01
-5.032231448893447237e+02
-5.501366174631355079e+02
-6.039997745896216657e+02
-7.976785331675911266e+02
-9.621353531828690393e+02
-1.162357966414351722e+03
-9.971780409182581479e+02
-6.384069493961931130e+02
-8.821899862885234711e+01
5.323413608139993585e+02
1.031347546522281164e+03
1.822838552320451072e+03
1.544788078877614907e+03
1.524143709322068617e+03
2.553159972164829924e+03
2.802057448770421615e+03
2.561688564776684871e+03
1.555938539724037355e+03
8.466089361904064390e+02
3.579337566346493418e+02
4.168620214593323681e+01
-9.352827436788018076e+02
-1.376573512096796549e+03
-1.590179904420803496e+03
-1.270252816265878891e+03
-9.228841692994974437e+02
-5.882965775011658707e+02
1.545360439683921356e+02
-2.743146796769723892e+02
-2.517809707112436172e+03
-1.399373005989795331e+02
-5.826026571504887670e+02
-7.898201135266689334e+02
1.694002268392797532e+02
2.383066283602456224e+03
1.571705668619300127e+02
-1.366318688959726387e+03
1.024503590394975390e+03
-1.284371429678766617e+03
-1.043895910244445759e+03
-2.398149204941361404e+03
-2.070089599077494313e+03
-3.365765686785966409e+03
-2.344353546030429698e+03
-5.251830968791896339e+03
-1.539225191129021141e+03
-4.845015599183159338e+02
-1.870626439399684614e+03
-1.433613221645659223e+03
-9.043821286719135060e+02
1.880654212960576501e+02
1.424691843589454038e+03
4.364683179366459740e+02
2.039350433453832466e+03
7.783581425753064877e+02
2.693451598423719588e+03
2.102714650098168022e+03
5.821006096148007600e+02
-3.426478445870593532e+03
-2.924037288004862148e+03
-1.867375921275471171e+02
-3.468087202597296255e+02
-6.453299863183041225e+02
-1.431223775468954045e+03
-1.857403310375040519e+03
-1.938789538139991691e+03
-1.584132016160631338e+03
-9.784076814174459287e+02
-7.320498484767606442e+02
-4.852248917380233024e+02
-9.399078519311181026e+02
-1.373049372217872360e+03
1.430405709497383896e+03
1.755501042331882218e+03
2.235177545890913279e+03
2.528435662440340366e+03
2.590202073541009213e+03
2.824323635559326704e+03
2.612711260724177009e+03
2.516444638617902001e+03
2.541450316757523069e+03
2.002669323176353146e+03
1.109066971740549207e+03
9.859675228469519936e+01
-2.909832720988875735e+03
-1.203105881760147668e+03
-3.772949462457681875e+02
-3.345524147047849510e+02
-5.107966899033363575e+02
5.392660279987106975e+01
5.106438017321253255e+02
8.622363644152894722e+02
1.705821043343916926e+03
2.490786225757363809e+03
2.799897343441776229e+03
2.448040397433424005e+03
1.372084660330311181e+03
1.461235480947358383e+03
1.919562172548385661e+03
1.375948852864049059e+03
2.159790255504612730e+02
-5.724312931112240221e+02
-8.489270778737255796e+02
-9.497429179109856250e+02
-9.198540467036023074e+02
-1.242108891408928457e+03
-1.072900368549503128e+03
-8.514337689148915160e+02
-2.901408451014075922e+02
7.887979985778966920e+02
1.725099715189211565e+03
2.561053329765551098e+03
3.158528458945826515e+03
3.629820516887686153e+03
3.054692991785006598e+03
1.863221449193537637e+03
1.405402345775551339e+03
1.341067009498256766e+03
1.001380505591058636e+03
2.210665856720069939e+02
1.245623980953133447e+01
-4.945791796719325362e+02
-6.345978057530714977e+01
1.199497926679588744e+02
3.772999749821926230e+01
1.171763667308374352e+03
2.184133219223410833e+03
1.850860882111985347e+03
2.994924365095731567e+00
-7.384347351749039490e+02
3.435946886203755639e+02
1.629017134806370905e+03
2.056828888561051372e+03
3.167112456325994117e+03
5.923984502039534163e+03
7.932495666432099824e+03
7.328594218222591735e+03
5.508206409546302893e+03
3.780346776991673323e+03
2.430025086707721584e+03
1.256269295774181955e+03
-7.898919133885763131e+02
-3.842496726530182968e+03
-7.293522391159481231e+03
-9.335956657486723998e+03
-1.030777188896794723e+04
-1.063396930787459678e+04
-9.978544699902806315e+03
-6.840289534079236546e+03
-4.601273254086896145e+02
4.229097762242693534e+03
4.295488911465187812e+03
2.843962785924336913e+03
4.586590323678971686e+02
-1.100414525300424884e+03
-1.448215264695930273e+03
-2.913685005128984358e+03
-3.090895727966146296e+03
-3.473780725475288364e+03
-2.830287401159100227e+03
-5.622379010065661532e+03
-8.725004084127671376e+03
-9.923175701280497378e+03
-1.039487313266202545e+04
-1.052412228410319949e+04
-9.429851154358371787e+03
-8.304917209425782858e+03
-6.938166416686330194e+03
-5.176676304838951182e+03
-4.408359594680061491e+03
-1.342078018456393011e+03
3.705215534822064456e+03
5.233622742456976084e+03
4.722255806207451315e+03
5.488118642775255466e+03
6.277390379840750029e+03
6.050079029770842681e+03
5.175129677513350543e+03
4.614501706895076495e+03
4.063308688005926797e+03
3.723625104992998331e+03
3.407542276451003545e+03
6.130868889609095049e+02
-1.691663238448112452e+03
-3.048708811415021955e+03
-4.882005514859729374e+03
-7.219448427833400274e+03
-7.213949477322826169e+03
-4.777437363154142986e+03
-1.357833528273903084e+03
3.432927619301515733e+03
4.629959523351232747e+03
1.615309378054439776e+03
-4.203266909198713819e+01
-1.790015180714698317e+02
-1.324443233911883055e+02
-1.395340888717168127e+03
-2.652690215383116083e+03
-3.199310322290954900e+03
-3.031241355662714795e+03
-3.339546217999581131e+03
4.177902925534701239e+01
2.026781201205492380e+03
1.577570144738303952e+03
2.807140834344655559e+03
5.714470025497837923e+03
5.571633781930899204e+03
3.962687978247488900e+03
4.344750041216306272e+03
6.064028894338685859e+03
5.791681194370309640e+03
5.503772094718900917e+03
6.541232862707501226e+03
6.927106061720285652e+03
5.730449541206268805e+03
3.549277810223974939e+03
1.163351560795483920e+03
-1.293422736024187998e+02
-4.564096633605143438e+01
1.984561321429717964e+02
5.249502586053080222e+02
6.158198566306716657e+02
1.713323039567460455e+03
2.640259615141354061e+03
2.649721384087550177e+03
2.841535601226239578e+03
1.754600621655384430e+03
1.202996501630916782e+03
1.161725214660479196e+03
1.144761969462680099e+03
6.670845551402268256e+02
8.847551508069842612e+02
1.758825594455527153e+03
2.629259263042110888e+03
2.915091432428876487e+03
3.339290381358820923e+03
3.710823290275552154e+03
3.517670996378375548e+03
2.830720535887275673e+03
1.516988318420839960e+03
5.374451310778516699e+02
5.698602525608271918e+01
-5.914543672425754721e+02
-1.251911786287755149e+03
-1.687418340191183233e+03
-1.683010166730346327e+03
-2.354708085775923337e+03
-3.141555161141870940e+03
-2.767540291989855632e+03
-2.693652789888972165e+03
-4.294896690473928174e+03
-6.053370225959295567e+03
-5.779080430068496753e+03
-3.288986504728284217e+03
1.911862906333074534e+03
6.639383015928456189e+03
5.488504723897579424e+03
3.865171416051649885e+03
7.912328185013545863e+02
-2.085363396480955544e+03
-3.824665060383219952e+03
-5.128737164984146148e+03
-4.917650573589678970e+03
-2.696486027648110849e+03
-2.327276526071211265e+03
-2.142071138015867291e+03
-1.740938103180276357e+03
-1.136958863547206647e+03
-1.300205843976157439e+03
-2.960630673819650838e+03
-3.956299626839135726e+03
-3.349355950922429201e+03
-3.576782942058815479e+03
-4.458606101809769825e+03
-3.312812435770883440e+03
-5.204578173941789601e+02
-2.405625484321999011e+03
-5.942459349016587112e+03
-3.160941094550803427e+03
-9.418368912250240044e+01
1.223722376835059549e+03
1.889650451986346297e+03
9.555757234990934421e+02
3.536935435708738851e+01
-5.021198179217052484e+02
-9.169481092486530542e+02
-4.996722004857496131e+02
6.102353263857867205e+02
1.182866325318823783e+03
1.366166016439447503e+03
1.448000480838861449e+03
1.697199869306971095e+03
2.484052293345402177e+03
2.485497809956379569e+03
2.210163814204968730e+03
2.483389706112419844e+03
2.172932943935854837e+03
2.671861483499013048e+03
3.116904686116865832e+03
1.826084430823936600e+03
7.851880631197595903e+02
-6.634874940274155506e+02
-1.552523276737796095e+03
-1.689794796426939001e+03
-1.950152184194059146e+03
-1.683721898657360498e+03
-8.165263995818153262e+02
-3.016714250680255986e+02
-2.732474787014621143e+02
-3.220943462091763649e+02
2.755973557205265365e+02
2.320468414793257637e+02
1.450969359132316413e+03
2.850520851791835867e+03
3.688798910658089881e+03
4.945006059342850676e+03
4.986745546444681167e+03
2.973739742756579290e+03
-2.357832898080398820e+02
-3.135763019488676036e+03
-5.743210550692410834e+03
-6.297221363616419694e+03
-2.705810204130066722e+03
2.346945029410409916e+03
2.931977222953408727e+03
1.554294545988053869e+03
4.988713455432677506e+02
9.882364713016610835e+01
2.891950426000011021e+02
9.477130841460369766e+02
1.680581853998302449e+03
3.117779291341133103e+03
4.241375639379712084e+03
3.543386177524631421e+03
1.947799039059783581e+03
2.149663542623936792e+03
2.444958653537602459e+03
2.166677931834025912e+03
1.185833982325528495e+03
5.704568838702722360e+02
-4.333441413195529179e+01
3.496937922305835400e+02
1.114109626185672369e+03
8.218853850667011329e+02
1.137131663672968898e+03
1.230343052026684489e+02
-2.748396477566441717e+03
-6.150242626163714704e+03
-7.159491760168164546e+03
-6.713121956880479047e+03
-6.338074363648608596e+03
-5.663283940163094485e+03
-4.667675075325199032e+03
-3.494123089619345137e+03
-1.999633633969842094e+03
-2.162280346232046782e+02
-3.878354636066084282e+01
-1.491227474497154162e+03
-1.517607865441110107e+03
-1.819895020327195652e+03
