-1.641307302307365319e+02
-2.677998433026153293e+02
-5.125693912113777628e+01
-1.407141956829248102e+02
-4.652032209470635280e+02
-4.338799262637372749e+02
-3.168165298834068722e+02
-5.690190838723057141e+02
-7.275179094400108397e+02
-7.922497107717531435e+02
-2.781668796301576663e+02
8.537068083439971478e-01
1.758649255629737524e+02
7.688708931029297844e+01
-1.431627894691555412e+02
-2.614338198283522843e+02
-1.240152660154161879e+02
1.151525907018018131e+02
-2.539301573138712627e+02
-1.723025159203141925e+02
-8.099675039647163999e+01
-2.001115908136104693e+01
2.116516794576319569e+02
3.119836186850161539e+02
3.460919043056878763e+02
1.249470791023877041e+02
4.055788741433566997e+02
2.259705270822347813e+02
3.432604950660395389e+02
4.932419263557366094e+02
3.099147279335641656e+02
7.563107055511281942e+02
4.074658884060352193e+02
-3.065493464826706713e+02
-2.120715082607803197e+03
2.793636133037874458e+01
-5.436860560103675652e+02
-2.405341791636837456e+02
3.653569990435839259e+02
5.299537622371682346e+02
4.802752837029004809e+02
2.332244909154021286e+02
-3.859832846035706666e+02
-2.105189839816561630e+02
-5.483241652408148639e+02
-5.029702898384959298e+01
5.484852852141724497e+02
2.869845430785915710e+02
9.020295614423910990e+01
6.352199458773399101e+02
7.669369176187648236e+02
5.223696199178892812e+02
6.076295303111842259e+02
6.537427009575809507e+02
8.936613771027373332e+02
9.874298059234082530e+02
1.232994400619794988e+03
1.341225286951036878e+03
1.007159246816851919e+03
5.518134543554923539e+02
7.501772558469796195e+02
3.614205939632718696e+02
-1.964093696148311210e+02
7.976391658813749928e+02
7.140443628336825554e+01
6.097904606041769284e+02
4.689094443288436196e+02
-2.061057955709166833e+02
5.238399041473990110e+02
-4.133825496021983525e+01
-3.617309652614989659e+02
-3.223823825631835120e+02
-1.411230138931363626e+03
-1.165232099774084190e+03
-1.232473914092873429e+03
-2.055037714439753017e+03
-2.066943427150084517e+03
-5.842146909900533274e+02
-1.087888714108043473e+02
-5.662490562005077663e+03
-8.433256000100722304e+03
-2.902255856213120296e+03
-6.535465890879537483e+02
-1.576990293438761000e+03
5.654385475938039463e+02
1.190583817136442576e+03
8.734008514087890944e+02
6.149488103598451971e+02
5.682347931636794556e+02
1.034272022628532113e+03
9.250617884560790571e+02
8.536300990167367218e+02
8.330551213775710266e+02
-1.897344895075267459e+02
-1.103772522266641772e+03
9.410292904402351724e+02
4.146826005786982137e+02
-3.548968973775967584e+02
1.059285809255059803e+03
6.181717588709636857e+02
2.497670322291172909e+02
4.349788572106181164e+02
7.657668399712911196e+02
9.892754178541339343e+02
2.327548732530063660e+02
-9.077339772266236650e+02
1.298822431297529647e+02
2.645554805819656963e+02
1.082180348913666279e+02
-1.831478609780582758e+02
-8.253609019950769721e+01
1.987787564764358095e+01
-2.957083304053362554e+02
-1.665116566631200840e+03
-1.872506144234888325e+03
-5.638516565823650808e+02
7.976815154304346152e+02
1.803155235553016610e+03
8.834690530824808548e+02
1.870518837058000827e+03
2.121160199716798616e+03
1.756641976820790433e+03
1.424122934588421458e+03
1.425687484037663808e+03
1.491950087465580282e+03
1.789101306954034953e+03
1.753265603277454375e+03
1.441428841778375499e+03
1.319539184119135143e+03
1.005916573453808041e+03
4.651505278573470150e+02
2.449805296709877211e+02
3.089945785090479831e+02
3.047062341993996597e+02
-6.993366263203129165e+02
-1.346932888897235898e+03
-6.171697224672795983e+02
1.221988798719993952e+01
1.793098137333476529e+02
2.081566240869221645e+02
-9.734099531396482519e+01
-4.042427818586514263e+02
-2.414958237253288473e+02
-3.640387272000702410e+02
-3.459898090747207107e+02
-5.621238541470313521e+02
-8.874209411215697401e+02
-5.350676183252661531e+02
-9.431542858770433213e+02
-2.014628698595395008e+03
-2.627279642145357684e+03
-2.302269534866464710e+03
-1.765461344604976148e+03
-1.406913681963681483e+03
-1.491718285983188025e+03
-7.818789513850508683e+02
-8.653949044814070248e+02
-1.552260260335966223e+03
-2.880490096691733925e+03
-4.044089558214760928e+03
-3.182011568172952593e+03
-1.688318181511876446e+03
8.009264602423272663e+02
2.553929004809467187e+03
2.943822936031368499e+03
2.932544902147433731e+03
2.274913724968848783e+03
1.633905291286162992e+03
9.695361704505686475e+02
-1.792412906515507132e+02
-1.155422445494777776e+03
-5.979365575828760484e+02
-1.421512799870587514e+03
-1.127149418401877938e+03
-3.441327685431544978e+02
6.014917597160467722e+02
2.119700082364379796e+03
4.153579573295840419e+03
3.752116181812714785e+03
2.040305594966000399e+03
9.722141546963923702e+02
-2.236230549191846876e+03
-7.792020582387476679e+03
-8.091989691018224221e+03
-3.961118501624216151e+03
-2.111875227682474360e+03
9.481792253337582679e+02
3.967512924577110425e+03
4.961850279318719913e+03
4.248128564437287423e+03
2.753442527116803376e+03
1.381769597829126951e+03
-1.221122202699650188e+03
5.858190987380999104e+02
6.647579784270110395e+02
7.856720824057480002e+01
-4.817742133761046830e+02
-5.093416509355118933e+02
-2.880299052354050104e+02
-1.818814278970289706e+02
4.760371928229826608e+02
1.656753454218427805e+03
2.025365810362252660e+03
1.587903716411664846e+03
8.183012911966662841e+02
4.385190513389562170e+02
1.071583440010878576e+03
1.348513309855033185e+03
5.663316345576027970e+02
5.340883469452835470e+02
6.027863978620357557e+02
8.854857134832595875e+02
8.124702530908439257e+02
1.055476863128648404e+02
3.539829103679104527e+00
-2.477319031217568295e+02
-4.503271474531485410e+02
-5.969850616745834486e+02
-1.183518440470277937e+03
-1.430800339327741767e+03
-1.594887906120407933e+03
-9.216837842665106564e+02
-1.005290289393740295e+03
-2.049832219601151792e+03
-3.033318325679844747e+03
-4.355721865051356872e+03
-3.659143806757358561e+03
-2.486391411999517459e+03
-6.223009921152732886e+02
2.427113811191690729e+03
4.201938703089330374e+03
3.534057599807357292e+03
2.013058641300377758e+03
6.438760610354800065e+02
-4.602030923963589544e+02
-1.642123337953759346e+03
1.934839067562149694e+03
1.147105675003010447e+03
-6.583152278953025416e+02
1.850560725747258175e+03
2.245683767477264155e+03
1.942019210785848600e+03
1.627401755566928841e+03
1.089846293848443111e+03
8.103339958986369993e+02
1.097055623988950401e+03
1.172024594323866950e+03
6.494538355774113825e+02
1.072431631657202047e+02
-7.166383628257119653e+02
-1.398233299902485214e+03
-2.035652395280958899e+03
-3.221855424473199946e+03
-4.091757352234464634e+03
-5.012420178523884715e+03
-6.594806525621160290e+03
-7.093854387867011610e+03
-5.302542627910030205e+03
-1.621833716352052079e+03
9.023076999178925917e+01
1.751657076044103405e+03
1.639480947273028505e+03
6.886416768566788278e+02
-3.778757789999427246e+02
-1.940017917362290518e+03
-2.899645685845527169e+03
-3.047647346592043050e+03
-2.360236301348792495e+03
-1.018592963311961284e+03
1.141324060803601014e+03
2.780747308830912971e+03
3.410715109208271315e+03
3.104039037428789470e+03
3.428639537167060098e+03
3.345606398269605052e+03
2.828940269626301870e+03
2.315555066150080165e+03
2.177448170677519556e+03
1.438651635990791192e+03
2.571354210142326906e+02
-7.506639922472608362e+01
-9.693745197855609774e+01
4.714828578547811730e+02
3.742075560236141882e+02
-4.057354254359283345e+02
-1.194316824142842535e+02
-5.028323146325977291e+02
-1.322777627715450535e+03
-1.732324392640092810e+03
-1.013520144504850009e+03
2.915361724703825530e+02
1.125990089715328622e+03
9.195866821951406109e+02
1.438589182124510444e+03
1.906957119824083293e+03
1.921711347135737697e+03
1.246826914821681385e+03
-2.798529540618889655e+02
3.519271159733772834e+02
4.501428018607018657e+02
6.374975941940635948e+02
1.250089744760594840e+03
8.869657431324054642e+02
9.821067583469502438e+01
-9.411263114462418571e+02
-3.502429687083470640e+02
-9.661895249625519000e+02
-2.055907563419943017e+03
-1.209361342022438293e+03
2.304210080753236412e+02
6.054035667414799491e+02
1.323543556472770661e+03
8.779404671261177100e+02
3.246077286966815336e+02
-2.305082969001112474e+02
-9.724399358773257518e+02
-2.271196634508722582e+03
-1.671825202649657285e+03
-2.142735893896825985e+02
7.744989794112593700e+02
5.753611402305473348e+02
-8.135641266650314947e+02
-2.238412669110857223e+03
-2.267027735608040985e+03
-4.594630816131733582e+02
1.056233543462584748e+03
1.630152491524724610e+03
1.125125053639579846e+03
1.227330307525886383e+03
1.975762276392122885e+03
2.414317945608601804e+03
2.566138495012653948e+03
1.962193187257615364e+03
5.853857540569912317e+02
-7.654918435393059326e+02
-9.238568211856829748e+01
1.298392017959010445e+03
1.303679696056396551e+03
1.233785237868699824e+03
2.258792177179809187e+03
3.102980662881577246e+03
2.555957892096683281e+03
1.621660196388303575e+03
1.357141290483387138e+03
1.231747334942527459e+03
8.499056177051567147e+02
8.681310946251304586e+02
7.762735092357978601e+02
9.249005297402795804e+02
9.000954421228524325e+02
7.105332687579019648e+02
1.296006186325938643e+03
2.365338998088093376e+03
3.132693634747810847e+03
3.132015251636000357e+03
2.233134162890403331e+03
1.447228712672471829e+03
-7.537203105462341455e+02
-4.908810386269607989e+03
-7.992055982950162615e+03
-8.325441263563698158e+03
-8.183999542308135460e+03
-6.499618841578606407e+03
-5.005362444838798183e+03
-4.014061554131606954e+03
-3.861920232789451347e+03
-4.538928789428143318e+03
-5.584036778116300411e+03
-5.398255147414140993e+03
-2.817558134454466654e+03
-1.277864775210894095e+03
5.746416983949625319e+02
9.458248727126740505e+02
1.031689896523323569e+03
1.161224112507162090e+03
9.115585206788018695e+02
-3.339477546550292118e+03
-4.756838360654492135e+03
-4.295478255787778835e+03
-1.823403011635219627e+03
-3.603614463402330330e+03
-4.561128790266222495e+03
-4.534960590908403901e+03
-4.938142506662289634e+03
-4.382635331564340049e+03
8.665334439888633824e+02
1.468429779784373522e+03
-2.090971081949488962e+03
9.531165502055702632e+01
3.312260385133242835e+03
5.016821366645030139e+03
5.168072049780959787e+03
5.402063112777203060e+03
4.647707118705789981e+03
4.372991600798403852e+03
4.595873644117043114e+03
4.292382040751090244e+03
3.713538151156659751e+03
3.160328197325748988e+03
2.718703164842034766e+03
2.767002077653817764e+02
1.351343687914425345e+03
3.019616249547366351e+03
2.568492756383711367e+03
1.278930112892820262e+03
2.149726141857498476e+02
1.886716113349819352e+03
1.589147304013341454e+03
2.614181877775505654e+03
3.465734124826581592e+03
3.300828528801119319e+03
2.885505975464508538e+03
2.917737292398249338e+03
2.628586820426899976e+03
1.908056924297408159e+03
1.535173032475374384e+03
1.350975697170760895e+03
2.262894107718495604e+02
-1.797950907658148708e+03
-1.741037270862557534e+03
4.002200394157218284e+02
2.797099829607592255e+03
2.834493701129058536e+03
2.334609355059674726e+03
1.976471076961820927e+03
6.220656775442736262e+02
-8.905609368035364923e+02
-1.561396812622452444e+03
-2.026221609520178788e+02
1.643846870218412278e+03
2.985052467170771706e+03
2.991969741380199594e+03
1.616563635880009542e+03
8.178367960579953433e+02
1.387986984033889541e+02
-1.766105368559890820e+01
-1.054232955792793689e+02
-1.323583907856189626e+03
-2.699011939132528369e+03
-2.353632258624739279e+03
-2.050402834158557653e+03
-8.308488002036021498e+03
-1.029791700347689766e+04
-5.745024470437250784e+03
-4.658797533753034259e+03
-4.313136504716147101e+03
-2.218940827670821818e+03
1.672137978005810055e+02
-6.656014889872375306e+02
-1.188544388677256165e+03
5.890059043802961014e+02
9.831537324067328427e+02
1.490951057090575659e+03
1.235433340041220390e+03
1.486550077686834584e+03
1.975268214720182186e+03
1.487620343338710882e+03
6.845880782239520386e+02
6.771320531781241243e+02
1.574286064484678263e+03
1.822128054364317222e+03
1.041666747861955628e+03
5.299368982350159740e+02
-2.251535801991267647e+02
-1.189616683721484151e+03
-1.621341006084003084e+03
-2.242339513844042813e+03
-2.333623198460938056e+03
1.638775629687957462e+03
3.894914635304352032e+03
3.980861122732814238e+03
1.340569451569456078e+03
-3.043933009488019252e+03
-5.329608207324572504e+03
-5.854454781381978137e+03
-4.746422274365677367e+03
-3.837517681444029677e+03
-1.483707907552940242e+03
-1.950765606917751427e+02
-6.025534341556814297e+02
-8.390338849449134386e+02
-1.356486850144487107e+03
-3.543868423204922237e+03
-3.502318561315259558e+03
-1.655855479384035561e+03
6.494330852753880663e+02
4.494399748535593062e+03
6.393106377908362447e+03
4.844760818388976077e+03
2.403374347207276060e+03
1.173042252098892277e+03
4.529604004857106929e+02
-2.152942942152624710e+03
-6.600765550071686221e+02
4.288736041278042421e+02
1.541019808103735386e+03
2.431045959658606989e+03
3.502093192454269229e+03
1.970256770098620564e+03
5.195646107510725642e+02
-1.966947118600577369e+03
-2.563290700099678361e+03
-3.229479147447347259e+03
-1.383472543757672611e+03
-1.002006600893101478e+02
1.069349409111761361e+03
1.578222011236330900e+03
4.664679157083349423e+02
-1.799127150149259080e+02
-1.748634233010922969e+02
-9.223500683039802652e+02
-1.642331220261879480e+03
-1.772703426002200104e+03
-1.878554650053929663e+03
-1.500080290651447285e+03
-1.317456970525027828e+03
-1.396573064589495743e+03
-1.376432972889604798e+03
-1.951927030705671086e+03
-2.871967737164301070e+03
-3.796469113662101790e+03
-2.966405684586212374e+03
-2.097791367807872405e+02
9.253783941712796377e+02
-4.429790069810328532e+02
-1.697932660715172233e+03
-2.295635012205682983e+02
2.044158479732668638e+03
2.282257228668077914e+03
1.717839467274391154e+03
2.493910369408718452e+03
2.808486542412038034e+03
2.438597518778230551e+03
1.975278925463296218e+03
1.853494913623453158e+03
1.510297076191187671e+03
1.485733461260128024e+03
1.660785719962239455e+03
1.005453897848547513e+03
9.537239045179107961e+02
8.086174599242664272e+02
-2.928031697848084036e+02
-9.075991422102393926e+02
2.862410280743791873e+02
1.797789957836257145e+03
2.205041880122884777e+03
7.349119711626556182e+02
-6.316447991475405388e+02
-1.527513258034935006e+03
-1.653676652893108667e+03
-1.414252939615821106e+03
-2.642342750608169695e+02
5.234278171586613553e+02
-9.492978043632047047e+02
6.928174790238185778e+02
1.978562889057335497e+03
1.869386764306320288e+02
-1.241033037702595266e+03
-1.365465114512588798e+03
7.769748649797088547e+01
1.819555544847635701e+03
1.250169349624923825e+03
7.553778038019189580e+02
6.822557185884029423e+02
7.448643507947318767e+02
8.470147813720869863e+02
5.056377799540245519e+02
-2.262307294418241952e+02
2.523713625859323031e+02
1.382521859204043722e+03
2.044934594802977017e+03
1.978805545197513538e+03
1.588660549181224724e+03
1.196544658173576636e+03
8.439412495188568073e+02
7.427091469668874879e+02
6.138538482125762812e+02
4.184508709966364677e+02
-3.294243834666771136e+02
3.832169963503746999e+02
-1.327265123737613237e+02
2.065716100687550352e+02
6.140678302909254853e+02
-1.111220944126575205e+03
-2.442587250818033056e+02
-5.648886326832995337e+02
-9.983532070973917598e+02
2.974047432203681751e+02
6.383138841951825952e+02
5.844553107015212845e+02
-5.031429798718741608e+02
-1.882572821447918386e+03
-1.111757811343334197e+03
-4.248730493353386350e+02
3.620865053964404296e+02
1.681200662689369096e+02
7.331008359505623275e+02
-5.139796636792416393e+02
-4.316032732853799644e+03
-9.461027766197668825e+03
-1.103905392734884117e+04
-6.548140471961454750e+03
-7.179321040866803742e+03
-1.079765920062774057e+04
-7.061146355245979976e+03
-8.507949410345528349e+02
1.224390386789775221e+03
8.123684694003010236e+02
1.396035680961853132e+03
1.956336032846327271e+03
1.531224731585707332e+03
1.211793512966976095e+03
1.576075622828336918e+03
1.857025048666454268e+03
1.522767531038643938e+03
1.249526583673211462e+03
1.214275199295517950e+03
-4.151710465587700583e+02
-1.497924259036920148e+03
-1.241243723088925890e+03
8.460061399736641761e+02
3.277750500019756714e+02
-3.069347619520519288e+02
1.549220912304326703e+02
7.503728423393515641e+02
1.521260987476065793e+03
2.391328541353364017e+03
2.058684042342719295e+03
1.666167688915253848e+03
1.834890622394817456e+03
1.942800163997339268e+03
1.937901623949056102e+03
1.728184287472718324e+03
1.583996856656752925e+03
1.452142295868863812e+03
1.229464053692287507e+03
1.349727597555764305e+03
1.455420268391076661e+03
1.800455053883638584e+03
1.522669090284438198e+03
1.467131022649394708e+03
1.235850901439587687e+03
1.718319288305141981e+03
1.686763167090085517e+03
1.715467852815062997e+03
1.895854890358159992e+03
1.362557835411624637e+03
6.031256925016442665e+02
6.181573645160863180e+02
1.039399057492227030e+03
1.590545684023868944e+03
1.353534922721728208e+03
1.428316625241881866e+03
1.499966628703257811e+03
1.379543999936289310e+03
1.099048310061409211e+03
1.040445647605364229e+03
1.548925704209266087e+03
1.733232774994825149e+03
1.471259891686714809e+03
1.352168191957711542e+03
1.040047935065301090e+03
1.133907758374942432e+03
1.406540212537637899e+03
1.629075960614961787e+03
1.100409034708676245e+03
7.705662063698214297e+02
5.346378186282236129e+02
8.576470177375327921e+02
1.461568932629142409e+03
1.520427950137733205e+03
9.792955484241499562e+02
7.391724991452730364e+02
1.690687512494641851e+02
-4.089023146624359697e+02
-3.718651230740705614e+03
-5.453282045952502813e+03
-4.885951298355114886e+03
-6.223728984050132567e+03
-5.812443153519481712e+03
-5.166030628808020992e+03
-4.807489828004099763e+03
-4.549685011206259333e+03
-4.207550118287967962e+03
-4.769194150595850260e+03
-5.938641017784339965e+03
-5.683813719044151185e+03
-5.046797245818645933e+03
-4.340528419407572983e+03
-2.402863141075331896e+03
1.345220353423434290e+03
1.993741111826274846e+03
2.733691833367668551e+03
2.568114253814242602e+03
1.154102466202317828e+03
-3.629272997387720807e+03
-4.089092419632889687e+03
-1.442317375924227008e+03
-1.563682136357290062e+02
-1.325463342313740213e+03
-1.845098302991642186e+03
-2.864073679068334059e+03
-4.747272569919612579e+03
-2.277863453449153440e+03
1.603126448405892006e+03
2.241964888839170271e+03
2.372652357731055872e+03
2.334020544844125652e+03
2.152155704964093275e+03
2.237109747901519768e+03
2.065975393396016898e+03
1.606690755091395886e+03
1.337325576405579795e+03
1.387980334378620228e+03
1.666690921541815442e+03
1.734465883766319848e+03
1.935266507788999661e+03
1.656126542252928630e+03
1.978183557028555924e+03
2.136472019291553352e+03
1.784047720172434538e+03
1.560952011290337850e+03
1.699202664043875302e+03
1.717874634151929740e+03
1.437953187399760736e+03
1.416115724652670906e+03
1.399476437411630059e+03
1.139198189294696704e+03
8.405053759052157147e+02
8.596665308374441565e+02
7.716304080643481029e+02
6.392889464422456740e+02
4.795620571172366340e+02
6.464555241508351173e+02
5.168640556899450758e+02
4.488556511219492791e+02
4.725044043190255820e+02
5.707888143782954558e+02
4.607976322139185754e+02
3.326226670545872821e+02
5.813943910461695168e+02
7.062207440138296306e+02
6.220687493742667584e+02
4.912551851998493362e+02
5.328617771064871249e+02
-7.853890392535082583e+02
-1.581555563836025385e+03
-6.372805143074979917e+00
3.460179752748370561e+02
4.007000412724296439e+02
3.073714338271494739e+02
6.597839086964536648e+01
-6.644758866253167184e+01
-3.668701824535676224e+02
-3.733410769841092929e+02
-3.096616345621922051e+02
-3.097991358593973814e+02
-5.486087721263093044e+02
-6.292019661549410330e+02
-5.635761126957270335e+02
-4.259257863018880244e+02
-4.672323545061221353e+02
-6.184817085021763887e+02
-3.436125110443731501e+02
-3.385254247488734336e+02
-6.032179434630327250e+02
-5.797339787531935826e+02
-4.440222528919430260e+02
-4.206582495232093066e+01
-3.788836536743946226e+01
-2.335068291486588805e+02
-2.488959017267632134e+02
-2.380892827597949690e+02
-2.510303244300239456e+01
-1.299231780304664312e+02
-2.974972650665644096e+02
1.272211034285245859e+02
-8.874503604620949204e+01
-2.475471222691229514e+02
-3.164127113510004392e+02
-1.882319954022727302e+02
-3.098316986850513786e+02
-3.462067729559555005e+02
-1.375764716740332574e+02
-5.050574486943434067e+02
-6.135472750339723689e+02
-1.249766541208297070e+02
1.545890025032273627e+02
2.021431373663421596e+02
4.846717766371907601e+02
5.111965016359939682e+02
3.487170759540337599e+02
-7.973945142927446739e+01
-2.772403556203992139e+02
-3.368295979569062979e+02
4.052793363096149903e+01
6.577954620553030907e+01
1.591175529963417290e+01
1.239865329979876805e+02
-4.180973327110050377e+02
-7.955317825076338067e+02
-1.137392885459589024e+03
-1.534382527805534437e+03
-1.776311705237814067e+03
-6.433276430203154632e+02
-5.356914513463554783e+01
-1.700563851522969685e+02
-1.298589654381279388e+02
1.809038786119670874e+02
-7.727429821396772240e+02
6.326560812452257920e+01
4.107678050022186085e+02
4.047243635242168693e+02
9.203099984787025960e+02
5.904939333451048924e+02
-4.881315555814389029e+01
1.320132910863908471e+01
5.044555903398804730e+02
6.711216636676995222e+02
7.161800662197011889e+02
1.004519566985761912e+03
9.191455201083155089e+02
9.620018104123337253e+02
7.471163040862070375e+02
6.164302503066712688e+02
4.518808608788043557e+02
-4.125544606929904148e+03
-7.225896182061641412e+03
-3.755152128538215493e+03
6.626799977121318079e+02
1.072566739340174763e+03
1.053547059514334705e+03
1.177443612245182521e+03
1.446339178625685690e+03
1.549302167963366173e+03
1.315397744152507130e+03
1.175399356949916637e+03
1.097272654031676893e+03
8.030527598444566593e+02
1.776110324185212619e+02
-1.066963138869482691e+03
5.462550436813091892e+02
2.162806482465985312e+02
7.450895798257990919e+02
4.285292884169841159e+02
5.726281297982653768e+02
2.883340836742663669e+02
-1.512254993763670427e+03
-1.770246305706101566e+02
4.408768192320745811e+02
2.683079906411672368e+02
2.679334941833491825e+02
1.308711059259085232e+02
2.346590337520505045e+02
4.577806733579606657e+02
8.689162645568353582e+02
1.023109057263272916e+03
1.248123108732942455e+03
1.030477558263120045e+03
5.734843455556085701e+02
3.293613529741259640e+02
4.735240149698767027e+02
7.736663016987880610e+02
6.980110686089286673e+02
3.827252355831687964e+02
3.106180957863224421e+02
-1.661058693760368214e+02
1.436310683889460620e+02
2.086973470290143950e+02
-1.699628176207186243e+02
-5.363388535923066911e+02
-5.563852631287604709e+02
-4.551284269402545419e+02
1.233320143639123323e+01
-9.169098212053570762e+01
-1.590261320314871909e+03
-8.675506648422604030e+02
-4.796939406602859322e+02
-3.495012719035961481e+02
-1.619427307651969272e+02
1.829946305331408496e+02
-1.175948429170525067e+01
-5.302723436535042083e+02
1.834387172863548869e+02
-4.154206289041322719e+01
2.586898235168499127e+02
-8.662574175683178623e+01
-8.357308116965474198e+01
-4.122969721774691152e+02
-6.915772678125588300e+02
-1.281385175236695432e+03
-2.057813118785755705e+03
-3.507849162528722445e+03
-2.724491173899747992e+03
-2.211728915808111651e+03
-2.712568656395623748e+03
-2.656945158256577542e+03
-1.068844741117480226e+03
-2.425149556790594474e+01
4.357989372945961577e+02
2.013398254308648063e+02
-2.083635776216195609e+03
-8.348107744922863276e+03
-9.315003916035728253e+03
-3.175299130880956000e+03
1.283994342969954687e+03
1.438834059218731454e+03
1.187242165134797006e+03
7.422785562933572692e+02
7.109538284664749881e+02
1.126273785148346633e+03
1.545284095607796871e+03
1.587009252530177264e+03
1.723442179634608010e+03
1.971564450675133230e+03
1.811413932731553132e+03
1.709041787805006607e+03
1.644477536662136799e+03
1.547734288772100399e+03
1.541821298324236523e+03
1.339737176655926987e+03
1.052452381867888334e+03
1.051075570091662485e+03
1.192612408035983663e+03
1.202080376793534015e+03
1.151420519320880658e+03
8.726284001014245177e+02
7.407831470282823147e+02
6.289627358478967381e+02
5.681411479977776935e+02
6.823624185402866260e+02
4.356757220040881293e+02
4.663379821946655852e+02
7.082965065705028564e+02
7.324171693126352238e+02
6.968500580418350410e+02
6.143923439356800600e+02
2.710922235887136367e+02
1.259142893021128486e+02
-5.028163170759850864e+00
-1.456898752243240097e+03
-1.577400912762644566e+03
1.236323828044755686e+02
6.400965638858308466e+02
5.569165366154744561e+02
4.121392059980597082e+02
5.075820273364958553e+02
4.551117638584096312e+02
3.789506119850927348e+02
5.600099510528584688e+02
3.054968790832670038e+02
5.975259378100138008e+01
-6.226085370969298260e+00
1.390552101829845810e+02
6.536107433259215327e+01
4.201358576234012077e+01
2.560896546800448164e+02
-1.148096904610840951e+01
3.523621678776366366e+02
3.236504082156694722e+02
4.890335593549845044e+02
7.693277255330888238e+02
8.618003736185024763e+02
8.984801105204206806e+02
5.163362147280506633e+02
5.993791142024838337e+02
7.786324014104433218e+02
2.140377556063510838e+02
4.263410695746517263e+02
5.928787588061120459e+02
3.100557373369397283e+02
3.916648246482260447e+02
6.325069106131381886e+02
3.985159233707897783e+02
3.887205806066629066e+02
5.270683887993042163e+02
5.955422518621949166e+02
3.372048268636934267e+02
2.150613432545976877e+02
3.450580783976531052e+02
3.631777469053609479e+02
4.444762524517145721e+02
7.579093168352079601e+02
9.664610136068459951e+02
5.671148788349437382e+02
5.018986616242423793e+02
6.517720071585571304e+02
4.657338426979587780e+02
6.367663620066762178e+02
6.548673952730714518e+02
9.090527086847513374e+02
1.197336945037123542e+03
4.696734188198396964e+02
-1.079907143234815749e+03
-2.607457997901962699e+03
-5.959967484719491949e+03
-6.541454851150159811e+03
-3.707965381590386187e+03
3.045249013905261108e+02
-2.220997660683217873e+03
-6.051549781457491918e+03
-4.668137808501783184e+03
-5.751634591545371222e+03
-2.760095230880400322e+03
-9.777814654735016120e+02
-3.795755977224951607e+02
2.306631842412683966e+02
-8.113310145107020332e+01
1.029961743101297600e+02
6.970280888839315594e+02
9.869756193575108227e+02
1.021799408743404001e+03
9.945189819187064586e+02
1.141120979931755073e+03
1.249595905187834433e+03
1.038934485675592896e+03
8.511339576528812358e+02
6.071736988793547880e+02
6.370493396423473769e+02
9.797652870565536887e+02
8.512790146428367279e+02
9.195963169848847656e+02
9.597623890380574494e+02
7.557259951342020941e+02
5.294779353978526615e+02
4.309618629675074430e+02
5.525061373827443134e+01
5.643203730191727345e+02
6.271772152200351229e+02
2.358078250650877976e+02
9.916384562071203845e+01
1.295095923359006029e+00
2.721876393337668887e+01
2.278977430662600057e+02
3.843583268656726659e+02
1.205854955347687110e+02
2.595555573018173163e+02
2.232800075173262258e+02
1.357688665710087150e+02
1.150149810004584054e+02
3.101428667809578954e+01
-3.551711426380337571e+02
-6.345716871495390023e+02
-2.092382899871765858e+02
7.383084501304180947e+01
-3.613322404877184795e+02
-6.347537244635968818e+02
-4.704120162409838599e+02
5.169095222116485644e+01
2.945850756385771092e+02
4.722977541631346412e+02
4.638136716446770151e+02
5.410925991254873679e+02
5.961584327547074054e+02
5.970456260815865335e+02
-2.862264840263485439e+02
-1.790640072936166462e+03
-3.795187405221903191e+03
-2.679814706947453942e+03
-4.445161787561598317e+02
3.126780742874918815e+02
-1.993301411889408143e+02
-6.347880858448613139e+01
-9.969695963768786839e+01
-2.710208239765681810e+02
1.304470322285584700e+02
-7.091468916767419159e+02
-2.028498471706458304e+02
2.945003002305012956e+02
2.919635295481893422e+02
1.563123371481468666e+02
3.296328267540766888e+02
1.979738777289216216e+02
4.629452251820568165e+01
3.055992827953024857e+02
6.748843135726577884e+02
3.091771856412863144e+02
4.675016952347899064e+02
3.138969400540624406e+02
3.783091280202929170e+02
-6.222119668758268745e+02
-1.105637069485550455e+03
-5.409919455065061129e+02
-4.299012322362975169e+02
-3.363368315479091279e+02
-3.978263882057488559e+02
-7.255183424942172223e+02
-2.740943658322256056e+02
-1.724515995524905975e+03
-2.098718171115939640e+03
-1.346683089076982696e+03
1.766299009941159568e+02
8.502360466480159857e+02
1.980661888826811321e+02
1.185102866051385718e+03
1.114355841552440097e+03
3.686207249135257769e+01
7.176437876951692942e+02
8.824986045823676477e+02
8.305782216249726844e+02
9.548201445558730711e+02
1.001272474571084217e+03
1.819121941402081291e+02
-5.122461492644277996e+02
-1.480071629044147699e+02
8.014218309437995913e+02
3.520850527597803534e+02
-4.606971865521172731e+03
-1.016379165948355512e+04
-8.341299098125027740e+03
-8.204516661303642877e+02
7.606748788923838447e+02
8.170154591883210742e+02
7.745977046188096438e+02
1.328416790641438638e+03
1.632470517794442230e+03
1.436740328152130587e+03
1.285279347202777672e+03
1.158118806298655954e+03
9.773125783283198871e+02
7.539482441614129584e+02
-1.057032095316578761e+03
-1.327732378524570152e+02
1.208631365715075617e+03
1.114408918664441899e+03
1.047671376139755012e+03
1.193600069845062762e+03
1.402073922218541611e+03
1.311798954768880776e+03
4.970445394537217898e-01
8.083140709764270468e+02
1.211464441366065785e+03
6.201332087314954151e+02
3.251163649019399600e+02
-2.460223669822600812e+01
-3.759396014845026457e+02
5.581990419431881492e+02
1.005743407295905627e+03
9.464631075475429043e+02
9.033534529087302190e+02
7.014769295224052712e+02
-1.259928863611032057e+03
2.287125870463187880e+02
7.694249923078151596e+02
-9.166109677473913280e+02
-2.703723707630014133e+02
8.681100820497337054e+02
8.028628335065543524e+02
5.768950965321741933e+02
5.262467555459354571e+02
4.527038344388803921e+02
4.222314311042086388e+02
4.469041381620906463e+02
6.866806547105501295e+02
7.843771305262940814e+02
1.036070244087695528e+03
1.118959761721082941e+03
9.718606483464346866e+02
1.057841664180776888e+03
1.132180156277155220e+03
9.117041195531119229e+02
9.866147239465041139e+02
7.518261289339326368e+02
8.266788149795927438e+02
7.001046421594321600e+02
7.722085410059039532e+02
7.143281103680895967e+02
8.271721612778061399e+02
8.315536178201007260e+02
6.764038663516037104e+02
6.608954021547787079e+02
6.679136133951468537e+02
6.414464334061779027e+02
8.844496481250196211e+02
8.438304318673702937e+02
1.101654633296755947e+03
1.420882752441436196e+03
1.159510783533067297e+03
1.258536639419197172e+03
1.316876247721026857e+03
1.426501362804795690e+03
1.109401959133261471e+03
8.496113540632276226e+02
9.081639556006734892e+02
1.130046120644667099e+03
1.024249354646813799e+03
8.038094175629249776e+02
8.367481065654653776e+02
7.360853568811002106e+02
6.857523552831406732e+02
9.427078962457353555e+02
1.034882057749365003e+03
-1.196588031345555834e+02
-6.239992279229984433e+02
-2.134000742176463973e+03
-2.601655586141477215e+03
-5.607042839898870625e+03
-6.378025936386572539e+03
-6.037613923013248495e+03
-5.788868001011442175e+03
