9.854907505259004665e+02
1.264601300882665100e+03
9.988265478128050745e+02
1.248112902751770434e+03
1.038475383315279032e+03
3.790413071136789540e+02
1.149230586486183654e+02
6.490437135823590324e+02
-9.216303533839202373e+02
-2.897081667180439581e+03
-3.879350554836678384e+03
-7.771410093125027743e+03
-1.161613353754701711e+04
-8.716544447787206082e+03
3.952582869162684460e+02
7.132180435829817725e+03
7.841270485750731496e+03
6.299513505184027963e+03
5.000836880483277127e+03
4.087205252780027422e+03
5.526415324758310135e+02
-2.285857406115578215e+03
-2.957325302283807105e+03
-2.053759711424806028e+03
-1.161486331390671722e+02
-1.138395158798311741e+03
-2.918510897134131937e+03
-3.348462078196716902e+03
-3.786106601878038418e+03
-2.401295979195416294e+03
1.652710223491866600e+03
5.503539226025414791e+03
5.048530540580567504e+03
3.537846473374060679e+03
3.435421410084344188e+03
4.891432173403182787e+03
4.918890749273208712e+03
3.285443265770276867e+03
1.407876427205149412e+03
1.952582044906361489e+03
2.507376816989352392e+03
1.051286221577905053e+03
1.130043024353274177e+03
2.725680762672878245e+03
2.333976759777767711e+03
3.104015118286749384e+03
2.666962468880847609e+03
4.698072876588128111e+02
-7.718818120841397956e+01
1.438838545196190353e+03
2.197853846982028244e+03
1.951839527749310946e+03
1.567595033516241756e+03
1.765330382196764958e+03
1.935818326658152273e+03
4.293254820737441150e+03
4.905471094406871998e+03
3.987715125277285551e+03
3.367587777739452122e+03
3.207077999954451570e+03
3.043864383715639178e+03
2.661161929712688107e+03
9.249542077246643430e+02
-1.078796094626594368e+03
-2.008114775924249216e+03
-1.886997980287522523e+03
-2.743286433815090390e+02
2.659287148107267171e+02
1.284828284140837241e+03
3.347407082611616261e+03
3.615684616847075631e+03
1.316579793276496275e+03
-2.817990691863617030e+03
-7.859084593759316704e+03
-7.911653410739123501e+03
-3.328694315383419962e+03
-2.705335278712207582e+03
-4.246693637032033621e+03
-4.181818050175190365e+03
-1.889670840889461033e+03
3.018178588367136967e+02
1.963597746553803972e+03
2.965693438651045653e+03
1.578194794213896330e+03
1.069088130053607756e+03
-4.936574757033837386e+02
-3.183105857528443266e+03
-5.236203013790976911e+03
-4.617886023190687411e+03
-4.650025016922613759e+03
-4.393661932326679562e+03
-4.092896424373821446e+03
-4.719676754334715042e+03
-4.503926161696461349e+03
-2.184738522794593791e+03
-2.732066869600103473e+03
-4.043801285532523707e+03
-3.681936226826685015e+03
-2.180597436783936246e+03
-7.688659664687090753e+02
2.312641692854504356e+02
-1.768134480595216473e+03
-1.818146815603423875e+03
-3.456721650984100506e+03
-5.613673023448650383e+03
-5.471004963890025465e+03
-6.705739212111016968e+03
-7.977832979189565776e+03
-5.155272473995355540e+03
-2.394050800157594495e+03
-5.500788098570651528e+02
1.304700388077462094e+03
-2.334764294570160018e+03
-1.432496086802637592e+03
3.393521166810340219e+03
5.831345299551691824e+03
5.774038372754750526e+03
4.879635717936594119e+03
3.720118133946525631e+03
3.134400986329926582e+03
2.309446980754337801e+03
1.918308357485488841e+03
1.075011240854363677e+03
1.132583497904282922e+03
2.807969584713223412e+03
3.310154298827497314e+03
2.116288261735701781e+03
2.564591572807525154e+03
5.029093151129124635e+03
6.454792294506003600e+03
5.617736570798549110e+03
4.397972117437152519e+03
4.705341498546230468e+03
5.722779416983291412e+03
3.809267494891862043e+03
1.706859823988072776e+03
1.127493748078829412e+03
1.026320612455750961e+03
1.014451756263507036e+03
-3.209322780917840845e+01
-2.427390721631386896e+03
-3.339527925411148772e+03
-4.537508774097323112e+03
-5.764275839801274742e+03
-3.281773093671380138e+03
2.540035253689644605e+02
8.919921336793827322e+02
1.136568727366408460e+01
1.869228953509983512e+03
4.995550031981795655e+03
5.004314137193741772e+03
3.632558055770398823e+03
3.144760455450453264e+03
2.480879785072426330e+03
1.038712008534044116e+03
-6.570717754943645161e+01
5.078440932351053334e+02
3.002503025369679790e+02
-1.010664485780001542e+03
-1.980986179679666293e+03
-2.286660019343055410e+03
-2.446636167968671543e+03
-3.254158950822669340e+03
-3.011179302257082782e+03
-3.697003716695276694e+02
2.444510013985374371e+03
3.221497201594413127e+03
2.561062535186421883e+03
1.263172755678744807e+03
1.177759155441554867e+03
1.461716868793874028e+03
1.141087556352416868e+03
-2.480729744041914842e+02
-4.157710383732961077e+02
2.510557133339087272e+02
-2.566359568997775114e+02
-1.928836589144978007e+02
-3.116811215213273840e+02
-1.081932803510360372e+03
-1.463617569102483458e+03
-1.967836217082728353e+03
-2.828729373467046116e+03
-3.823382411012969897e+03
-3.879650211681962446e+03
-2.533338360118160381e+03
-1.616468141877221569e+03
-7.981573369345788933e+02
5.905788927159269406e+02
1.211761715240623971e+03
7.074238053714746002e+02
-2.740056110564943026e+01
1.091299269125814590e+03
1.059522649383483213e+03
7.201946495752032433e+02
2.044281327062458786e+03
1.448849150967763535e+03
1.388680085816049541e+02
-8.936697122561008655e+02
-2.237724853151109983e+03
-2.668299157971460318e+03
-2.756505075859886347e+03
-2.357520121163634940e+03
-2.251456686690040897e+03
-3.209172918758893957e+03
-4.272578744348001237e+03
-2.210661690596277822e+03
8.805484515749145658e+02
2.675087496044920499e+03
2.064825306117136279e+03
1.784886148941180409e+03
1.583333008264747605e+03
1.003077559951996591e+03
-1.052991233423270387e+03
-2.549915152914796636e+03
-1.582673357474025806e+03
-8.752135753698421468e+02
7.195455863459293369e+02
-2.273731412762336106e+02
-1.513968964246246742e+03
-1.519499452357275004e+03
-3.213304076512468299e+01
3.851176851591961281e+02
-2.409966338302150234e+03
-3.578397221166314011e+03
9.497521283753555110e+01
5.482448624925174272e+02
4.213134607092269448e+02
1.518547486511276702e+03
1.290715149259356849e+03
1.170685031048297560e+03
2.377422283539257819e+02
-3.253463336105203894e+02
1.208461798926892698e+03
2.464173250254544655e+03
2.674792134010237532e+03
2.398169642065644894e+03
1.941958100880025995e+03
1.310332099893761097e+03
8.559472710986314326e+01
-4.133976356100557723e+02
-1.367710205391928639e+03
-1.915158996230747334e+03
-1.021113323002200104e+03
-1.665798875279860113e+03
-1.259006324034106228e+03
5.904070978236122755e+02
1.843540324078992398e+03
1.824193195048997040e+03
1.249758071802684981e+03
1.696035059455829014e+03
2.326097163969508074e+03
2.400679256039569736e+03
2.240639051313321488e+03
2.780884699419113531e+03
2.652551309355079411e+03
1.530506779425737477e+03
1.080793445059074884e+03
1.405801951293365164e+02
-3.093423351646115407e+02
-1.458002453317424170e+03
-2.830295143170664687e+03
-2.834452549199485929e+03
-1.474231881726014535e+03
-1.239677235811031323e+03
-1.329792373810991421e+03
-1.046532605903220201e+03
-1.192659128818213503e+03
-1.142240052044873437e+03
6.049130884842887781e+02
2.191894527403195752e+03
2.836132208094740236e+03
2.539000273514680430e+03
2.749465133675038032e+03
2.740890702275745753e+03
2.160509584514545168e+03
1.222282951827202851e+03
6.111975096531297140e+02
4.275378913849614833e+02
-2.369132874498987462e+01
-9.776977937808871957e+02
-1.655604145088540008e+03
-1.582482696362086017e+03
-1.003144999607423301e+03
-7.484526049719149796e+02
-4.595277412751757424e+02
4.487082478303576636e+02
3.681808943223719552e+02
-2.414450990052267116e+03
-2.914241955035048250e+03
-2.760823621336762699e+03
-3.571075091310051448e+03
-1.648118335647178128e+03
1.663885768548131182e+03
1.448004476675824208e+03
-2.001610724672755168e+03
-7.318971196560269163e+02
-9.880097892484662907e+02
-1.096656294266670351e+01
-1.461579879555970365e+03
7.047584309879187714e+00
2.787710289840218820e+02
-1.823432884023941725e+01
-8.360623169057505493e+02
-4.340628144053292090e+03
-2.824704127415868697e+03
-2.683338889694171939e+03
-1.253684040900207719e+03
7.192845781468420228e+02
7.866919593219101614e+01
1.179541485956771567e+03
-1.495123865617067622e+03
-8.733140538747207984e+02
-2.102246741966458558e+03
1.013185010798240796e+03
-2.849364886457131547e+02
-8.616019875118303162e+02
-1.351835067930336209e+03
3.704302173013205106e+02
3.622199721576226352e+02
-4.003335039600470964e+02
-9.101739500509485197e+02
-8.063172734682437977e+02
-6.768506802260827726e+02
-7.159057040825307467e+02
-5.773815890961941477e+02
-1.302735804246754299e+02
6.103761667623783751e+02
1.120690857163985584e+03
1.154915569650039515e+03
1.050304293489527254e+03
1.533031364444114161e+03
1.956731256346134842e+03
2.032968430829256476e+03
2.048022512672202993e+03
1.975077812954765477e+03
1.656024607024429997e+03
1.302682869265355976e+03
7.819143581657299364e+02
2.673334581439964097e+01
-2.878356380438560791e+02
-5.343724958987817217e+02
-3.478543539893797174e+02
-6.632058659514282226e+02
-8.272515352738820411e+02
-6.269245317173806598e+02
3.866438683007838790e+02
1.408452961467792420e+03
1.638493610391108177e+03
1.698806407059495314e+03
1.726497418271635752e+03
1.317513605456026426e+03
1.238675066067907210e+03
1.265215905434111619e+03
2.030340785954130752e+03
2.252668638763882882e+03
2.094879197099276098e+03
1.944852779933883085e+03
1.760767827801380463e+03
8.861061357751046899e+02
3.970682134204430724e+01
-3.493117936686799681e+02
-6.759023861608110337e+02
-6.162058815850004976e+02
-5.100847669472047414e+02
-1.784715723457339038e+02
3.313163242476725827e+02
1.001217973828888034e+03
1.301344265269283596e+03
1.412888556523896341e+03
1.275104951012587662e+03
1.017555129914635017e+03
8.488346961831882709e+02
6.560391325157293068e+02
6.272686900909541237e+02
5.915683330099737987e+02
9.197006027191449107e+01
-5.375336380141910695e+02
-9.849212970919603549e+02
-1.548170114913336647e+03
-1.892233818337286948e+03
-2.659188807399912093e+03
-2.390187088544209928e+03
-1.537163758050999377e+03
-9.379745415416057313e+02
-8.567182180832065796e+02
-6.345768023800842457e+02
2.715329916987630554e+02
1.124813697148693336e+03
1.358313735814327401e+03
1.689957337038531250e+03
1.691629189166917513e+03
2.133597204872062321e+03
2.284883879657885245e+03
2.251320450453167723e+03
2.110916413342232772e+03
1.853664437009204903e+03
1.456633907157525300e+03
7.339595463905669703e+02
1.225802645749325279e+02
-1.494596761672045488e+02
-5.942013500397929420e+02
-1.063941224051530980e+03
-1.767785227178347441e+03
-1.529542873148222498e+03
-2.691176113350018113e+02
-7.072551252687199508e+01
-1.422488035001046683e+03
-3.787156710708792161e+03
-4.199578709358273045e+03
-3.983816045993904481e+03
-4.147813742804117283e+03
-4.357498672971152700e+03
-3.818927650784935395e+03
-3.723271597378171919e+03
-3.313483515710346637e+03
-3.300438316999241124e+03
-4.298136961043493102e+03
-4.581637762914378982e+03
-3.693926680440298696e+03
-1.806970396645168194e+03
-1.324849551152412459e+03
-8.477788242757511625e+02
-4.548449119903261249e+02
-3.199273645345198815e+02
-1.287414432926822627e+01
8.394156584374323984e+02
1.677863660769298122e+03
2.468422303140248459e+03
2.699176204296828018e+03
2.572276076520401148e+03
2.533629688115687259e+03
2.638165028234916008e+03
2.962934153842027627e+03
2.913823294950019317e+03
2.792927163431368626e+03
2.862279811732553753e+03
2.659822146716078805e+03
2.615561205420220176e+03
1.589539951003094075e+03
7.477898375730419502e+02
-6.575415671066208745e+01
-4.781800067956804696e+02
-7.324572485516129063e+02
-5.856182143250007357e+02
-4.387020201414964617e+02
-1.616397183964857618e+02
4.546909521468549542e+02
1.505326676227837879e+03
2.213130019898350383e+03
2.376186869369954366e+03
2.261510480496184300e+03
2.103026296391112282e+03
2.002849370197557391e+03
1.654988105015783503e+03
1.717454165139184170e+03
1.603273929350360959e+03
1.290409276048818356e+03
8.958516634462482671e+02
1.105711832391440481e+02
-7.124218951020488930e+02
-1.216046549711589023e+03
-1.312268566082517054e+03
-1.385335747459746699e+03
-1.325413710543191655e+03
-1.142398260023143166e+03
-7.580665989395895394e+02
-3.042155805751789899e+01
9.975724438528501423e+02
1.364994847125688466e+03
1.315014497025809305e+03
1.178575619978681971e+03
9.895549850919736627e+02
8.999946688817979066e+02
1.230705598057042607e+03
1.940859207989803963e+03
2.112544768431213015e+03
2.017666914444982240e+03
1.445095354588371720e+03
-1.340833119968243352e+02
-9.726277443594256056e+02
-1.192564029588288122e+03
-2.770307956358503816e+03
-5.586711085478395944e+03
-3.628709192876657653e+03
-3.082371635510747637e+03
-2.617599832516061269e+03
1.816266245322769635e+02
-1.185564317121520389e+03
-8.881859274657826973e+02
8.855892564150764201e+02
1.206777202793525021e+03
1.333441821179894305e+03
-1.214004541397018784e+02
8.723424410077562641e+01
-3.526479976762674937e+02
-1.791923553830587934e+03
-1.550652246871417901e+03
8.141997045648297444e+02
-2.743692920042716992e+02
-3.176490917282035298e+03
-3.910037584955466627e+03
-3.211086378642341515e+03
-2.167794756034786133e+03
-3.999151112838851986e+03
-1.923072397585213821e+03
-2.297435105720457614e+03
-1.182793264936069733e+02
9.283831239217573739e+02
1.148586492921768013e+03
-3.206641977084291852e+02
-3.714405601998086581e+02
-8.596685993935271881e+02
-1.387260484609898413e+03
8.326838621776163336e+02
7.401698450379091128e+02
-2.528184214251596700e+02
7.608101879619443935e+02
-1.726949150557905796e+03
-1.891176545646359500e+03
-2.318990006902925870e+03
-1.854351196944169260e+03
-3.059213258062133264e+03
-1.989640771969440266e+03
-7.866296294361502532e+02
-3.802085677812348194e+02
5.894963252250507821e+02
1.195480177590906578e+03
1.866817232017391916e+03
2.022573754346006808e+03
1.845668820365513739e+03
2.356140256487120496e+03
2.309077159995494640e+03
2.172438826028382664e+03
2.531168082203634640e+03
2.932209211134940233e+03
2.389582637583997894e+03
1.758325470268216122e+03
1.511399281189882004e+03
7.117212022566725409e+02
4.122402751779688401e+02
-5.790549770030307855e+02
-8.641808831421856212e+02
-1.202098935295363304e+02
-3.431056685654562557e+02
-5.516199967936644271e+02
7.509256997411108614e+01
1.045842973837403633e+03
1.766938912363946656e+03
2.208221841796527315e+03
2.229405950394885622e+03
2.204549393037525078e+03
2.150156776164720668e+03
2.236893623577031121e+03
2.124671947195247867e+03
2.153307700010947428e+03
2.077895862925159690e+03
1.678422564410871246e+03
1.471676753145554585e+03
1.022139610575585493e+03
1.526415338939195863e+02
-2.437732634755986680e+02
-2.005371407942311919e+02
-6.826649917763290887e+01
-2.784735636539952566e+02
-3.440987758342220673e+02
1.480669581984040235e+02
8.300166384077787143e+02
1.708827055617717633e+03
2.307545485104944873e+03
2.875026208920676254e+03
2.779024587255312326e+03
2.654929382087315389e+03
2.309407536661766244e+03
2.536688985686125307e+03
2.636387958695686393e+03
2.600607140956773492e+03
2.276527496544098994e+03
2.188019530112255779e+03
1.652004610205874997e+03
7.644415496222749198e+02
-4.664914401653836507e+01
-4.973493212364500664e+02
-3.026792148433167426e+02
-2.126570182554563075e+02
-8.300249039384008043e+00
6.714250419396587404e+02
1.484558418446310270e+03
1.929029248189582177e+03
1.922844583708886830e+03
2.104048339057739668e+03
2.247640881413246461e+03
2.255624661073723018e+03
2.345981154797824274e+03
7.886440437536624586e+02
-1.276384233438729780e+03
-4.213019485276744490e+03
-4.906314694461399085e+03
-5.022273962226319782e+03
-5.851948909164206270e+03
-6.532293140551778379e+03
-6.650309570786445875e+03
-6.101013399582849161e+03
-6.256494052792552793e+03
-6.423829201580372683e+03
-6.094987222764945727e+03
-5.393893276652430359e+03
-4.522516846706948854e+03
-3.395785304897735386e+03
-1.638651558815651242e+03
2.398890769492188610e+03
3.718754477807796775e+03
2.220970529019965397e+03
-1.254456810747697773e+03
-3.370488761865798097e+03
-2.734138701735442282e+03
-2.472357090329828679e+03
-2.569144570852808556e+03
-3.256516546039981222e+03
-3.969460508966880298e+03
-4.680009356555536215e+03
-5.086136615700128459e+03
-5.409850478149154696e+03
-6.013168255306220090e+03
-5.588117196829326531e+03
-1.670635336669290382e+03
5.483796287051483205e+02
1.749912836905243239e+03
2.713972567782732312e+03
3.717629006992794530e+03
3.964941972200347664e+03
3.810929904178530705e+03
3.439587499693474001e+03
3.220933361580828205e+03
2.750979620367327243e+03
2.783731406838369821e+03
2.803222357434746755e+03
2.622488027299153146e+03
2.269567778873400130e+03
1.747376207465721336e+03
1.134907765437880244e+03
6.432144410817153357e+02
5.735772725525303173e+01
-1.097370925782492606e+02
1.128681584656846439e+02
3.302245311853757812e+02
1.087439566609746862e+03
1.367547810382801572e+03
2.172585359428872380e+03
2.728560763732795294e+03
2.321517425737742542e+03
2.407569606781280527e+03
2.528730036430352811e+03
2.396983640408739120e+03
2.188304363070253657e+03
2.277781595271914739e+03
2.474395787425346498e+03
1.806105929400836203e+03
1.094963833265355561e+03
7.960334885728786958e+02
5.673877841726044835e+02
-5.605697809436054513e+01
-7.403641110884509544e+02
-1.204453898028008325e+03
-1.259284497639556776e+03
-8.857262588687165135e+02
-5.948788207552897802e+02
2.164254312078463443e+02
1.148333804828559778e+03
1.546910042244773649e+03
1.419145500232136101e+03
1.134102524111228149e+03
1.141787435775717540e+03
1.218244439005038203e+03
1.067441854401999990e+03
1.219299027064222173e+03
1.062797205643911639e+03
8.350315219708753602e+02
5.988887650286682174e+02
5.126228195744516114e+01
-6.918991891819283637e+02
-1.076556184648671660e+03
-1.147727193264761809e+03
-1.243415570649601250e+03
-1.646621545184945944e+03
-1.656364176031147508e+03
-9.616393613058296523e+02
-2.753744791478921456e+02
5.724534708325641077e+02
1.103787939595692933e+03
6.866129395367664756e+02
1.309004945969704977e+03
1.722964504358489194e+03
1.647476899065507496e+03
1.365525349658275900e+03
1.003099583577011117e+03
5.482664558438642644e+02
-9.903018548404173771e+01
-4.537300704427534015e+02
-6.488019546592638562e+02
-1.279302958663913614e+03
-1.751297612103078336e+03
-2.003763298302056455e+03
-1.890710567338486044e+03
-1.744181729635928377e+03
-1.484237024181945799e+03
-1.126838990663967024e+03
-9.709645404109561468e+02
9.843987391605736548e+01
1.000409311949510538e+03
1.096891135797606012e+03
1.275890478529336860e+03
1.104461298941458381e+03
1.029659227605162187e+03
1.054462533249001581e+03
1.184753270798858921e+03
1.175525612218685865e+03
9.358138155696426566e+02
6.305806263011720603e+02
2.437618227569859073e+02
-8.336288139508312725e+02
-1.566671370202546314e+03
-1.955364229110249880e+03
-2.407736797043656225e+03
-2.603828988817852860e+03
-2.387580432065285549e+03
-1.846890597444398963e+03
-1.988815275033742410e+03
-1.353434410913202782e+03
-5.475203845543548908e+01
1.022686051864729393e+02
-9.637531377893091644e+01
1.261680436929056981e+02
1.839823579676484542e+02
1.781329890599106420e+02
4.076278108553331094e+02
1.184350196884109749e+02
5.414431803244505090e+02
8.185490888556614664e+02
2.088152735244562450e+02
-3.525762907957579273e+02
-6.578492465423429394e+02
-1.098815651592739187e+03
-1.410551326676599274e+03
-1.125452644651501942e+03
-8.474293398977665674e+02
-5.646035882142540459e+02
5.611165934131908983e+01
7.418529016973586749e+02
1.224603284111871972e+03
1.222407592837587572e+03
8.751167965014656147e+02
1.229799640324000620e+03
1.336547596521298146e+03
1.199264735370071321e+03
1.216752066235720122e+03
9.912101304763833696e+02
8.438344728398383268e+02
6.813829108932516192e+02
1.386679568410302466e+02
-6.263475843958772202e+02
-1.696482882743578557e+03
-2.020126274752729614e+03
-1.901112850976086293e+03
-1.561622999821246367e+03
-1.154533151078816900e+03
-8.337381639471028620e+02
-6.030396822799095844e+02
1.024465491261552330e+02
1.018650937244435681e+03
1.318627486786061354e+03
1.078098431554818035e+03
9.602426581093324103e+02
1.199252309910199529e+03
9.059193129058568275e+02
8.274412098424544411e+02
8.866983604899926377e+02
6.097667104066526917e+02
7.254591120080934843e+02
5.208108663442325224e+02
-1.344903088608461417e+01
-7.754674350839013641e+02
-1.261059026877945371e+03
-1.504170051616082901e+03
-1.334740303038699494e+03
-1.027830685182402704e+03
-1.110351724360979915e+03
-7.282031054371179835e+02
5.035498943383358323e+02
1.043995948298315398e+03
1.241182093809079333e+03
1.255035370308249412e+03
1.390516125442808743e+03
1.554685518855602595e+03
1.513406158985121237e+03
1.259579071769566553e+03
1.114483415658520926e+03
7.660095263699782890e+02
4.492296152251969374e+02
1.143974277841189462e+02
-5.457377442511070740e+02
-1.024201681720296847e+03
-1.537823131979271693e+03
-4.035713424181047685e+03
-3.678776963158312810e+03
-1.969933163151462168e+03
-1.303497336417506858e+03
-2.905384479959126566e+03
-1.543336339211550012e+03
6.696792700506856590e+02
9.515950167546932335e+02
4.285332603358669417e+02
-1.417597479868584287e+03
-3.707859170329471681e+02
-2.959089905847512000e+03
4.133661835813756511e+02
1.826609624857704148e+03
8.886952656865754534e+02
-9.312864691114375546e+02
1.365658095485180411e+03
-1.187499499297375905e+03
-2.198719243801312132e+03
-2.959958853055091367e+03
-1.719200084322520297e+03
-3.292642089550789933e+03
-8.923897146790737906e+02
-1.869351182337314413e+03
-1.202537372199937181e+03
8.820886322349132342e+02
-5.172541276104412873e+02
1.272558454907599526e+03
9.014661832568131103e+02
4.654973876330337816e+02
1.842674377993776034e+03
2.074044139283872937e+03
2.112643978419269843e+03
1.867325211842202179e+03
1.910974802915344753e+03
1.205798140485434033e+03
6.478826281173161306e+02
3.702032499577818498e+02
-1.432077372571725675e+02
-6.093674395937330246e+02
-6.494217697050978586e+02
-8.725084099000780498e+02
-8.605671781921877255e+02
-4.014915642053005058e+02
2.556321115340524273e+02
1.143922926147105727e+03
1.787586509086499518e+03
1.601525146218466261e+03
1.159926068124056883e+03
1.449997991716669048e+03
1.466773670587534298e+03
1.492039963747387674e+03
1.311501597148268274e+03
1.215182588254031089e+03
1.187193919164488307e+03
1.380669046421511212e+03
1.447723685238460348e+03
7.023413408311990906e+02
-5.495473764308837872e+02
-1.275042565234232598e+03
-1.862109926270710275e+03
-2.196580111616484828e+03
-1.722515319634270099e+03
-9.961607625618399879e+02
-4.755130339865394262e+02
7.163968518135429520e+01
2.960697713846744250e+02
9.947907932143971266e+02
1.483106657213850667e+03
1.757871684066819626e+03
1.736080462697706707e+03
1.673572996791644755e+03
1.589422481056391007e+03
1.237526612301166779e+03
1.078889103513448617e+03
8.946407500452105523e+02
5.357100433782391065e+02
-1.839425208813150903e+02
-7.133216648571788028e+02
-2.876132471734422325e+02
-4.965000447892099942e+02
-1.105287077947221178e+03
-1.091082860206150144e+03
-5.428637905257999137e+02
3.260232118630024729e+02
1.089677811707391356e+03
1.473262271113931547e+03
1.560865222775047869e+03
1.526630213709259806e+03
1.421316468481254105e+03
1.652783487609835220e+03
1.610035880312352674e+03
1.135151953906143717e+03
9.983210517352192710e+02
1.229546665842407492e+03
1.653685504896958037e+03
1.009612457224598757e+03
-9.596815022606688217e+01
-9.010005815485166067e+02
-1.247323867622420721e+03
-1.336980858939175278e+03
-1.601905236361965308e+03
-1.603235856127618717e+03
-1.567028966895778922e+03
-3.812730493978241384e+02
8.540053240908877115e+02
1.707652160959609546e+03
1.844700621524297276e+03
2.480289609464842215e+03
2.633517827172282978e+03
2.178238609315700160e+03
1.742460580204175812e+03
1.656260553056758226e+03
1.884562947110212463e+03
1.674333425756770339e+03
1.586715355308471317e+03
1.366763861275950831e+03
-5.487322316809145377e+02
-3.145970649510465591e+03
-6.470888136636410309e+03
-7.927249590503965919e+03
-8.375227875495016633e+03
-8.419997315897941007e+03
-7.978498807079818107e+03
-7.164671899398948881e+03
-5.826458443985333361e+03
-4.054835434866709420e+03
-3.740782337911373361e+03
-4.091185861281220696e+03
-3.565144065486840645e+03
-6.365096084628688544e+01
1.420125750093910938e+03
1.784143331467506641e+03
1.412707556591647062e+03
1.177988672857428583e+03
7.497315303351376770e+02
8.358131663690119240e+02
1.079257791758817120e+03
1.204063228957041247e+03
8.381066956046348650e+02
9.453256969411378350e+02
1.417773135374644198e+03
1.298393428756325420e+03
1.160243335181665998e+03
1.667589810204524383e+03
2.184503663277107080e+03
2.821983490228781648e+03
3.054945164176243907e+03
3.347342989000336729e+03
3.434173452484233621e+03
2.667461390074668998e+03
2.377361346053887246e+03
2.787864500194385982e+03
2.622878006372291566e+03
1.972354645609538011e+03
1.583249654806875469e+03
1.217602865247312820e+03
7.275250421241726144e+02
3.621778946559226853e+01
-3.552781328517134511e+02
-9.380125142655251693e+02
-1.134123333879281745e+03
-8.718122421259472503e+02
-1.180967866924863301e+03
-1.753673643598827084e+03
-1.155999945007123642e+03
3.664920900221928832e+02
1.887079816312248568e+03
2.091598981228013599e+03
1.825963731042537574e+03
1.894214553365080747e+03
1.805363820593213404e+03
1.333336601975188159e+03
1.145124416716626001e+03
8.992942227897958674e+01
-8.602461801062416953e+02
-1.998201134774937145e+03
-3.297953517951887534e+03
-3.283683338606419511e+03
-2.124671770708335316e+03
-1.664810446272335867e+03
-2.162876886744009880e+03
-2.765755325813110630e+03
-2.717174770282119880e+03
-1.952296709168681218e+03
-2.328117136707066948e+03
-1.840664231413999460e+03
-3.029123823978007408e+02
1.411303868424701704e+03
1.951161162159746937e+03
1.767285206778411066e+03
8.334597005098671616e+02
-1.015141759978154028e+03
-2.545423897068908445e+03
-2.198341826666936413e+03
7.922909510093390395e+01
2.281308223398723385e+03
2.768906070407977495e+03
4.473280744078096518e+02
-2.366337922476865970e+03
-2.483236942405807440e+03
-1.737518884440894226e+03
-9.432328409697687448e+02
-1.038348796356034654e+03
-1.411035609539580037e+03
-1.432436317427918766e+03
-1.314321553684428864e+03
-5.933803330080517071e+02
4.754408107197110098e+02
1.280980277093636914e+03
2.765114181621247099e+03
3.312726661505570064e+03
3.155846279696433157e+03
3.313763069702997655e+03
3.007411982298464409e+03
1.626610356742060958e+03
-8.752610940033166287e+01
-1.597849095988416821e+03
-2.401583639321879673e+03
-2.526738715902833974e+03
-1.772162345631021708e+03
-9.799053677962352822e+02
-1.444164541229194583e+03
-1.336020900938551904e+03
-1.782290151448455845e+03
-1.970812813671442655e+03
-4.987038801624815960e+02
7.320816833276035140e+02
1.084749113905040531e+03
2.132367703197473475e+03
4.323816897475604492e+03
5.544083964358579578e+03
5.722932251061228271e+03
4.635337023350772142e+03
1.608355809704970397e+03
-2.389644943771964165e+02
-9.966606895757781786e+02
-1.298845355645900781e+03
-2.372485294252454423e+03
-2.983534050056279739e+03
-2.764041470394910448e+03
-2.694142491051307843e+03
-1.962003457081984607e+03
-5.445220338856064473e+02
7.274015927260082890e+02
1.862788943788946426e+03
3.039527466059922062e+03
2.156775919885489202e+03
-2.644877894374527614e+02
-2.134244990739932177e+02
-1.500921258990410934e+03
-3.253995944645172585e+03
-1.318711615166463389e+03
-1.406159847923930784e+03
-3.098479928507624663e+03
-2.992583304341622807e+03
-3.659339526631646550e+03
-2.663553938560872211e+03
-3.944432020408223707e+02
-2.446408452463849699e+03
-4.489122818628844470e+03
-3.608600145613114364e+03
-2.255980598916227336e+03
-1.540315964561447345e+03
7.624751442632004910e+02
2.364211134163972929e+03
4.311090370048325894e+03
5.377930633329849115e+03
4.895019009040856872e+03
4.125045334494457165e+03
3.080531268031967556e+03
3.240207734990508015e+03
3.641083256968434853e+03
3.706617010795299848e+03
3.815415384152810020e+03
4.548267104353678405e+03
6.328929546236390706e+03
5.951062550927191296e+03
4.214379993658598323e+03
3.037410226008548307e+03
1.292055849298745215e+03
-1.338560534528131257e+03
-1.814850554942406234e+03
-1.148366310008412029e+03
-7.456938580295799284e+02
-1.064596822265426965e+02
7.116873480173550206e+02
1.899636861796283938e+03
4.039271605907109915e+03
3.863483371025479300e+03
1.190267600534550411e+03
4.245276317783428794e+02
7.972189815880639117e+02
1.482387786701531468e+03
2.654009110965789205e+03
3.997077226860812971e+03
4.173520200139155349e+03
2.649285221555488079e+03
1.213445741792499348e+03
3.508886970019385103e+02
-1.931471695541931240e+03
-3.268596315760698417e+03
-2.231528065778484688e+03
-2.338245567929515346e+03
-1.934660308530205384e+03
4.642645177145754474e+02
2.272412998266197974e+03
3.508821704213667545e+03
1.315522769518344376e+03
-2.132403074242042749e+03
-5.030896412040700852e+03
-6.301966675034585933e+03
-5.401721219613801622e+03
-5.202224803054437871e+03
-5.998500471253859359e+03
-7.884467291565134474e+03
-9.215162793052706547e+03
-7.971584540959208425e+03
-6.626573691341405720e+03
-7.285234627293074482e+03
-4.532658272575298724e+03
-6.304067879552911791e+01
-8.000819195284567513e+02
-4.502726231485085918e+03
-4.008015235641312756e+03
-2.442973160060421833e+03
-6.225650844061432281e+02
-8.347270052993455920e+02
-6.434819259933732383e+02
-1.957797339598608005e+03
-3.631639107904918092e+03
-3.493003980129081356e+03
-4.174927389825749742e+03
-5.894432754156166993e+03
-6.830457476085131930e+03
-5.904996731371623355e+03
-8.091464189565906509e+02
8.951996213161748983e+02
1.806152397735969771e+03
3.934647907695798949e+03
1.137570103130763755e+03
-1.251096957023355344e+03
-2.076253735572554888e+03
-1.537865251890472564e+03
1.124058026548947510e+03
1.789554197937363597e+03
8.246640796693682205e+02
-3.695797145474296599e+02
-8.011156345820824072e+02
1.363244702228111464e+03
4.232556031128289760e+03
6.120706753005565588e+03
6.773558189726665660e+03
3.932263779442170289e+03
1.811958096609632094e+03
1.776612024812426625e+03
2.143148526148526798e+03
3.486546517075581505e+03
4.227820833207689248e+03
4.554953855939859750e+03
4.332967908805362640e+03
4.431833856726274462e+03
2.605497477629402056e+03
6.569251619494010583e+02
2.502489770398516384e+02
1.718516727473958554e+03
1.839823551084209157e+03
1.265249846838055873e+03
1.597818248772439119e+03
1.435476315286346562e+03
9.132074056470239611e+02
1.964079949307570814e+03
4.081116551678421729e+03
4.001308809641012886e+03
1.562822124061757449e+03
4.064745160949981795e+01
1.704873571007381088e+03
2.237517988933458128e+03
8.966917646443272361e+02
-2.706074787496321505e+02
-1.368370251322361582e+03
-2.106695888916024160e+03
-2.371699265676844789e+03
-2.270384407765320248e+03
-6.885974766212818849e+02
3.157488930264082114e+02
1.402625229946443369e+03
2.337682364685836092e+02
-1.982610030489312976e+03
-8.182353140109909191e+02
2.807918066316947716e+03
4.022581714999455471e+03
4.104608829361611242e+03
4.536932050824291764e+03
4.650584606608965260e+03
3.371573232354496213e+03
1.672899002514426456e+03
3.915355743025769470e+02
