2.332397856724747385e+02
4.268980963097778840e+02
1.265970108674688817e+02
7.129920266087270875e+01
1.719459087131998558e+02
8.355924930341502943e+01
-1.778887985188230800e+02
-9.253830632622672283e+02
-2.618870421627133055e+03
-4.494362829020315075e+03
-4.639883933823358348e+03
-4.564469026454378763e+03
-4.877111151515889105e+03
-4.477822147590068198e+03
-4.362614614894956503e+03
-3.971476973721856211e+03
-2.303418327055476766e+03
8.453144074150402787e+01
4.803930738870809591e+02
8.982839683654472083e+02
8.320991053855407245e+02
9.458097146584531174e+02
8.054908963572544280e+02
5.480669180820621023e+02
5.154800367067083471e+02
7.667870872255344921e+02
1.090972210465242142e+03
1.220030549264016827e+03
9.280102694247718773e+02
1.179883240868389976e+03
1.181666048093184827e+03
9.413380043353411111e+02
8.319286859683439843e+02
1.017385457178323122e+03
1.080619476569743028e+03
1.286696932846806249e+03
1.127548484768675053e+03
1.032205034398396037e+03
1.155685394746495376e+03
1.291963120086358231e+03
1.428159515866105494e+03
1.520349344291803391e+03
1.213378325213422841e+03
1.204261825505003344e+03
1.206882030747499812e+03
1.015347434642445364e+03
9.326465908803777438e+02
9.547912350479710994e+02
9.188047199943769101e+02
8.006616631157312440e+02
7.583288744048830949e+02
7.548190779428914539e+02
9.401032246780860078e+02
1.215176149001431895e+03
1.576034424620489062e+03
1.397726024964313183e+03
1.281236943754354797e+03
1.105603577382573121e+03
1.162812373348614528e+03
1.110864928662822194e+03
1.057710730065947473e+03
1.146365246448257722e+03
1.415851923068906899e+03
1.662164848872449284e+03
1.323317981970551955e+03
1.193284222161701109e+03
1.375074100168060568e+03
1.135684347418652578e+03
1.021186558336316352e+03
7.946577185038514699e+02
9.198646904268300659e+02
6.939289531538678375e+02
6.348251992509021875e+02
5.955034021231476800e+02
7.019823997465051661e+02
6.393024498133665929e+02
6.274467975469646035e+02
6.934337170502977870e+02
7.662586958436734221e+02
9.889273132661545560e+02
1.339467138172679142e+03
1.172806654211408613e+03
9.410109139559647247e+02
4.930332033387211368e+02
4.239128817645163281e+02
7.536739958543839748e+02
6.273192787632794989e+02
6.858294262809130259e+02
-3.158088044065044073e+02
-3.165585190560847423e+03
-4.364500563220218282e+03
-3.999580859588319527e+03
-4.089792763668476709e+03
-4.409100833796417646e+03
-3.748531076360025054e+03
-3.947066662400354744e+03
-4.113700120336498003e+03
-3.908448964988035641e+03
-3.874291291382103736e+03
-3.572224042162078604e+03
-3.145212122174541491e+03
-3.202263710640775116e+03
-2.738359154565997869e+03
-8.515240779517581586e+02
-1.437750674586501191e+03
-3.439044725842839398e+03
-3.480388642842371155e+03
-3.255785785887335805e+03
-3.055273277310227513e+03
-3.011832649737892552e+03
-3.381397158389851029e+03
-3.714945751891742020e+03
-4.150539692961263427e+03
-3.811153383665994625e+03
-3.262783477986705748e+03
-2.824446714967072239e+03
-2.390152517985451141e+03
-1.904898104408430754e+03
4.663056928478664531e+02
1.525525522403027480e+03
1.851772404629937455e+03
1.997007233020738795e+03
1.875247958473762992e+03
2.290487441593999847e+03
2.459737332638607313e+03
1.899971825732286561e+03
1.719188744684812718e+03
1.475461832761684946e+03
1.325789104538573156e+03
1.306108962347708939e+03
1.603456709313814372e+03
1.828819929176428559e+03
1.905196853811145274e+03
1.982595551337359211e+03
2.011221969568432314e+03
1.737005351533280191e+03
1.453827127086824703e+03
1.610577819824812423e+03
1.581339068629323492e+03
2.104247502949780937e+03
2.379119824986552430e+03
2.275976743553711913e+03
2.064807899164577975e+03
2.121638062062353129e+03
1.793438289147135720e+03
1.156240795190422205e+03
1.342035047727910296e+03
1.411801528810115769e+03
1.412502206278410085e+03
1.349200917881672240e+03
1.270184386846078951e+03
9.492166814461013473e+02
6.392122929373282432e+02
5.231976120350175279e+02
7.741559416411589609e+02
9.710045953430242207e+02
9.470391897150601608e+02
1.066154377167015355e+03
1.108285543205917975e+03
1.026469668310185625e+03
9.335478586174125439e+02
4.986063047141261677e+02
4.198104327833859770e+02
6.993400076589505261e+02
1.224799220209469240e+03
1.335189983248303406e+03
1.201523483020276444e+03
1.423851211336335155e+03
1.396043797903442282e+03
1.453243063948796589e+03
1.263611361206292258e+03
1.275955270378015712e+03
1.108445521989383451e+03
9.398803519214867492e+02
1.037170391565399086e+03
6.593808141355505086e+02
3.275493701555110420e+02
3.836508195438721600e+02
3.117026372015563425e+02
4.227359951747006903e+02
1.012653289016340409e+03
1.669432726969997020e+03
1.653163968357926251e+03
1.910820617109899786e+03
2.280407546267620091e+03
2.238910160944393283e+03
1.965289021225015404e+03
1.718526304640982289e+03
1.201514064932954852e+03
7.434347639258412528e+02
8.052920601412189399e+02
5.940060038082771143e+02
4.406050864117208334e+02
-1.440027614701046161e+02
-9.076557974381066742e+02
-1.571355254482852160e+03
-1.743206693078378294e+03
-1.592241397738818478e+03
-1.463420892152210399e+03
-1.426741821778837675e+03
-1.953217720916213693e+03
-3.369871664363945456e+03
-4.870709188551812076e+03
-5.785740964035002435e+03
-4.697944188022524941e+03
-3.569368197584369227e+03
-3.297929267748695565e+03
-3.896675795607892724e+03
-2.414605042198514639e+03
7.328802856580669811e+01
2.670129188850329456e+02
-6.924193917491547836e+02
-4.056063386698985141e+03
-4.901922315107349277e+03
-5.321018280679774762e+03
-5.305342497136033671e+03
-4.983851206082418685e+03
-5.368546239800538387e+03
-6.380463229895441145e+03
-6.767620111565157458e+03
-4.860971637481287871e+03
-3.053546459558245260e+03
-1.656304967819736476e+03
-1.188216346007459379e+03
-1.258270000998374144e+03
-5.624715370729572896e+02
5.642117631846326731e+02
1.795735296611803051e+03
2.051058667281668932e+03
1.721163221429721034e+03
1.998086218664975377e+03
1.761786574783071501e+03
1.696272496622017570e+03
2.014585798130179001e+03
2.706736834718445607e+03
3.438735344678065303e+03
3.742563437498173244e+03
3.020214513287830414e+03
2.523691094974245516e+03
2.503986562957343722e+03
2.257161904974992922e+03
1.890178858689698700e+03
1.942046444001170357e+03
1.892807307587293508e+03
1.958432343154486716e+03
1.738918925365602036e+03
1.617301159007328351e+03
1.241571477575433391e+03
8.837194207529965979e+02
3.337763821496471337e+02
-3.127179748204432030e+01
-8.523863177332513033e+02
-1.065563167051284154e+03
-8.108266421119159304e+02
-6.851308891928167668e+02
-4.234790933762115515e+02
2.361177756356080408e+02
1.586679631508942521e+03
2.445254608433564499e+03
2.752845585688574374e+03
2.069445630781555792e+03
1.588072570257341113e+03
1.087724813101855943e+03
8.464120107087962879e+02
9.362152242415634191e+02
1.077224107373388051e+03
1.053517330798089688e+03
9.599627013527997406e+02
1.085550183092680754e+03
1.072353976296776409e+03
8.623361692657350659e+02
7.334829817155500677e+02
5.927453894720599692e+02
-1.289962958425331578e+02
-4.147544807696173734e+02
3.196050173678839883e+02
3.291102741918421088e+02
2.397605511610242672e+02
5.885259939285363089e+02
9.194587929514582356e+02
7.395767518110368428e+02
5.598492549674995189e+02
5.232631640788090408e+02
1.928043628750194500e+02
1.364901119693863052e+02
1.174122474288488007e+02
3.005112391872513058e+02
-1.318575352036781290e+01
-7.654200461361302388e+00
9.811105547515840897e+01
-1.259270931267902398e+02
2.742354483371386777e+02
5.864195535076649435e+01
-1.826689911382509024e+02
-3.166971526756448156e+02
-5.484672720800136858e+02
-5.599940721952973490e+02
-6.512295485190832096e+02
-7.392043569630553748e+02
-8.548601605548665248e+02
-8.942151953753841553e+02
-7.172541160810551446e+02
-7.589590092877105008e+02
-9.003477249564612066e+02
-8.644271845086833537e+02
-8.211842047341006037e+02
-9.475806742181993059e+02
-9.386270787474771851e+02
-9.233100613017057867e+02
-9.886546940810900423e+02
-1.084668355151264677e+03
-8.733562582139051074e+02
-8.166925763779984209e+02
-3.176547113460517267e+02
-1.252483166973531468e+02
-9.045539247076577283e+01
-3.962952348760957193e+02
-9.257393302253852880e+02
-8.358193492571450633e+02
-9.285598843592807725e+02
-8.029454537198686239e+02
-7.329200814570128841e+02
-6.424964306426488747e+02
-4.577339088411745252e+02
-2.985860908608595992e+02
-1.740665329704681028e+02
-5.313313771438932775e+01
-1.579803624880467616e+01
4.091175168848825905e+01
-1.310099402639629034e+02
-3.605441900886165172e+02
-5.047419835648577759e+02
-4.575717891093327694e+02
-4.000202673632896904e+02
-4.311898956020878160e+01
1.641269612987106825e+02
4.156797197239408206e+02
-1.064650509685136797e+02
-5.324881867929003931e+01
-2.872968522599284213e+01
-8.793466494102924003e+01
1.851194892470728064e+02
4.234935193546500045e+02
2.492543072305314809e+02
1.574173724450930933e+02
1.271245780479834622e+02
3.297001959633452657e+02
9.686244508787224561e+01
9.935221790531718966e+01
1.862003781610328588e+02
2.634235701605692839e+02
2.429091033389470340e+02
2.435882614153657357e+02
7.453393082536432068e+00
1.786911507388923894e+02
3.182886788475460094e+02
9.825799166211403701e+01
7.475187783506014227e+01
2.324589262265816387e+02
1.060906187446415458e+02
2.198053633392842698e+02
3.588118975045069305e+02
6.002633025766881474e+02
4.721242557180423773e+02
2.532682077144180255e+02
1.735533204315911746e+02
2.959497278157832056e+02
3.514731273974987857e+02
2.640822042413089434e+02
4.137876447292991884e+02
4.944196925532883711e+02
6.258988586271773329e+02
4.043840893938977388e+02
2.609213458293334611e+02
1.315073180275470008e+02
2.619388794096271909e+02
4.994302666786523446e+02
5.988555418076325623e+02
4.831198858549239503e+02
3.122043207399751736e+02
5.140364750515791457e+02
3.776435963448347479e+02
9.705536336191769919e+01
3.832214452814704373e+02
5.521558132221846336e+02
3.368543312851742826e+02
4.032797411545502086e+02
3.493978579167597331e+02
1.542350489504308371e+02
2.376349020862795314e+01
-8.050662643647202188e+00
-1.020421115526403000e+01
2.503507864041883124e+02
3.296058691850832929e+02
7.364923944678313319e+02
8.710380313955541851e+02
9.991926073653950198e+02
9.759706021811009578e+02
7.453701967944627995e+02
6.834050301618472076e+02
2.200269970387337537e+02
1.863010694752293830e+02
1.082432017197638316e+02
-1.332000857304025772e+02
-1.731035408560009728e+03
-2.742257787698473294e+03
5.121181546242713694e+02
1.223087785788356996e+03
5.736951761251162907e+02
3.249101070681572878e+02
-2.042514653482604956e+02
-2.351819215150556829e+03
-1.268803205073480740e+03
-1.072177639816832198e+03
-9.439734550033359710e+02
-4.416093258344578487e+01
-1.713730205853175221e+03
-2.553683256238921786e+03
-1.474976503933540926e+03
4.913551008701874139e+02
5.322770748827529133e+02
5.017798250402644840e+02
3.588748881502798440e+02
1.285846003289933037e+02
-1.856109186663505398e+03
-2.143178086284481196e+03
2.063494828881324565e+02
4.755211397780905145e+02
5.333199781426889103e+02
4.657650183594765849e+02
1.158824227576492518e+02
2.367492934265072080e+01
2.751580849795093968e+02
4.423315334585576579e+02
6.372055027140223729e+02
9.577874290915377742e+02
7.170857648915457503e+02
1.040519399122813127e+02
2.336470578506424260e+02
5.009432481388490146e+02
6.589485909883250088e+02
8.496460369261416190e+02
4.860587944107503517e+02
3.742337274988236118e+02
-1.360813966657000037e+03
-1.080013052089338089e+03
-5.739487501543496961e+01
-1.700000492531677025e+02
-3.847748358973782388e+02
-1.945718066230647537e+03
-9.417631683319474405e+02
5.613299061684894298e+01
2.780005683530508236e+02
9.682403730825133437e+01
6.856032472243964548e+01
3.141987303523813466e+02
4.867120863590105273e+02
3.611542626748068301e+02
2.916710396600203694e+02
1.554518067494278739e+02
2.754985380648378168e+02
9.867396290115816271e+01
2.299694259458768784e+02
2.833464171286980218e+02
1.358835522152714077e+02
-3.147378452616090883e+01
-8.384556353494552638e+01
2.078416509055747383e+02
1.057536414842821983e+02
-4.888428599550229237e+00
4.795783347423438592e+00
-5.813292084377906122e+01
-5.272584574684081105e+01
-9.224096493111555617e+01
-3.334771695595939036e+02
-4.363080070823891674e+02
-4.177613421462968972e+02
-9.400542331594260759e+02
-1.098138771379248738e+03
-9.748629249869439946e+02
-8.213894509708783289e+02
-7.817829032603819996e+02
1.902367194277396756e+00
9.256286860013794922e+02
1.139375505170308088e+03
6.652191179206457718e+02
5.271952843118876899e+02
1.882544574345889146e+02
3.844637447450468670e+01
1.597802550595743298e+02
8.921439813757272930e+01
2.237274966945080052e+02
3.403386425559920099e+02
1.180435286375990671e+02
-1.980685776756317864e+02
-1.919765543903955347e+02
1.052881577956830910e+02
-2.462746289989610204e+02
-4.563791406331910849e+01
1.781702387783102495e+02
1.201646216207651747e+02
2.243511846208767793e+02
2.727668533565255302e+02
3.163923154098856685e+02
-2.476493434790116765e+01
1.643357150642329430e+02
-8.025947646211163544e+01
1.738433971430476888e+01
9.732443851667744639e+01
-1.804360698148574897e+02
-1.549363880318130953e+02
-1.871964117551834192e+02
-5.862046498458394126e+02
-6.940155320076790986e+02
-1.646962052164695933e+02
-1.532403322691843073e+02
-1.486352149724135074e+02
1.722074365716921136e+02
2.152897708871350346e+02
2.562048585428561154e+01
1.301873837575492701e+02
3.970506013177252491e+00
1.349495794420037953e+02
-7.086575472274832066e+01
-3.444632117733680161e+02
-1.858458608229404945e+02
1.949678931178727055e+02
1.420003687210411840e+02
-3.567504818599662713e+02
-1.102311264238263220e+03
-9.346146957902127497e+02
-7.377006258067591489e+02
-5.862054118557756510e+01
1.706474012987881395e+02
1.020799547671843612e+02
3.496871912980191723e+02
6.044496817827257473e+02
5.653611212061804281e+02
5.484336084914020830e+02
3.556678022274554110e+02
6.807028313073367087e+01
4.066112786458709820e+02
4.532597914920806943e+02
5.350369435860829981e+02
5.599278534827694784e+02
6.399104651633268759e+02
4.219745215054351775e+02
-2.887357194220913215e+01
1.043195516838019756e+02
3.126067765240283620e+02
5.039747382825154887e+02
5.294421394645817145e+02
2.869999231352791185e+02
6.126087556290909788e+02
4.592835765681891758e+02
5.259856783351285685e+02
5.377243776167658780e+02
6.974955511312857652e+02
8.282641846237296477e+02
7.330659163905914966e+02
5.368775056180095362e+02
3.286636623767138303e+02
4.284126783815645467e+02
3.961571239345253730e+02
5.248494440948177271e+02
5.064948321294826314e+02
4.900998143586024298e+02
5.326307707074537348e+02
3.250687178046011354e+02
3.674191718428565991e+02
1.836254659029129073e+02
4.237081844354979125e+02
2.946794861248159805e+02
5.055982436603993619e+02
4.604545376971495330e+02
2.841981038752992390e+02
3.218343679908315380e+02
5.023566811292078569e+02
7.177566031935888304e+02
4.910183092549069670e+02
3.981129887624133517e+02
1.800073933338700272e+02
3.577041298374693383e+02
8.272417563882441982e+02
6.546101868073166088e+02
5.277893565138651866e+02
6.967962922271851767e+02
3.916619867958944496e+02
3.273696335932515922e+02
5.478901713879887438e+02
5.312032440165791058e+02
5.333283831544940767e+02
2.662059128328878614e+02
1.628559075098219182e+02
4.043804259440265128e+02
-1.952963429283752248e+02
-1.647170228929457608e+03
-3.352226895189485731e+03
-4.104493793087832273e+03
-4.520021779309344311e+03
-4.557740406881372110e+03
-3.790670086919466485e+03
-5.968036808940139508e+02
8.288753784692121371e+02
7.013938309436235841e+02
6.937202646922243048e+02
7.928580958663457068e+02
6.278095793987904472e+02
-1.333414481117204559e+03
-3.842841746914921714e+03
-3.745425975861173811e+03
-3.798171154363818459e+03
-3.153080509163537499e+03
3.948723761473744958e+02
1.146364336333613210e+02
-3.657789581493836977e+03
-4.051400643837847838e+03
-3.955188369004387368e+03
-3.411139069143938286e+03
-1.081243673212471322e+03
6.355139190958595918e+02
1.042150092035381022e+03
1.222660737986016329e+03
1.404041162359065765e+03
1.205295852303801439e+03
1.114438785916214101e+03
-3.975206175074135331e+02
-2.942614959756847384e+03
-3.675876585294997767e+03
-3.626253788230153987e+03
-3.218751214213216372e+03
-2.900344344100681610e+03
-1.200281715132083633e+02
1.192177365904879707e+03
1.552331654666322038e+03
1.626430611388835814e+03
1.500435998980850627e+03
1.725369963427856646e+03
1.735245880694117204e+03
1.501067562106037030e+03
1.436828752702194606e+03
1.508518016476108869e+03
1.339181107313733719e+03
1.178793529287568163e+03
1.509387079108710395e+03
1.549937496997709104e+03
1.267458444596822801e+03
1.039937736377176179e+03
1.194369109375862536e+03
1.299771305265875753e+03
1.029121092509304390e+03
1.005374120152215369e+03
1.049547364659917093e+03
1.256676939904512665e+03
1.182805368378468984e+03
1.202924670759275159e+03
8.829999995057315800e+02
1.018087631652340633e+03
9.991339352045091573e+02
1.131052511021460077e+03
1.175027076595144990e+03
1.296214841999980990e+03
1.207669520396614644e+03
1.029850072831298576e+03
1.151909207985519743e+03
8.169868670175874286e+02
8.072549112774195237e+02
8.245908213216579270e+02
7.230610102094107106e+02
7.554175168942039136e+02
5.228058578525824487e+02
5.922775711442233160e+02
6.707212684614479485e+02
6.902378653555375649e+02
8.690165471713584111e+02
8.957691661694909726e+02
8.373421678020922627e+02
9.918685960847437855e+02
9.413856091763109362e+02
8.729078596052322609e+02
8.833809080377126293e+02
9.978534902297452618e+02
7.613758116060450902e+02
7.798670384380828864e+02
6.802028908808501910e+02
5.165463721776740158e+02
5.489033094967016950e+02
8.342154405818615714e+02
7.504781486056602944e+02
4.816478411411750926e+02
5.847474996555295093e+02
5.727814417579930932e+02
7.886903449415705154e+02
8.945218896691343389e+02
6.003382442431152413e+02
4.740687067122073586e+02
6.416982254658698821e+02
6.872315342667804998e+02
5.156450519417597889e+02
5.149839955860119289e+02
5.332384581075923506e+02
1.027545676747927018e+03
9.727309101733004582e+02
6.836841232598228544e+02
6.075363800919908499e+02
3.762858149949278186e+02
2.900569533590771130e+02
2.446532824516962421e+02
3.740852103799712722e+02
6.013666796932607213e+02
4.794878721020486978e+02
2.743836180641009648e+01
-1.203772234379834799e+03
-2.903156280312515719e+03
-4.457681439377181960e+03
-4.395361358995338378e+03
-4.140159898651135336e+03
-3.659109777206741455e+03
-2.926218707998993523e+03
-3.468496926746006466e+03
-4.219925009651659821e+03
-3.634524513935466075e+03
-3.047267796235878905e+03
-3.601118424764018073e+03
-3.489139573699091670e+03
-3.659304323712134646e+03
-3.535639489173114271e+03
-2.298134487625381553e+03
-1.111773568459279659e+03
-3.081566371283934131e+03
-3.599500415557823089e+03
-3.439571936384106266e+03
-3.227809552741156949e+03
-3.377181422623216349e+03
-2.500615895475173602e+03
8.208303542286720358e+02
1.878176943698863170e+03
1.672400069538788102e+03
1.508475127297303516e+03
1.438366170723191772e+03
1.443041885350144184e+03
1.595536011236056311e+03
1.552933955353623787e+03
1.371217110476182370e+03
1.203438536586050986e+03
1.191571289426521389e+03
9.605766489414429543e+02
8.484966120821183040e+02
1.165304624260878882e+03
1.094986159106351124e+03
9.965953397264112255e+02
1.179152293229868064e+03
1.353638307927220012e+03
1.213066019872750985e+03
1.139449143625276065e+03
1.008756345417631110e+03
8.910100117807617153e+02
9.132329722273279913e+02
1.094395078552636051e+03
1.068500590956466567e+03
7.456105824781858473e+02
8.087710256903121717e+02
1.198936900303652237e+03
8.081121017981465684e+02
4.392913186925168247e+02
5.534787402671021255e+02
6.806874986662747915e+02
4.789460566236310797e+02
6.222638027703668513e+02
6.246649031265591248e+02
7.571158499392671501e+02
8.105857139757226832e+02
6.251490401765717024e+02
5.067828425493704572e+02
4.604336474038448728e+02
3.861185786397354036e+02
3.298100877923320695e+02
3.606546828384811079e+02
2.397913238337731912e+02
1.001614863523984837e+02
5.198018633319192361e+01
2.551461858104063651e+02
1.624653650982495776e+02
1.728945175892872044e+02
2.643179546837789076e+02
5.992224930402237248e+00
-5.879058379073023133e+01
-3.021937095312862880e+02
-5.239044529151610874e+01
-3.741151578672601374e+01
-3.992485215086990706e+02
-8.698747764674747884e+01
2.085600443217818452e+02
3.038846000573126460e+01
2.045330481317510873e+01
2.507376582815365964e+02
3.602611632961653072e+02
4.300481824604557346e+02
2.070366119062549330e+02
6.022396167459286289e+02
4.226808650848106481e+02
3.023419825206709675e+02
2.462304520518751758e+02
-9.613153604964143284e+00
-1.681818056329234707e+02
-1.544911755103342443e+02
-3.145865768082047680e+02
-5.844212183885392875e+01
9.795699925535691932e+01
6.362265979034879848e+01
2.614951688040477507e+02
5.262497813734361074e+01
-1.500346220821379184e+01
2.961827736073705708e+01
-3.152321131240463004e+01
3.135946805843089464e+02
4.059596742854837430e+02
3.215607500690985603e+02
1.864710593057286019e+02
4.106436283933313121e+02
2.620467605542229421e+02
2.796712313052190098e+02
4.205053336516523927e+02
1.665737630243021954e+02
4.285153389975114635e+01
-6.165545798011331868e+01
-3.359525239149115237e+02
-5.370217789712964986e+02
-6.729130857950480049e+02
-3.215829068306362046e+02
-3.040882573364462473e+02
-2.873909482457484046e+02
-3.064998884464289972e+02
-8.644591576060204829e+01
1.257582518277424697e+02
2.981094226082941532e+02
3.256392487755608727e+02
-3.467864760850888217e+01
-3.968204707423245168e+02
-2.058376990005287439e+02
-1.237642157749391458e+02
-2.265642943370203852e+02
-3.432388826545505935e+02
-1.208139161207405010e+02
3.759186754785508899e+00
-1.854546398909366545e+01
-2.857733409563801956e+02
9.306156173006425547e+01
-3.590575701881883219e+02
-5.140672904224690001e+02
-1.260027065100430121e+02
-1.408562028447514649e+02
-1.116728702763311816e+02
4.167195959040520847e+01
2.523419115852972254e+02
-1.919446038030897626e+02
-2.039343501267909176e+02
-4.829242425642451053e+02
-7.087816605891713380e+02
-4.887764182273496658e+02
-3.399019784214387414e+02
-4.040406958331503233e+02
-3.582404889659317178e+02
-2.866304807985910656e+02
-1.750384894095133745e+02
-4.582140115421975679e+02
-4.952088061437398210e+02
-1.893375089229069488e+02
1.256514336596081307e+02
4.536334260924695627e+02
2.662715611528570321e+02
1.828432378992918075e+02
-2.275055742426331165e+02
-4.218080585101865267e+02
-4.670939829089125510e+02
-2.815937898221649789e+02
-2.772170628999031123e+02
-2.542473770423420092e+02
-2.375043515186385150e+02
-1.127439251503970183e+02
-1.057861982688664382e+00
1.143546075192716245e+02
6.206966376858906642e+02
6.890458192022873618e+02
3.244650619825429771e+02
1.258224756453408304e+02
-2.379871420383410339e+02
-4.460568603580950366e+02
-4.151270269643836173e+02
-5.636276896085304315e+02
-5.851166276391992938e+01
2.195077408530184471e+02
-1.586733958492719694e+02
4.392733229013824570e+01
6.128821676007578390e+01
-1.525743245038104021e+02
6.834716505462363045e+01
6.105178532011105830e+01
2.205610992820492697e+02
3.119034081498808177e+02
7.130408582972285103e+02
6.279473550350327287e+02
6.996511973863359799e+02
6.601805452896301176e+02
5.055417132434815812e+02
8.856907786313547604e+02
8.446501747664837012e+02
5.504640935231004732e+02
1.491136161621050462e+02
1.535960704990664283e+02
5.929260118676735374e+02
7.371027306293893844e+02
5.301194812134742733e+02
5.260324224801423725e+02
1.238363085928989449e+02
-1.772487713741197012e+03
-1.790942000982422314e+03
-1.353465111765277243e+03
2.859357225710705279e+02
-3.267589025751551617e+02
-1.196526150143780796e+03
-1.834382438403486958e+03
1.907076605755968615e+02
5.777340277342980244e+02
-1.902717015722474514e+02
-1.282295669055106828e+03
-1.359364965796281240e+03
-7.084300951958298356e+02
-4.424855357190029395e+02
-1.655546332372385905e+03
1.703696928954277610e+02
5.783108715197161018e+02
3.702713600253444497e+02
1.952757577607149528e+02
4.723292644372068594e+02
9.344250114052955496e+02
6.176017691604369020e+02
-1.386163900923426581e+03
-1.597863308427615266e+03
3.315241686973463402e+02
-9.430143462327699808e+02
-3.424442042168687408e+02
4.262529465316908954e+02
2.280568215391487854e+02
1.849511740500532255e+02
-4.199853890949992063e+01
2.217824752681955403e+01
3.095022636772405349e+02
8.102779958185220721e+01
-9.526297418310328169e+01
8.765472576673595029e+01
1.158168416772755620e+02
2.041974371936956629e+02
3.827859308495850428e+02
4.105885227222525486e+02
5.046526062103243362e+02
7.529610894983250091e+02
1.018458465058241813e+03
9.460988076205204607e+02
3.419061324208573183e+02
3.839415852578334238e+02
2.982190984150763597e+02
2.667433068413014325e+02
2.465009171600896138e+02
7.295118130665920262e+02
9.087407979015196133e+02
5.861381592138143333e+02
1.987737436912845226e+02
2.235958054216443713e+02
8.664496638031695852e+01
8.113186145810365701e+01
-6.582912750208880936e+01
1.946698130221386975e+02
3.665517883250653881e+02
1.478913613431763565e+02
7.784676496077720742e+01
2.272589788603867191e+02
-1.319849846109607370e+02
-2.550981299654071108e+02
2.279925015748880526e+02
3.595414933266382604e+02
5.065359605350872130e+02
2.569494445886496123e+02
2.057079252785270285e+02
2.707151852586312657e+02
2.700101943436543479e+02
3.817022318626262063e+02
2.899618959350191290e+02
-1.684485230344811555e+02
-1.947791896468864650e+02
1.030082120944254740e+02
-6.098298766639252477e+01
3.041727429937893135e+02
4.724571238904652546e+02
1.898358869924265377e+02
2.292643981678631349e+02
1.867275836628395780e+02
-7.579036468795790427e+01
-5.433881456453449488e+01
-7.891452503754283043e+01
2.995037441028628677e+02
4.669516292016497232e+02
3.484173252124508053e+02
5.278810188641745071e+02
5.373219268579246091e+02
2.707166643935320849e+02
2.320912563979811409e+02
2.014274282934095481e+02
1.186912342858827003e+02
4.878271044580529292e+02
3.228413430776054156e+02
1.607021386953027502e+02
2.723803597731387640e+02
3.538883455126490958e+02
1.022161157473315569e+02
-3.136622632175043464e+02
-5.673673747500901499e+01
3.570202501064921421e+02
7.065903093447609535e+02
6.018816069275860627e+02
6.480041598218723493e+02
6.649569431577606338e+02
3.256894950265152033e+02
5.011818082299548109e+02
6.874762768132725341e+02
6.875194195209051031e+02
3.382986655640349909e+02
1.098188351826847224e+02
2.850723135212078887e+02
5.006274337585163892e+01
-7.551885473507953748e+02
-1.944703181546777842e+03
-4.334503111828365036e+03
-5.107569987676189157e+03
-4.482926620435184304e+03
-4.389605305111468624e+03
-1.623646025612790709e+03
2.129763666975169940e+02
1.102411381686677458e+02
-4.258281788408167472e+02
-3.397252830149393503e+03
-4.192029280732651387e+03
-1.493115076568313498e+03
4.795097343535147161e+02
4.988912886077025064e+02
6.870073390897757690e+02
6.059008541092335918e+02
-1.166436550585751320e+03
-3.731393982828657840e+02
5.907553301359770330e+02
8.192832692349248873e+02
8.254326475302941617e+02
8.362093788794304601e+02
9.806431441922609338e+02
9.357435723073335794e+02
7.545515972817664760e+02
8.910707304515741498e+02
7.133676440790753759e+02
6.404657142930852842e+02
7.542849733676836195e+02
6.148488569534951012e+02
8.101531971684455584e+02
5.211073207609601923e+02
5.596490387131550506e+02
6.647577784275937347e+02
6.344798576154252032e+02
3.808373597864099906e+02
2.768338630615718898e+02
1.595235031269333490e+02
9.189913980651928682e+01
1.697134772483121878e+01
2.837715458915373574e+02
2.183004702153513392e+02
-1.633977892727941423e+02
3.797554459562491616e+02
7.717569701978941339e+02
7.196356723014957879e+02
7.674418076024671791e+02
5.591583115009144649e+02
7.087365389076379643e+02
6.681955628609090354e+02
4.555838561077379154e+02
4.318933309953740718e+02
4.570626202051208793e+02
3.250394077379741020e+02
4.688578862046061886e+02
2.984660727788146914e+02
4.569266346949355579e+02
4.352722203146056472e+02
2.675429234149505078e+02
1.517236210738291504e+02
1.477990296397738916e+02
1.957873227178905893e+02
7.166706036302851146e+01
1.724534492144859428e+02
9.625540593061765549e+01
3.498060608556311735e+01
-1.061276543706383251e+02
-1.921689601790739630e+02
-2.351680290735878316e+02
-3.115323166692179058e+01
1.838639427287159833e+02
2.569072126850895188e+02
1.704266933157787633e+01
-4.126935083097851589e+02
-2.722028645046668771e+02
-3.635852942609272986e+02
1.631240764621262826e+02
-7.259959565400911288e+02
-1.216922338401627940e+03
-7.962864034406719327e+01
-1.904116415044023825e+03
-1.773847182900725841e+02
-1.806471617516851893e+03
-7.803479811808632576e+02
1.029620646264755237e+02
1.463700324341733960e+02
4.699433338509836631e+02
4.127228044571797341e+02
-1.330306997501085107e+03
-1.271071982685110243e+03
2.224088109550821173e+02
2.091436154500906071e+02
-1.702933559437075246e+03
-5.107721532832803177e+02
2.196913714085052902e+02
2.854639720715449016e+02
6.695824036061414972e+02
-1.209974548086638151e+03
-7.881847773518036320e+02
-4.703166608946442295e+01
-1.770488989201122195e+03
-8.759584963018265569e+01
-2.105321683893892441e+03
-3.199727575381224597e+03
-1.145922265314898823e+03
2.711135960116524757e+02
-1.229585571163587019e+03
-6.103593592501573539e+01
7.707743629285823772e+02
1.032826526429175601e+03
1.077206659339590033e+03
4.459302957471051059e+02
-1.213028943972002708e+03
5.263230269079928121e+02
-2.259991543764554365e+02
-1.559982025505463753e+03
9.927775045989439207e+01
4.518060022264353393e+02
4.016700317120020145e+02
4.177886197726430737e+02
4.471911454619344113e+02
2.519320090940168200e+02
9.995964492906168175e+01
3.392401212887342012e+02
7.347571678075556747e+02
6.045461448720842554e+02
5.895640145900962352e+02
6.548325151713290779e+02
6.863317834701604170e+02
7.420845436523800345e+02
5.250811717499525457e+02
4.832481888512760975e+02
5.456322045545985020e+02
5.042696044517555833e+02
4.061556435151162532e+02
6.292429386716386261e+02
5.114953374398775736e+02
2.589050273925914212e+02
2.204701904254564795e+02
4.831464569656274080e+02
2.789241591152957085e+02
5.716700880628054904e+01
4.876320968738838246e+02
9.393501168618261090e+02
8.870309566120093905e+02
8.959416704843164325e+02
8.821572065392297191e+02
7.086089899574697029e+02
5.309399075287196865e+02
6.753815120561392860e+02
7.939938166697895667e+02
5.657797866932205579e+02
5.388242738034917920e+02
7.819057321352802319e+02
7.828717488046481776e+02
3.399804836282707470e+02
5.622117593407413096e+02
4.913855821399397428e+02
5.305707382768191565e+02
7.897116522574268629e+02
6.777040804082079148e+02
9.407140546631759435e+02
8.945832987705875894e+02
9.797040796047689355e+02
8.518360361484743635e+02
6.347449619036289050e+02
5.976535628119720513e+02
5.904185643340719025e+02
3.719211996922515482e+02
