1.323861264614047514e+03
1.899185723649107103e+03
2.096259083758671750e+03
2.114127347929239477e+03
2.469760600032950151e+03
2.798240618220760098e+03
2.531590281256958860e+03
2.805877916826497767e+03
3.060152621227504824e+03
3.696482530786091047e+03
4.109923169840526498e+03
4.019527349332374797e+03
3.016293140621030034e+03
1.933204512332413287e+03
1.985349731855995742e+03
1.916744143179678758e+03
1.140447885766438503e+03
9.826931202461408930e+02
9.073944027201958988e+02
9.827191691022225086e+02
1.085721557772511233e+03
7.914675121069761872e+02
6.130032784354292517e+02
4.826825720461464186e+01
2.172833848991863590e+02
8.529945162347846690e+02
2.125711903292321665e+02
-1.216990320521863396e+03
1.017308156175527415e+03
3.079576273993871382e+03
3.594889119619015219e+03
2.745366056150314307e+03
2.280540629877141328e+03
1.857481317842677527e+03
1.961501076117049024e+03
1.961151643120065955e+03
1.481766604976424333e+03
1.152354849818148523e+03
1.240568011502364016e+03
1.491469694690301822e+03
1.072590811026094570e+03
1.405165224531912429e+02
-4.061451503439640192e+02
4.998179177303329368e+01
3.088075575655419129e+02
4.752290746342249008e+02
4.902405311329262645e+02
4.189317091283894570e+02
1.208359893980702964e+03
1.800501864325519819e+03
2.144352521994358540e+03
8.119218492370081321e+02
-2.467850930137184378e+02
-3.117675537861773023e+02
-9.220436088920729389e+02
-1.314657866192987740e+03
-6.606714976616774493e+02
3.059617422062507330e+02
5.442787920701069879e+02
9.372527597841325360e+02
3.708459591822115726e+02
1.010686633841551725e+02
6.888112670842029672e+01
8.828805641582111718e+01
5.722590487540148843e+02
9.977869177570274815e+02
8.659546973018901781e+02
7.817372140018840128e+02
1.124110212375359424e+03
1.071091774911069706e+03
1.721661327289446035e+03
1.483865137788024413e+03
7.207028957118244534e+02
4.521068118907632538e+02
2.920545939675430986e+02
-2.394729665243169450e+02
-3.235327545481696347e+02
-8.591502406345412055e+02
-7.453162990808915538e+02
4.340057701004546402e+02
8.457445049749450163e+02
2.798726599640658037e+02
-2.606892793664037526e+02
-1.089865913016047216e+03
-3.357713885212528112e+03
-7.569237432402414015e+03
-1.068444044908344949e+04
-1.003829596263832536e+04
-9.050799376742794266e+03
-6.234966487231840802e+03
7.662270808307918060e+02
9.428415603598255075e+02
-2.465047978281557334e+03
-8.288188437242503426e+01
1.138566091126917627e+03
1.127335927396859233e+03
4.922944813698647408e+02
-3.621955133769079183e+00
1.568285251792500112e+00
-3.061199603918512366e+02
-1.321671269145187352e+03
-1.558115670079495430e+03
-6.764452188021919028e+02
-3.906973315106969835e+02
-1.279088332945127746e+02
7.068897046607364700e+02
1.076721409150596628e+03
1.125604783065642550e+03
1.061557304325009000e+03
1.741626870470900485e+03
2.173745921166056633e+03
1.633935658762768526e+03
1.368163259017502696e+03
1.154396979462196668e+03
4.136075767785750372e+02
1.258075234696818825e+02
-5.605999629561387820e+01
7.206924592335599300e+01
-2.287981219851843093e+02
-3.966817443176221332e+02
-6.956221480235171839e+02
-1.140619602156102474e+03
-1.203703117117066768e+03
-1.655897555714241662e+03
-1.553126979538760452e+03
-8.713961336296307536e+02
-3.457445069424538815e+02
5.277786207591900620e+02
1.284245544497445280e+03
1.431778021025137605e+03
1.991367078455534056e+03
2.063971718608014271e+03
1.470518457458975263e+03
8.200336705312913637e+02
1.085583004942409815e+02
-4.059728257802353255e+02
-9.186435416976919441e+02
-9.783323310701155151e+02
-4.749981965124254089e+02
-3.377226162873402018e+02
-6.534653597354088106e+02
-7.482339636232669591e+02
-6.429924330088465467e+02
-6.267720230746432435e+02
-1.081580544986824179e+03
-1.094452281812845285e+03
-1.234303350388934632e+03
-7.400328536494416767e+02
2.723365223604647554e+02
1.180821262472665467e+03
1.648364814751049380e+03
1.773145408439900393e+03
1.169137927527623106e+03
5.471355838494667978e+02
-8.848080390985595614e+02
-6.647116604237484125e+02
-5.914790381328357398e+02
-5.560468827981101185e+02
-4.674978905344332816e+02
-3.868431615182358314e+02
-3.629843681895418399e+02
-6.668675110123367631e+02
-1.142582771207161386e+03
-1.272120293506515281e+03
-1.392238839709343438e+03
-6.214091499203591411e+02
1.333389342969254585e+02
5.152656342399998266e+02
8.624429147458940861e+02
1.257858548169365122e+03
1.844468046603773246e+03
1.414344419576658311e+03
1.444521591355441160e+03
1.321970880547448132e+03
6.816490532305015222e+02
1.356025695530448445e+02
-2.202533917936551688e+02
-5.368923361936238052e+02
-7.832645009341792957e+02
-7.763012147209457225e+02
-1.046058342109304704e+03
-1.316560646863554894e+03
-1.428748455534300774e+03
-1.552608308768610641e+03
-1.637196954008174316e+03
-1.171500327494881731e+03
-3.905767910653914328e+02
5.826064910209813661e+02
1.035119350741022345e+03
1.272005907845294132e+03
1.398268889030942546e+03
1.244977066574941773e+03
6.141012101133021588e+02
5.516172812647002957e+02
5.855090888154821869e+02
4.537735883919377216e+02
-2.196400557805356755e+02
-8.227026046857500887e+02
-6.134148048586128965e+01
2.063791299870902094e+02
2.933063811767435070e+01
-7.325534723726968878e+02
-1.032177982319865805e+03
-1.302480913365832976e+03
-8.665518947446679476e+02
-4.714593007476311186e+02
-2.852117807643090828e+02
2.282485205468921379e+02
7.748779961201860260e+02
1.270596911869925179e+03
1.787511008860563379e+03
1.791950999463579137e+03
1.803849095885780343e+03
1.803219593105954345e+03
1.146128614645331936e+03
7.861680278234961179e+02
7.577036387673281297e+02
3.249147874846000832e+02
-7.703373199734302261e+02
-1.330199821046198050e+00
-2.532175761601748718e+02
-8.908045105764051641e+02
-4.093334033104572427e+02
-5.735556572447211465e+02
-3.155725320109399945e+02
4.716632526436147828e+02
9.081528126411844823e+02
1.028060383508779069e+03
1.430157921119956427e+03
1.838078178678523273e+03
2.240225617668706946e+03
1.986522651904901750e+03
2.007915123050721377e+03
2.149444868977246642e+03
1.746846355430360063e+03
1.190905029031779804e+03
1.003744304954278391e+03
7.736748042420076672e+02
9.253595788323927991e+02
7.715709710102815961e+02
6.455988027349153526e+02
6.353623992649191905e+02
1.828232769290085855e+02
-1.379547658247779509e+02
1.746616752593193098e+02
7.413873832988856520e+02
9.735171951659527849e+02
1.418601855127725457e+03
1.808868403701642137e+03
2.032245779855408955e+03
2.419704480194110147e+03
2.740254371792181701e+03
2.616934319998855699e+03
2.271648259500319000e+03
1.943359926094113007e+03
1.473016710103645437e+03
1.209543092690429376e+03
7.999041198981614116e+02
7.470210511276055740e+02
1.098893308009424345e+03
1.074510291858591472e+03
6.978127191046203279e+02
3.608017050280873264e+02
3.765392047158623541e+02
2.369432257419479981e+02
5.950362570543547918e+02
1.229745758080814994e+03
1.676032157699336494e+03
2.298978687256879766e+03
2.462664751083970259e+03
3.149102558410263100e+03
3.149175767314225595e+03
8.638856056759863122e+02
-1.749683034746217345e+03
-6.217573973874988042e+03
-7.173823603580525742e+03
-7.734475653970679559e+03
-7.841612466368419518e+03
-7.725185876681649461e+03
-7.854146728053920015e+03
-7.654458527248537393e+03
-7.602172597847112229e+03
-7.167283680957081742e+03
-6.829781095329018171e+03
-7.376669354722418575e+03
-7.367781790318577805e+03
-6.208287519438102208e+03
-1.255215336677374808e+03
2.019581295267185169e+03
-1.381821687647002364e+03
-7.894522818837766636e+02
-4.566293260975150588e+03
-5.230332375086716638e+03
-5.448542270490039300e+03
-6.198904695767254452e+03
-2.821430620181934501e+03
2.971861235171913449e+03
9.930178379620950864e+02
-1.039918618676751976e+03
1.992107151198727934e+03
2.715076182505441466e+03
2.296031250588904186e+03
1.707037573884317226e+03
1.617139099586512202e+03
2.002346576522262694e+03
2.489634641987634950e+03
2.755000101662993984e+03
2.861572744391753986e+03
3.281502778386718091e+03
3.717846498192650870e+03
4.034605156240176711e+03
3.838872802550479719e+03
3.483665905774879775e+03
3.016925764404673828e+03
2.801648151430015787e+03
2.528894059204544646e+03
2.169666350116186550e+03
1.962066564044059760e+03
1.455123142132941894e+03
1.075873350591922190e+03
4.474055152227593908e+02
1.127085391203122953e+02
5.878180125796043285e+02
7.408288217647024112e+02
6.318277612722050662e+02
6.348718339477558175e+02
5.769861854313611502e+02
9.521372146604721820e+02
1.687427854639854104e+03
1.962017530814220663e+03
2.023938811179657932e+03
2.100247343990184163e+03
2.067014411500043025e+03
1.593257555930061471e+03
1.070071632231449257e+03
7.314117340064343580e+02
3.442030594657528582e+02
3.515198820890844900e+02
1.864670356672314426e+02
1.009128660933240340e+01
-3.634588526918270759e+02
-6.061770464990414666e+02
-8.768531971220957075e+02
-8.702552645056885012e+02
-9.134124133300290396e+02
-9.012528744587133360e+02
-6.717880816770356205e+02
-2.202890996250528133e+02
2.004373730381586256e+02
-1.027654973221889122e+03
-5.459838366911348118e+01
1.400777161867006953e+03
1.545408807292246820e+03
1.083335794981318941e+03
5.925646376290403623e+02
7.508901426726139050e+01
-2.880518669115028842e+02
-4.877781778204001171e+02
-6.001278724525570851e+02
-8.471951507249982569e+02
-1.154900398620710348e+03
-1.120211707255809188e+03
-1.363162399392631414e+03
-1.553720987137547809e+03
-1.622847705338357628e+03
-1.426473144382722239e+03
-1.612671099825324518e+03
-1.253392193426553149e+03
-4.035467766923776480e+02
2.538701234897350503e+02
5.118864186952841919e+02
5.705707788703120968e+02
1.588811217004179355e+02
-4.618451992674811635e+01
-2.316445803958871750e+02
-2.554942312690406538e+02
-4.247936775167961514e+02
-8.855231914469164849e+02
-1.237686496326717361e+03
-1.421319873887908670e+03
-1.240387056200132520e+03
-1.195912353201665610e+03
-1.215955519224983391e+03
-1.553508366502199351e+03
-1.578644805253974937e+03
-1.126394945562597059e+03
-1.060757131359006507e+03
-8.047645944239596929e+02
-3.164174131654226585e+02
3.283290460208783657e+02
1.052516156567081680e+03
1.138154895960454269e+03
7.061927078024975799e+02
5.975790841730445209e+02
3.292639377371551745e+02
-2.808637193680940527e+02
-3.688357503790231817e+02
-5.137147417935759677e+02
-1.734993006078642281e+02
-2.362269923975322286e+02
-7.689504965715132130e+02
-1.712701985568176951e+03
-1.330491908096305906e+03
-1.059333146530565955e+03
-1.071325432383899624e+03
-6.745772986846412778e+02
-3.861682775880678378e+02
-1.171180953524749100e+02
3.855943648531675194e+02
7.379897128542525024e+02
1.555033608758625178e+03
9.837814147425690408e+02
4.881089298213738630e+02
1.219940054150580409e+03
1.402188315109678570e+03
1.158765737128966293e+03
8.565808925553051267e+02
9.935905375310675254e+02
7.027899821122301773e+02
4.991781256127980555e+02
6.106853192963882293e+02
4.122990448959176888e+02
4.358329146918998731e+02
5.072416891891884347e+02
5.335357206747856935e+02
6.656218440557754548e+02
9.143848359882812247e+02
1.348811288964601772e+03
1.678944860283750131e+03
2.086690106159784591e+03
2.439038763085864957e+03
3.013968018961136295e+03
2.965488838171727366e+03
2.677549051438361403e+03
2.264086555948618297e+03
2.107986246473928077e+03
1.801155667769022102e+03
1.806621473072077379e+03
1.615342300871753650e+03
1.498259807621993104e+03
1.334330728804174214e+03
1.327552048541405384e+03
1.063831599754225863e+03
7.411156922728338259e+02
9.213182414191538783e+02
1.233421484334095567e+03
1.313407237651216747e+03
1.869286143835569419e+03
2.621052317760853839e+03
2.766706154115676782e+03
2.851220591015518949e+03
3.171535767905381363e+03
3.231677420887885091e+03
3.041600126061152878e+03
2.638248999270246259e+03
2.450627903505869199e+03
2.579602559344580186e+03
2.010176894583738658e+03
1.625435349911082540e+03
1.502308525465025014e+03
1.275818091280786803e+03
1.280893884198677597e+03
9.145315760660279238e+02
4.617289633783856857e+02
-1.609545023153474631e+03
-5.559285775250964434e+03
-8.465529932637979073e+03
-6.816309988471362885e+03
-5.918551673229509106e+03
-5.478227323455930673e+03
-3.511325915086214081e+03
-5.613817105070116668e+03
-5.437676164778969905e+03
-4.964936465010128813e+03
-1.849631655079321945e+03
2.596399213835410592e+03
3.233983793789430365e+03
-2.998253693238173128e+02
-5.353945874698274565e+03
-6.641454255732895035e+03
-7.404295319892466068e+03
-6.922480186717674769e+03
-7.516002818091637891e+03
-4.480833865587235778e+03
-3.523918413231052000e+03
-6.919273772543592713e+03
-6.539880375788962738e+03
-6.444667695694715803e+03
-6.369563285530284702e+03
-5.685571400635264581e+03
-5.566658957757344069e+03
-4.914725301955936629e+03
-1.944782081543829690e+03
3.698195497775449439e+03
-1.111735577008636938e+03
-5.343632296751151443e+03
-5.186436330031317993e+03
-5.674109263352978815e+03
-5.691614047458528148e+03
-3.285851349630438563e+03
2.574189275870634447e+03
3.702526319565027279e+03
2.654178641069221612e+03
1.525196385019227819e+03
2.689583506511762607e+03
2.736394621993033525e+03
2.796643420174891162e+03
3.403380904112189910e+03
3.981676540419626690e+03
4.406621273604546332e+03
5.005285620870777166e+03
5.224694380257250486e+03
5.086911051909046364e+03
4.825948533249254979e+03
4.483885826245557837e+03
4.099743731441642922e+03
3.636463350806537164e+03
2.948083330425905842e+03
2.464703716737981722e+03
2.379385068893192511e+03
1.963138210616984452e+03
2.076014227510161618e+03
1.969038859625306486e+03
1.367210759914986056e+03
1.480597714039087805e+03
1.766209834932096101e+03
2.080100278355273986e+03
2.077259876180644369e+03
2.093740095374105294e+03
2.555735713487331395e+03
3.194401978190031059e+03
3.649852428014451561e+03
3.855264142018530492e+03
3.026753942970269691e+03
2.210301986418280194e+03
1.946837239206254026e+03
1.575399194830399210e+03
1.083999509376858668e+03
1.124804493417921549e+03
-2.184611510096051461e+02
-3.374766679705898696e+03
-8.199363482989155045e+02
2.990259591202356546e+02
-2.498435406619408639e+02
-6.386220339681651694e+02
-1.698514720866079486e+01
3.961639896751918144e+01
6.593655086051650187e+02
1.261223204089402770e+03
1.527283725098836157e+03
1.880643122957282003e+03
2.295679164082766874e+03
2.452762766432886565e+03
2.189111230213537056e+03
1.288609521439405626e+03
7.493567096651573820e+02
4.837598170818562835e+02
2.078921044732979908e+02
3.068770914502399592e+02
4.567357566982672097e+02
2.034263408993568873e+02
7.990787217702668954e+01
-6.868555693905315138e+02
-4.728386421017402199e+02
-6.310200894559970948e+02
-6.394844259672521503e+02
-2.502533580059764233e+02
3.216990476521407345e+02
8.084233354198578354e+02
1.212952051561885355e+03
1.667303267600233085e+03
1.876408681383854400e+03
1.822246563376948188e+03
1.468832074005774984e+03
9.791510861819966749e+02
4.461927559693792205e+02
4.329047927914461980e+02
1.702507790672540580e+02
-2.777793636671868853e+02
-7.692452209143374375e+02
-8.251375477930415627e+02
-2.484791525804228911e+02
-2.622886614595855690e+02
-6.065886484324117873e+02
-1.228423477091674386e+03
-1.174864968520465936e+03
-9.438830694299894049e+02
-4.854971752515849062e+02
-8.371882660794730668e+01
4.134424106431075643e+02
1.155002375053961714e+03
1.455959002458041368e+03
1.486275719355755200e+03
1.304937425120593616e+03
7.938791341363747733e+02
9.056414558527581704e+00
-1.858014006604834378e+01
-2.741037272372082043e+03
-7.047350846562073457e+03
-9.707491622277671922e+03
-1.026251828755753195e+04
-9.879460277777545343e+03
-7.448365973642105928e+03
-2.548256893199096794e+03
-6.271084411478491347e+02
-3.975104409310999472e+03
-2.832174085661808022e+03
-1.231395792098481792e+02
7.548184899590389705e+02
1.201747933818484626e+03
1.432599130371295132e+03
1.730423022208869497e+03
1.903174315019983851e+03
1.927824013085273236e+03
1.764343834647086169e+03
1.221719345610134724e+03
8.768569526919847021e+02
6.637385242812679280e+02
4.413683159368351880e+02
2.754029563802644187e+00
-5.341355935501215981e+02
-5.683117892182983724e+02
-9.648021361256789987e+02
-1.059583736056349153e+03
-1.164688068450769833e+03
-1.183207234226292712e+03
-9.281414641103245913e+02
-4.224904976004492596e+02
-8.023583251787268011e+01
3.596909800625397224e+02
1.011297501006768016e+03
1.443590368014027945e+03
1.257540515855374224e+03
1.171144474049343444e+03
8.334383081865380518e+02
3.543676414636661320e+02
-1.010944680547817427e+02
-2.869412675079946098e+02
-4.242029914769625520e+02
-2.548642656703416662e+02
-2.728778226902871893e+02
-3.702660444871247591e+02
-7.620733955764355869e+02
-8.912356633663396224e+02
-1.216754885742016086e+03
-1.498630123111779767e+03
-1.155917197366613891e+03
-4.416336755492443444e+02
1.663174581111481984e+02
5.020074782373851576e+02
1.105409657509821955e+03
1.461554664676769335e+03
1.646527670636473204e+03
9.452929132104345626e+02
7.928693539307530500e+02
8.352197513917784590e+02
6.073721611682915409e+02
-1.806805667127781021e+02
-3.168768439577551135e+02
-2.322838826778672683e+02
-1.779371279092277689e+02
-2.417251039844551883e+02
-6.796186380565632135e+02
-1.189611746807511281e+03
-1.191697825576949981e+03
-1.137884431390910095e+03
-1.106216941840337768e+03
-7.966111470549280966e+02
2.001093019435624569e+02
9.779138798968534729e+02
1.425769185683703654e+03
1.536684946209969894e+03
1.097728451630065138e+03
5.889366125401572845e+02
1.882494104968116062e+02
8.670502925028613106e+01
-1.369690960956978643e+01
4.020542915649618294e+02
6.897790199556426671e+01
-6.887463053764763288e+01
3.925341173338500198e+02
4.241618942899276590e+02
-3.419958861069535487e+02
-4.518474289240746771e+02
-3.883511230827956524e+02
-5.485121338339980639e+02
-3.754297438136616734e+02
-5.120543678848387117e+02
8.467275585114582270e+01
8.558457129433888895e+02
1.567443667227794094e+03
1.464491425242049672e+03
8.839798819980431972e+02
8.159833463816117956e+02
6.714714357486371910e+02
3.694366064175432598e+02
-1.041525477746802864e+02
-1.593370204766821132e+02
-3.280994946989182495e+02
-2.343640305051578707e+02
-3.660753163374822634e+02
-6.772888826727997866e+02
-1.014995136806283654e+03
-9.121634980142595168e+02
-7.538595724343398388e+02
-7.910994064397483498e+02
-2.869097894755188349e+02
-2.129117300959021719e+01
8.717597111379143371e+02
9.733220828595564171e+02
5.194380800193425785e+02
1.902154700879700613e+03
1.605514148762324339e+03
1.053438959720658204e+03
1.017988397347517321e+03
5.441713329530742840e+02
4.008900992935214731e+02
1.960406221273833296e+02
9.956915770851215086e+01
-8.348290005720404849e+01
-1.991089926256706804e+02
-1.017171193221982861e+01
-1.624657235774459139e+02
-6.499709482219511756e+02
-7.140752425848478424e+02
-4.197998407168759627e+02
4.985355298340362395e+01
1.707569965060861534e+02
7.812284285035233324e+02
1.288146858069513655e+03
7.775184279175114170e+02
1.343015128383328602e+03
1.453402856488962925e+03
1.083859653192975657e+03
1.025510150957497444e+03
8.445847023345032767e+02
4.695798845718084067e+02
3.184310021293730131e+01
9.396038541899271124e+00
-1.387183882633935070e+02
-1.588356506777222990e+02
-4.188382595233681513e+02
-7.424359600920814728e+02
-4.308509180971852857e+02
-1.302344442164791189e+02
2.035861419084823254e+01
3.959378911602419180e+02
1.224489267822664488e+03
1.316878979216521429e+03
1.615108661465908654e+03
2.224945744506565006e+03
2.085656291868207973e+03
1.885167172244057838e+03
1.638361101305064267e+03
1.422372415929122781e+03
1.466023896065836425e+03
1.138278567070686904e+03
1.131886961274247824e+03
1.238459650001557293e+03
1.255032295847219757e+03
1.074252033555196249e+03
1.091621597133963405e+03
5.891115371564918632e+02
3.325159625251833972e+02
4.110788192315488914e+02
7.287804605160292795e+02
1.211336784441318514e+03
1.480706312188484617e+03
1.848904011159379252e+03
2.015093755452755204e+03
2.506315642241921978e+03
3.179502711153368637e+03
3.087526784394239257e+03
2.548459013920359212e+03
2.253392110161194978e+03
2.100229528865515476e+03
1.821827476266519170e+03
1.426119113586290268e+03
1.311100559003604303e+03
1.027881954018631859e+03
1.029456679177686738e+03
9.707831511875285742e+02
6.998134877077822011e+02
3.745039474648232840e+02
-5.381017194366895637e+02
-2.383075803535165051e+03
-4.158447423620647896e+03
-8.532202013533025820e+03
-8.898271009063613747e+03
-7.898680681158090010e+03
-6.915300705619618384e+03
-6.845100912343340497e+03
-6.850113374930222562e+03
-6.670284252749959705e+03
-4.453658350043690916e+03
-5.447398292270768252e+03
-6.589444507766838797e+03
-6.820413652609450764e+03
-6.894653067013865439e+03
-5.200932715290690794e+03
9.447261771716122212e+02
-1.935779443212459000e+03
-5.485436997875995985e+03
-3.439185953123514537e+03
-7.046038741766262319e+03
-7.599033352168668898e+03
-6.646121263174849446e+03
-6.533301845396216549e+02
2.972370952587408738e+03
2.760668318172849354e+02
1.467818044316636588e+03
3.815684794686686928e+03
4.120764885900968693e+03
3.564059148385265871e+03
3.452590160159795232e+03
3.339348377218606856e+03
3.134338136052145728e+03
2.957571900054443631e+03
2.562069560618528158e+03
2.406924427191052473e+03
2.531137019117492855e+03
2.032812467323966530e+03
1.368960345625657055e+03
1.028586222259110400e+03
9.346998952296053176e+02
1.214332237016932822e+03
1.799513488468629021e+03
1.963289704103069425e+03
1.957785078049928643e+03
2.238012145465232607e+03
2.758062867256724530e+03
3.114971255699275844e+03
3.127837632482509434e+03
2.487721198357392041e+03
2.028542511426096326e+03
1.842384150962483318e+03
1.807458029992783850e+03
1.480800072743020792e+03
1.249320621487288463e+03
8.970256163534104417e+02
6.940269454999240679e+02
3.164269195155872580e+02
2.571294254935618255e+02
6.423205358886039562e+01
4.676572507170908466e+01
1.327591433899734739e+02
2.692451698095883330e+02
5.892440166407161541e+02
9.357986078440994788e+02
1.394939907873171023e+03
1.831774544075182348e+03
1.928433412595691607e+03
1.665949246488363315e+03
1.319242817989854757e+03
7.965168215049149012e+02
8.378875081477420963e+02
6.995845587758753936e+02
4.136641300842391615e+02
-2.308197821080276526e+02
-7.268781064683599880e+02
-2.837039284254182121e+02
-1.976600678997848490e+03
-4.825209513364873601e+03
-3.089510544997763191e+03
-2.263830261927838819e+03
-1.440762317032914325e+03
-1.551643210367959227e+03
-8.253819227169987016e+02
-4.396413975887357424e+02
-3.043608518242415073e+01
4.751451011947267489e+02
1.258183546065357405e+03
9.617153994445142189e+02
4.197208179786836126e+02
3.830894120324571190e+02
3.397380951087134804e+02
4.475931549017295197e+01
-1.887831391156046834e+02
-3.739895979784922133e+02
-5.278225491314033206e+02
-3.661994755861288695e+02
-6.131043538020971937e+02
-7.945884812998476718e+02
-1.233731233169813549e+03
-1.619509461258550346e+03
-1.626868727424993494e+03
-1.314821073409533710e+03
-7.904078048799708540e+02
-3.356543073345967514e+02
4.649924524081591670e+01
6.760744511563584638e+02
7.140509183115466385e+02
4.874197381333491421e+02
7.081777498041295758e+02
4.073023791174391022e+02
1.377829944528190822e+02
1.655555038053799066e+01
-2.314179235742001026e+02
-6.771238480708647103e+02
-7.705717229646628539e+02
-7.668309797563464372e+02
-4.939284993211030610e+02
-7.548487549622974484e+02
-1.217639728295017221e+03
-1.178394020488269007e+03
-9.150705867446562252e+02
-8.797130107024983090e+02
-8.314389536129033331e+02
-2.512382518813065531e+02
2.519025283132532138e+02
8.660287547492256408e+02
1.478094305851015861e+03
2.039017142270000704e+03
1.796781223148984736e+03
1.454414006045617953e+03
1.208850179627600710e+03
7.793765626660120915e+01
-3.043993703503012398e+02
-1.232082195015520938e+02
-1.074365017616789686e+02
-2.221081515254580552e+02
-4.003770064126833290e+02
-1.662344018121314775e+03
-1.674928071155200996e+03
-9.750047955214972717e+02
-9.197623013614462479e+02
-2.183607766746286529e+02
2.111311307296110229e+01
5.066718612412085463e+02
1.218328551812314345e+03
1.428117953260687500e+03
1.444973644151420331e+03
1.183805355843156349e+03
1.050568117304040243e+03
4.931612394735581688e+02
4.605685036676895265e+02
7.497143242663900082e+02
1.765458808771995791e+02
-7.789785592320266687e+02
-7.588824032840152540e+02
-7.924191140363143404e+01
4.549136042797236428e+02
-3.824451177686606229e+02
-9.523887891942025590e+02
-6.899993274228229438e+02
1.536492772421449899e+02
3.785202990924368578e+02
5.635389755607535562e+02
6.707356970283010469e+02
1.474208041104631093e+03
2.211827854577549715e+03
2.651558303503661136e+03
2.659368415469091360e+03
1.839255165886181885e+03
1.063176880197665923e+03
7.290798918276715312e+02
8.589344616449341174e+02
6.827045642069933820e+02
7.543458223275781620e+02
1.038828285584275591e+03
1.043073476629923107e+03
1.207044167746159474e+03
4.427576834950843363e+02
-6.088740815107346407e+02
-1.605835218061632759e+03
-1.975203935183594467e+03
-2.130016493512383022e+03
-1.944210201933433837e+03
-8.688573460708154244e+02
-1.838582286970961377e+02
8.137630042394828251e+02
2.439944517645822543e+03
3.494733333198081709e+03
3.337076926425330839e+03
2.764948527657203613e+03
2.357345340026224676e+03
1.920263124413873129e+03
1.375645384368218856e+03
8.934777583207670659e+02
1.028720079500768861e+03
8.594026038792554800e+02
1.985545786708228491e+02
-6.578242376213855778e+02
-1.189764191065094565e+03
-1.525229270939245907e+03
-1.047250906501275722e+03
5.040303180434012802e+02
1.670651730345539590e+03
2.817973369861370884e+03
3.736983498311414223e+03
1.938565709390910797e+03
3.717323630007765018e+02
-5.309414727142762786e+03
-6.840932577817197853e+03
-6.686802313880310976e+03
-6.658029523807711485e+03
-6.582633996286874208e+03
-6.080662210148745544e+03
-6.056024927825723353e+03
-4.944712457072019788e+03
-5.495675729470383885e+03
-6.525930921876070897e+03
-6.413472413609828436e+03
-6.508330710298700069e+03
-7.386465761111298889e+03
-4.793754497130176787e+03
2.278708791637195574e+01
-1.180884397432569358e+03
-4.040674768660824611e+03
-4.555498655211680671e+03
-3.511276347210375206e+03
-3.785967854497263033e+03
-1.011530581803813789e+03
4.674057031765055399e+03
2.443832535953626120e+03
-1.955187923516366936e+03
1.925988205911382011e+03
2.736363988777156464e+03
2.717939938743194489e+03
1.228728164687906457e+02
1.508201822349598842e+03
3.587881051295460111e+03
2.476939497368548928e+03
1.156390540561403668e+03
-2.987094976562871125e+02
1.657014337612046404e+02
1.485663248556410736e+03
2.349191490320152297e+03
1.729293077724636078e+03
2.053104725024304116e+03
3.704688050102312900e+03
4.776109252068792557e+03
4.699398348379329946e+03
3.418623668196955805e+03
2.496811516855512764e+03
2.892985005473137335e+03
2.836197421819316787e+03
3.083399988925382786e+03
3.125632216303593395e+03
2.804938272051233071e+03
2.842385336053756873e+03
1.947093360268326251e+03
1.009049942524477160e+03
4.162897905715449838e+02
6.291298183378326030e+02
3.197484072921074016e+02
5.280680638692090270e+02
9.629943253397560738e+02
1.469708030239231448e+03
2.637280638617414297e+03
3.146750017310746898e+03
1.849927025830709681e+03
-8.769699142004925534e+02
-1.678803125807344713e+03
-1.545585150129481008e+03
7.536213133521340524e+02
1.399663290355335675e+03
5.402654616753482060e+02
5.692980799032570758e+02
6.962823708466129347e+02
1.148653333708928812e+03
1.040036709397976892e+03
1.037544129955202834e+03
4.700963228691130666e+02
3.242261141178454764e+00
4.043102395814683092e+01
6.895578215613264206e+01
-3.469944835540568420e+02
3.108275583672244693e+02
9.213052664356711148e+02
1.497860991687396108e+03
2.044301885473230186e+03
2.437627985789169088e+03
2.161964263459873109e+03
1.681112075679508507e+03
1.036103912698516297e+03
7.109476406036428671e+02
8.725721556149103435e+02
8.100436378711369798e+02
7.534033421518425939e+02
5.936058459659386699e+02
3.016247394122276546e+02
-2.105934658644178228e+02
-6.450053351401626287e+02
-2.035293100830068624e+02
-3.801885908382777188e+02
-3.200678545799519270e+02
-6.922304232274717606e+02
-5.686570083558339093e+02
3.147351675540704150e+02
-7.089971020959873158e+02
-1.818890681746763221e+03
-9.999409390359585359e+02
3.468417801533108218e+02
9.204686461147387035e+02
5.008937295058526615e+02
5.141079035575885428e+02
9.230711185839070367e+02
7.378279425380941348e+01
9.181275281746339445e+00
1.002640552527654023e+02
6.201684493734371983e+01
9.945023143910114527e+01
2.735832740257396267e+02
1.453719514109379247e+02
-4.642232051807405924e+02
-5.822286542032320540e+02
9.236571335560633145e+01
3.365097755653990816e+02
-3.617735734129414595e+02
-2.374405910385055449e+03
-6.739395272036432289e+03
-8.743775975873393691e+03
-9.117587799976705355e+03
-8.254923062587777167e+03
-4.982886855467826535e+03
-6.811110851967740132e+01
-9.867145975776289788e+02
-3.594493922840202686e+03
-2.283577221900101904e+03
-3.426287911271810572e+03
-8.635883117746559492e+02
-3.189524776045961062e+03
-5.406029806254391588e+03
-3.525173221178209587e+03
-1.709936687281393006e+03
-1.119347939082160565e+03
3.285517070437169878e+02
1.951702344244630467e+03
3.649199149576938908e+03
4.112084128383368807e+03
3.251288760784422720e+03
3.010817593909139305e+03
3.265676809366187626e+03
2.513878965619222981e+03
1.534396450053343187e+03
1.699179573680693238e+03
2.080170254164461767e+03
1.894383702932169399e+03
8.438027102367443604e+02
2.514475023609749087e+02
2.713205692931567796e+02
4.143803052909718190e+02
4.826327556756829154e+02
2.090503029691366521e+02
1.826418947689170125e+02
6.833774252715302282e+02
8.482362073611028563e+02
8.382535218452395611e+02
8.834533282645381860e+02
1.066841329567909042e+03
1.426440342194385266e+03
1.600265484836964561e+03
1.388303038744550577e+03
1.540549229246102641e+03
1.543035363244917335e+03
1.120716998346131049e+03
2.735771816208427367e+02
-2.304093061479366895e+02
-4.402078156702834804e+02
-1.053781792830724044e+03
-7.142120815239052263e+02
-6.204763505904104477e+02
-1.310568337752703428e+03
-1.711445340135596552e+03
-1.653151196239852197e+03
-1.492721620711995911e+03
-9.321372775634391701e+02
-6.564182823636864441e+02
-3.045626778428092507e+02
3.495274010246760099e+02
1.456865764547012077e+03
1.526499794151713331e+03
1.124496760388992698e+03
4.118034747334446593e+02
4.073549228318500468e+02
4.872537630882595749e+02
-5.025527976648333492e+02
-2.539244297231784913e+03
-3.334674868136462010e+03
-1.482568627696537078e+03
-1.750625945633060780e+02
-1.292575391551913242e+02
-8.531659840202590885e+02
-1.226736453708488625e+03
-1.517039188576634388e+03
-9.151023085052531769e+02
-4.288960324900721162e+02
-1.573814230522336004e+02
2.115106621488733367e+02
5.557317381557165845e+02
6.253556782420364470e+02
4.593820437158463506e+02
9.067945085178993168e+02
1.154643303247003360e+03
7.989732328048132786e+02
5.227059207149818576e+02
6.087754243380235266e+02
6.961417365197160052e+02
8.228921307999250985e+02
