4.055361582962765169e+03
3.748547412652536877e+03
3.695152596125151831e+03
3.996188120933679329e+03
4.112669469485391346e+03
3.858665872944620787e+03
3.931343472550192928e+03
3.970745773845943859e+03
3.375740898652893975e+03
2.551402587084914103e+03
2.065822479527972973e+03
1.586041126517041675e+03
1.516097746535518581e+03
1.856034253343402725e+03
1.876942756992804107e+03
1.935860801644679668e+03
1.967866191859998025e+03
1.763086501643234214e+03
1.794570023393194560e+03
2.074386350255646448e+03
2.228606373447807528e+03
2.550325094689236721e+03
2.539595347567737463e+03
2.288331800012146687e+03
1.908592243736615274e+03
1.764416145514356913e+03
1.239266242804401145e+03
1.008436920219029844e+03
6.641847773895442515e+02
4.165742525525043334e+02
1.033535395432844552e+02
-3.684807261961295808e+02
-1.591793044694265518e+03
-4.628731689101595293e+03
-1.826216198556471682e+03
-8.360165829716476082e+02
-9.241700205549766451e+02
-1.062580032199017296e+03
-4.991538216204772311e+02
3.092735026899547393e+02
1.139255820966869123e+03
1.216693951861163896e+03
1.152973827784836885e+03
9.468629385477689766e+02
6.373443539860127203e+02
5.384366025563349467e+02
3.631913322942463083e+02
-5.413225030952056649e+00
-4.454196077035746271e+02
-1.138753964280218497e+03
-1.471361451396794791e+03
-1.467235181711032737e+03
-1.827444390008778555e+03
-1.962902094883954305e+03
-1.633575126283202735e+03
-8.324781098017944032e+02
-1.776030421024961186e+02
-2.018984004363031772e+02
1.166183937618765611e+02
3.396597457869607695e+01
2.411690619247224561e+02
3.201815135470702671e+02
2.889821159882748134e+02
7.015942273022546942e+02
7.470869467429216684e+02
9.474254612493092509e+02
8.925971967167358798e+02
2.785724105979497836e+02
-2.146487451449924038e+02
-4.127611186678450395e+00
-6.088707054932159508e+02
-1.196930231143014908e+03
-1.485326444944848845e+03
-1.795107289478325129e+03
-1.431306263930732712e+03
-9.509300012199635148e+02
-5.409889988064986710e+02
-5.284440234203477758e+02
-4.203076167810790480e+02
1.663740951253548133e+02
7.975558731132394996e+02
1.263189604553471327e+03
1.009234229853379702e+03
7.046737169191997054e+02
8.135407797002690131e+02
9.847853755300507146e+02
8.013765081445184251e+02
-4.867536271783303619e+02
-4.104630059389340204e+03
-8.862346824498186834e+03
-1.079995235988419154e+04
-9.551556568722127849e+03
-3.244277924803795031e+03
-2.692416725037876972e+02
5.153132825128177075e+01
-2.069942044243454120e+02
-6.429607741601995485e+02
1.966795821318710864e+02
1.162069980120894570e+03
1.309950413172744902e+03
1.313317043575467096e+03
1.235105773602823774e+03
1.116216887610209369e+03
8.455630999585374639e+02
8.681504082781598299e+02
1.282960284007195696e+03
1.418916636444501364e+03
1.497935468599858723e+03
1.498943525089022387e+03
1.283849859316198717e+03
7.825637781046667669e+02
2.180407557443743656e+02
1.032722568810709873e+02
1.801695350040747599e+02
4.315898493693808291e+02
8.435709883088068182e+02
1.084077398291398140e+03
1.296055140394654018e+03
1.672471184811589183e+03
1.660191515636185841e+03
1.748205237942650456e+03
1.812470628820252841e+03
2.222920416689401009e+03
1.811504979030110917e+03
1.474183120911533933e+03
2.148905802246756593e+03
2.775614041996448577e+03
2.541233354558895826e+03
2.325773949879695920e+03
2.040152144204067554e+03
1.426248541930434612e+03
8.729936020354033417e+02
4.613999012107967133e+02
3.814537646821566454e+02
1.871039861699037488e+02
3.233010294616142914e+02
5.310562148248434369e+02
3.382882280936939310e+02
7.820248417322100067e+02
1.036230860596653883e+03
1.544863804352229636e+03
1.766927294859223593e+03
2.351396762494836366e+03
3.111268488873178740e+03
3.412485601025598498e+03
3.344026094301782905e+03
3.238879560252295505e+03
2.731032883884062358e+03
1.400509777836394505e+03
1.041197704831017290e+03
5.021005896658361962e+02
-8.026842852448710346e+02
-1.713240190394541514e+03
-6.596369319821923227e+02
5.261234656803459302e+02
1.369046805896324486e+03
2.179164288704009323e+03
1.753527188098780243e+03
8.851612117029272895e+02
5.530534446532092261e+02
1.141242378485794916e+03
1.011726290867547846e+03
-4.354427451396933861e+02
-3.544293280569216222e+03
-6.848784769199147377e+03
-6.874857841002953137e+03
-7.108540996006127898e+03
-7.310815215116365835e+03
-6.831665328959412363e+03
-5.615141381981745326e+03
-6.009195518882973374e+03
-6.661816444582273107e+03
-6.250962863072765686e+03
-5.502652668151312355e+03
-6.099826067437120400e+03
-6.115433644546767027e+03
-5.126422329389009974e+03
-8.447579267388564404e+02
-1.329391064453710442e+03
-5.526274317317534951e+03
-5.678349984958185814e+03
-4.981598645091010440e+03
-4.023993648076295813e+03
-2.652511423545750858e+03
-2.558052915145648512e+03
-2.950581732639581787e+03
-3.300047463020622217e+03
-3.358400663709696801e+03
-3.602604835800705587e+03
-4.279689464439636140e+03
-5.686651924320030957e+03
-5.221408559995140422e+03
-5.959601862769063700e+02
-2.669222390945772531e+03
-4.757177499745828754e+03
9.332634488127773693e+02
3.379182614431351340e+03
3.209573284279863401e+03
3.906535302061106904e+03
4.362093461053451392e+03
4.402322742526288494e+03
4.056299654836221634e+03
4.083992713587416802e+03
4.285437900900461500e+03
3.915741098263877120e+03
3.215989238697186011e+03
2.530182030501214740e+03
3.124355947196123452e+03
4.376547719603038786e+03
4.182800472426805754e+03
3.523150297742050043e+03
3.033658930449714262e+03
2.729356793405831013e+03
2.704197718837246157e+03
2.470338027306626827e+03
1.925936515591838770e+03
2.147197933741523684e+03
2.860221864631856988e+03
3.531031822470739826e+03
3.308699775027864234e+03
2.211271185084426634e+03
1.154725543590557209e+03
1.990988936704963521e+02
2.643750235312520545e+02
-7.453443028860948516e+02
-4.350528450390700073e+02
1.727153466931327557e+03
3.912403977455492623e+03
4.782789807252313949e+03
4.989171804736344711e+03
4.852419698031787448e+03
4.452650942848037630e+03
3.948852762317061206e+03
2.874040796106906782e+03
1.735245106559444139e+03
1.541462438978500359e+03
2.147714372215280036e+03
2.349015085536010702e+03
1.771447466204569764e+03
5.900214193318746538e+02
-5.353445703119068639e+02
-1.663592409263668287e+03
-1.528748750340442029e+03
-1.790900484507575129e+03
-2.553053922218927710e+03
-2.545270574204262175e+03
-6.906013692353103579e+02
-3.131643405997293712e+02
-8.847847730118160143e+02
-2.517211862285646760e+02
7.649428234726904066e+02
1.955224455058954845e+03
2.927079798554539593e+03
3.198424923590002436e+03
2.803227267750246028e+03
9.725272437150947553e+02
-1.636817753282457488e+02
3.636010982287324396e+02
1.458401262277700198e+03
2.147687150168755124e+03
2.162383061060500495e+03
1.919489062610355404e+03
2.786999210023067917e+03
3.687872117172188609e+03
3.384088052710505963e+03
3.324635746939035471e+03
3.753524184299010358e+03
4.017719973793987720e+03
3.675199207287098488e+03
2.974904114259914877e+03
2.810774795971216918e+03
2.145792333234693160e+03
1.372921326804634873e+03
1.237136088585115886e+03
1.294444166249603086e+03
1.304835311274940295e+03
1.358260164076101773e+03
1.410689613284837833e+03
1.646100424253666688e+03
-2.695033495761441600e+02
-3.302121158944717081e+03
-7.871759475244874920e+03
-8.291475069777401586e+03
-7.853273552939122965e+03
-7.159214097001240589e+03
-6.932289129443902311e+03
-7.367522551492571438e+03
-7.329921200528850932e+03
-6.202493176139112620e+03
-7.404188819948706623e+03
-8.594818895468244591e+03
-8.619887407650567184e+03
-8.446329217111497201e+03
-8.259082281350649282e+03
-7.698156811713599382e+03
-4.263640463973314581e+03
-5.883588625413550290e+03
-5.962003189086030034e+03
6.121857005611652767e+02
2.336984451976615674e+03
2.490386027322989321e+03
2.798414508702972853e+03
3.134031572448568113e+03
2.889216747500734527e+03
2.157973851717776142e+03
1.998300036731436421e+03
1.997229537843683829e+03
1.869745593298296853e+03
1.330822081102487800e+03
1.096496662042352455e+03
7.707309998735676118e+02
4.265003133745552759e+02
3.877195497444097896e+02
4.363809853943960206e+02
4.895367198801018844e+02
8.262169562603941131e+02
1.394444225494249622e+03
1.429201931577320465e+03
1.204614470445369079e+03
1.035656771203808376e+03
1.159327734497579740e+03
1.302653531431371221e+03
1.422612824975760986e+03
1.407240012398116505e+03
1.263588254221368743e+03
1.348683754857167287e+03
1.484483812974255216e+03
1.355072154342515205e+03
1.116507443217814625e+03
3.378325294019566059e+02
-3.009505797193226613e+02
-1.138912481211663589e+03
-2.088012028410043058e+03
-2.325234127234235530e+03
-2.067542274612861092e+03
-1.912887993754611443e+03
-1.791270810749107568e+03
-2.029668700138225631e+03
-2.319042734765149362e+03
-2.296287380908706382e+03
-1.962356696200894248e+03
-1.570330402389079381e+03
-1.285283463582429249e+03
-1.034172200566445554e+03
-1.976382293945505069e+02
5.787738960821875480e+02
1.564283123829061878e+03
2.476748980463454700e+03
2.232939304533196719e+03
7.354378846503545901e+02
5.838098287118796179e+02
4.360767560054461569e+02
-8.460887173480236925e+02
-1.649665848233928955e+03
-4.786893860347625491e+02
-7.812439826126019682e+01
4.311257027812576439e+02
8.500901423560646890e+02
9.618282801405027840e+02
6.903935920171113594e+02
7.028214647930915362e+02
8.061205972104279454e+02
8.442989423167153973e+02
8.934205532014402706e+02
8.874733008295686432e+02
7.044897988622072944e+02
5.434874898775480005e+02
4.055518859511656729e+02
4.447582812569150406e+02
2.161150482509700907e+02
-3.773959487094734300e+02
-6.587883525052006917e+02
-9.590611220969706210e+02
-8.181908960343585022e+02
-4.351723011378928163e+02
-2.719942493307164568e+02
1.603943908695152061e+02
8.130338940428076739e+02
1.152947154590329774e+03
1.181126252174898127e+03
1.158688320520966954e+03
9.766347968365181487e+02
8.718706735775379002e+02
7.023564181454279378e+02
8.201783216234047131e+02
1.038347518783656369e+03
8.768546791449722377e+02
6.177319693635857902e+02
3.549870100778833830e+02
1.766426473245477382e+02
3.767385679794519859e+01
-6.179067146650538689e+02
-5.561374857168398194e+02
-6.970466998341260023e+02
-7.926415097822035705e+02
-7.739827818182936880e+02
-4.880542499146660020e+02
2.270752535694738583e+02
4.924444169371399198e+02
7.290581949955115988e+02
8.288584789045280559e+02
7.078577642573159210e+02
6.820126095501574355e+02
7.923214443518432972e+02
1.048793626489764392e+03
8.324867790741157023e+02
4.912733771174927142e+02
8.951758736547496937e+02
1.008268928583301772e+03
7.194658557163713795e+02
-1.341228214335220059e+01
-4.844459828365668272e+02
-1.020653201625335896e+03
-1.069112970122627758e+03
-4.277669248430099742e+02
-5.246288879816612507e+02
-5.167642522139718722e+02
-5.274388134706367737e+02
-2.034740421484345347e+02
3.952367762780821181e+02
6.663660511679013325e+02
9.873109886807829980e+02
1.282141755022835468e+03
1.368488293883972347e+03
1.648533330739342318e+03
1.771123651988119036e+03
1.725777985085415594e+03
1.649070904236599063e+03
1.682561019854847927e+03
9.665356999620145189e+02
7.235230399020526875e+02
4.364979871186249625e+02
3.076249972615473780e+02
3.399340988273189623e+02
2.386269093972817075e+02
5.520483368050425952e+02
1.165685117764949609e+03
1.449052452563865700e+03
1.803132896233434849e+03
1.856021371907044340e+03
2.210366239659498206e+03
2.006861840583246476e+03
1.853289671590697935e+03
2.141016547839592477e+03
2.347199409253738395e+03
2.446797320106653842e+03
2.211719404539453080e+03
2.074084978180716007e+03
1.951864504089475531e+03
1.990184400903644473e+03
1.514894723985940118e+03
1.287540655392114104e+03
1.293685789406132699e+03
1.142396136998522024e+03
1.185819200496111762e+03
1.390095614392081416e+03
1.451015486254757889e+03
2.029520484722092988e+03
2.129589732385345087e+03
2.108145888082377496e+03
2.453163938579484693e+03
2.692640870985066158e+03
2.842601566190293852e+03
2.656015470231865493e+03
2.800733088969097935e+03
2.739656797700826701e+03
2.431865906557039580e+03
2.657407742959641382e+03
2.972273130882044370e+03
1.634401911207180319e+03
-1.286234548988624283e+03
-5.626626882557518911e+03
-8.960782827358923896e+03
-9.063786459545895923e+03
-8.670683752053753778e+03
-8.090477675365398682e+03
-7.480104875226479635e+03
-7.002461981469110469e+03
-6.529528809618895139e+03
-6.392245123014825367e+03
-5.369753378235951459e+03
-5.079081620395564642e+03
-5.452813886072542118e+03
-5.573450420494141326e+03
-5.211223002382886989e+03
-2.292599021784118577e+03
-1.106680557716807016e+03
-4.764528172379186799e+03
-5.788093319552443972e+03
-6.144362003568925502e+03
-6.295255684887511961e+03
-6.094738298198022676e+03
-6.273830063436509590e+03
-6.691540189642842051e+03
-6.409869890965912418e+03
-5.836732687275457465e+03
-5.473013070177958980e+03
-4.730628881598436237e+03
-4.863474290521146031e+03
-4.521616465847941072e+03
-4.949931239534782890e+02
-1.327500684423068378e+03
-4.704182984627796941e+03
-2.469190617271859992e+03
3.226643354205300966e+03
4.886428018232525574e+03
4.750107524441041278e+03
4.771632018174622317e+03
4.816022973383353929e+03
4.717319202424134346e+03
4.076584488533753301e+03
3.468952016774533149e+03
3.166574082777155581e+03
2.878479504044935766e+03
2.988604803894770612e+03
3.235930941866667126e+03
3.229533046658058993e+03
3.428530891389407316e+03
3.517001739922102388e+03
3.742957383482485056e+03
4.108425598803642970e+03
3.996525500752947664e+03
3.907297402187643911e+03
3.901732378887188588e+03
3.823897343825557982e+03
3.685876715294443784e+03
3.565769567698765968e+03
3.249585181319206640e+03
2.800431719353910012e+03
2.245388717924823140e+03
1.758468302169496383e+03
1.638682887175340966e+03
1.503104061119862990e+03
1.229806361261807751e+03
1.201789434134759858e+03
1.291042283517899250e+03
1.496779471771903673e+03
1.822144746562052433e+03
1.993323455956588305e+03
1.985473401280778035e+03
1.710623687166307491e+03
1.626814861656173662e+03
1.558105202431222324e+03
1.572548839710289940e+03
1.528190668546747247e+03
1.434926454768405392e+03
1.732920745801730845e+03
1.704266450397191420e+03
1.455947742019989164e+03
1.255904993141185287e+03
1.044243265693800822e+03
6.189488634285328317e+02
-1.205326838645853016e+01
-3.617174812861180726e+02
-3.092312696008348780e+02
-1.227468910136300053e+02
-1.982458058138498913e+01
4.283503087558115681e+02
7.676216673416612366e+02
9.050304266720630721e+02
9.476431039288997908e+02
8.525255267073251844e+02
8.526522388095381757e+02
9.309969579950243315e+02
1.035576140751795720e+03
1.290423748054550288e+03
1.256510922897755790e+03
1.409860415462474293e+03
1.042474542001341433e+03
4.503333637554337088e+02
-3.185436468700975183e+02
-5.431564991998965297e+02
-1.062552656445387584e+03
-1.791775641391679301e+03
-1.186815302400222890e+03
-1.089633647084452150e+03
-6.282292149725877834e+02
-2.286379258306065196e+02
-6.182622180671026513e+01
1.212030891264226113e+02
1.124126381356190763e+02
1.568035260278033718e+02
3.234803579480912106e+01
-2.239743721658055335e+02
-2.011476339415179666e+02
3.148257223234330695e+02
5.319240819226915846e+02
1.711519303425185683e+02
1.725195826365097957e+02
3.302695226209150547e+01
-4.393972462964447345e+02
-6.638333630683519004e+02
-7.633253267878066026e+02
-8.179271290412531243e+02
-8.406193591546477819e+02
-6.213820489994295713e+02
-3.232875471286880611e+02
-1.201387327531664369e+03
-3.892718791954221615e+03
-7.746297561270643200e+03
-9.569149249500791484e+03
-9.244340775213415327e+03
-8.751901101111077878e+03
-8.508919459722579631e+03
-8.592493621783489289e+03
-8.424559304705266186e+03
-2.819033994272113432e+03
1.708880967148044419e+03
1.585232043478268679e+03
9.080125448104573707e+02
5.272519733157272412e+02
4.488014346469724387e+02
4.826105245497992655e+02
2.956364706014515491e+02
3.097924715633800474e+02
5.350864890761527022e+02
6.205096022156010349e+02
6.730221922581388299e+02
8.996207017942039101e+02
1.438257725340735078e+03
1.471910730255330463e+03
1.476554729185499809e+03
1.026171230100399725e+03
8.457396432298310174e+02
1.086212898191766499e+03
1.554550703035688230e+03
1.747721805451438968e+03
1.701720234996469117e+03
1.610527759099125205e+03
1.420104358051733470e+03
9.813874565065724482e+02
5.593173946717008675e+02
9.389360068637377310e+01
-5.395250312898460976e+01
-1.582917404980266269e+02
-1.681330505595341833e+02
4.005819712820214136e+02
9.558418581711729303e+02
1.338615457989587640e+03
1.264946669175403713e+03
1.403807782759665997e+03
1.616109450121684404e+03
1.536889915182450750e+03
1.360145483714984721e+03
1.126868452438840450e+03
1.197044650336959648e+03
1.272657566628033010e+03
1.459682148437749902e+03
1.608145479100997363e+03
1.645019399705773822e+03
1.278283036706933217e+03
8.419337047785346613e+02
5.929130874099297444e+02
-1.327976901988057534e+02
-4.992318288071753614e+02
-1.183744701646298694e+02
1.907925411425043194e+02
7.002908559355460056e+02
6.421541637497259671e+02
8.093643461287829268e+02
9.689525536758357021e+02
1.191923934071249505e+03
8.752904216828940207e+02
8.970232369877181782e+02
1.342086215864584801e+03
1.261537127112547068e+03
1.323395450210567105e+03
1.252684772790602437e+03
1.366410487276530830e+03
1.126600553013475064e+03
8.932389341677735501e+02
2.732654758732937808e+02
-4.553187732251880675e+02
-3.622422184414281674e+03
-5.250034071617165864e+03
-6.933187484864793987e+03
-1.128874825112090093e+03
-2.982062728249625252e+03
-3.387350295429128550e+02
-1.872879713039292255e+03
-4.034396026622230238e+02
8.846021862426370035e+02
-2.634767059815106677e+03
3.735212845102459482e+02
-1.867538953503687935e+03
1.498023822909167620e+03
3.202889268391186306e+02
-2.259739114503154724e+03
-1.765060666918003108e+03
1.485356432816087590e+03
-6.494952236866389512e+02
-2.411601076395550081e+03
-1.672994460244003903e+03
-3.058631774543703614e+03
-3.228516260968483948e+03
-6.616575592418918177e+02
-8.619565101326804779e+02
-6.091412781163040563e+03
-1.157953353139653700e+03
-3.376580245143451975e+03
-2.889302270234819389e+03
-2.345057288696932574e+03
-2.849845083294835604e+03
-2.132625660430948301e+03
1.150612659920328724e+03
-1.176130330813060937e+03
1.782144136528045692e+03
-1.023539948752867872e+03
-9.342006445317759926e+02
-1.686775575616198466e+03
-2.544258191406290734e+03
8.037467831307246513e+01
8.611137210250838052e+02
1.164959577478719666e+03
1.292851420270845210e+03
1.207848795402359656e+03
1.450000117088832212e+03
1.502260110337683045e+03
1.839642574447474999e+03
2.058165719479243307e+03
1.994965282117137122e+03
1.880988191870552782e+03
1.743230047163824338e+03
1.910713389782292097e+03
2.305398137650710851e+03
2.291275252545017793e+03
2.365487196418738222e+03
2.540187007465926399e+03
2.370538734890167234e+03
1.902545157635239548e+03
1.452007256755067829e+03
1.076901855130060540e+03
6.231730505500850086e+02
3.808060706345495419e+02
8.677017179889672605e+01
3.889854381648224830e+02
-3.245843849165476627e+02
-3.124140758900232868e+03
7.007626578648041686e+02
6.731348919036344114e+02
-2.265867597988933085e+03
5.302902902656970809e+02
1.828578399311554222e+03
1.986158491416958668e+03
2.249032247220004592e+03
2.242528188254359520e+03
2.178169999083515904e+03
1.878026793114662041e+03
1.714217366513285015e+03
1.966636571804717278e+03
1.525535586259100000e+03
8.395009713181841562e+02
2.313326745389254882e+02
-1.096989638146390433e+02
1.753815235260200893e+02
3.535910803018301181e+02
5.138862730170712894e+02
9.925455844965338201e+02
1.197321495290909752e+03
1.085750182728053005e+03
1.464891457985584566e+03
1.847491006340790818e+03
2.300898765728345097e+03
2.215041666879496461e+03
2.302884420550003597e+03
2.392426680149862932e+03
2.137613892785490407e+03
2.276486811884794861e+03
1.998049035898236980e+03
1.686236147507268242e+03
1.435068712039925458e+03
9.844552644955159622e+02
5.534336728177103168e+02
3.190133998983818628e+02
4.012115175128791122e+01
4.327167731224744216e+02
8.637751791935253323e+02
1.087259393376554044e+03
1.395190191356614378e+03
1.476594553036245998e+03
1.680526361141038024e+03
1.675963842715432065e+03
1.759896490268529533e+03
1.692282710767244680e+03
1.708130393671447564e+03
1.777418386172871124e+03
1.867209805363218720e+03
1.610472050786062709e+03
1.529177545212632594e+03
1.830316947359059213e+03
1.484891768413078807e+03
3.828780374096556329e+02
-1.350761531938188455e+03
-4.254033998414018242e+03
-8.940922465734149228e+03
-9.395455527110114417e+03
-9.247622245775943156e+03
-8.650352766992806210e+03
-8.049674929605501347e+03
-7.879606462054876829e+03
-7.103087843518049340e+03
-6.771110382912785099e+03
-7.144712055250001868e+03
-7.129917638849283321e+03
-6.677683373800344270e+03
-7.182997671223270117e+03
-6.655850240177734122e+03
-6.042227305393274037e+03
-2.824132677414455429e+03
-3.863533055417803098e+03
-6.825422168015495117e+03
-4.631839261416642330e+03
8.323515614768153625e+01
1.656800851883710266e+03
1.370835140195140184e+03
1.480343293343762298e+03
1.720339976360083483e+03
2.091854804413637339e+03
2.543924602430012783e+03
2.751595119877767502e+03
2.974893684063090859e+03
3.092810012767105945e+03
2.977322862569016252e+03
2.922442445381988819e+03
2.735196159734364301e+03
2.485624968380082919e+03
2.568830368505517527e+03
2.737851552373597315e+03
2.702646812654071709e+03
2.496261063885102431e+03
1.949733040613374442e+03
1.582979947498674619e+03
1.260034274135550277e+03
7.849032694773447929e+02
8.905930133862509592e+02
1.184118808613525971e+03
1.077449429373889643e+03
1.005630638041490897e+03
9.977008658178062888e+02
1.034758685166282703e+03
1.293831673575816239e+03
1.709933256774216261e+03
1.474060296762128928e+03
1.518244023025533579e+03
1.636532111768611230e+03
1.774917116595925336e+03
1.947408668526447855e+03
1.982083937142238483e+03
1.759952825780125522e+03
1.123047746590784527e+03
6.033491795911605777e+02
5.479079047681317434e+02
1.996790991778459556e+02
-1.193129468549244621e+02
-4.220958339702141870e+02
-5.745562934580395904e+02
-6.114339224213338184e+02
-3.074253030117811818e+02
3.423418577400884146e+02
8.859095810142692926e+02
8.603195886744425707e+02
1.056554190630281028e+03
1.339690499390908826e+03
5.492367783797789116e+02
6.913091206638117683e+02
-2.187340555938540376e+02
-2.020994280853208238e+02
4.820818210436358413e+02
5.148091646987904824e+02
7.180627814144087324e+02
2.588839038055446622e+02
2.027011506159823995e+01
-3.807715130468203029e+02
-7.012373656116723168e+02
-5.541682495048482906e+02
-6.285301834097111850e+02
-5.503175955142562543e+02
-3.985169448856614167e+02
-2.361221393070449324e+02
1.099270597929854603e+02
3.066907799380348365e+02
6.111179336898479733e+02
6.561898557676483961e+02
5.219687412549877763e+02
7.374276386655266151e+02
7.425258022219203440e+02
7.242898956858674637e+02
5.807692924965505199e+02
6.049638758853218405e+02
3.958595105059602020e+02
-1.514811909000098922e+02
-8.740898634029827008e+02
-9.429878703632573433e+02
-9.652286079756430581e+02
-1.390837523024529673e+03
-9.848485687640919650e+02
-7.282134673660646058e+02
-1.152951438601383416e+03
-7.490826775426364748e+02
-4.955550066512796548e+02
-2.573634341691860641e+02
-5.349939827440270079e+01
1.730476446858830002e+02
2.572220132597261113e+02
2.020090796990230615e+02
5.874240951396983519e+02
6.614284988471912357e+02
8.470366752750788919e+02
4.432533576090527276e+02
7.106998306377738572e+01
-2.004525625343344757e+02
-6.674144520229245927e+02
-9.498891711716850068e+02
-1.108870313519755655e+03
-1.096394392605055828e+03
-1.297484248725999350e+03
-9.791739151459461254e+02
-3.264362952325877814e+02
8.970689088639123554e+01
-1.056681188047988940e+02
-1.236572201092112806e+02
3.426993777837316770e+02
6.294229785332786378e+02
5.574886799893042735e+02
5.268766674647421269e+02
5.305484106177150352e+02
6.215569089628210122e+02
5.748597414926169904e+02
-4.125573720668656961e+02
-4.258735338110168414e+02
-5.068096038159157501e+02
-8.789753465982973921e+02
-1.018720211461116605e+03
-1.190374658952482832e+03
-1.276702982305081377e+03
-1.408364653725793005e+03
-1.183601022536684468e+03
-6.358338341784639169e+02
-5.083654486058384805e+02
2.127110317864032822e+02
7.255058969634640107e+02
8.135203845751884728e+02
8.534636900455888053e+02
1.091116099573050178e+03
9.861301877541314980e+02
1.166411682018189140e+03
1.184069972946884945e+03
9.807310921877819965e+02
4.517726357925374714e+02
6.085458039040735230e+02
2.311037770046688991e+02
-5.203975142703038728e+02
-6.170638492305718046e+02
-6.295994409748069529e+02
-4.828617676239061893e+02
-6.147715943443051856e+02
-6.800061607001644006e+02
-1.514458516125779965e+02
1.828532449351786795e+02
5.307623741439279001e+02
9.484743465342037325e+02
1.213449163443659018e+03
1.469331163913733235e+03
1.263822860130364688e+03
6.793092464433763098e+02
8.551550170964462723e+02
7.657856643936173668e+02
9.972111026954828503e+02
1.189985971991330189e+03
1.141176719716946764e+03
6.918086244097939925e+02
3.648765401953557443e+02
3.583870284943814113e+02
-1.070967969472103398e+01
-4.764148139155822150e+02
-1.009786934760565259e+03
-2.318268603541074242e+02
2.435257372990062947e+02
4.602937604351886876e+02
6.364638886507476627e+02
7.880715555550499403e+02
9.621057696225489053e+02
1.177583585666742238e+03
1.215531464262316376e+03
9.519013379265176127e+02
6.816712470470832841e+02
6.588486492922321531e+02
1.000445964550201552e+03
1.093497250296034736e+03
1.334031512992123226e+03
1.336084745307646244e+03
4.316271314158714176e+02
-1.441440039717592754e+03
-5.545182830661062326e+03
-4.815967043928227213e+03
-4.390426004856536565e+03
-1.158382698595981992e+03
-3.068598838714290650e+03
-2.393501152425499640e+03
-3.219838180108441179e+02
-3.376933158722546523e+03
2.464343799358420739e+01
-1.809209636519504556e+03
-2.783509627735439153e+03
-1.643228314558732109e+03
-1.897318623308343604e+03
1.393207927773343272e+03
6.353833903493746220e+02
-2.560762202630051434e+03
-2.548180764743703094e+03
-2.017869166985406309e+03
-1.713883043802499287e+03
-1.098213299824696378e+03
-5.799844406101997265e+03
-5.660844624602244039e+03
-8.641861264915245329e+02
-1.960776004511495330e+03
-1.689638978529386804e+03
5.612362694101788065e+02
8.129007292327933101e+02
1.019402292674949422e+03
1.556773979469099686e+03
1.513086211519573908e+03
1.558397815884246484e+03
1.755646184476763665e+03
1.509840167847828980e+03
1.656943206114080340e+03
1.158911294623113463e+03
1.509840386413060060e+03
2.074841028047203963e+03
2.211901153979677474e+03
1.926029252690293106e+03
1.592227015752361240e+03
1.052513349670696698e+03
3.238305962058658451e+02
-6.483415872060091090e+01
4.665546046891885794e+02
8.950237449177444660e+02
1.346602880205754900e+03
1.447300300588658729e+03
1.544180758222958730e+03
1.222282603667086278e+03
1.591582827428946757e+03
1.636067910938817704e+03
1.737787599782772077e+03
1.789725828003921379e+03
1.765878198750017191e+03
1.715257932722675378e+03
1.329938276020004196e+03
9.769984052602104612e+02
1.046476942866456739e+03
6.585731369465405578e+02
1.651714539020942425e+02
2.244777688408728409e+02
6.353998264032866672e+01
-4.177002705509243015e+02
-9.119766073560248287e+01
3.669961152835746816e+02
2.928367720737124387e+02
2.684672761522256792e+02
4.947784965061849789e+02
6.016695460337133454e+02
8.082535816946381146e+02
1.125485162471984495e+03
1.052297612598163596e+03
9.577036174944970526e+02
1.000730793698736306e+03
7.843671378391230746e+02
8.615362585501619606e+02
7.742709870860551291e+02
6.615009270969006820e+02
4.280259464279678809e+02
6.777396711905463000e+00
-3.742723681970704774e+02
-6.941870924403247045e+02
-5.509592237177782863e+02
-7.756212461208642139e+01
2.190222667088856952e+02
2.848267554378317072e+02
-2.116229049501821891e+01
-3.494073970983690458e+01
-3.425108623964416665e+02
8.508537530355970091e+01
5.427806147611931920e+02
7.295539886281991357e+02
9.164665602830356192e+02
1.032481438268619740e+03
1.204645275827266005e+03
1.154948846440614716e+03
1.417399486099007618e+03
1.618017568838658690e+03
1.625693152985513962e+03
9.383613004482032238e+02
2.079983822144818930e+02
-4.363603098441315638e+02
-3.587243646467788381e+02
-3.971325892445948398e+02
-3.016073675188879974e+02
8.576366496482437185e+01
4.780202696556218029e+02
6.651869500734820804e+02
8.203215563370013115e+02
6.414355686613943135e+02
7.345268770315716438e+02
8.455794979105442053e+02
1.232595124090938725e+03
1.147633287031308555e+03
1.487607006838681173e+03
1.251465434402122582e+03
1.148286928381794269e+03
-1.166909684388352616e+03
-5.478143723198466432e+03
-9.923425740559658152e+03
-1.008972705510172818e+04
-1.027415987165047954e+04
-9.885826272640766547e+03
-9.237764220283328541e+03
-9.294936940065630552e+03
-8.199428536920533588e+03
-7.178373985423661907e+03
-4.104734785253213886e+03
2.475038304368914339e+02
1.855547043932376255e+03
1.969320693210573836e+03
2.181739595342864050e+03
2.090820493774654551e+03
2.116543742783600010e+03
2.139859673289844977e+03
2.383732906397085571e+03
2.479168672146548033e+03
1.827204767755957164e+03
1.572861744018539184e+03
1.654126530037849079e+03
1.325945618852793586e+03
8.262895306138750584e+02
3.472030783392355033e+02
7.107103989768197607e+02
8.177716521118688888e+02
9.573430300863867615e+02
1.760473183564287183e+03
2.085197922539341107e+03
1.774567459657924474e+03
1.559574302634260675e+03
1.592248355089566985e+03
1.498603458655391023e+03
9.725376687788815389e+02
1.490126053224103543e+03
1.727490589689712579e+03
1.845648264791124575e+03
2.005484523164549046e+03
2.045914037592143131e+03
1.598977749429349160e+03
1.316700426675240806e+03
9.900492334323716932e+02
4.810383442004837775e+02
3.587195991695938915e+02
2.151221716980674898e+02
1.312412570359199151e+02
6.190651441861439253e+02
5.875235388236274048e+02
6.365617922600125667e+02
1.081147322783906020e+03
1.148290035502569481e+03
1.103102734967243805e+03
1.092639845698979570e+03
1.256996961631909016e+03
1.883190942607004899e+03
1.687262914289063019e+03
1.440276801060220123e+03
1.474229975877495008e+03
1.576062406729721715e+03
1.031701880629621428e+03
3.422042343854395199e+02
1.345540076803645775e+02
-7.533414111117785694e+01
4.005849526631720892e+02
2.103950482891113154e+02
1.950697352302828165e+02
2.126030309591578202e+02
3.040459833918676509e+02
2.564210271043085640e+02
1.267626934597565054e+02
6.041428070137733357e+02
8.285941242843790633e+02
6.361215594403321347e+02
-2.296138501951490980e+03
-5.093311877656805336e+03
-1.610325742806512835e+03
-2.474197081427868852e+03
1.109048560820627472e+03
1.401493653883252364e+03
-2.343912183153274782e+03
-3.131499137555540528e+02
-1.362049374348032416e+02
-3.859113055465235448e+03
-8.598148981526666148e+02
-2.372388206388597609e+03
-2.546819248011084710e+03
-1.480283933053386534e+02
-4.882983544141135098e+03
