8.420162297397599787e+02
6.350225791191386406e+02
1.626158502374247803e+02
-3.582714794286696929e+02
-8.055948940630785273e+02
-1.077377946797380673e+03
-1.274622935676449060e+03
-1.521281350840572259e+03
-1.717367171751197247e+03
-1.617925590475994341e+03
-1.264000459604247908e+03
-5.959242987685549764e+01
4.223429354056694933e+02
1.155863620847194170e+03
1.693944662996614852e+03
1.983647518692691847e+03
1.962965831699051478e+03
2.084863263267818184e+03
1.938339818668071757e+03
1.682368006525217424e+03
1.453956850863833552e+03
9.210429419061514409e+02
1.636164447099824599e+02
-4.963801658718497265e+02
-1.144970078895315055e+03
-1.401175684353043835e+03
-1.921015984563175380e+03
-2.119503206430491900e+03
-1.404735647931845733e+03
-7.567495214346300827e+02
-2.254197664352500681e+02
2.233525907649216435e+02
4.716331541779341592e+02
4.670099210611742819e+02
9.187911220359029585e+02
1.697240961437483065e+03
1.808113167523200673e+03
1.884453199045501151e+03
1.896977933332574366e+03
1.885115651167134274e+03
1.550612536835132460e+03
1.025198376199650056e+03
7.180874443383894459e+02
6.004144573102783511e+01
-6.979188153521926097e+02
-1.009787695197755511e+03
-6.689249947943013694e+02
-1.129432879974247953e+03
-1.344400736357151118e+03
-8.534469431258245322e+02
-2.534412755196200351e+02
2.994301102520350923e+02
1.080117237785922725e+03
1.725670209868663278e+03
1.664066114862838504e+03
2.359157817652141603e+03
2.772377081477278352e+03
2.636430994174238549e+03
2.500190815490067052e+03
2.023654960681830062e+03
1.855607355281349555e+03
1.502999379152103984e+03
8.177080834475082156e+02
-3.050360315904728736e+02
-4.124886882733088669e+02
-4.456789183705473647e+02
-8.055180766781422790e+02
-8.691532243326785192e+02
-6.676214752376450861e+02
-4.138826149743012479e+02
7.997059475581234267e+01
8.498850397223243363e+02
1.161878520326275293e+03
1.635042968204936869e+03
1.738395372121191485e+03
2.184906892944449737e+03
2.566557633608617834e+03
2.737310122487905119e+03
2.656092304699822762e+03
2.447929338083790753e+03
2.184881289036600265e+03
1.840916964939668787e+03
1.287946910556136572e+03
8.090367792779126148e+02
3.351617046894588725e+02
-1.707197922968541661e+02
-5.397145994151322839e+02
-1.260837484184562300e+03
-2.844104977923912884e+03
-5.198547780601026716e+03
-6.188040509775253668e+03
-6.043551724425821703e+03
-5.177186390409228807e+03
-4.506978105261562632e+03
-4.228886667355543068e+03
-3.709845116457410313e+03
-2.599726203032387275e+03
-2.811446143239008961e+03
-3.128941528345907045e+03
-3.379188652872353941e+03
-3.693277366674562927e+03
-3.821404906717433732e+03
-3.774618883408610600e+03
-3.390858912169662290e+03
-1.039121355721260670e+03
-2.353204914935606098e+02
-4.815402761503126385e+03
-6.687429171508826585e+03
-6.498405324608075716e+03
-6.160400875212075334e+03
-5.747471337603931715e+03
-4.330553295233811696e+03
-6.442059534585838776e+01
2.511950951183386223e+03
3.060564468043529814e+03
3.459361739907140873e+03
3.919261614850881415e+03
4.048372731331761770e+03
4.022819989341716337e+03
3.460681418521356136e+03
3.081980184116921919e+03
2.693692601628696593e+03
2.181892542800179399e+03
1.179485098004797692e+03
5.303244792833708061e+02
6.638107965880520567e+01
-2.711191402519128246e+02
2.778803416921796838e+02
4.063108820669507395e+02
1.990637604098451447e+02
5.222421276585495207e+02
8.050588052673285802e+02
1.427474110214989878e+03
2.246428068174136115e+03
2.360104233726638540e+03
2.979491957519725474e+03
3.352506748817624612e+03
3.091233360143667142e+03
2.869645649561900427e+03
2.880747069969253062e+03
2.739685924872811938e+03
2.213506463652714956e+03
1.497217120248310721e+03
7.548023452428171822e+02
2.063425665723807469e+02
-3.050526078592699264e+02
-1.072345398304251603e+03
-1.083638334337787683e+03
-8.071924723537324553e+02
-7.609775761337218682e+02
-6.298465795337598365e+02
1.522550247972985744e+02
6.663141423803675707e+02
1.061590796296779217e+03
1.584258744674408717e+03
1.897187995416803460e+03
2.059409059347824950e+03
2.105164738276720527e+03
2.023491823971110989e+03
1.789492574110723126e+03
1.346225414055561032e+03
8.206673542475825798e+02
7.068390873035139066e+02
-6.014515825608582418e+02
-3.209149001071441035e+03
-1.765471223442134942e+03
-9.325534113433080847e+02
-1.259379162039201674e+03
-1.558856176709030933e+03
-1.759002574676557288e+03
-1.364969489836001685e+03
-6.887375665958537638e+02
-2.718380520614129381e+01
4.127619040151116678e+02
5.501718228792209402e+02
9.371439863745615639e+02
1.258618762048155759e+03
1.587774698007712459e+03
1.780755403931451610e+03
1.337505245019506219e+03
1.101913562898360169e+03
8.258753901704504869e+02
2.834481434447431525e+01
-4.336441704361806728e+02
-9.300091676530415725e+02
-1.417834927118095266e+03
-1.640031117546495580e+03
-1.870601603057564489e+03
-1.905519492844598517e+03
-2.036353069236283545e+03
-1.910252718034538020e+03
-1.320618679529841074e+03
-1.025531784770004833e+03
-1.330777155336946862e+02
6.129411723187367897e+02
9.316366720983264713e+02
1.608942616238706023e+03
1.487992192106316679e+03
1.005008529431685247e+03
1.124005820873404446e+03
8.198018502615400394e+02
4.582682598977088446e+02
1.803516146981619102e+02
-4.780257319019655711e+02
-1.297810651872893004e+03
-2.077926535718615469e+03
-2.644460082662988043e+03
-2.575445537237064400e+03
-2.236922446420443521e+03
-1.720964729258392936e+03
-1.224428291739029191e+03
-1.128287855537945461e+03
-8.497538162199996350e+02
-1.478024934158728456e+02
2.997999468530065883e+02
5.120757771044952733e+02
3.889498339203392447e+02
6.096305318082594340e+02
8.452978434151081046e+02
1.639761004017896312e+03
2.318842868086523140e+03
1.283319561239498853e+03
4.021423133906589555e+02
-4.355089643857857595e+02
-1.291674827292270265e+03
-2.380426519719532280e+03
-2.770831530963709156e+03
-2.414727158217139731e+03
-2.268261743590260267e+03
-1.776614189380198013e+03
-1.109680582852628277e+03
-9.845395267441249416e+02
-6.393623897939454537e+02
9.103841842212516156e+01
1.149747411105188121e+03
1.818661403695287163e+03
2.255970795059238299e+03
2.333998979584972858e+03
2.182552415903705423e+03
2.212352649081322397e+03
1.788416374274251666e+03
1.706480550870591514e+03
1.261367572716108498e+03
5.903030297195210778e+02
-1.615306223948970796e+02
-1.064198600241083568e+03
-1.468788859313347530e+03
-1.614364530836649692e+03
-1.744147954879147619e+03
-2.220916935636840662e+03
-1.936715874387117537e+03
-8.586862645850364970e+02
2.133022393956426654e+01
5.353103063777081161e+02
6.073021765743702645e+02
8.204882007983516132e+02
2.093850716392964841e+03
2.759053255700326645e+03
2.850246618813828263e+03
2.299504164110491274e+03
1.779572802493067229e+03
1.133332099758722279e+03
4.186607521550302522e+02
1.968047330229471186e+02
-2.521262022690100082e+02
-7.853335113372064598e+02
-1.472890229300968031e+03
-1.641639815523878042e+03
-1.666581413809759624e+03
-1.660831452674323600e+03
-1.420580400203838735e+03
-7.986914491480597462e+02
-1.771898835320817795e+02
5.308248114262396484e+02
1.150364417555378168e+03
1.327726930801858089e+03
1.859450707361924742e+03
1.741320125537423564e+03
1.823893370728272430e+03
1.649142733373310648e+03
9.481618350307705896e+02
8.058195103618115809e+02
1.269233163688106515e+03
1.693336758771696623e+03
1.020941618052316358e+03
-2.811180006807134077e+02
-1.029691867389969275e+03
-1.460707477355326091e+03
-2.559245791995933814e+03
-5.195144232605798607e+03
-5.812246907559660940e+03
-3.609933277601980080e+03
-2.777418712745717130e+03
-1.361612611785552417e+03
-3.624247367724175092e+03
-1.123178023496463425e+02
1.365165407175749579e+03
3.907086633068318093e+01
1.687724507843083074e+03
7.812852085049280504e+02
7.324646145730312128e+02
1.706180862690379854e+03
1.732596246152973208e+03
2.049700121568215309e+03
-5.436789237264921439e+02
-1.503673054226250997e+03
-2.480274342329665160e+03
-2.900267000950267175e+03
-3.524647664422187972e+03
-3.723566326597679563e+03
-3.898188684713925340e+03
-5.719352481979919503e+03
-1.486973929333695423e+03
-3.079156080192921081e+02
-4.100953687358648949e+02
-5.055104746142837513e+01
2.058411711904706465e+02
1.908878602212331771e+03
8.404854497867829650e+02
2.260742368974147212e+03
2.105790255638271901e+03
1.459556279021497630e+03
2.212880766238455180e+03
1.747057619686476073e+03
1.408200896566138226e+03
1.906077635129051487e+03
1.586404775793245790e+03
5.122184739471568946e+02
-2.839643660565427297e+01
3.397189264348845086e+02
7.534379087647141660e+02
1.179837433871209214e+03
2.219750517343776664e+03
3.006232390971511450e+03
2.663469700467984694e+03
2.315579227578562040e+03
2.568687830720909460e+03
2.539864758387952861e+03
1.994048995092424093e+03
1.946054259842264855e+03
2.094780207347028863e+03
2.313208342390199505e+03
2.123224863181624187e+03
1.683951495381904124e+03
1.091924115292371880e+03
-3.913822634970098306e+02
-6.649784130223647480e+02
1.618804033702749621e+02
-4.918893815921639145e+01
-1.076180691672013381e+03
-2.163086716063196036e+03
-3.328058860396150976e+03
-3.433818239940216699e+03
-2.907302457388735093e+03
-1.614686545849269805e+03
1.053950759843952483e+03
2.740948235886887687e+03
2.227609400907957479e+03
1.095657998112376845e+03
5.474378025114860691e+01
-6.540510664675972521e+02
-3.048786417918267375e+02
3.231659439091499735e+02
4.628484657412796537e+02
6.057999422693490033e+02
-1.522742595405362742e+01
-2.035282803554027169e+03
-3.913243357012091565e+03
-3.049257801422660577e+03
-1.557756956995927112e+03
1.244506331818215870e+02
4.705028978564797058e+02
-1.114606414267818081e+03
-1.963979028736297096e+03
-1.608518342641681329e+03
-6.021942603655471657e+02
4.929228054976585440e+02
1.131832620165340131e+03
2.768798066682167700e+03
3.279840917345145044e+03
1.838002806462671515e+03
-4.929275577534569948e+02
-3.960129228838434301e+02
3.237340332271591592e+02
4.149870682772820487e+02
-1.387979673075367145e+03
-2.642970313585227814e+03
-1.165062505940665005e+03
-6.572243549377080853e+02
-8.846054814259915702e+02
6.787173276801731845e+02
1.903811885383430081e+03
1.691546278165872536e+03
2.080895391235507759e+03
1.532203858454386818e+03
3.386024613494462869e+02
5.082645789863547492e+01
-7.213238695526410993e+01
1.488203381080856502e+02
-4.611043245876749097e+02
-4.339634330216454146e+02
1.097018762858937180e+03
4.183991692517999581e+03
5.779101733519428308e+03
4.098190857274569680e+03
2.072045425248259562e+03
8.235873932189764446e+02
1.658906768204437867e+02
-1.758864506357014079e+03
-1.875577371586270601e+03
-2.636359673029840451e+03
-5.825163434970768321e+03
-8.451959405838244493e+03
-8.273769079190142293e+03
-8.319761896889871423e+03
-8.076932831575366436e+03
-6.630161503759313746e+03
-4.377364277053670776e+03
-2.257388521857684736e+03
-3.641620816256449871e+02
4.364269246596396442e+03
5.930932783983861555e+03
5.197481762328555305e+03
4.336873069266613129e+03
4.913221819900689297e+03
5.459489556620240364e+03
3.928609183822140949e+03
1.565725073960470581e+03
2.258079539158805744e+02
-7.871784589032085933e+02
-1.972228468784343249e+03
-1.607219205876496744e+03
-2.101136026106037207e+03
-1.190090906237215449e+03
1.166009027583834040e+03
2.870246900710499176e+03
3.684642217402493316e+03
3.589263604193520678e+03
2.162142240085629055e+03
1.130294736431736510e+03
3.807422278394436717e+02
-1.612528545001235670e+03
-2.748521282697621700e+03
-4.222177509810715492e+03
-5.221521137884163181e+03
1.626820366982329702e+01
4.668282645895939822e+03
4.501445258010076031e+03
3.027792526827803613e+03
1.348396126134266915e+01
-1.400473995613903071e+03
-1.683163480349040810e+03
-3.356580917942659653e+03
-3.123637386208378302e+03
-8.361910290644411816e+02
2.049644651395862638e+03
4.043835684115657386e+03
4.705469218432303023e+03
4.641438177899425682e+03
3.044887634589938898e+03
1.906945222346882929e+03
2.446614787830204932e+03
2.404883500325724526e+03
2.118731380107944005e+03
1.238978795053327985e+03
-6.653816484431130220e+02
-7.504015397449122702e+02
-5.680400168924320496e+02
-2.977337817185469703e+03
-5.782306550365114163e+03
-6.354882568233734673e+03
-6.046135138035379896e+03
-6.919081479183950250e+03
-5.048481603687092502e+03
-7.312340830221500028e+02
1.907615073828146478e+03
3.858911251006095881e+03
2.682630341557819065e+03
-1.560100632580442834e+02
-7.504206067944237191e+01
3.834936749481008746e+02
1.871114083732741307e+01
-6.704190237769479381e+02
1.580994950570352557e+03
2.230862345240728700e+03
6.021651369779956440e+02
8.879156449837395257e+02
2.181074460875624084e+02
-2.986178706815825080e+03
-4.445829624528403656e+03
-4.823969303293315534e+03
-6.478757718815461885e+03
-5.943120854724526907e+03
-8.490098949694706789e+02
3.151569031607841225e+03
4.511590263360048084e+03
6.549090849437788165e+03
5.247136334656884173e+03
1.251645316829819194e+03
-2.563642656183381519e+02
2.821796803196944552e+02
1.236272390590450186e+03
1.269952156569785757e+03
1.284128475609493080e+03
-1.308204389103130552e+03
-1.278067780999883553e+03
-1.745468846201407814e+03
-4.209518433879701661e+03
-4.283290542089627706e+03
-4.781798306067382327e+03
-4.885006212241294634e+03
-2.099894006299074135e+03
9.055397148649792598e+02
4.231791027281474271e+02
2.030020432983523278e+03
5.033129180264070783e+03
5.239592414208999799e+03
3.909378641779323971e+03
7.025334836550860018e+02
3.890427214786304262e+02
1.684825124392392127e+03
5.848929099223072399e+02
-1.413770188988914697e+03
-1.164186327921106567e+03
5.585803089592546939e+02
6.684754136206950079e+02
-1.384548016198787991e+03
-1.939504512378844765e+03
-3.089471224646847531e+03
-6.292455975437760571e+03
-1.005950121988204592e+04
-1.084462152205419807e+04
-4.052733087179759877e+03
1.639076992822280090e+03
2.157789468673238844e+03
2.085406382097948608e+03
3.393985670772320191e+03
3.096576919024689687e+03
4.890065132227422509e+03
5.964389334885002427e+03
4.969554681995024112e+03
2.471591550328152152e+03
1.667524861328584620e+03
1.816271732077457727e+03
9.297800820583764789e+02
2.109968677307631424e+03
5.761190582220089709e+03
5.563326144077643221e+03
2.732879682888100888e+03
-2.277535264395703223e+02
-1.419966788094116339e+02
-2.936022860986835070e+01
-9.105654033419983762e+01
-2.575412625762867719e+03
-1.383070655324509744e+03
2.613766203702188250e+03
2.988232281557490751e+03
1.923362138460364804e+03
3.277806992256958893e+03
5.638877007193950703e+03
5.240598349406875968e+03
2.939953707023923016e+03
8.876739279247748300e+02
1.655007947136414714e+03
2.775683959369844615e+03
2.425966316434580676e+03
-4.952350377520970710e+02
-2.728046371598433325e+03
-3.554429140243535130e+03
-2.890913396839631787e+03
-1.538324122945595718e+03
-5.085643398198952809e+02
2.062335704991495732e+03
2.564367166893794092e+03
1.702279664798548993e+03
1.125594651245022533e+03
1.575020720265904174e+03
1.965593087747656000e+03
7.433439272254761931e+01
1.419153726649575447e+03
5.045119656779495017e+03
6.577242791071167630e+03
4.444434208900045633e+03
2.504736493531821452e+03
1.637178839818799815e+03
2.378730810305475643e+03
1.652299626009418489e+03
1.375870639198818935e+03
-1.120586036583543773e+03
-3.670129704932899131e+03
-4.573779293646212864e+03
-4.492385922487211246e+03
-2.886886285336634501e+03
-7.532817989601547026e+01
2.353274563619448600e+03
2.254987062859431717e+03
4.437808587079849758e+02
-2.466286133919308668e+03
-8.291199238253237127e+03
-1.425589243206395440e+04
-1.489434754216887450e+04
-1.024958961705113143e+04
-6.003526753220767205e+03
-3.291174143865794576e+03
-4.325652001506615306e+03
-4.673961457381996297e+03
-5.073074042596254912e+03
-8.231911887232599838e+03
-7.915485433948777427e+03
-5.740767200098403919e+03
-6.965738184399853708e+03
-1.001748566571618539e+04
-9.079107438683307919e+03
-3.588531055158180607e+03
-3.985347551172362159e+02
-1.232976916086264055e+03
-6.388856220617889221e+02
5.806998055401701322e+02
-5.312840688833093736e+02
2.600187991388422233e+03
3.415208732461404452e+03
3.014705370355231025e+03
2.108751453287394725e+03
3.038555361421560519e+03
3.577136830507420200e+03
2.127280530911632013e+03
2.216906127164108511e+03
2.543985782962316989e+03
2.871611817622897888e+03
2.011991826683318322e+03
2.042160513750269956e+03
2.374034790427278494e+03
1.064589319177857988e+03
-5.761062321027857251e+02
1.049977987568541948e+03
3.226773929094903451e+03
5.923411914291084031e+03
6.527096784589187337e+03
6.501944252179465366e+03
6.380819074759741852e+03
2.510729804069664169e+03
1.184733931988960649e+03
1.986982833063629414e+03
2.542455369812584649e+03
3.818926517249114113e+03
3.832492266117064901e+03
3.188238533512144386e+03
2.699003002327133800e+03
8.048363007343697291e+02
-2.189143357650051257e+03
-1.742954704879794690e+03
7.095124186766286130e+02
1.944041478798315268e+02
-8.252891758195047487e+02
-1.340565343030234089e+03
6.686046467339167521e+02
2.170334246343375071e+03
8.236189728684979627e+02
1.150350958657001229e+03
3.249391114933680910e+03
4.407789344324646663e+03
3.139860582895026710e+03
1.127159244360482404e+02
-2.643679252102357168e+03
-2.731372188761898997e+03
-1.525281346177732757e+03
-1.669515279338528217e+03
-9.279865341933027594e+02
2.894395083956944745e+02
1.391751368667625002e+03
1.499953737351905261e+02
-1.626701223257254014e+03
-2.479259594524138265e+03
-2.800829541489831627e+03
-1.305513027001353748e+03
2.000738049309085682e+03
3.974958879704735409e+03
4.817969920853758595e+03
5.245001632743735172e+03
4.775042358732994217e+03
4.564021633456077325e+03
3.602782138590841896e+03
1.329351209581177955e+03
1.136860788513531134e+03
8.483906552950453488e+02
1.692647844938650437e+01
-1.191562805565379449e+03
-1.344022886126767389e+03
-1.102596532432552976e+03
-2.566205267405949598e+03
-3.157973448078266756e+03
-2.953019346479895830e+03
-3.349275026407528912e+03
-2.895759883295646887e+03
-2.145370883733429764e+03
-1.856939389115494350e+03
-1.137513011353983302e+03
-7.380814813541404646e+02
-5.624880221469635444e+02
5.861904348963558959e+02
1.515951046507305591e+03
1.207592764002032339e+02
-6.098487267902640951e+02
-2.557010036524237421e+03
-4.077429345905986793e+03
-4.080039372949499466e+03
-3.300758675519054577e+03
-3.604638626057441343e+03
-4.469757811806576683e+03
-3.914027104987300390e+03
-2.118560182900338532e+03
-2.152573652008320551e+03
-2.241163175514303930e+03
-1.757292887124710660e+03
-3.051880916988206081e+03
-2.763912622437423124e+03
-1.241253273131132119e+03
2.470852427631535875e+02
1.678936968805293645e+03
3.192327419328147698e+03
3.079259286788093959e+03
3.117737533018628710e+03
2.660817619734202708e+03
2.721331850476418367e+03
1.742196326531992781e+03
4.716093922366425772e+02
2.986914339399189657e+02
-1.173755846296005757e+03
-3.634882762526702663e+03
-3.788639582179881927e+03
-2.198204345823544372e+03
-8.269167893578828625e+02
-6.237230359957991368e+02
-7.166013510788066014e+02
2.686560170464299517e+02
8.942346605771606391e+02
8.439040317421934105e+02
2.152587118930154247e+03
2.847300320405426191e+03
2.736166248711317621e+03
2.117886077010353802e+03
8.954381254078508618e+02
-9.004111495651917707e+00
-8.976031392185493587e+02
-1.359378607893182789e+03
4.987241549758445558e+01
6.800159947630227180e+02
-1.910344035126302913e+02
-3.942075694014383203e+02
-1.268776062944991345e+01
8.510486808603938869e+01
-4.098601650370890184e+02
-2.764364133086701258e+02
3.352788367853808040e+02
3.075304700404359437e+02
1.125847671862907760e+02
5.812536487323918664e+02
9.134185854454649416e+02
1.608011311549594211e+03
1.687063018077538118e+03
2.073527666262634739e+03
2.404615249089198642e+03
2.417126490899122018e+03
1.827065410402745783e+03
1.273592205051827932e+03
6.124889594689313981e+02
2.477850012292589099e+02
-1.675917721266451679e+02
-2.999363513605256912e+02
-5.563306235101471202e+02
-1.169526763208104740e+03
-1.366694236647124399e+03
-9.599969114895102393e+02
-8.272170242040900803e+02
-9.018342396596460731e+01
6.032792200843617820e+02
9.749327413539022018e+02
1.535683754451986715e+03
2.052728820003792862e+03
2.323148606958638538e+03
2.492780218621390304e+03
2.354454893381596776e+03
1.823276717627750031e+03
1.537395714789161730e+03
9.057045225547257132e+02
4.632349839209298352e+02
-1.378358693336168415e+02
-7.413446438895451820e+02
-3.844892909398537313e+02
-4.029285040012979380e+02
-1.108714146892840290e+03
-1.485557384275212826e+03
-1.141428024435497264e+03
-4.032967540253117136e+02
-3.237651178833526728e+02
-6.727786051680244839e+01
7.442200456141846416e+02
1.266933604340106058e+03
1.617011606517760129e+03
1.507362831058172560e+03
1.120932828539186175e+03
-1.248246080154603078e+03
-1.109267943057636558e+03
-5.173718933028767424e+02
-3.243333870428459250e+03
-1.723911395236417547e+03
-4.676022181184402143e+03
-5.339889641715560174e+03
-2.207498473926698352e+03
-4.256831315665492184e+03
-4.561671844978128320e+03
-4.225250007670417290e+03
-4.366798233638985948e+03
-2.935022979569221661e+03
-4.653770987043008063e+03
-2.990202371662478981e+03
2.086343385129235912e+02
6.959368848595837562e+02
-1.031063268765880366e+03
3.746173960488163743e+02
-1.103201740381789250e+03
7.754459129106805904e+02
2.549667842593254136e+03
3.266710895295911541e+03
2.876568864185425355e+03
2.153156097623436381e+03
1.370346197593332818e+03
7.061116681657848630e+02
1.774853503005408584e+02
-4.706850159581359776e+02
-2.886269675715942412e+03
-1.261145885649547608e+03
-3.952290780948979432e+02
-2.325672315257410787e+02
-2.491215485076706386e+02
1.273306141184896063e+02
3.775704430155988689e+02
9.814106916817855790e+02
1.530968939539818393e+03
2.046568439435893424e+03
2.146268634750556885e+03
2.266014799508995566e+03
2.131682276286698198e+03
1.959412170712020725e+03
1.464155272574717856e+03
8.781062645040735788e+02
-1.986850037038989569e+02
-6.753170698562648795e+02
-5.308289991680505864e+02
-4.443091468727209872e+02
-9.128945463339606476e+02
-1.343597503467280603e+03
-1.958232838457203343e+03
-1.788648856780524056e+03
-1.354714009364246522e+03
-4.261380073903284256e+02
5.183906768463787103e+02
8.907170201052528000e+02
1.236381103049515104e+03
2.431340177200666403e+03
3.403630395983068865e+03
3.387504742386224734e+03
2.482922135992263520e+03
1.878913462123367253e+03
3.076870958807757006e+02
-5.170315713318384496e+02
-7.434444158642417051e+02
-1.414296640718521985e+03
-1.817260265833391713e+03
-2.037664285512542847e+03
-1.720929411824030922e+03
-5.022368715062734736e+02
1.236198042011128138e+02
1.567978351442924350e+02
1.053013388642959569e+02
5.543465423401934231e+02
1.731639833131193654e+03
1.896309882057887307e+03
1.903420144736043540e+03
2.642045744499875127e+03
3.136043626748313727e+03
3.272434242370822176e+03
3.011356179764243279e+03
2.610800325807679201e+03
1.852842897664477050e+03
1.139181531832604378e+03
8.108156570886208101e+02
7.367238550388975682e+01
-7.083160088116029556e+02
-6.919973887539463249e+02
-9.213264734099778934e+02
-1.176544730932959510e+03
-1.007725809159677851e+03
-6.079893299231616766e+02
-4.232107064688628952e+02
-1.652957735165872464e+02
7.087970911999334476e+02
1.672463209954604054e+03
2.309541690578423641e+03
2.589820063437876797e+03
2.411278899945671128e+03
2.386824996638650646e+03
2.421518599568547415e+03
1.925433403803666124e+03
1.649504662140226174e+03
1.115841047507490657e+03
4.355844322390520915e+02
-3.555210740663504794e+02
-6.597107576083192271e+02
-8.007737438306371587e+02
-1.236637441798531654e+03
-1.372354966314367402e+03
-1.288104701540792803e+03
-9.919042959638910588e+02
-6.175151927060639991e+02
-7.999017768233866832e+01
-4.251146662653158614e+01
4.859687462156517199e+02
1.481671540423199986e+03
2.318750623309711045e+03
2.781196160442498240e+03
2.439820642667452830e+03
1.877479853518304935e+03
1.294307174127931376e+03
-1.128824354911948831e+03
-4.942007519989607317e+03
-6.608276224351636301e+03
-7.368493026873825329e+03
-7.053580299807076699e+03
-7.429580454196743631e+03
-8.148531853874317676e+03
-8.076536255798255297e+03
-7.328803746444679746e+03
-4.953361571610391366e+03
-1.334895716706068242e+03
5.025266618956912339e+02
1.310976652240398607e+03
1.516480691849564892e+03
2.209096828749574343e+03
2.422929495458360634e+03
2.255853134875102569e+03
2.393856986788739505e+03
2.111985285096493499e+03
2.018286964167648421e+03
1.463677627333096098e+03
9.270986516402721236e+02
1.106645484410270655e+02
-4.996493384430521019e+02
-3.839207266084505932e+02
-1.126081849536515847e+03
-1.468194984507619893e+03
-1.131275340477959389e+03
-1.241298949138746821e+03
-1.080290356889532404e+03
-2.742192094193604817e+02
3.059833869929657340e+02
4.222349793681140682e+02
4.475560352012316230e+02
1.672135230480089376e+03
2.289955562622348680e+03
2.807159201246745397e+03
2.937715173506994688e+03
2.093520743790119468e+03
1.664510589119267024e+03
1.269767680717691064e+03
4.733426213253028436e+02
4.009845461160483637e+01
-6.660579183024196936e+02
-1.221009505867887128e+03
-1.407778465228344885e+03
-1.288379803211680155e+03
-1.377653026616050056e+03
-1.223675445066967541e+03
-7.745486985379733369e+02
-4.742649624705624660e+02
4.317895657603484239e+01
7.797900051705017859e+02
1.321681983706312622e+03
1.633890857519368637e+03
1.758473488829519511e+03
1.419411177614123289e+03
1.015766939075384357e+03
1.468607517609684010e+03
1.651856532774321067e+03
1.125608076638934335e+03
2.169872854675025167e+02
1.949491607193931202e+02
-6.327452412037090426e+02
-1.348141606631848617e+03
-1.640106515040724389e+03
-2.031634544615590585e+03
-1.917794590829300887e+03
-1.822527376920064398e+03
-1.898791765753397613e+03
-2.269607524351394204e+03
-1.048941329111755522e+03
1.712640681012960329e+02
4.631024175919283152e+02
1.061661645541792495e+03
1.865938660612322337e+03
1.897964326318321810e+03
1.874736567141071191e+03
1.613077405107722598e+03
1.417009550140095598e+03
8.976432131249929398e+02
3.049640140691747092e+02
-1.400751262350721618e+02
-6.475159670193140755e+02
-1.009315135182964127e+03
-1.297486468907547760e+03
-1.476074545261957610e+03
-1.370043523266149123e+03
-1.670333766191872428e+03
-1.283008875962648290e+03
-7.660363948291936822e+02
-2.334118696053264159e+02
6.290194821384359614e+01
4.608837169054684182e+02
9.615447801071500180e+02
1.335925670685134719e+03
1.752058453917484030e+03
1.740954500433224439e+03
1.887617862029704384e+03
1.670008062532472877e+03
1.031109417899567916e+03
3.638956550533609970e+02
-2.626144202955513265e+02
-8.293769927418059069e+02
-1.533474791401720950e+03
-1.844011675722557356e+03
-1.559995162945161610e+03
-1.350453191632776225e+03
-1.706401823113515320e+03
-1.456813129725504496e+03
-8.707052482255315908e+02
-3.410733568369108184e+02
3.421413171196632561e+02
8.049477243783949234e+02
1.428305759025741281e+03
1.724225703188703847e+03
1.897724114125670667e+03
1.696898426877151906e+03
1.073678480647590504e+03
1.024037764164435657e+03
8.368833721044485401e+02
5.340626392743569113e+02
3.592138762072818459e+00
-1.484492613514576760e+03
-3.690327050049066656e+03
-4.483041419702263738e+03
-1.458553025013639626e+03
-1.615627762119333738e+03
-1.565360888980713980e+03
-1.021010442850288086e+03
-5.573749088864772148e+02
-3.353378449236263492e+01
6.656433931210482342e+02
5.721170799732797150e+02
1.297861437341344981e+03
2.084004115157686101e+03
2.294284454376338090e+03
2.432889212828388736e+03
2.577340025774216429e+03
2.317112488935328656e+03
2.049094556194018878e+03
1.535728533672673620e+03
6.576020812993357367e+02
-9.268235871399137693e+01
-7.511821820670063516e+02
-1.060708471441490246e+03
-1.265774963152451392e+03
-1.385961866962400336e+03
-8.625756107783078050e+02
-4.725930248365742727e+02
5.218529321160136760e+02
8.760622766968939459e+02
1.406769845841673487e+03
1.990245015742932083e+03
2.453255441542811241e+03
2.945653094435813273e+03
3.217576369329350200e+03
3.189789640130965381e+03
2.711476197086309639e+03
2.512818947212491366e+03
2.450495136428877231e+03
2.143460461232143189e+03
1.436721899184292624e+03
3.824546393398295550e+02
4.229446775580134243e+01
-2.756391605648941550e+02
-3.846483406443913395e+02
-4.135667638389481908e+02
-3.663682727594684252e+02
-1.809691602456263482e+01
2.081684312754637460e+02
6.294390078162778082e+02
1.330709310781477598e+03
1.934962891459278126e+03
2.419159145210211591e+03
3.168388271860614623e+03
3.510636500943484862e+03
3.603888843294534126e+03
3.400192630779532465e+03
2.833556505165121962e+03
2.324889822673123945e+03
2.166063256470591114e+03
1.783092893215807635e+03
1.232026420321386240e+03
4.578368309885934764e+02
-8.134263957755883894e+02
-2.742846924999933890e+03
-5.864474894785012111e+03
-7.461340028370515938e+03
-6.851437640037634992e+03
-6.292725006456572373e+03
-5.434176593372756543e+03
-4.633884051366688254e+03
-4.053837742554571832e+03
-3.459929987354841160e+03
-2.514063894228455865e+03
-2.004277023871137544e+03
-1.895420623538995642e+03
-2.271548758320517663e+03
-2.809681770813384446e+03
-1.441697995418799792e+03
-2.546916390398186820e+02
1.298230021044269051e+03
-6.969624671409723078e+02
-4.558266372646511627e+03
-5.715626695828052107e+03
-6.235001423088808224e+03
-6.448382595537147608e+03
-5.943760284957478689e+03
-5.515221912416662235e+03
-5.419703879395270633e+03
-5.018219941539321553e+03
-4.535783851791878078e+03
-3.863241909744690020e+03
-3.384539155005011253e+03
-1.329547111886321545e+03
2.843754843879743476e+03
3.964416828680880371e+03
4.041465019273871349e+03
4.043853963766493962e+03
3.533628246824638609e+03
3.170848989639913725e+03
2.635490934098359958e+03
2.227580302828324420e+03
1.916077021814069667e+03
1.158025059869845336e+03
1.634678434272632330e+02
-3.305806584337065033e+02
-4.491156776772400008e+02
3.778978232570579507e+02
1.295475709785406252e+03
1.821667480502731223e+03
2.252625631860395515e+03
2.653416645716998119e+03
2.917011330935636124e+03
3.608512986908245693e+03
3.676072138048174111e+03
3.519652571685852763e+03
3.548199221899023996e+03
3.530722428607924485e+03
2.934306520732622630e+03
2.299007924678424843e+03
1.867817575113063185e+03
1.004732221158433390e+03
5.057827771153440608e+02
-3.409761745147762895e+02
-1.070590307345618839e+03
-9.351178076030211059e+02
-9.544730003621338028e+02
-7.815431422887642157e+02
-2.337103479603604583e+01
6.429730874093952480e+02
9.034370581973345224e+02
1.233262823532267021e+03
1.317660863715947698e+03
2.133730570454030840e+03
2.551603643183704207e+03
2.685455057897017468e+03
2.682503399900681870e+03
2.084668613419415124e+03
1.467976841672467572e+03
7.902277756669091104e+02
-1.414136551303430736e+02
-5.148656539791960540e+02
-1.242376947526159483e+03
-3.308017206713840096e+03
-2.239646998083742346e+03
-2.155496485632123495e+03
-2.068776270605173977e+03
-1.408506490823241847e+03
-7.674990785551104864e+02
-4.187070452699944667e+02
1.788922230149808286e+02
5.992807190821290533e+02
9.915379656718449723e+02
1.471722887465329677e+03
