2.470524447297997312e+02
2.842033044560082544e+02
-2.265697329702263829e+01
-3.154727169134529419e+01
4.288041700978608901e+02
9.361346161459186987e+02
1.458554212356216112e+03
2.226101153129777686e+03
3.056819376663488583e+03
3.311640763856416015e+03
3.154567090427656694e+03
2.835623924230541888e+03
2.550833953835345255e+03
2.891199743615978150e+03
3.061723887587377249e+03
3.024495690931491481e+03
2.808504826735023926e+03
2.704742365170735411e+03
1.575131137708884125e+03
-4.133123493473856058e+01
-1.856986133159189194e+02
-1.342992251861846626e+03
-3.504201193729605166e+03
-5.999386118575682303e+03
-7.010532356472240281e+03
-6.920523932694115501e+03
-5.990258358404764294e+03
-5.095703869993053559e+03
-4.762900888135339301e+03
-4.310822117224634894e+03
-3.600496964515238687e+03
-3.484892813827547798e+03
-3.233941116028450324e+03
-3.115646402970037343e+03
-3.172066235345993391e+03
-3.205122612663320069e+03
-2.438744788241915558e+03
6.712170726239838814e+01
-1.967558339430610204e+03
-4.093829642199762020e+03
-1.515660758846984663e+03
8.449247626919780032e+02
-2.459056604580030125e+03
-4.952556769526858261e+03
-4.796556969612724970e+03
-4.774048925712590972e+03
-4.340003407447066820e+03
-3.413362770704658033e+03
-2.797074969298992073e+03
-3.183119963921404178e+03
-3.102445230674120921e+03
-2.826987407882179014e+03
-3.206747492433928528e+03
-1.482708858027528777e+03
1.800113309761563869e+03
2.475811738135189898e+03
2.534406163237912551e+03
2.899907242716890778e+03
3.150331363410309223e+03
2.169681825517985544e+03
1.058015779321769060e+03
2.262721848844065562e+02
1.234451448038789039e+02
3.875264569230486131e+02
1.180529552513426779e+03
1.480454308440914019e+03
1.437474096849504576e+03
2.249650991061165769e+03
2.666027620840527106e+03
2.881601231120705961e+03
2.939380886234441732e+03
2.643401802837899595e+03
2.482719049749141504e+03
2.176281432595339993e+03
1.767107383859902484e+03
1.244259256243438813e+03
1.082645569290694539e+03
7.422872966659215308e+02
4.322667923918747306e+02
-6.632385565422636091e+02
-1.106960822667157345e+03
-3.310512812417610462e+01
6.283998591102058526e+02
1.088519453776252249e+03
1.642214549922223114e+03
1.891480004034848889e+03
2.302392740303695973e+03
2.422978113253484480e+03
2.504243952291588812e+03
2.913197872542731147e+03
3.021047335845593807e+03
3.235938385165928139e+03
3.367748764869923889e+03
3.160720823217639463e+03
3.098754372629321551e+03
2.938417454562336388e+03
2.317628973409538048e+03
2.003632050777382119e+03
1.566421425144810428e+03
6.688898060693343268e+02
1.130212401019323210e+02
8.182241077362797910e+01
4.922684881893881936e+01
1.681389407843440154e+02
-1.794115848270949130e+02
-4.224792268205731602e+02
5.758735358608128081e+02
1.335825318844933236e+03
2.140181568135062662e+03
2.132908427988213589e+03
1.784033306797633941e+03
1.762604940209082542e+03
1.572696276521223353e+03
1.163208388825586553e+03
9.460547921979064085e+02
1.373191204017527753e+03
1.373598772576977808e+03
1.289238314126193700e+03
1.114126445311246925e+03
3.562775940443215745e+02
-3.283508051867344193e+02
-7.568458925947679745e+02
-1.009283701499718404e+03
-1.010653996600826304e+03
-3.720230269179156721e+02
-2.823609314836940598e+02
1.003618837775178321e+02
4.261837692024008106e+02
9.131039895097446788e+02
1.296097607775688630e+03
1.213187604847763623e+03
1.141393177856153216e+03
1.353667144748028704e+03
1.505032658014352364e+03
1.404516762733798942e+03
1.129092379186652352e+03
1.135776757826081166e+03
9.935807569399108843e+02
7.304015275282812354e+02
-2.718370859913325148e+02
-1.605187238828518275e+03
-3.243734781065570132e+03
-2.974569002120892037e+03
-1.586686555474295119e+03
-3.378127919057433701e+03
-7.857865107512865507e+03
-7.677839492267966307e+03
-6.460057548537900402e+03
-5.833432966759784904e+03
-5.592962132933264002e+03
-4.970769847251235660e+03
-3.948861196614590426e+03
-4.517185997132316515e+03
-4.638530571914374377e+03
-4.475092767671733782e+03
-4.485610611090352904e+03
-4.906173254126522806e+03
-3.125988013151323685e+03
-2.221210166286170136e+02
-8.450259870711199994e+01
-2.881054722305585187e+02
-7.850485107320355382e+02
-1.392350735175315549e+03
-1.289962253653725156e+03
-1.079969631424545241e+03
-5.674574886811248007e+02
3.465870297523114800e+02
1.088219977335150361e+03
1.831495006741232601e+03
2.066452661075667947e+03
2.097114460367851279e+03
1.560437565185842686e+03
1.747376510954734158e+03
2.029015820369631456e+03
1.957453788588952875e+03
1.868693817525105260e+03
1.926742327922923323e+03
1.733620670299102358e+03
1.401236784201498494e+03
7.585941415837384056e+02
2.817027200143450614e+02
-8.497599979175852525e+00
-5.039800631740312724e+02
-6.037565929640630884e+02
-6.479843606267984342e+02
-4.526089210721918903e+02
1.024449015482394998e+02
3.872388256843630643e+02
6.998299964346421120e+02
1.288317673889024718e+03
1.559680796767557013e+03
1.417842676902681433e+03
1.547800027476194373e+03
1.540626006486396591e+03
1.567431426859253634e+03
1.522107291411391998e+03
1.318590031795137975e+03
9.709581277607995844e+02
1.035295526073164183e+03
6.895770264358098984e+02
-2.601296484326867926e+02
-5.448822076672626054e+02
-9.216590156667643896e+02
-9.435447305861902123e+02
-8.395065699839324225e+02
-5.883905076280939284e+02
-9.919349970161330532e+01
3.332532173732783463e+02
1.025982939369599535e+03
1.398859826657746453e+03
1.365837346887041576e+03
1.540070742703890573e+03
1.469741791835144568e+03
1.035773404256665117e+03
5.740143970731734271e+02
8.194892086716337190e+02
5.563388168304672945e+02
3.616541811968699562e+02
6.412509769989966024e+00
-2.794248109848311969e+02
-7.098237758139434845e+02
-1.362881094449419152e+03
-2.034624921585758329e+03
-2.087985966104440649e+03
-2.009756017438324761e+03
-1.618205790447043000e+03
-7.693468371639127099e+02
-8.799510674656961839e+01
6.371067823288194631e+02
8.969652419553112850e+02
6.913568492242561661e+02
5.462778809384559509e+02
-7.810058355924635975e+01
-2.528648570719217901e+02
-2.071234297371480864e+02
-4.187760396333289350e+02
-3.772045240882943062e+01
3.220363761168615042e+02
2.903906863095522795e+02
-2.696926409309270980e+02
-9.130378614253331762e+02
-1.450572084110802962e+03
-1.909457035816918733e+03
-1.175809981097816717e+03
-1.145655648897392211e+03
-1.370963090436335960e+03
-7.455993788284645234e+02
-8.955573900054675107e+01
1.671271435242351515e+02
3.385232922879852708e+02
2.849129502586372951e+02
5.643182308752283234e+02
1.076733415592261736e+03
1.342834369561685662e+03
1.490372626800306762e+03
1.591806019459916115e+03
2.029293197786482324e+03
1.714624039633198208e+03
1.280746779321574195e+03
1.865828278658974284e+02
-3.771627776014336177e+02
-8.415860322117850956e+02
-1.164638692734037704e+03
-9.242755826327651221e+02
-4.845120748082695172e+02
-8.564085518060494451e+02
-9.778860389913603512e+02
-8.747424224437572775e+02
-2.379584784275917002e+02
2.103875173245072574e+02
-3.339196257352509747e+02
3.404985335427805637e+01
8.492912419318062121e+02
1.710835038686025200e+03
2.103626518471213330e+03
2.112752368625368490e+03
1.592442261119368140e+03
1.201553210265534744e+03
9.349321344383807855e+02
9.377016648828117695e+01
-1.313892255799260511e+03
-1.773398854118794588e+03
-1.542638818109923022e+03
-9.856306137258235367e+02
-6.824495072963613893e+02
-3.057650309585909554e+02
-1.308972092599352948e+02
5.199772579449714840e+02
1.794958492410259396e+03
2.028852514947448299e+03
1.763796046019930145e+03
1.339924313515537506e+03
1.317865443426732554e+03
1.704589896957672181e+03
1.931842176169322329e+03
1.855163173469495177e+03
1.601282726483589386e+03
1.015021443705760021e+03
6.224986659591151010e+02
9.249848058580492989e+02
7.630189635961473869e+02
9.649563161901076569e+01
-5.363936978439396626e+02
-1.084916476754244968e+03
-1.296985451857263570e+03
-1.089830175342048278e+03
-6.712370300598681752e+02
2.673050840247734783e+01
1.007746914382757268e+03
1.604471150688926173e+03
1.522674537519071919e+03
2.015758074215818169e+03
2.127903536593189074e+03
1.970872887746926381e+03
1.931945159005376809e+03
1.859298606559931613e+03
2.302907275728858622e+03
2.069539538108132092e+03
1.642097893439354493e+03
1.051558760921293015e+03
2.530650096276039278e+02
-1.146401020257047094e+03
-1.495909875869517236e+03
-9.804520096631442811e+02
-4.319002319089629793e+01
5.807802153208684786e+02
1.014474541913201392e+03
1.331019430434566630e+03
2.054318054676827160e+03
2.284449389391631939e+03
2.424750324720413118e+03
2.714336080498061165e+03
2.351931343222373926e+03
8.123324896726378483e+02
-1.924532872437239575e+03
-4.188668167153687136e+03
-4.408956613821387691e+03
-5.429445117911398484e+03
-5.035277726590838029e+03
-4.953436927935437780e+03
-5.333782605824915663e+03
-6.540533840065718323e+03
-6.945905384422206225e+03
-6.692725588154835350e+03
-6.524677584792389098e+03
-6.461503067513840506e+03
-5.008081247661738416e+03
-5.094333299780230391e+02
4.185602879538636444e+03
2.206089433051580272e+03
2.706507204002818980e+02
1.518974316535087837e+03
-7.500053129609611915e+02
-1.946978435040173963e+03
-2.453865513546759757e+03
-2.432846642030966905e+03
-2.651811998741852676e+03
-2.830615253274737825e+03
-2.995481492372152843e+03
-4.248261160060408656e+03
-5.320812482240614372e+03
-5.531015975196682120e+03
-3.591859018160086634e+03
-8.446209910200298054e+02
-2.442882217907140046e+02
-5.598144560524277722e+02
-4.100282701317734109e+02
8.052072777360203872e+02
2.816936551750802209e+03
4.168237604521330468e+03
4.676203463963039212e+03
4.983938462573356446e+03
4.979453715425936934e+03
4.287773275528316844e+03
3.619951542635373244e+03
3.754827639032037951e+03
3.530222724432500854e+03
3.022209610809568403e+03
2.377942121771706752e+03
2.070351019601149346e+03
1.050589754013259153e+03
1.938108009366715123e+02
-5.270336921521389968e+02
-6.700532857420730579e+02
-6.462273789966209279e+02
-8.895304991677097632e+02
-6.157454673890119921e+02
-3.595178644989057943e+02
-4.867560601290726368e+02
4.726278552807065125e+01
8.582706661695411867e+02
1.155423986079346378e+03
1.908916685480329761e+03
3.138830382206681406e+03
3.470109567978449832e+03
3.114665851058645330e+03
3.105590355955564974e+03
3.216999014840572272e+03
2.564087412816823871e+03
1.842653715017838067e+03
8.540439808247247129e+02
-9.868066089608686298e+01
-9.716874495702037393e+02
-1.989195561660476187e+03
-1.743085725727873523e+03
-9.042020789229541151e+02
-1.538427996456922074e+03
-2.904646498039720882e+03
-4.277944595609260432e+03
-2.912364250184966750e+03
-3.054824279232879235e+03
-1.771504403470019327e+02
1.695523067110893180e+03
1.704326150948040322e+03
8.121482586442309639e+02
5.926476822989410493e+02
1.188029311587372376e+03
8.521707683132598277e+02
6.731499707832135755e+02
1.940139945601927820e+03
2.320231649747615393e+03
1.490414697507730580e+03
5.985270871002907143e+02
-1.184883447235647083e+02
-5.727510171699912007e+02
-4.054016928875630583e+02
-5.199034124463678630e+00
-3.380532265236066678e+02
-1.190984538487870395e+03
-1.136963017089344021e+03
3.991392346117415002e+01
3.567087123766008858e+02
4.554272434203426201e+02
1.042904327545359820e+03
1.018241751106353831e+03
9.174903991620203669e+02
1.450595094694332147e+03
1.470671174211051493e+03
1.650798939725358878e+03
1.818842764537789208e+03
9.297086033471111932e+02
-1.215123955066713108e+02
-3.270195942204403536e+02
4.194018686377587102e+01
2.734349687759923313e+02
3.544578510429593052e+02
2.469109891303146185e+02
6.409317964375085239e+02
9.619250576951615130e+02
1.300964789189731619e+03
1.863912408345032873e+03
1.940478319134762387e+03
1.735588216842011434e+03
1.642324850243614264e+03
1.673686538419083490e+03
1.120627156095384635e+03
1.097165945018984758e+03
2.792124089108392582e+02
-3.374333193926065064e+02
-8.817265773583197870e+02
-1.021601374809431263e+03
-1.105002259939220266e+03
-1.964007580258178677e+03
-2.149749891543034209e+03
-2.161251278615944557e+03
-2.082596017126405513e+03
-2.443884066793029433e+03
-3.397917876242727289e+03
-1.678613111083831882e+03
1.379589615280449095e+02
-9.821378103904764600e+01
-8.931174735317605382e+02
-8.060021274654476429e+02
1.982540722274096368e+02
6.646927879371219205e+02
2.101631078385282478e+02
2.715362779702895182e+02
4.749400761275894070e+02
3.434791238556043140e+02
3.910567719319438993e+02
-1.136537528752860908e+03
-3.149341284653222829e+03
-4.884338804217289180e+03
-5.285532320437224371e+03
-3.712873143856407296e+03
-1.464673187375034331e+03
-1.427891397153005983e+03
-1.292356017545802843e+03
1.482892868273842168e+03
2.727961584635289455e+03
1.895773463157870765e+03
1.510172844837419007e+03
1.735224069829917198e+03
1.783870259516569149e+03
1.059084773054031984e+03
-5.066776122778835045e+00
5.963940229513212898e+02
2.459426373780564973e+03
2.715985916349674881e+03
1.568954858964716777e+03
2.891734147774193389e+02
-1.319202407345468373e+03
-2.884116751856104202e+03
-4.491462139198606565e+03
-6.449106362835666005e+03
-7.943185934872242797e+03
-5.958837597873781306e+03
-3.419069849457131113e+03
-6.138824933261298611e+02
-7.303978406512100037e+02
-4.371641269470987936e+03
-2.764519770223597789e+03
1.054960544875879805e+03
3.115775530394769248e+03
5.709860193886616798e+03
7.709210381100191626e+03
6.486962532104900674e+03
4.329988099892738319e+03
2.677341238685330154e+03
1.605203971689397349e+03
6.964922458160796168e+02
-8.308161302930799366e+02
-1.918749784392070524e+03
-5.653517694059260066e+02
1.486325384182309108e+03
3.241195227080843324e+03
3.387399557621871736e+03
2.748019054320594023e+03
1.957987106096278922e+03
1.472407422469173071e+03
4.522507431218533043e+02
-6.155436725182017881e+02
7.780605294751873089e+02
2.297108483458700448e+03
1.059630003737267771e+03
1.044701524685838194e+03
9.843774314893100836e+02
-2.536245724966595390e+03
-3.885111317329186932e+03
-4.325455628683464056e+03
-5.312302185365026162e+03
-1.694538409771579836e+03
-9.692790840590630523e+02
-1.665550739306808055e+03
-1.149259367630942506e+03
-2.636486049559138792e+03
-2.149171146855482675e+03
8.047765652576874800e+02
-3.155188665975702520e+02
-6.601330440450868764e+02
-1.884118186941649128e+03
-1.323918321394559143e+02
-2.082793126772006872e+03
-1.285293117894973648e+03
2.528060505379593451e+03
5.353359585780060115e+03
2.803629577678533678e+03
1.155882289343897355e+03
2.250299116882583803e+03
7.858504650784251453e+02
1.455359957257721589e+03
-6.991822677608421372e+02
-9.908703266221875765e+02
-1.359726232070930564e+03
-5.943646740610889537e+03
-2.515681799855417921e+03
1.619145165809852642e+03
1.121002936758295164e+03
1.158841839127985395e+03
-2.552352564835835437e+03
-2.509519616540466814e+03
4.643883485128718576e+02
2.750445940103709745e+03
2.158650221967940524e+03
2.871173999954304463e+02
-1.510160709378012143e+03
-1.019231982810623435e+03
3.859215770845120232e+02
1.016390741881952408e+03
1.856138925286474205e+03
1.863143083591785853e+03
3.772255068233784527e+02
-1.299540142131538460e+03
-1.622024561282261402e+03
-3.816227470455879939e+03
-5.347138426747305857e+03
-2.537648254035256741e+03
2.668061459510960503e+03
5.188975978146804664e+03
5.862093226320444955e+03
5.464893301729954146e+03
4.892183560563031278e+03
4.797160252493041298e+03
4.520649637558156428e+03
3.876697380639150651e+03
3.061328022622171375e+03
3.959334281190845559e+03
2.069984889804633440e+03
-3.924831118297570356e+03
-9.099250835355089293e+03
-1.165214152873211424e+04
-1.145154736087105812e+04
-9.244603393042667449e+03
-7.246235361920837931e+03
-2.355913550301382202e+03
4.632446643230420705e+03
7.547232324187970335e+03
6.620339469069079314e+03
4.044440853102386882e+03
4.347045883558077549e+03
5.842348297009782073e+03
4.572213894621510008e+03
3.495367482048280635e+03
4.103047525643497465e+03
1.734966857654069145e+03
4.843230410255599736e+02
7.532547794512574910e+02
1.903501553462119773e+03
3.222116488133809071e+03
1.944031177302635570e+03
4.282772599354748877e+01
-1.924158307286951413e+03
-3.255962578879797547e+03
-3.924653732056818626e+03
-4.343369166463779948e+03
-4.493238138613240153e+03
-4.193251910464932735e+03
-2.666361864176406016e+03
-2.625052322699646652e+02
2.289334630511880732e+03
5.818204281639225883e+03
7.419131657594424723e+03
5.577047770013021363e+03
3.640996351912744103e+03
3.031984825488640126e+03
8.139728453027288424e+02
-6.508708126054654031e+01
1.365870743400607807e+03
1.488831672903621211e+03
-7.921606488618272124e+01
-2.305325126847297724e+03
-5.070532754774579189e+03
-6.014853182703127459e+03
-3.056321163711685131e+03
1.607097762925048755e+03
3.426402869860293777e+03
1.323508350032295539e+03
1.184228109998516203e+02
6.621611812593693003e+02
2.377634139746255187e+03
3.131857556238242978e+03
2.148908634908121257e+03
7.208099188672930495e+02
-6.084819412175233992e+02
-6.840286187360707117e+02
-2.202691963270113774e+03
2.076490967550023470e+03
4.461462512802753736e+03
7.011855841809319827e+02
-3.062322171307713688e+03
-5.130956661114944836e+03
-6.266751193234888888e+03
-6.679810247748763686e+03
-5.249121048798341690e+03
-4.276591677095258092e+03
-5.693192441455406879e+03
-6.218189929041352116e+03
-4.259460521523822536e+03
-4.117068190030943697e+03
-2.767898130195501381e+03
-9.786348454040154365e+01
1.550497318769016601e+02
6.247828385948039340e+02
-1.141773226334554010e+03
-2.893501338435821708e+03
-3.059474507474486018e+03
-1.316852949498812904e+03
8.744534707915261151e+02
1.721558370890661308e+03
2.610432074240333350e+03
2.018089824551720312e+03
-6.464745471354262918e+02
-1.023286809860981521e+03
-4.113754887456914844e+02
-6.586943767313188118e+02
2.478299990998666260e+02
1.911192503536349250e+02
7.060814860061472018e+02
1.478841661816661826e+03
2.794696534838761863e+02
-2.051552358615212679e+00
2.422928784158059159e+02
-6.474470578653566690e+02
5.266062073103650931e+01
2.410649569720559612e+03
3.309514732704179551e+03
3.668203002247772474e+03
5.764787010977523096e+03
6.105342526814610210e+03
3.691846713447793263e+03
1.630241628634338895e+03
-7.864833391701658911e+02
-4.696303791895295035e+03
-7.779205471531967305e+03
-6.052204437392315413e+03
-2.160299076859063462e+03
9.945123809915151014e+02
1.164218945710733124e+03
5.159301558674120542e+02
1.000693412722149333e+03
1.695519851410571846e+03
2.703411389917679571e+03
4.158459540663341613e+03
4.211658799306372202e+03
2.298072374668708107e+03
6.536479910666322439e+02
2.273715569285349716e+02
1.046277075109819862e+03
1.581353902372204402e+03
1.111653779096998960e+03
6.530678033297061802e+02
-3.224017333582630158e+02
-2.894686104673736736e+03
-3.367351226396895072e+03
-2.105620177996092934e+03
-1.405777885928864180e+03
-7.838615223490845665e+02
4.592731812682604868e+02
-4.382111664240853770e+02
7.644257719621511349e+00
1.619736181999927339e+03
1.631131736465222048e+03
1.339271783996755687e+02
2.040806276213951378e+02
1.831576427131422633e+03
2.718407756652949956e+03
1.782552461082012314e+03
5.771505660873687020e+02
7.125874227343054201e+01
4.829347387728986405e+02
2.162070164428025237e+03
3.685347958585097672e+02
-1.398792205764898881e+03
-1.358772844866620062e+03
-1.565423193616808021e+03
-6.159920281551796961e+02
1.976396602700858125e+02
-5.003423591563652053e+02
-4.779314828639997472e+02
-2.911376817786609195e+02
-7.296168350804776992e+01
1.054689709513969547e+03
1.775880218058915716e+03
2.100470985374148768e+03
2.072318476363066111e+03
4.835331204856700538e+02
-2.308791558979766251e+03
-4.136675667472526584e+03
-5.849059392408365056e+03
-5.301930292545935117e+03
-2.260258613697248165e+03
-4.939920694323212729e+02
-1.071556372289055332e+02
1.629572844684786048e+02
1.059240401465274090e+03
9.175862745235907596e+02
2.871938259556276307e+02
8.474020143037615753e+02
1.537843730557520757e+03
2.606282002464730340e+03
2.235806015665559698e+03
1.472377410042785868e+03
1.523992429708084501e+03
5.590654271781733797e+01
-1.104811493167743265e+03
1.007814609282839768e+02
1.040617646105417862e+03
2.242771004182806792e+03
2.427312349314679068e+03
2.200144852310443184e+03
1.324061755220429859e+03
-4.510232110576368996e+02
-8.231338036290096625e+02
-1.396208326158223372e+03
-2.245206371156842124e+03
-1.275112387562235881e+03
-2.999621323091304248e+02
-4.526851827477211145e+02
-6.832154042528899254e+02
-1.204737367327507172e+03
-1.644342692446218962e+03
-1.260850859969542853e+03
-1.007462565014552638e+03
-4.608766493188587106e+02
1.690244471296075744e+03
1.555709988436952472e+03
1.321262115283837147e+03
2.305952654087582232e+03
1.855224890246176756e+03
4.914942691985587544e+02
5.296363024761724319e+02
1.266801090809775019e+02
-7.650391610381566352e+02
-1.451030608769351147e+03
-1.097349923460363016e+03
-1.662854235349115243e+03
-2.956469481789498786e+03
-3.834030521090708589e+03
-3.254060193199731202e+03
-2.651137459393738482e+03
-3.405317715845612838e+03
-3.275877053404436992e+03
-2.259840461789775873e+03
-1.581933032526120542e+03
9.867531543941274776e+02
3.468875949625027260e+03
3.764950898648337443e+03
4.042560696287860992e+03
3.262976112315099726e+03
2.024049267209191385e+03
2.186878004311871337e+03
1.994743397698151284e+03
9.396838797113092596e+02
1.099957769002747682e+03
1.039951206134580616e+03
1.425759048416570067e+02
-7.068858759752439482e+02
-1.264754503456548036e+03
-1.203311463269623800e+03
-7.695911751240523699e+02
5.256507158259790913e+02
1.542545283338300806e+03
1.607113652931147044e+03
1.310165620561082051e+03
1.056613842309920074e+03
9.584678946677449858e+02
1.353635114502667875e+03
-2.098119327829403460e+02
-1.441774921221217255e+03
-1.357218418763552563e+03
-1.426257626191063082e+03
-8.907276488458518315e+02
8.563236488652245271e+02
2.655478071619126013e+02
-6.133400026982160398e+02
-2.681180481865441379e+03
-3.287929352207945044e+01
-1.554313352691287491e+03
-9.104770369797515741e+02
-7.013928606597947919e+02
-8.759995507418558418e+02
8.007660903300499058e+02
-3.470572533500695727e+02
1.593413970398248921e+03
1.343402823404758919e+03
-2.617477959781412551e+02
4.280020407213776821e+02
7.315178228650707979e+02
-8.594042738127307075e+02
9.906435424850607774e+01
-1.108083499141443781e+03
2.648453431830572526e+02
5.655557581583882438e+02
-1.064756972663819170e+03
-4.406776438469753884e+03
-5.370350268150557895e+03
-2.979666917814765384e+03
-1.210839772189237010e+03
-2.319610604660663739e+03
-4.029273825514412692e+02
-2.021912090947371553e+03
-1.087270377714346068e+03
8.889886341401698928e+02
-3.442325383953295272e+02
-1.610240357482883837e+02
2.019538747608082986e+03
5.326783378265539568e+02
1.800464348466636693e+03
2.113943945346257806e+03
2.223077772695527528e+03
1.971836498462503414e+03
1.334232943198650901e+03
5.602667752777648502e+02
-2.581090332737448989e+02
-3.540050431048156838e+02
-4.025032020157680108e+02
-5.306591034251257497e+02
-3.166198250767912441e+02
-6.322118009456357157e+01
6.438716124089269215e+02
1.400737428767317851e+03
1.628315707404558225e+03
1.640769495090028386e+03
1.787054080677773072e+03
1.848001855630737509e+03
1.860691150249819430e+03
1.826275507093841725e+03
1.597844807251648035e+03
9.374813117576667310e+02
3.441151639625456937e+02
3.144541851281209688e+02
9.286495286404875316e+00
-6.763120658103636060e+02
-7.700162389076174350e+02
-9.566425351112133058e+02
-1.711275741712902573e+03
-1.498148627139143855e+03
-7.742746196135922219e+02
-1.945321648137561112e+02
3.601589253823633499e+02
4.198632832349475166e+02
1.674740950379573633e+03
2.574023963619712049e+03
2.429256310075875717e+03
1.541546540256181743e+03
5.595864509613487598e+02
4.621642828683110338e+02
1.274801015011650634e+03
1.727757232660018417e+03
9.261711988586521329e+02
1.708479946546977715e+02
-7.262114600805480222e+02
-2.625754047725125474e+03
-4.782829273095750068e+03
-4.633641985623520668e+03
-3.180936492809766150e+03
-1.880002921362808820e+03
-1.167034642571617042e+03
-5.135321660041829546e+02
-2.947419603809458977e+02
6.734846566745420660e+02
9.371964368996833628e+02
7.133742639239048913e+02
9.448299583219679789e+02
1.417441682652981171e+03
1.210294962668539711e+03
1.071344710195143989e+03
8.696869145945927357e+02
8.395303557574201250e+02
6.657309207172833112e+02
2.122021559123352574e+02
-1.549925469250575532e+02
-9.619735740449972354e+02
-1.997636814401352240e+03
-2.383037648181340501e+03
-2.173235119708025650e+03
-1.624113005688695921e+03
-1.452688420735522868e+03
-7.429133455157819981e+02
-1.766954480336627569e+02
4.028239472684036855e+02
1.146510827798499577e+03
1.215487028021521155e+03
8.968130896538983734e+02
9.643125183426926696e+02
1.344083626487925585e+03
1.516342096037059946e+03
1.361053335106603754e+03
1.232279990301429279e+03
8.872386944842226058e+02
6.479029278185423664e+02
2.029184568884351734e+02
-4.209625635409832967e+02
-1.203734031414347555e+03
-1.276194643804191173e+03
-1.227285820665772007e+03
-1.130113682572365633e+03
-1.054705600088079109e+03
-5.650858324230858898e+02
3.097066096001256028e+02
1.148826542043053905e+03
1.299455157132362046e+03
1.018574145439315430e+03
1.347122120335245427e+03
1.482993670361388695e+03
1.228191369744818758e+03
-2.592663636470062443e+02
-2.159391388116432154e+03
-3.681125474844925066e+03
4.071284863452966363e+01
5.569450793895571223e+02
6.937960330679196375e+01
-6.119691554218991314e+02
-1.647063938463921204e+03
-1.550975880172941061e+03
-1.280582884490888773e+03
-1.383011381510792717e+03
-1.066375015163744365e+03
-4.305159997893027821e+02
1.807563157875048603e+02
8.283033595638801216e+02
1.083989579838532109e+03
1.177878618740241791e+03
1.239093011530199647e+03
9.816616771306761393e+02
1.193575419321389973e+03
1.038703247247044828e+03
1.332897795650540957e+03
1.257411704104200226e+03
9.662913408009811747e+02
4.503750935160115318e+02
-4.652718555965588507e+02
-1.105745325011596151e+03
-1.587081632995363861e+03
-1.850179204014828656e+03
-1.716093723187006162e+03
-1.760883192459062457e+03
-1.471483462055218752e+03
-8.369511782996676175e+02
-2.232744229029654832e+02
2.825772366322580069e+02
1.054634447711847542e+03
1.709070140468591035e+03
1.776002445562738330e+03
1.984431071862370345e+03
2.082362538508438774e+03
2.215584521785707238e+03
2.336823300746643781e+03
2.277079196176363894e+03
2.094410311660277785e+03
1.764841078951713143e+03
1.000350618625545394e+03
1.129854390153993648e+02
-5.352420686116674915e+02
-9.444013898598503829e+02
-1.480522737589710459e+03
-1.879683967366289835e+03
-1.553737329038268854e+03
-1.091615124806941139e+03
-2.233705313641067960e+02
4.271468028692729035e+02
5.499824986607980009e+02
9.496368269325431299e+01
6.320893130243986207e+02
1.464290033252274270e+03
1.410659020179949948e+03
1.330171779060579183e+03
1.465873040246836808e+03
1.713883701691782562e+03
1.564064840147284940e+03
1.162467714490568824e+03
6.571135315153709371e+02
-1.921228306844587621e+02
-9.162692462347180253e+02
-1.062261111933817347e+03
-9.030731523871736499e+02
-1.270692020270847934e+03
-2.023092827733427839e+03
-4.577287665668390218e+03
-3.334253285022674390e+03
-1.051065197410464634e+03
1.094162959203690662e+03
1.112626947587860059e+03
1.335320401590574193e+03
-6.388511168073517865e+02
5.242180397428147671e+02
-1.190382322236564733e+03
-1.384784515311106134e+03
1.115044708668934391e+03
-7.848527085104883554e+02
-4.724828610194250018e+02
-2.132925488241596668e+03
-2.308118312575417349e+03
-1.115013638996626696e+03
-3.564601566198682576e+03
-4.602983227939810604e+03
-3.575173003909304498e+03
-1.936058739180769408e+03
-9.766610840526134041e+01
4.129013906395437061e+02
3.176754319119932006e+02
-1.593519029593047662e+03
7.452779724213785357e+02
1.582582937432334518e+02
1.314247495897155886e+02
-1.081671333660639078e+02
1.055477423510443032e+03
1.355265829598369010e+03
-3.206765137777520067e+03
-3.167555291442824000e+03
-2.018210979740877974e+03
-1.119751882616817511e+03
-4.750804473942777690e+02
-4.251708409108240971e+02
-5.070282854774425232e+02
-9.537319642754030156e+02
-8.363066931790469880e+02
-4.568241142157578452e+02
2.271520453694414599e+01
4.223752611622845734e+02
1.143195259254782059e+03
1.784205309267970279e+03
1.844429289892855195e+03
2.288831132749756307e+03
2.497542071385227700e+03
2.715543260957706480e+03
2.676688195512269431e+03
2.658009027673767832e+03
2.256432529965125013e+03
1.897827128122640488e+03
1.293337632881189620e+03
1.001929373915363271e+03
3.946815208810835998e+02
2.312695471615536746e+02
-2.617465527638125877e+02
-8.125553794018487679e+02
-9.221789362563015402e+02
-7.325684268731280326e+02
-3.739244062150985997e+02
3.129982927079185515e+02
1.105943421594584379e+03
1.260141798118472252e+03
1.305622458232272265e+03
1.260199659367726554e+03
1.056903382593837478e+03
9.868849709798128060e+02
1.224988105794984904e+03
1.381390804977735797e+03
1.403535131566343352e+03
1.046641548892800529e+03
1.015172593258621418e+03
6.611071743645898096e+02
2.419479180607598323e+02
-4.846275918586154603e+02
-9.253318719851957894e+02
-1.035982155407804839e+03
-1.292794957398272118e+03
-1.142530636907235021e+03
-5.164110804466415630e+02
2.954974698975133265e+02
1.089427072049236813e+03
1.408326361828756490e+03
1.957010255863942348e+03
2.329910746745777033e+03
2.690869841668928075e+03
2.661644019432966616e+03
2.509169230473205971e+03
2.485400366858284997e+03
2.535358416223524728e+03
2.305025116024160070e+03
1.909400032621481614e+03
1.620432733224161666e+03
1.151060656517194730e+03
1.852941927763625642e+02
-3.449151102276387633e+02
-3.635782252243409971e+02
-1.817095598570078323e+02
3.262396244923719735e+01
1.854027143017833055e+02
5.486229057087772389e+02
1.047344781197366046e+03
1.346613943125267269e+03
1.602426192198337731e+03
1.702806317884427017e+03
1.460811714934805423e+03
1.451396587456247971e+03
1.727520688806505405e+03
1.868069456156314800e+03
6.460227138489055960e+02
-9.545573613074564037e+02
-5.569483276059160914e+01
1.526597586160430410e+03
1.594378081796716515e+03
5.005643355156391863e+02
-1.427862891230124887e+03
-3.910939331108333590e+03
-6.781694958860607585e+03
-7.214126685534540229e+03
-6.531328596891907182e+03
-5.571259331202223620e+03
-4.162825691762821407e+03
3.570578700029660126e+02
1.741450613719131752e+03
-2.670686898983952688e+03
-4.162410766537433119e+03
-3.643732526062387024e+03
-3.747736199809988193e+03
-4.205134337498308014e+03
-4.045961987724936989e+03
-4.000094377548643479e+03
-4.045509686463231446e+03
-2.238349202876162053e+03
-2.702747928823729580e+03
-4.187636225729998841e+03
-1.224958381016356270e+03
-8.008187355080108318e+02
-9.551514842101383920e+02
-1.073042843960698519e+03
-7.544595260268955883e+01
7.907261740547452291e+02
1.145400053708909581e+03
1.696619586493964334e+03
1.966444811892106827e+03
1.986864646693330315e+03
2.141887380521545765e+03
2.321541909496807875e+03
2.401776164536650413e+03
2.466680066185002488e+03
2.156372603830177013e+03
2.271792825739929413e+03
