5.376088081979229827e+01
1.066653219379033430e+02
1.280240052169496039e+02
7.639330357588244169e+02
8.024419787686020982e+02
7.596293247186689541e+02
1.214586811086696343e+03
1.657230644691710268e+03
1.894497028183660404e+03
1.662413283556496481e+03
1.119020711104217071e+03
9.594454442020214628e+02
4.567878748766981403e+02
9.761371259155065445e+02
8.616296315809261159e+02
6.753545950645633411e+02
1.035209444886890878e+03
7.661533240290850699e+02
-3.108101443433006921e+02
-1.502526289109864365e+03
-2.144086825228699126e+03
-1.557531393261273706e+03
-1.355926770219435866e+03
-1.628442984244923537e+03
-1.517834714283961148e+03
-5.518817113553143372e+02
3.991381325225185606e+02
7.250086312314697352e+02
1.758791153690517035e+02
1.797258111504408191e+02
-2.813824846979796348e+02
-5.894495161043010967e+02
-6.324853702609397033e+02
-4.275460909175741335e+02
-1.475519515276806999e+02
5.046396713664292122e+01
-1.354616550583509991e+02
-3.753195152579089608e+02
-5.101350099543725491e+02
-7.199362735682644825e+02
-9.486728606852599341e+02
-9.613984636255428313e+02
-1.053189410634216983e+03
-1.114070020708160200e+03
-1.149069759756152735e+03
-1.028104008235824040e+03
-5.091165973518725991e+02
6.087623419249062806e+01
4.528426648725857149e+02
4.118028578219081624e+02
3.197597474130098476e+02
5.997286749122424681e+02
3.976072811149559243e+02
-1.265952546901990132e+02
-2.018889635199977590e+02
-1.673053149333760814e+02
3.011660807674546732e+02
2.504781770247491863e+02
-5.423951771480262778e+02
-1.053488595711636663e+03
-1.492884101920482181e+03
-1.326589117570349572e+03
-1.302641851868129834e+03
-1.480098839336739957e+03
-1.163942795427522469e+03
-7.501796681307881727e+02
-6.388236512145637107e+02
-2.198548260643761125e+02
3.147153754746930190e+02
7.798614151957178819e+02
1.071530552273763305e+03
5.706709603798440185e+02
-9.546974860731641002e+02
-3.256588896564125207e+03
-4.867088921942894558e+03
-4.940221879312806777e+03
-2.030988258087724262e+03
1.385816027222721232e+02
5.942327523883550811e+01
-5.554586597929902609e+02
-9.781372331550523995e+02
-1.137740681883549314e+03
-1.141304417029325577e+03
-1.222868461132497259e+03
-7.623720049690912219e+02
-7.882767010405321173e+01
7.667017833282508263e+02
1.279181996866682539e+03
1.923602685451044181e+03
2.016958952640545931e+03
1.553207676718857329e+03
1.396340247840313395e+03
1.602290982174326700e+03
1.485026193760234037e+03
1.582542141304995084e+03
1.674818535306468902e+03
1.565799193282897477e+03
1.209454474306275415e+03
4.397271765785012576e+02
4.696000003041207833e+02
5.830202006973225934e+02
2.299071804186924339e+02
-1.067706710426101750e+02
1.579655312807534528e+02
4.530388697840874670e+02
9.045147311463132382e+02
1.360388753360246710e+03
1.747612866043659778e+03
1.842187676523570872e+03
1.854133483144096999e+03
2.029427203693889396e+03
1.933038806967818800e+03
2.064969825462695553e+03
2.228252067295071356e+03
2.283914602944555554e+03
1.996861542882360709e+03
1.832106503077822481e+03
1.826608851141601690e+03
1.141347656702122094e+03
5.092675744245728424e+02
2.972207941076163706e+02
1.099748246108004784e-01
-3.129867971102662523e+02
-1.161071280209236107e+02
-8.919250307189683724e+01
3.308032446509364490e+02
1.290859928574478317e+03
1.652986248494529491e+03
1.826119010935311508e+03
1.713267289616511334e+03
2.109449317624555533e+03
2.345658341072755320e+03
2.413904618420379393e+03
2.717175572924365497e+03
2.457477749461633721e+03
2.379888063272087493e+03
2.326434571193188276e+03
2.039105328614576820e+03
7.418119787278811827e+02
-1.399512807944712449e+03
-4.661814580449985442e+03
-5.772093251277829040e+03
-5.615436529788818007e+03
-5.343903653402107921e+03
-5.248431136049171073e+03
-4.597917664494126257e+03
-4.073280496518586460e+03
-1.377519856622967609e+03
2.472459744197891723e+03
1.352614820844077485e+03
-3.260027420392341355e+03
-3.983419296459095676e+03
-3.625588504984415067e+03
-3.504467311822917509e+03
-3.096082266072208313e+03
-2.883453026409156791e+03
-1.446598728573577546e+03
-2.404527689894031482e+03
-4.453228269060316961e+03
-5.061641333963806574e+03
-5.527836221285098873e+03
-5.441888091589163196e+03
-5.100753415153074457e+03
-5.010399992332176225e+03
-4.897743232485990120e+03
-4.473722354700788856e+03
-9.282920636501854688e+02
3.116566908585846704e+03
2.827896426699556287e+03
-1.439263363088855840e+03
-3.433891900741351947e+03
-3.562939008971489329e+03
-2.941425504303057096e+03
-4.483612295678167357e+02
4.572971024162211506e+02
-2.060388218195221270e+03
-2.827362178649440466e+03
-2.676597723207708441e+03
5.118988715924720054e+02
1.467122265245392100e+03
1.291058111647450460e+03
1.483755392293056502e+03
1.891201114086889220e+03
2.096471606375418105e+03
2.136527555653719901e+03
2.386397914970119018e+03
2.937156405064154114e+03
3.596872103667469673e+03
3.856527837801139412e+03
3.737194795660860109e+03
3.535952859301255103e+03
3.205817268962004619e+03
2.838761784064589392e+03
2.872767716071517953e+03
2.718942487196447473e+03
2.672292877534241143e+03
2.511823840663430019e+03
2.286534915358869966e+03
1.762364573920346857e+03
9.332791226317673363e+02
9.502442284199785263e+02
1.024489493813713580e+03
7.872404786108955932e+02
6.395824198659342983e+02
7.915681276382381384e+02
1.125152015763046847e+03
1.653357006386174135e+03
1.919240643298325494e+03
2.071783253757093462e+03
2.026951516243125070e+03
2.029793055625333409e+03
1.501339840173401853e+03
1.284490493983972783e+03
1.927228965777738267e+03
1.913861885770347044e+03
1.817200081826929363e+03
1.540954468614746247e+03
1.422745050548664040e+03
6.506131609980403709e+02
3.349484135523364898e+02
1.190451131348461757e+02
-4.149685083884036203e+02
-7.123785579424622938e+02
-4.142946000142061962e+02
-2.115300132265176103e+02
1.609059274882918658e+02
5.609216645385660058e+02
1.165451280713728920e+03
1.665557222511888540e+03
1.554961796924174905e+03
1.472904770356718018e+03
1.268544783319396174e+03
9.564010445649734038e+02
9.045196402572195211e+02
1.020880864195958452e+03
1.119535308232290618e+03
8.964461234334406754e+02
8.175490633946157004e+02
4.948846829491434391e+02
-1.405056459847691599e+02
-4.056818998982977860e+02
-4.607710636338042605e+02
-8.569420592102190994e+02
-1.091193003055067038e+03
-9.424824586167956113e+02
-6.846636401131513594e+02
-1.696199426449115037e+02
5.315844922209655579e+02
1.083922095414579871e+03
9.913658546910864970e+02
7.788090831670510852e+02
1.000212674423955946e+03
8.006095979372055353e+02
2.361253826876656490e+02
4.657403904160124739e+02
6.994197658808127471e+02
8.371107309100483462e+02
7.917372956633580543e+02
1.632286424744078204e+02
-9.843430964044509324e+01
-5.873337342949695312e+02
-8.804427804476082429e+02
-8.556668776450381984e+02
-5.709676912277719794e+02
-4.074938978884110838e+02
-2.262645714396978462e+02
-1.193405753764129162e+00
-1.394308728992485385e+03
-3.231611958214969491e+03
-5.842087348561967701e+03
-5.769785420054877250e+03
-5.470738407560583255e+03
-5.423939959855937559e+03
-5.165282104086182699e+03
-4.618741035722156994e+03
-3.446405751114854411e+03
-4.480382327649703257e+03
-4.971659704206267634e+03
-5.481149033117404542e+03
-5.992597879234236643e+03
-6.035853907889079892e+03
-2.528021905942538524e+03
-1.234257372219436775e+02
4.789068820976329022e+01
2.628069120170629844e+02
7.212323406068046552e+02
1.124088985753052157e+03
1.517528434853383033e+03
2.189701901631536657e+03
1.893674826995481681e+03
1.686543168845397304e+03
1.319283971616632471e+03
1.277738615167669877e+03
1.325785764792636428e+03
1.292483968503103142e+03
9.297220336368279732e+02
9.203621896610450221e+02
9.245089302902403006e+02
2.893199925495504203e+02
-1.091595721967191679e+02
-6.699126025208604460e+02
-7.160041192048984158e+02
-1.904910360273916012e+02
-2.824256659591896437e+02
-1.588409670331868995e+02
5.653264747979532103e+02
1.120243951058242601e+03
1.774957174791154785e+03
1.802332718866461391e+03
1.733385644336215819e+03
1.751221637743547944e+03
1.759982294786267403e+03
1.550640590768804941e+03
1.639960459352348835e+03
1.827235965745906924e+03
1.693654950246581166e+03
1.110168263708774020e+03
1.119871004215099219e+03
8.945735585961596144e+02
2.840471511134438174e+02
-7.664764176207849289e+01
-6.112341438738599209e+02
-9.195086584775438041e+02
-7.074846728084730785e+02
-6.002826501273136728e+02
-2.311925110675412043e+02
1.187910497637226825e+02
1.959190642687464958e+02
5.132206184905771806e+02
1.065651964136337256e+03
1.085280045747727399e+03
1.011150564781898879e+03
7.545548385471909114e+02
6.919832971373298278e+02
7.143207577918296920e+02
1.003746913785336915e+03
1.072383469770911688e+03
6.073274093101299513e+02
-6.639721493117276907e+01
-8.148259906103852472e+02
-1.220039015410350203e+03
-1.263894124679132119e+03
-1.524418022532191571e+03
-1.355794870066206840e+03
-1.096848407777183411e+03
-9.360882244440236946e+02
-5.624595303573795491e+02
1.799505687032574031e+02
5.040663451844983456e+02
4.276614236984219701e+02
4.015487149169399572e+02
4.567708563211612045e+02
2.174244519058462686e+02
2.054757188612796881e+02
2.249847814688577330e+02
1.550878099751149364e+02
1.437858801045305199e+02
1.362240864878774858e+02
1.649798107527953306e+01
-1.805369227379819961e+02
-1.031952659550304134e+03
-1.536888665730478806e+03
-1.614400964437427092e+03
-1.678481467699341010e+03
-1.752942583886165266e+03
-1.467605759375465823e+03
-8.424762130944809542e+02
-6.427237003945706419e+02
-5.873734682762379862e+02
-1.263320428812285598e+02
3.633942191785268392e+02
3.578522402014399404e+02
4.591279561616455567e+02
3.922332859298338121e+02
4.660200051590783801e+02
4.585169496717990683e+02
6.046329257494674039e+02
3.265207584054492713e+02
3.013099870499919462e+02
-4.599406313449645154e+02
-8.754531297344266250e+02
-9.934388747469549799e+02
-1.167944412537610788e+03
-1.056938988280976446e+03
-8.792515890910623284e+02
-5.327521233384408106e+02
-4.013178241835415747e+02
-8.923022138168616380e+01
4.873162244792879392e+02
6.433844300675715431e+02
7.911890745178817497e+02
8.917366959953520791e+02
9.087609468091665121e+02
8.132629860806750912e+02
7.652848231402793999e+02
4.478376822692276846e+02
2.031649005578530591e+02
2.384638868178518294e+02
1.304761930558979088e+02
-5.229318654570345188e+02
-9.126255772490487743e+02
-1.259486514300210274e+03
-1.394710590094151712e+03
-1.266568222179783106e+03
-5.415341505241909772e+02
6.241642983367015773e+01
6.467203703243018253e+02
1.571913821711459377e+03
1.784587751646525930e+03
1.857808718539419488e+03
1.638435513657620049e+03
1.806061806348411665e+03
1.823009466444648297e+03
1.641092935336318078e+03
1.472818479714029309e+03
1.334007614953496386e+03
9.091943610860132594e+02
6.374118617000206086e+02
8.645257351187744916e+02
6.867162222256997666e+02
-9.787898943669964069e+01
-1.995105615298372754e+02
-7.606066421174872971e+01
-2.372380038742039687e+01
-5.978033809874579418e+01
2.657254160261948073e+02
8.211530785953938221e+02
1.406466927505802232e+03
2.093473689986960380e+03
2.230173741117599093e+03
1.838453637901781121e+03
1.728135169337440857e+03
1.936762989923363875e+03
2.068295196695108643e+03
1.961113169557619813e+03
1.674064823701346995e+03
1.350263548042463526e+03
1.147140612267518236e+03
7.603318616039447306e+02
7.234555839871467242e+02
6.817095218543058763e+02
3.751006446816892321e+02
9.345908089928809659e+01
8.376022786369787809e+01
-5.479220014749548540e+01
5.901751864037336759e+00
7.338584975650707065e+02
1.568142595417049961e+03
2.074718180430643770e+03
2.033353803954919385e+03
2.478779090504655414e+03
2.831052611161187087e+03
2.912186436395417786e+03
2.562349212169620387e+03
1.273638830618981046e+03
-1.185864101772624963e+03
-5.039880966493519736e+03
-6.250752570640539489e+03
-6.149898484219216698e+03
-7.425245055980496545e+03
-7.675656650585265197e+03
-7.700972686701188650e+03
-7.209438398939639228e+03
-6.114311572930215334e+03
-5.446440813794646601e+03
-5.069659490315488256e+03
-4.649991395201411251e+03
-3.311505892734931876e+03
-2.679133965252005055e+03
-2.658061355250199995e+03
1.453750928897927224e+03
3.613621358126692030e+03
2.801440134005548771e+03
1.241932025354977895e+02
-3.112038590957063207e+03
-4.022128809297136740e+03
-3.686324229198807188e+03
-2.808628138052534723e+03
-3.179991372770270573e+03
-3.916574580660773336e+03
-3.267365422343077626e+03
-2.762345377247797842e+03
-3.463373826796123922e+03
-4.679056799208910888e+03
-4.968584263647282569e+03
-4.254279700275157666e+03
-9.282650106306030011e+02
2.988628089510778864e+03
4.278511240960827308e+03
4.503455865701433140e+03
4.337284492375181799e+03
4.016078589276154617e+03
3.834023861038023824e+03
3.593246870278715051e+03
3.846904998914011230e+03
4.313846678667594460e+03
4.475867448835215328e+03
4.247204767732989239e+03
3.041989800433044365e+03
1.622154700853746817e+03
1.027496558647833922e+02
-3.513308807647015328e+02
1.966922690663700024e+01
5.536814725329031717e+02
1.348743916275077481e+03
2.338011151790481108e+03
1.870584449216281655e+03
7.956085909781406826e+02
7.192595450044293557e+02
2.089555837576750491e+03
3.342619790056439342e+03
4.300391238998561676e+03
4.763925583978813847e+03
4.376377559641413427e+03
3.866677355431528667e+03
3.162563941775136300e+03
2.093186028308717596e+03
7.538859256238364424e+02
5.435384391909901751e+02
1.698064827126183900e+03
1.346075563005708773e+03
6.844487314305389418e+02
7.634198063664432539e+02
1.681406051454677595e+02
-1.012922848514173779e+02
-5.288453415028225209e+02
-4.744379371226939384e+02
-1.379055968602280018e+03
-2.435553016542589830e+03
-1.410742160670009753e+03
-2.867683944267192260e+02
-1.128774109323296670e+03
-4.137718012109584379e+03
-7.425211280919409546e+03
-8.897199879501966279e+03
-7.324849953869759702e+03
-3.492224988248617137e+03
4.767916300533759113e+02
2.129976741291742655e+03
4.038411011844501900e+03
4.341269629988486486e+03
2.463277006663872726e+03
-4.997103871775832431e+02
-2.666672372925930631e+03
-3.159581190230884204e+03
-2.558379425368415468e+03
-2.082578100291388878e+01
3.139110504436809151e+03
4.929331257621516670e+03
5.067823206857329751e+03
6.024579436752735091e+03
5.718668954126572316e+03
3.153226837336068002e+03
1.252278636717292557e+03
1.283737196938747502e+03
1.834606862217118760e+03
2.762830465318491861e+03
2.963481413679671732e+03
2.502501287015939397e+03
1.592787478961828128e+03
2.948973133771780297e+01
-1.269359453081591255e+03
-1.093836167940892665e+03
-4.409843420946972401e+02
-1.291753266433403041e+03
-2.922052454487463820e+03
-4.184961374063381299e+03
-3.542477791129342677e+03
-3.223544122725840225e+03
-5.979116482379115041e+03
-6.025259939641463461e+03
-4.567864195508240300e+03
-3.542743430910969892e+03
-1.121911722682903473e+03
-3.685140960332394684e+02
-3.165686126633875574e+03
-6.452207898418377226e+03
-6.355123820261145738e+03
-3.296614883761580131e+03
-6.965962970911607499e+01
2.515633416771479460e+03
1.605366342212395239e+03
2.916749769731806055e+02
1.922539254691259430e+03
3.248815007036558654e+03
2.563414041569189067e+03
9.103919797423031923e+02
-6.381971738849798612e+02
2.910682818332848001e+03
3.611058486249474299e+03
2.480000663894481931e+03
1.110523599241383863e+03
1.064414944900182007e+02
-4.276737981330271943e+00
1.237090405301639180e+02
-3.775027678685311798e+02
-2.621094953946528676e+03
-3.070247296388143695e+03
-3.939015019975606265e+03
-7.713408398379551727e+03
-1.056136384940215248e+04
-7.053872942702078035e+03
-2.536990122513805090e+03
1.059155977523167394e+03
4.620518804779732818e+03
6.104371508762467784e+03
4.690828423235717310e+03
3.502874809874578204e+03
3.183296025678666410e+03
1.806980678711716337e+03
3.199996323919844485e+02
-4.766675057644491176e+02
-9.120032960886018145e+02
5.769917032336403508e+02
3.171188693814560338e+03
4.167615273323294787e+03
4.943297225220938344e+03
3.882302597579696339e+03
1.833603280324573689e+03
-7.147999575801828769e+02
-1.359787775362510956e+03
3.463670720091450761e+01
1.570342332984236009e+03
1.168270994637660806e+03
-1.295875548646069149e+02
-2.632717118171625543e+02
-5.368485306472038019e+02
-3.653091007152224279e+02
6.403265313246587311e+02
2.162105082734193275e+03
2.093076476553177599e+03
1.541262069869314928e+03
-6.593561465336734955e+02
-8.948891686228107574e+02
5.716554152278237098e+02
3.302348034170834580e+03
4.236248434336808714e+03
2.270293107428090480e+03
-3.555274490783296528e+02
-2.396259162110882698e+03
-2.923979776652740384e+03
-1.726659307421834455e+03
1.451703230923204273e+03
2.206081173402481454e+03
3.864703694181516767e+02
-1.037084793141628779e+03
7.833542436223136747e+02
2.803704626869934600e+03
1.866024103255540012e+03
8.914137408731781989e+02
1.489334411375302238e+02
-1.824517839413102593e+03
-2.044940098147545541e+03
-1.249308992352198857e+03
-1.916631294878886592e+03
-3.122946580298216304e+03
-2.164246555327712485e+03
1.052472076863594339e+03
3.489220577544825119e+03
3.107957639139459843e+03
-1.023294437194737839e+03
-3.348564432559719535e+03
-4.885795878915661888e+03
-3.504985746379650664e+03
-3.716229262757736251e+03
-1.410602878093249501e+03
-2.690798271382450935e+02
-3.954571857742017528e+03
-3.702077816153911499e+03
-4.040597488093338598e+03
7.598909172584134240e+02
3.129371266922830728e+03
1.070817039606066601e+03
-6.217041510116481504e+02
-3.751214809461702316e+03
-4.328820756509850980e+03
-2.793512523648081242e+03
-3.969226118997546564e+03
-2.837970416497450969e+03
4.392418035290418743e+02
2.771418878706384476e+03
1.201664973551590947e+03
-3.391539483852961325e+02
-7.451298001229118881e+02
-1.834241460538405590e+03
-1.836438600931785686e+03
-4.246494413535959325e+02
-2.084883983431156139e+03
6.780778345227285797e+01
4.234421830541343297e+03
1.953002980895691280e+03
1.200578272639864508e+03
3.912160120256560845e+02
4.959891277463556435e+03
6.385508728450195122e+03
3.360075419503993999e+03
2.607596064445837783e+03
1.958045436428154517e+03
-7.595352203821188368e+02
-3.873149511014239124e+03
-4.314811571659894071e+03
-3.459528528200448363e+03
-2.251306533969787324e+03
4.048169847809672319e+02
3.386853225773273607e+03
3.987853727108642488e+03
1.458794517503325096e+03
-9.543621588109571121e+02
-3.610464190333412716e+03
-4.549530471573956675e+03
-4.286596014017416564e+03
-3.043651871552431203e+03
2.322355017798053723e+03
5.325538418683045165e+03
3.315910496756776865e+03
1.588494106852006325e+03
1.551397250715900100e+03
4.379493780444806362e+03
4.869750722212396795e+03
2.181136797046724951e+03
8.376045631700739023e+02
1.562175371063770854e+03
2.005855002883178258e+03
1.655622389689209740e+03
1.564436498812246555e+03
-1.042764139578459663e+03
-2.821965333438854032e+03
-1.122307439103272600e+03
-6.899450776819136308e+02
-6.497510855144806783e+02
6.637796314284321397e+02
3.303964711818064188e+03
3.400464269286739182e+03
3.453753777554964927e+03
3.702701637799912987e+03
1.713675575398391629e+03
-1.152628761558088115e+02
-2.394213519245539374e+03
-3.164200865667176913e+03
1.641867438296631235e+03
5.324072134585016101e+03
5.230287305042093067e+03
2.489435321544682665e+03
1.213482949594715365e+03
7.981088551437877641e+02
8.783258479450754521e+02
-1.648773460765179379e+03
-3.807089381244842116e+03
-4.156513046527373263e+03
-3.437066993623554936e+03
-3.548231674239566473e+02
7.820981946229152300e+02
-1.565350005076207253e+03
-1.127125135172980208e+03
1.272764523291175237e+03
2.638354884183485865e+03
4.966740384906665895e+03
6.592926885572255742e+03
5.013819589601590451e+03
2.057411349853433421e+03
-1.165317533822890255e+03
-3.425419641001073614e+03
-5.941951781528092397e+03
-7.682779412163169582e+03
-7.276823190590165723e+03
-7.389160413216472989e+03
-6.692943528941576005e+03
-6.238106756336525905e+03
-5.169630539407691685e+03
-1.947494308332911487e+03
6.363512486400851458e+02
-1.007065102499745080e+03
-1.032684803506268281e+03
3.266528772775604921e+03
6.795573245074970146e+03
1.026036014718235674e+04
9.077721357898290080e+03
5.369755774824207037e+03
3.781574092219567774e+03
3.743115552174159802e+03
2.750414472406322147e+03
6.194982307858707600e+02
-2.862620494432735541e+03
-4.823992569520914913e+03
-5.234564691735413362e+03
-3.575326601896608281e+03
-3.592392423743283871e+03
-5.590764365689199622e+03
-6.934246370419011328e+03
-5.783555485962697276e+03
-3.405650515930451547e+03
-3.228630725788486416e+03
-4.371699750491943632e+03
-3.949093801858104143e+03
-2.346910955071072294e+03
3.059347729580319424e+02
3.930394521581809840e+03
4.457559983076579556e+03
3.184634119945254497e+03
1.666774705127561901e+03
-2.599775247373442610e+01
-1.145801103663884078e+03
-3.397128799280307589e+02
9.550898233642342348e+02
6.955311094965776419e+02
2.606640030760580089e+02
-5.133711178653142042e+02
-7.985743346466555295e+02
1.921831352323903843e+02
2.033090797215766543e+03
2.998193627899148396e+03
3.345362205276533587e+03
2.936562290414450217e+03
3.037773562278250211e+03
2.695026532847120052e+03
1.353343090232162012e+03
1.067827146944243623e+03
1.325594943626915438e+03
1.257671723776265480e+03
4.209138039832839127e+02
2.802716302694204842e+02
7.209113740934189991e+02
-9.003148109403399246e+01
-1.111561713481275319e+03
-1.686811862164083323e+03
-2.155754181838256045e+03
-3.489080367429378839e+03
-3.522923207585429282e+03
-1.250377071521387734e+03
8.275546935189091755e+02
1.961777587466679961e+03
1.121451818145727202e+03
2.714853169621976576e+03
4.298033320709494546e+03
3.385795194810149951e+03
2.692826598711470979e+03
8.120614882818415481e+02
-1.614967668218914412e+02
9.943989868350030292e+02
2.341778921157952482e+03
1.773425139086497666e+03
1.213350565236456902e+02
-7.550634458787669701e+02
-1.580645021884923153e+03
-2.195410611953261196e+03
-2.823801700600352433e+03
-2.373452300346298671e+03
-1.428062176749053833e+03
-2.529841376460280117e+03
-4.569816690045553514e+03
-2.813075602192172937e+03
5.963733684411982949e+02
2.139635966944609208e+03
1.837843634941305254e+03
1.108875295622477779e+03
-1.572330984614809779e+02
-2.561972352663046308e+02
3.897336500356248479e+01
-3.012320180305673034e+02
-2.197986031616918808e+03
-4.656283175990627569e+03
-4.041178956459508299e+03
-1.870558754797130860e+03
9.028234304894893967e+02
1.577010100366055212e+03
5.839353608246232170e+02
7.056376309344024094e+02
7.431917817643283115e+02
1.084602253756335585e+03
1.724814379264149011e+03
8.027207087104472976e+02
4.191585998122239864e+00
-6.546519703065292788e+02
-1.284784837882805732e+03
-2.196104789314813388e+03
-2.837542087834376616e+03
-1.781067564695701321e+03
-3.437865024655880006e+02
1.821484424897024610e+02
6.876598704075524893e+02
9.798921526871615697e+02
8.119446630910158547e+02
2.877165299636145050e+02
4.721703246506798735e+01
-9.366072727428419284e+02
-1.275867578534035147e+03
-1.058654092456361468e+03
-1.868374768475740382e+02
7.126286135027319233e+02
5.549068156707903654e+02
-1.611360727865996409e+02
2.993478903104610822e+02
9.242101013958044859e+02
1.130535765055157071e+03
1.637519149603260303e+03
1.627213949122497979e+03
8.965712152331342395e+02
6.154748615056303152e+02
6.367801528099084862e+02
1.862584822100822919e+02
-1.029766720685751267e+02
6.952929168972417528e+02
5.270536782419466135e+02
-8.179249121172740615e+02
-1.681747399345504618e+03
-1.347306742300843325e+03
-1.235959497809624850e+02
5.436973337852361965e+01
-3.329840631362543490e+01
2.563021341128438166e+02
8.701033206424789341e+02
9.551605896195011383e+02
4.905041469877672284e+02
1.220096703218050607e+02
-2.136467149177775298e+02
-1.055524305111541480e+03
-1.489495021819625208e+03
-1.639368297164325213e+03
-9.171833639902306459e+02
2.442865299953215583e+02
9.866665966200554294e+02
1.861656202986145274e+02
-5.777393740409070233e+02
-6.328314091600414031e+02
-2.578088030961914683e+02
7.983064271846399151e+01
5.812207554180947682e+02
9.530732353716780381e+02
1.029498193154159708e+03
1.715677813274113760e+03
2.353623452544753036e+03
2.196411848370113148e+03
1.680110173840416792e+03
1.112434515393406627e+03
8.954023728800160598e+02
6.867394393993987478e+02
4.810810926311011144e+02
1.655713420887683696e+03
1.666733572584239937e+03
7.190847108667453540e+02
-6.033642235676289545e+00
8.426239614858454274e+01
7.317406617646154245e+02
7.574656150306191194e+02
2.774358651374155897e+02
-4.941995423690807598e+01
1.243543822319194163e+02
4.554943851844020060e+02
1.612850222753421349e+03
2.609560142346892462e+03
2.555817704369338117e+03
2.293021981306495491e+03
2.365491589763745196e+03
2.076219476148805825e+03
1.959018590258925542e+03
1.701023685276816650e+03
1.434267263902444711e+03
8.185785426930815447e+02
1.478235677763171054e+02
-3.920821553325600348e+02
-5.772673050956766474e+02
-2.418544300872028430e+02
-7.347029807943672495e+02
-1.331542690681134900e+03
1.386817496753014893e+02
1.518981975534126605e+03
2.263258059107773533e+03
2.045432492717752893e+03
6.474462083149164755e+02
-2.029070501722023664e+03
-3.024006611573624468e+03
-2.588982553702884616e+03
-2.123982307678478719e+03
-2.362102018951852187e+03
-2.861611105306603804e+03
-3.226393476710416053e+03
-3.386211534028931055e+03
-3.425088768728697232e+03
-3.492172565674061843e+03
-3.647497582241556756e+03
-3.058931957050993333e+03
-3.646483915614149737e+03
-4.744981941861167797e+03
-2.860423746663308066e+03
-3.950083494613615130e+03
-6.692844645572789887e+03
-5.460650275703178522e+03
-6.515926090386494707e+02
2.732257145472894535e+03
8.541232212028319282e+02
-2.615999499256871331e+03
-2.960162848273904729e+03
-2.994180316712727745e+03
-2.835965312537424779e+03
-2.885456599200528217e+03
-2.904752576921486252e+03
-2.516316942418396593e+03
-2.924098165951307237e+03
-3.268829018890995030e+03
-4.742655332135254866e+02
2.965593344143162540e+02
-6.623884125078072884e+02
-1.479108973560770210e+03
-1.461361088468509934e+03
-3.008514301347648257e+01
1.644585642290863461e+03
2.700580565971598844e+03
2.943760809055215304e+03
2.992281943150370353e+03
3.500447088213792085e+03
3.646118741911277084e+03
3.089206440185265819e+03
3.181713303981386616e+03
2.900525661016210961e+03
2.134686990968050395e+03
2.043454807925965270e+03
2.027014098392711048e+03
1.789497906914271198e+03
1.179893496503154665e+03
8.112832475265051926e+02
5.976810631141541990e+02
1.749484068824701524e+02
-7.538143776575910806e+02
-7.276931118964434972e+02
-4.246668282354908115e+02
-1.058065739689748028e+02
3.673014040902108945e+01
3.350132922893509431e+02
1.149416339218457324e+03
2.036844275363769384e+03
2.463940978039972379e+03
2.765719999845616258e+03
2.373161331458790755e+03
1.688663867336715157e+03
1.892427173178904468e+03
1.988281650685436261e+03
1.728246086302582853e+03
1.997715092144999517e+03
2.206514131732044461e+03
2.179627666621173375e+03
1.651329703172159270e+03
5.876011198989344848e+02
-1.586692871049906728e+02
-8.013246501932227375e+02
-1.051237796805314474e+03
-3.614290628276713733e+02
-2.039304243262660634e+02
-1.528738045844291094e+02
3.778881393457315312e+02
9.444636491179267068e+02
1.492831704665241887e+03
1.554976678623569569e+03
1.608641496470987704e+03
1.362667872653441691e+03
1.124167286327416150e+03
9.962887033823519687e+02
1.117062177989396105e+03
9.115530218207640019e+02
6.297527245272028722e+02
1.905045789731628361e+02
-1.072104648621449599e+02
-7.523106568648573784e+02
-1.367758791176037903e+03
-1.322506146582100882e+03
-9.825816598763461798e+02
-1.044128350464203777e+03
-6.322125468611701535e+02
-3.177270790305741457e+02
2.642311710503325628e+01
5.833078319135382799e+02
8.378744844211430518e+02
4.301327926722224788e+02
4.481889338251255026e+02
8.049887333094931137e+02
1.265458258709257507e+03
1.026610555191478852e+03
4.154962383182342478e+02
6.807596583413676683e+01
9.831396600514416662e+01
-1.876985198707631071e+02
-6.549696302781163695e+02
-1.316516973349994942e+03
-1.764340259567429257e+03
-1.848329474796200657e+03
-1.632586634649003145e+03
-1.751329141931868662e+03
-1.413585224006572389e+03
-2.873148999508109114e+02
6.216233724376448890e+02
8.650605663387468667e+02
1.485968290318834988e+03
1.380514586084140319e+03
1.214726738464931486e+03
9.677003786670338741e+02
2.893466843897440413e+02
-1.200544214332584261e+03
-3.184033140106583687e+03
-5.984991396932790849e+03
-5.815348181507065419e+03
-5.498130865804148925e+03
-5.736351244364854210e+03
-6.672005850757700500e+03
-5.379097464245262017e+03
-1.683684798426413408e+03
-8.588320597678387003e+02
-3.194376605588129792e+02
-2.324179234082637890e+02
-1.370565250753402040e+02
6.124414122407424657e+02
9.711601975779809663e+02
1.187242949779128139e+03
1.220717042088338303e+03
1.346653152011037719e+03
1.389959181592873392e+03
1.290542700437057420e+03
9.654389792853158951e+02
7.477511673481202479e+02
6.165272499664937413e+02
4.225368160810983795e+02
3.856158202509116677e+02
7.446544257120417569e+02
9.417619592892323226e+02
2.420499520916160350e+02
-1.595913599707128867e+02
-1.861456544022648245e+02
-8.016930016859218995e+02
-8.092868764013983309e+02
-8.357875942878607702e+02
-3.681586041432465208e+02
6.365985859983583168e+02
1.322498666153659542e+03
1.682608507448240289e+03
1.381882360680222064e+03
1.237152774462980915e+03
1.367375323959338402e+03
1.119540204228020912e+03
9.956461501111151620e+02
1.147689259086600487e+03
1.126692492338960164e+03
1.180681907052113957e+03
1.136643855494957052e+03
7.605825757624902508e+02
1.014274495878207745e+02
-2.688678150230632014e+02
-5.253331113958633978e+02
-5.630103415291778219e+02
-4.628145886330681265e+02
-1.917133229317313123e+02
3.022755852216318431e+02
9.391471178149381558e+02
1.399918275109792830e+03
1.612550551133611634e+03
1.435032771939580471e+03
1.167475829541535404e+03
1.107842460708615135e+03
9.340755992006425004e+02
5.241927180757834321e+02
4.231986622403601928e+02
3.980103877054157806e+02
1.109687945871631428e+03
1.668339667517070211e+03
1.100951981189382877e+03
4.974115447041831999e+02
-1.343425055729203734e+02
-7.562360124301397946e+02
-9.272303186605906831e+02
-4.923834530268181879e+02
-3.566826894302143387e+02
-2.141126751938711266e+02
1.025403171906103353e+03
1.523919300182724328e+03
1.686452993159967491e+03
1.276037585240785802e+03
-1.030310968951628183e+03
-3.097566313401877323e+03
-1.676822061105833200e+03
-1.583181657126806613e+03
4.363349102828181003e+02
-9.941389544205833317e+02
-1.159979144414165830e+01
2.399200290299308449e+02
-2.329595832678758597e+03
-3.939149912865142142e+03
-3.273724946671572070e+03
-2.073319965226814475e+03
-2.465949206941913872e+03
-2.556652446635816887e+03
-3.513404335779809571e+03
-9.581451661515908427e+02
1.200219621644251447e+03
1.664732444474108433e+03
1.318392108684431150e+03
-9.507951097462082544e+02
4.961981807029389415e+02
-1.737530758135410451e+02
-1.952590163844978179e+03
6.975075643927350200e+01
3.552637204363800265e+02
-1.243103175461677665e+03
-1.603910179001424581e+02
