4.225729794534869143e+03
3.489583317259631713e+03
3.148136417434400300e+03
2.941341703655331003e+03
2.513077057805916866e+03
1.926229904720579952e+03
2.602752314951601875e+03
5.228548311228175407e+03
5.961563525352614306e+03
5.556673566974251116e+03
5.600696110404552201e+03
5.169507706765802141e+03
4.505996521729848610e+03
3.898067016905346009e+03
3.035560577688689591e+03
3.326558218041980126e+03
4.734018446892496286e+03
5.502797387683053785e+03
4.821614521449029780e+03
4.145310928613519536e+03
3.726283727992284184e+03
3.682667896895483409e+03
2.838335857541548194e+03
2.408033955595726638e+03
4.665602485343973058e+03
5.181997549935667848e+03
5.511224408888625476e+03
5.464162566031981441e+03
5.203779438602331538e+03
4.358076540197285794e+03
4.174886259200819950e+03
3.932177452234138855e+03
3.471023346684533408e+03
2.370472107473813594e+03
2.321121329326476371e+03
3.293773641637944820e+03
3.171541822720247637e+03
2.491716917079774703e+03
2.404127443993513680e+03
2.041750712115284841e+03
2.030470391495645117e+03
1.395073907007244998e+03
7.396544268267699636e+02
5.949821957038566325e+02
3.292050530262406483e+02
8.123059939793459705e+01
1.459925280488872374e+02
8.352424481889339347e+01
7.738624838267131736e+02
8.760322056158963733e+02
3.600140833248489685e+02
-1.391997072505796211e+02
-4.165818068673302719e+02
-5.430971721186632521e+02
-2.446510520203738679e+02
-9.111625252888144360e+02
-1.634574506426237122e+03
-1.363946801725376645e+03
-9.663126519508707588e+02
-2.085606007807659353e+03
-3.679658913125174422e+03
-2.666420994735728982e+03
-1.963849626980232415e+03
-2.722885022607846167e+03
-3.361445587609100585e+03
-4.544451911313323762e+03
-5.633751126848957938e+03
-5.857336752088482172e+03
-5.571090381125360182e+03
-5.564844947296367536e+03
-5.875451856752488311e+03
-6.003837727935582734e+03
-5.154867536433292116e+03
-5.257414252511024642e+03
-6.429350903114366702e+03
-7.651515747330801787e+03
-8.789783174157748363e+03
-9.514066770673916835e+03
-1.118117935636176844e+04
-1.278194942286456353e+04
-1.167520001673388833e+04
-1.146574459927456519e+04
-1.414152391589872786e+04
-1.429440609537508499e+04
-1.259316887741864230e+04
-1.232660430564552735e+04
-1.227253495458532416e+04
-1.178080832785447819e+04
-1.037399683226427078e+04
-9.671186833515921535e+03
-1.035820109791686991e+04
-1.032677146601833920e+04
-8.343738216981975711e+03
-3.595886992447828106e+03
-2.245053677274761412e+03
-2.820069817754148062e+03
-2.331700296997392343e+03
-1.076770702235443878e+03
-1.401071370332725564e+03
-9.874218669557733392e+02
2.763288571695401288e+02
1.302469974675474077e+03
1.776182889392964171e+03
1.637656527637147747e+03
1.522127082375096506e+03
1.736822791590647739e+03
3.977973772820564591e+03
5.266820277573537169e+03
4.862568259551983829e+03
4.551381445323107982e+03
4.758369939560000603e+03
5.638776725596429060e+03
6.641840132231814096e+03
7.284764186818248163e+03
6.983700697205418692e+03
7.191754933288714710e+03
7.775071089015646066e+03
8.478920042795698464e+03
7.680571905697428519e+03
7.150177053820716537e+03
7.439823296395246871e+03
7.224704759663085497e+03
6.998105343335338148e+03
8.146218950292912268e+03
8.448157202281732680e+03
7.787062859532417860e+03
7.695114029199952711e+03
7.734383137520222590e+03
7.925122839278302308e+03
8.919560557551047168e+03
9.088696315260025585e+03
7.884759185598746626e+03
7.696818068753976149e+03
7.428942418409124002e+03
6.693310954320919336e+03
6.001135029666295850e+03
6.230503926512849830e+03
7.018484540534627740e+03
6.880069567223178638e+03
6.260281137170733018e+03
6.213219374895987130e+03
6.455031168911626992e+03
5.924922282008236834e+03
5.103055304980724031e+03
5.920524221102563388e+03
5.637328637986910508e+03
4.354361940398273873e+03
3.132711057303390589e+03
2.826458447783581050e+03
2.436741690274693610e+03
1.551578121652564050e+03
-4.432149874476686477e+02
-1.316705107360615784e+03
-2.337706056303724381e+03
-3.441957233919250484e+03
-2.564734434126485667e+03
-3.004150162352332700e+03
-4.456053553579142317e+03
-5.054422587095899871e+03
-4.035355004816638029e+03
-3.064860065030688929e+03
-3.638941225378910076e+03
-4.334698582450633694e+03
-4.302166312770522381e+03
-2.529325795016179654e+03
-1.963286166310055023e+03
-2.432129113524154491e+03
-2.601960928466743553e+03
-2.875811279183511488e+03
-3.175689158041305291e+03
-2.354713733354469241e+03
-2.022052000606163801e+03
-2.457904760066350718e+03
-2.801160305564219925e+03
-3.353828060037535579e+03
-3.653215798320378326e+03
-3.451693053433391469e+03
-3.984291042621932320e+03
-4.812976228638119210e+03
-4.127894685923264660e+03
-4.479151928199882605e+03
-4.800850710828408410e+03
-3.975156804559342163e+03
-2.239193368302990166e+03
-1.896156878825877357e+03
-1.935127857816338064e+03
-1.499348806791047991e+03
-9.160605812421937344e+02
-8.237836370869490565e+01
1.043626423500581723e+03
1.795814415942183587e+03
1.482006570030708644e+03
1.038075770418851334e+03
5.178675732396540070e+02
-4.109763365670846724e+02
-1.144612917000040397e+03
-8.781055089707122079e+02
-2.346653375283434002e+02
-4.856039714466412249e+01
-2.270160893649905347e+02
-4.612467309423022357e+02
-5.954048174911719116e+02
1.132709460485498880e+02
9.035638506520649571e+02
1.554336581686847694e+03
1.634429235186449432e+03
1.076663637475727683e+03
2.398854748427611696e+02
-5.912383097152368805e+01
-1.068496656684279422e+01
-4.370640535782758320e+02
-8.823891822415141633e+02
-1.039816838486012784e+03
-8.874290217827734750e+02
-1.767273872796200976e+03
-1.435678713298508455e+03
-1.399879433547630924e+03
-3.230191479261520726e+02
5.787969533236434927e+02
4.694706329243533673e+02
7.458509945143889581e+02
2.417842813570160274e+02
6.150834554692050915e+02
7.394564211644054694e+02
6.717680110801104547e+02
5.848627421488754408e+02
2.686106378188434860e+02
4.347796541763831328e+02
1.176076605435573811e+03
1.022297862964451269e+03
6.176828849963108041e+02
7.312379648057781196e+02
4.045936516075279883e+02
7.363531534615517558e+02
4.542216707242039320e+02
-3.108306561861287491e+02
-3.969498638195524336e+02
1.814945491224011960e+02
1.924688692938661916e+02
9.598113218732922292e+01
3.409553440405229594e+02
3.433286089905004701e+02
-2.981002032762715999e+02
-8.264874390903031554e+02
-1.242047597127046856e+03
-1.446700889326757078e+03
-1.384375240342318875e+03
-1.015017074271036222e+03
-4.842121386995393095e+02
1.679319538754682526e+02
3.154146158217909601e+02
7.242525503226876253e+02
7.672929144211410630e+02
2.604790813736120754e+02
-4.102319113329871243e+02
-1.226853531347768694e+03
-1.474481150761588879e+03
-1.736082757098958837e+03
-1.434550744138978871e+03
-7.150065152358388332e+02
-2.516018425718886533e+02
6.701453998712914029e+00
4.699642851766040508e+02
6.150996200077586309e+02
6.408515190697324897e+02
1.323319530595684228e+03
2.546592600522048542e+03
3.005671566233721478e+03
3.106603753172971665e+03
3.011482593784457549e+03
1.807358057476623571e+03
1.970282532400660102e+03
2.278219097604314811e+03
2.356020814592361148e+03
8.227329233398489805e+02
-3.472480574556220745e+03
-4.577586937500394924e+03
-4.405576652502411889e+03
-3.671412475222338799e+03
-3.035985511549439252e+03
-2.851132840620231491e+03
-3.163141637645208903e+03
-2.850805688689616545e+03
-3.194226689961609736e+03
-3.457011220498270632e+03
-3.049029932552544778e+03
-3.306265356565540969e+03
-3.709753639597964593e+03
-2.905385744463435458e+03
1.399476023162403635e+02
-8.436420286445395504e+02
-2.091146787773726828e+03
-2.761557680649186750e+03
-2.686717706508254651e+03
-2.805473676639643145e+03
-2.733793420621103905e+03
-2.764563449287379626e+03
-1.024672129892240946e+03
2.146060688485098126e+03
1.794717259185098101e+03
3.434306280103166500e+03
4.765913225933994909e+03
4.748727798542386154e+03
4.425858750857949417e+03
4.162342634646525767e+03
4.702225930131021414e+03
4.858716823826629479e+03
4.191924971738305430e+03
3.429912931738809220e+03
2.554755556578933010e+03
2.223595054888509367e+03
2.336498811580180245e+03
3.563635105914640917e+03
3.772119108842417518e+03
3.342894085721572992e+03
3.353078020203141023e+03
3.905921432222187377e+03
3.784605874400382163e+03
3.148091030413652334e+03
3.111487436371611238e+03
3.130964244893044906e+03
3.055530182242498540e+03
3.395342195593148062e+03
2.904512356758163151e+03
2.346073386363957979e+03
2.105090656962616777e+03
2.044709801241234800e+03
1.622032333867713305e+03
1.358136948811931461e+03
1.319003414893562649e+03
1.255776081343348096e+03
1.159619756559431607e+03
6.535843148170724817e+02
5.137723131828591931e+02
9.262398983474255374e+02
8.581565657476647857e+02
7.705372240450951722e+02
1.112253357458664141e+03
5.403704030679808739e+02
-2.296109283383842978e+02
-1.316904224321482957e+02
2.650236625384476952e+02
3.286924692849472649e+02
-7.226444557564278739e+02
-1.030609703272776727e+02
-6.851335464207430448e+01
-3.869083366068128385e+02
-3.739750756945931585e+02
-4.526540646195813906e+02
-2.374675480862318580e+02
-3.988509779844569039e+02
-9.720360077297981434e+02
-1.285906217815765785e+03
-1.071687305967048587e+03
-1.097484437264611643e+03
-1.275190885154721400e+03
-1.918871056836567050e+03
-1.735607558776589258e+03
-1.890296907169589758e+03
-2.519919650292006736e+03
-2.799533174509794662e+03
-3.181070720942829666e+03
-3.280540902727837420e+03
-2.796061505886963459e+03
-2.235531872740961717e+03
-1.703805661459638713e+03
-1.746892202609135893e+03
-1.633791113305749377e+03
-8.115682189664178168e+02
-2.732052292807550131e+01
4.229402045137361483e+02
-5.970068116576467077e+01
-1.203253259531944423e+03
-1.648745247117708004e+03
-1.435240552307228654e+03
-1.590651062435199492e+03
-2.431979418746503598e+03
-2.760281006585381419e+03
-1.775496511822820821e+03
-1.326592943266561178e+03
-2.068750393450472529e+03
-2.275927782017561185e+03
-2.288073703654645215e+03
-2.913200036027156784e+03
-2.975313633893274073e+03
-2.462493347050663488e+03
-1.977830517658806684e+03
-1.103277526566238748e+03
-6.017089897530470353e+02
-1.041200844687807603e+03
-5.797298850546493441e+02
9.447248877391436963e+02
1.530153457805251946e+03
1.119502319229740806e+03
1.016648560713022448e+03
7.346014926914614307e+02
5.094000032408840184e+02
-7.100353669780193968e+02
-2.783708750391313515e+03
-4.729580024938989482e+03
-1.366685426471865185e+03
-4.041442636688583434e+02
-3.859011774386081584e+02
-4.438558099566805026e+02
-8.940822839948050387e+02
-3.457122501212404586e+02
7.324647752155445346e+01
1.138456301025259592e+02
-1.827811824086087995e+02
-3.858289104471126620e+02
9.774208277145858403e+01
3.108630698647474446e+02
2.183338164110454898e+02
1.641850081757095836e+02
1.885347511365666833e+02
2.022734397314774526e+02
3.892284460410900806e+02
9.203913601371415325e+02
1.096843780392840927e+03
1.266494774652270735e+03
1.636318727993849507e+03
1.537136821903451164e+03
1.288032225775600864e+03
1.003063694903198552e+03
6.380932880609789208e+02
7.370765598167562302e+02
1.316015146387888763e+03
1.402786989935837482e+03
8.884054872422773315e+02
6.828936161159118683e+02
1.286216925970018110e+03
1.967364704427651759e+03
2.199325788533907144e+03
1.776009926203335226e+03
1.352468106471034616e+03
1.065766736701073114e+03
4.796845413474287625e+02
4.942247207658991215e+02
3.943980507293568394e+02
2.420557907105228139e+02
-5.659458604831430648e+02
-1.125551264277628206e+03
-1.506764307016628663e+03
-1.444600755004025586e+03
-1.657052566041017599e+03
-1.676159438017542016e+03
-1.497036353165317450e+03
-1.443730514489636562e+03
-4.872456131250980889e+02
5.044082038300076078e+02
5.943161975541878519e+02
6.745002892649094974e+02
1.333947779094161433e+03
1.790543990438334276e+03
2.066257330125686622e+03
1.994095569894440359e+03
1.801121426279795742e+03
1.564319519332879054e+03
1.488687406636168816e+03
1.167148403786710787e+03
7.467424197284902903e+02
4.194464929683136916e+02
5.582246168675156923e+02
9.221260592708371178e+02
1.033190334422371052e+03
8.863611488989720328e+02
8.106481771032382539e+02
1.045119279287650670e+03
1.235823428858445141e+03
7.007314449216045205e+02
5.897265729366228015e+02
-6.070156699728748890e+02
-2.578618495188278757e+03
-5.317017538615760714e+03
-6.937300397127452925e+03
-6.683469498956876123e+03
-5.905433576441275363e+03
-5.296213165155454590e+03
-4.222722224324449598e+03
-4.544058446903066397e+03
-5.031220223388934755e+03
-5.239118735659723825e+03
-5.370702374519376463e+03
-5.644937350116905691e+03
-5.444819945225071933e+03
-5.206357846617227551e+03
-4.045493156571324562e+03
-3.041968354831695933e+02
2.414451340864944996e+03
3.230467590322712567e+03
2.691908076496300055e+03
2.218786637002804582e+03
2.065201793840218215e+03
-1.059856005370999128e+03
-4.661410826344525958e+03
-5.439391837061638398e+03
-5.230801467414433318e+03
-5.197730716781737101e+03
-5.396196845959692837e+03
-5.149091228943294482e+03
-4.830331823397382323e+03
-3.627858937910427812e+03
-1.397676696900347224e+03
3.145169132483351859e+03
3.281710382429898800e+03
2.129002042272044491e+03
2.238021617792915549e+03
2.638822456986227735e+03
2.091394715647355497e+03
1.925758872709770230e+03
1.353950219307044108e+03
1.006964476298349382e+03
6.779388366082720268e+02
9.358754163154328580e+02
2.315815386266847781e+03
3.059683407552017798e+03
2.244358061116384306e+03
1.716843236658677142e+03
1.849192650386381274e+03
2.394448825446913816e+03
2.185676704282013816e+03
1.759798194306936466e+03
1.225660605487867542e+03
9.012594584644400584e+02
4.059115217640408559e+02
4.816539559767973060e+02
9.085267762721529152e+02
1.391646851320942915e+03
2.335957764538031824e+03
2.501471172101865704e+03
2.486199010817624639e+03
2.682301469723923674e+03
2.616029151239166822e+03
2.145223839759811653e+03
1.738830537256666503e+03
1.006703162939079220e+03
1.945904509075527812e+03
1.445622684871464571e+03
1.360590190800490973e+03
-1.305139839544705637e+03
-3.613116402996922147e+02
1.439802949405427626e+03
2.127152363061822598e+03
1.990749955598829729e+03
2.158550970341512311e+03
2.470241926909595350e+03
2.361908673818210445e+03
2.155979244697889044e+03
2.092471002725232211e+03
1.924377894099339528e+03
1.903644696494888649e+03
1.591250791979734913e+03
1.130159003492342890e+03
1.159389643745123522e+03
1.661811402449536899e+03
1.919433632340358145e+03
1.445271003860356359e+03
4.700347304782389415e+02
5.146036675191076029e+02
1.072126882261235323e+03
7.446186324050335088e+02
5.100819699795200108e+02
1.263405381536847244e+03
1.626644569336133827e+03
1.426882790844549163e+03
9.491429365226257460e+02
1.082481130871299456e+03
1.310799026087915763e+03
1.479039041643181008e+03
1.683139217204070064e+03
7.511296940768926333e+02
9.899290434592748511e+01
-3.273240540653424091e+02
-5.689170911392359358e+02
3.927881665064069949e+01
9.932888233437035979e+02
1.688071788102668052e+03
1.309615828754726408e+03
9.179218485785861503e+02
5.340296703242992180e+02
4.394990672199621429e+01
-2.823636343053318569e+02
-6.294204579608538808e+01
1.042440923474821375e+02
4.462166543418235847e+02
6.689212012887740002e+02
9.783163353550618240e+02
1.288398875486007910e+03
9.351750930423115733e+02
6.916767881656317059e+02
3.938490321650345436e+02
9.470095760741457980e+01
-1.430748046647114961e+03
-3.187601390668260137e+03
-6.239876881269172372e+03
-7.386523207404207824e+03
-7.250543099393778903e+03
-7.116963723193829537e+03
-6.693809706484829803e+03
-6.505043052735850324e+03
-7.486575951053387143e+03
-7.472545677217166485e+03
-7.234925539369617582e+03
-5.149708680223182455e+03
-1.404968101217640196e+03
-2.235664932349951869e+03
-6.084772377635547855e+03
-3.245297902378900744e+03
-4.252198315618766173e+02
6.644935501247034608e+02
1.256813230721521904e+03
1.540737261244392812e+03
1.458298953768256524e+03
1.023504322409406996e+03
1.744283958660857479e+03
2.267671409134702117e+03
1.173737214765704948e+03
4.724709046868696873e+02
-4.051700585584616761e+02
-8.011535622081164547e+02
-5.914669209781193331e+02
-1.541624926639371722e+02
1.167548818948301061e+02
9.283510809143425604e+02
1.853677160655583521e+03
1.975659352484136207e+03
1.737311773971073762e+03
1.613668188763451326e+03
1.855766294353606099e+03
2.316720481724421006e+03
2.328540327837310997e+03
1.944145476168460846e+03
1.571565388607862133e+03
1.255913188198118405e+03
1.253166716111828464e+03
1.779225120668639192e+03
1.664150597203836242e+03
1.524065866919439031e+03
1.107924416406353430e+03
1.117723812454417384e+03
1.378566454644694886e+03
9.834319489411642508e+02
4.552745838045588584e+02
-6.189780420373490699e+01
-3.680924680710360235e+02
-6.652463811913348763e+02
-5.852831691193766801e+02
-5.592470762857429918e+02
-5.191627176365681180e+02
7.305754058617189628e+01
1.794387641725726326e+02
-1.470687618407135062e+02
-2.915276546295243634e+02
-7.106375547978799432e+02
-5.581135859740140859e+02
-2.898168179156878637e+02
-5.967231080408869275e+02
-4.430776861116602845e+02
-1.687699270935896436e+02
7.389641831325913017e+02
9.890863733875324897e+02
6.796950450449861592e+02
4.598803970625879742e+02
6.846580352366592024e+02
1.766982606423040124e+03
1.695925404512274554e+03
2.298594237073104978e+03
2.227863583716423818e+03
2.007722119454941094e+03
1.313235801867025884e+03
1.291444171385460777e+03
9.073949216403792661e+02
3.751052494017172307e+02
3.925345337170762718e+02
4.866600268167038621e+02
-4.904879344317037635e+02
-8.288564911704379483e+02
-1.070471527840943736e+03
-6.332511967035056841e+02
1.778189788375937894e+02
-1.224959071347314854e+01
-5.623986279838848077e+02
-8.376676671274625505e+02
-1.108074402183435950e+03
-1.136612693623395671e+03
-1.233209780112460749e+03
-1.387839635411476365e+03
-1.639575864425210057e+03
-1.491452596749628583e+03
-1.600439649443556391e+03
-1.420465851177046716e+03
-2.915170735118679204e+02
8.342773345025595688e+01
-7.453495161620669762e+01
2.484887851530557725e+02
2.924707261136049397e+02
6.640672307030993693e+01
-3.106133403814700955e+02
-8.945934025200026554e+02
-9.425835876079775062e+02
-2.386214604236396610e+02
9.033267676537683428e+02
1.617277217014373946e+03
1.978168535205144508e+03
1.485942807715308618e+03
6.615996859039337323e+02
8.301043626026888660e+02
8.864860947473878241e+02
9.376677565478382803e+02
5.685989247932839135e+02
3.543059917195529351e+02
-7.121363876697508033e+01
3.051011855830096930e+00
-1.519472791287790301e+02
-2.432306972445873043e+02
-3.688409281174477314e+02
4.322200432987207250e+02
1.229934509990224342e+03
1.209239348647526185e+03
1.107099893397843971e+03
1.015558856171788761e+03
4.875821724071685139e+02
2.680868552242928331e+02
3.309945965267373253e+02
9.223154642271001649e+02
1.433097500782655516e+03
6.473677963210702728e+02
8.288714979409936632e+02
4.487580130579175375e+02
5.043281571012847166e+02
5.156060881647291581e+02
4.426701910869185213e+02
4.850114857117258680e+02
5.227134422136308558e+02
7.185427281149655983e+02
3.143472165986451046e+02
-6.175587021065880435e+02
-9.640738409814857732e+02
-9.434579261316745260e+02
-9.957121378479172336e+02
-7.358627178958435024e+02
2.380055761328627995e+01
6.594644885868952997e+02
1.271863310031160381e+03
1.167868235172757977e+03
4.533567478650460316e+02
8.263551589605244772e+02
5.270292713091154155e+02
5.862875420690414785e+02
8.822275279361635967e+02
1.461084995876083212e+03
2.409592221674115535e+03
3.185781172981935924e+03
2.980675566145737321e+03
1.924955667523132433e+03
1.019776720126763962e+03
7.051031117999731350e+02
8.658050955842298890e+02
8.677511156071037703e+02
1.846578154622293084e+02
-1.116405351305456719e+02
3.423251756466555662e+02
6.245811761540371663e+02
1.027911331188521672e+03
1.502251194124999074e+03
1.784654159195629290e+03
1.690001741679425550e+03
8.593038411618839518e+02
1.144687342752714358e+03
1.785179119580690895e+03
2.894518919653304692e+03
3.652596251472995846e+03
3.260495012889824011e+03
2.471305151151609607e+03
1.886987058302653622e+03
1.875507300126563223e+03
2.326795845707125864e+03
1.430895410908264012e+03
-1.355161783077240443e+03
-4.381419145635177301e+03
-4.518842369694246372e+03
-4.735359347059261381e+03
-4.904122623828096948e+03
-5.112188169896350701e+03
-5.031314275254449967e+03
-4.730671458578390229e+03
-4.573334598741136688e+03
-4.263212887454228621e+03
-4.378260633417539793e+03
-4.142491201341869782e+03
-3.414926483364214619e+03
-3.922529594138839911e+03
-3.630196296808576335e+03
-9.130916660517128776e+02
-1.957127247731652915e+03
-1.833298030548069164e+03
1.353647251447756616e+03
1.509446787400359199e+03
1.787980644182779542e+03
1.661351501319217277e+03
6.297612572850683819e+02
-3.843848471938009425e+03
-5.199551787008086649e+03
-4.932301705898520595e+03
-4.936029536272023506e+03
-4.601732921774916576e+03
-4.140385246653408103e+03
-3.982931186661613538e+03
-4.012311950349273047e+03
-3.746533575053302229e+03
-2.919603894367365683e+03
8.264647961513508108e+02
2.446703377887515217e+03
2.932214617016843022e+03
2.028047005528630507e+03
1.854212829007460186e+03
1.585639657884751841e+03
1.415429116010821645e+03
6.676210263868300672e+02
3.371692181047824874e+02
2.691538976161522783e+02
3.555783640436570181e+02
1.095541703033987460e+03
1.236117015998433999e+03
1.242320815619854329e+03
2.020180197765523189e+03
2.726684788143308197e+03
2.824000802899840892e+03
2.818108897528158650e+03
2.308017941274048553e+03
2.096786352322671064e+03
1.684379209425141653e+03
1.324734929619817194e+03
9.379368284945286405e+02
5.211495802501945036e+02
1.275476265422453480e+03
1.626922507564610896e+03
1.356452384708713680e+03
9.800582935285697204e+02
1.277728518931316785e+03
1.689553933697979346e+03
1.690573135059973765e+03
1.481755686131563607e+03
1.304109820595808060e+03
1.282598238126431625e+03
1.337420996084943908e+03
1.091778810841579570e+03
1.752765089397470547e+03
2.565368181481693682e+03
2.208745331829370571e+03
2.166944390237330936e+03
1.929192793047084024e+03
1.282367858321311587e+03
1.062374931687289518e+03
9.482663629488512242e+02
1.155123363476358008e+03
1.389874438279393189e+03
1.617657711932849452e+03
1.822578288787254223e+03
1.818509469232554238e+03
1.132962613499177223e+03
7.505583523184963042e+02
1.047845243856221487e+03
9.295537281423676177e+02
5.281668478495939780e+02
6.464204162709520460e+02
9.643938521677989684e+02
1.093109850638816852e+03
1.529529733024400912e+03
1.499737233513805677e+03
1.280785812875041756e+03
1.059570102956255823e+03
1.090033382567047511e+03
1.172225957566836996e+03
3.542019112379744001e+02
-7.589468262782119723e+01
1.778788842633599927e+02
-1.396177801782984034e+02
-6.303600703707901403e+02
-1.039286824738687528e+03
-7.975039968691210106e+02
-8.000181965712625924e+02
-5.937647771248406343e+02
-2.377891979819449659e+02
-5.240906492346167624e+02
-4.496547964855291184e+02
1.114106468512371464e+02
1.332221720468451451e+02
-7.113283959786673449e+01
1.342514291821422319e+02
2.214309612419835673e+02
1.812867635215602320e+02
3.646961336639052433e+02
7.087811351287951993e+02
6.405257886277809121e+02
4.009364593834312700e+02
4.889961525872124639e+02
5.285881825664080225e+02
3.107389278194976328e+02
-7.249925427504383890e+01
-3.722069239704660504e+02
-4.123355258570991282e+02
-7.809377508560178285e+02
-1.256117279438961077e+03
-1.104861414047593598e+03
-7.742032515947124693e+02
-1.505286761830303021e+03
-3.340043844361462106e+03
-7.365437562169017838e+03
-8.641512392309216011e+03
-7.921283652397077276e+03
-6.863935022112438674e+03
-6.019471883095341582e+03
-2.621703695812855130e+03
9.531528243559640714e+02
8.069881817620639595e+02
-4.152381196602901809e+02
-1.455437178288781524e+03
-6.846671644588200252e+02
1.821112546100268901e+02
-8.605734887810868372e+01
-1.634050161713588807e+02
1.018146981940197520e+03
1.200441819703728470e+03
7.384182696277293871e+02
4.560479832815375403e+02
3.784199016227508992e+02
7.615068249095857027e+02
1.213456151656326483e+03
1.147206113917016637e+03
9.535653322748189566e+02
5.784768423591699502e+02
6.530243194702869687e+02
4.241376884411864125e+02
5.928263147067955288e+02
5.680712099070186696e+02
3.628387963134851475e+02
5.631294800224806067e+02
5.449824085066749149e+02
7.413690989269308602e+02
4.602720592412148335e+02
2.636633882139113325e+02
5.055542064350647706e+02
6.069740134903030366e+02
4.148977374777740010e+02
1.383143053751626042e+02
-3.475294748405088541e+01
-2.463421101316499460e+02
-2.085630176169130152e+02
7.666671649379097744e+02
1.072384487849206835e+03
9.294779198659090298e+02
6.209475549449778100e+02
7.048330674392362880e+02
9.131858884496151632e+02
6.071343227898296391e+02
2.346837536873528052e+02
4.673124977437662864e+01
3.822050905308217921e+02
3.371559302014839545e+02
-5.003329450010882624e+02
-2.032751516469849378e+02
2.174069844429871807e+02
5.498020043399384349e+02
9.503043529393613653e+01
-2.140157041399766911e+02
-2.939477861465235620e+01
3.488706017109166737e+02
9.238309304431861619e+02
1.101473468777740891e+03
1.212887890342559558e+03
1.219094335164372751e+03
1.209041581100550275e+03
1.076849344765770638e+03
3.465929171476903434e+02
-2.176718920199702438e+02
4.170265229835138712e+02
9.356356156513271571e+02
5.072431446977300880e+02
-7.291390756500736643e+02
-1.374524974583674521e+03
-1.049928725724529386e+03
-6.633029545355750543e+02
-3.084487127875802344e+03
-5.022483100802161061e+03
-4.005282112576418967e+03
-3.428938186064850015e+03
-3.593537078008634467e+02
-1.377606096885537909e+03
-1.307200236306946692e+02
-1.363598513409070620e+03
-3.863211183620246629e+03
-3.401486375995372327e+03
-1.049341261832308419e+03
-1.028863186913126583e+03
-3.890780926746414252e+02
4.330666117492285707e+02
-1.646449317163164096e+03
-8.826192964949512998e+02
-1.955416809559450485e+03
-9.668770208864833648e+02
-1.135956236884500186e+03
-2.096509673389352429e+03
-1.905646916633279488e+03
-2.591290819852776167e+03
-1.270435461941895710e+03
5.289006791055476242e+02
-2.136287174394319663e+03
-2.017019881259173644e+03
7.969007698706610654e+01
-1.547067619500547835e+03
-1.132187364946860953e+03
-7.564283662488421101e+01
6.649834623259600619e+01
5.824193734696376623e+01
-1.963368992912304975e+03
-2.924297350378164538e+03
-1.201576430752199713e+03
1.727256399687875614e+02
4.376459415739840324e+02
6.111748964755953466e+02
8.673154577918336372e+02
1.171398389391447381e+02
-9.742826955854612834e+02
-9.592915328406522235e+01
1.661149175936433039e+03
1.051883379486356944e+03
4.292058944754060690e+02
6.871171280576530762e+02
7.626972930774610404e+02
6.009521011380231812e+02
7.788633763375386252e+02
7.174175020225728758e+02
5.955749528406572608e+02
6.914019081559574715e+02
1.002389605323807942e+01
-1.705033308386749127e+02
4.125654440271081285e+02
-4.355684546236144570e+02
-1.857903528321875001e+03
7.649226608234164360e+01
8.125559773867213380e+02
-9.471058518219714983e+01
-1.733290728913244436e+02
5.966804379009440709e+02
1.029263586808531045e+03
6.143653600508423551e+02
4.360231820561675136e+02
1.060172658428667091e+03
1.234693371687024865e+03
1.010491222874156051e+03
9.937420462730506188e+02
1.101980765979278431e+03
1.056125927891048832e+03
4.004058694852116673e+02
-9.524583947653252380e+01
1.103165122790893520e+03
1.865608303178825508e+03
1.699437890517850519e+03
1.406423236345891382e+03
1.545379166086614759e+03
1.535292835833860181e+03
1.398037152628659896e+03
1.804513692711195063e+03
2.434668664950690527e+03
2.487700108017864295e+03
2.541440515382628746e+03
2.645457515261109165e+03
2.648773257027850377e+03
2.864432835213187445e+03
2.625370868457544020e+03
3.084502233402060938e+03
2.841632047001040519e+03
2.582712349390102190e+03
2.384650445280366057e+03
2.179439380570939193e+03
2.328967710351134883e+03
1.447173688311243268e+03
8.300108892416189974e+02
1.242349368571897685e+03
1.670142785388180300e+03
2.100350340569016680e+03
2.083880848834046901e+03
2.582686094301634967e+03
2.511740534123231555e+03
2.135000916369671359e+03
2.110402278035019208e+03
2.086854177100667584e+03
1.266316177776738868e+03
8.587072708303066975e+02
1.048968808273232526e+03
2.169066521775400815e+03
3.095923878197784234e+03
3.022511908244784536e+03
2.391808532702403227e+03
1.523726223580824580e+03
1.251181219590650699e+03
1.263081709726207919e+03
2.954134135748532799e+02
-1.146800733567831685e+03
-3.976604988409735597e+03
-5.978066395961366652e+03
-6.085247621993323264e+03
-5.480205427268404492e+03
-5.432027796048386335e+03
-5.186733675134229088e+03
-5.354291336242046782e+03
-4.825820773879711851e+03
-4.756352178402968093e+03
-5.073882977234851751e+03
-4.986439177849882071e+03
-3.543967553524886625e+03
-3.168574367193420130e+03
-2.348419076343818233e+03
1.065671646842257815e+03
3.767633458829910069e+03
2.393374839182703454e+03
-2.374118725561512747e+03
-5.484751469578512115e+03
-3.099473362216664100e+03
-2.363385563689444382e+02
3.065332754536695461e+02
6.790995372244493637e+02
1.078423943168249934e+03
7.105167378843113966e+02
9.983433395092920364e+02
1.617958976522740613e+03
2.198415034108147665e+03
2.050715438515726873e+03
6.369000872371727837e+02
-2.310289356338878690e+02
3.410340687481199780e+02
6.371543241270810540e+02
-3.296510581299973524e+02
-7.983557787160534644e+02
-5.109066651451197458e+02
-8.292870129694186971e+02
-8.505204465553474620e+02
-5.815618795101925116e+02
-1.219340623758129595e+03
-1.832827291265466783e+03
-1.840877640048142212e+03
-2.938476399315473373e+03
-2.934596586713056240e+03
-1.979106551657776890e+03
-2.039903248678705268e+03
-1.119952539003832953e+03
-1.142265274204007483e+03
-2.059818826402180093e+03
-1.878495652065003696e+03
-1.689246025774624286e+03
-1.478953877030932290e+03
-7.395017102022212612e+02
-8.708164150342312269e+02
-1.115796884000697673e+03
-6.303658176400252842e+02
-9.993997821672340933e+02
-2.927728269282817450e+02
1.326214998551564577e+02
-6.907645324681720922e+01
1.952256851773943538e+02
4.685624512165825877e+02
-1.779816979670457044e+02
-6.919599625969722467e+01
4.880546635223419116e+02
1.104021035107426997e+03
1.697643687242381702e+03
7.940830026280062839e+02
1.546015501840062427e+02
1.894320358745190333e+03
1.887997869854911414e+03
8.887914373134657353e+02
3.121293304100055934e+02
7.008930136031002576e+02
9.217248093918982477e+01
2.989528422445527553e+02
2.138480262866754856e+03
2.686901568297011636e+03
3.789282965257226806e+03
4.153624987762528690e+03
3.411104160134119866e+03
2.175903997564561450e+03
1.551128732502181037e+03
1.342907774236047999e+03
3.113348786005818056e+03
4.538563986668037614e+03
4.460722653946606442e+03
3.953907465986622356e+03
3.482283094580795932e+03
2.670950256495142185e+03
2.066039475514898641e+03
2.082583760001124574e+03
2.485729124336395671e+03
2.199593777348000003e+03
2.104312808000524910e+03
1.962031815061775660e+03
1.638781208375331289e+03
1.219688328150483358e+03
9.049421755891340808e+02
9.735310428844599073e+02
