-7.434157819593812064e+02
-7.522153672805528686e+02
-2.682418017467908271e+02
-9.052981160746398359e+01
-2.781209288619186850e+02
-3.040657128180654354e+02
-2.023854446636474336e+02
1.496126961568509017e+01
-1.660816808884509612e+02
-1.035798995729728773e+02
-2.845772370578226287e+02
-2.400595839221797405e+02
-1.780426378097769771e+02
2.344198681441281451e+01
7.232947466994173169e+01
5.844680975288180091e-01
1.261789164818402185e+02
1.370742010525711123e+02
4.222509698267633667e+02
4.307187005676725562e+02
-9.455769127064029362e+02
-7.607123642888121822e+02
-2.937175455988689805e+02
-1.400647422892169061e+03
-2.203524358985202980e+03
-3.933130640459232268e+02
-2.147052897970632330e+03
-3.497916960377466467e+02
5.253540284614383609e+02
5.513429683216472768e+02
5.681734134476557756e+02
5.148124001797496021e+02
2.091907474469586248e+02
-2.273363971388363680e+01
1.000021832372320887e+02
-2.342466027459850864e+01
-1.721374269973450168e+02
-2.673992417993258641e+02
5.994164249369377018e+01
2.995915743675087697e+02
-1.263158977920671049e+02
-1.476325168322687489e+02
2.445988151118318399e+01
1.618980487905296286e+02
1.413561577860283762e+02
3.800659910832485480e+02
3.700669616940834885e+02
5.241324379799569897e+02
2.142875037831073541e+02
2.133534148842811078e+02
5.805233549069422452e+02
8.325917554202533211e+02
7.656449671145838920e+02
5.943718513358792279e+02
7.260586525634861346e+02
9.276483641704647880e+02
7.938298170030624306e+02
4.976714050956925348e+02
8.092947883539141003e+02
8.473138379628975372e+02
8.489303304828376895e+02
9.442311545064646907e+02
9.328407979745046532e+02
1.207920759025013012e+03
1.453493340958666295e+03
1.432287848880453566e+03
1.119408431220322200e+03
1.105820948671649830e+03
1.242546711601197103e+03
1.164734369817167135e+03
1.186157841306179762e+03
1.060879842198417009e+03
1.177556760291174896e+03
1.051391619221355768e+03
1.207394781947930142e+03
9.643022975468416007e+02
1.047162160907532552e+03
9.719023014260311584e+02
7.195848438470458177e+02
8.493833129875442864e+02
5.543088918397381804e+02
7.435035749326990526e+02
-9.741157260137821368e+02
-1.045947009824645647e+03
-4.811974623775247295e+01
-1.925328332650573202e+03
-1.707399801804590652e+03
-8.693930639505895215e+02
-2.365516818231735215e+03
-9.438214702991547256e+02
7.580354666813974518e+02
-2.139792646551759844e+03
-2.632085383905512117e+03
-1.960716462050610971e+03
-1.045421589674795996e+03
-9.881727857638268233e+02
2.170795970071339127e+02
-1.982557085212014044e+03
-1.800238971494079124e+03
-9.291606326086522358e+02
-3.881279175900482414e+02
1.274881840319874073e+03
1.512893775413196181e+03
1.441953426307227346e+03
1.600999825167948529e+03
1.177090610817595689e+03
-1.473731602154563234e+03
-3.202486734475362027e+03
-1.792332625182054699e+03
6.540275919200814769e+02
-1.375322153190649487e+03
5.713099498578845896e+02
4.059649535337309771e+02
-1.272381011106099777e+03
-6.968926018867134076e+01
-1.671996007471922667e+03
-2.572128960457054632e+02
-1.952348214924345939e+03
3.156393797639025820e+02
-6.952362436729704314e+02
-4.137970763302323576e+03
-5.055142789261295206e+02
3.711571045706467658e+02
-1.159555025965190111e+02
-2.454803784089086093e+03
-1.025327906904261681e+03
2.446009518811862193e+01
-9.213928663859556991e+02
-2.619877212032526131e+03
-2.866980868539241783e+03
-1.052592698393207002e+03
-3.507050008917470905e+02
-4.462783078200509408e+02
-6.502553833809002981e+02
-5.846320370089338212e+02
-1.113401294370813048e+03
-3.121499365855098404e+03
-2.463882340472661781e+03
-1.252513005544316684e+03
-8.413450432089103970e+02
-9.053404809230773935e+02
-9.884588426843787374e+02
-1.149636001882930714e+03
-2.344708856702627600e+03
-4.068508834245275011e+03
-1.939911973427409293e+03
-1.553021666882571708e+03
-1.249880679207073172e+03
-1.278404011670793579e+03
-1.222581341841470476e+03
-1.232384955407151438e+03
-1.003755274460147461e+03
-8.786615035449844981e+02
-2.116967896515415759e+03
-3.426697063153492309e+03
-3.035795424639351040e+03
-1.458268982330025892e+03
2.616437818725133297e+02
1.981961232803342341e+02
-4.415399053873167645e+02
6.513324122070198428e+02
1.150123978644214958e+03
1.430786780488472232e+03
1.646465288829673455e+03
1.852305966338583175e+03
2.617171626321478925e+03
2.889109607482019328e+03
2.890169049987149265e+03
2.786379595731830705e+03
3.020764937205744445e+03
2.828401858024260946e+03
2.667302934729653316e+03
2.890536314219325050e+03
2.748099832954979775e+03
2.816050448880374915e+03
2.675261642721373391e+03
2.600575076788127717e+03
2.459406471574448005e+03
2.406547297944717684e+03
2.519271949241865059e+03
2.316400030320727637e+03
2.268022620568008733e+03
2.164263546352855428e+03
1.932106433799854130e+03
1.659565834876242207e+03
1.579744811890397159e+03
1.459785502896839262e+03
1.303579932129335930e+03
1.317995915857828095e+03
1.533175285544284407e+03
1.246174452004260957e+03
1.110048947382153074e+03
9.077859145659435853e+02
8.004302414804215005e+02
4.990343519871006492e+02
3.756540482942485824e+02
3.352684380773673638e+02
-4.815040034821254977e+01
1.494120512920410420e+02
-8.396117041634735756e+01
-1.312496929225561644e+02
-1.084487418778048635e+02
-4.305872701092818033e+02
-7.216744344098227657e+02
-6.806404269596968106e+02
-6.294338669152710963e+02
-4.860189862676922417e+02
-3.223774526392378448e+02
-6.304952299516005496e+02
-6.443958242392861848e+02
-5.481380396565532465e+02
-5.446818174525607219e+02
-6.219955232814367037e+02
-9.950541998138558029e+02
-1.318811829776699597e+03
-2.284336396234590211e+03
-4.088529546739511716e+03
-7.014225665818943526e+03
-6.198776746347831249e+03
-4.336930619551866585e+03
-2.070863548419722974e+03
-1.102638917856094167e+03
-1.136173997558258407e+03
-8.584610130326054787e+02
-7.645022480539934122e+02
-3.728168762232788595e+03
-6.784846984288866224e+03
-3.238478635949983072e+03
-1.438926037873721498e+03
-1.110243191370057275e+03
-8.304366978115535858e+02
-6.695553591014484027e+02
-3.756130904758757652e+02
-2.776274272338714013e+02
-2.825674369798099406e+02
-4.114687936336353573e+02
-5.293584371134163575e+02
-7.212803334700456617e+02
-5.002551811778787396e+02
-2.883710679303044344e+02
-3.906005613712517857e+02
-3.099818323055920928e+02
-2.445224341781720057e+02
-6.253087065066287096e+02
-4.943307976351891853e+02
-4.065910495557984632e+02
-2.411583657418331370e+02
3.259187827084256810e+02
1.516137147778100029e+02
4.739385995531085314e+02
3.618529943322629379e+02
-1.070305247150972505e+01
1.272329109460280705e+02
4.546431781248404604e+02
3.815013935592903067e+02
2.807274422570953334e+02
3.482337869140404223e+02
2.039643186054713340e+02
3.209213748424451182e+02
5.880460730616774754e+02
7.333503077137754644e+02
6.788148336937131262e+02
5.333852373926829387e+02
8.110198808299500115e+02
8.896291566687280010e+02
8.611978992297495097e+02
5.636875283072118918e+02
6.130955432453953335e+02
8.293694221885547222e+02
9.414255185588839367e+02
8.322592960544446896e+02
6.866763302706394825e+02
5.538167071759870623e+02
4.709610491662987783e+02
5.807487459312873170e+02
8.070822331381278900e+02
8.127240726475773727e+02
7.529590911052542879e+02
6.390410231744775729e+02
-8.175151885186583200e+00
-2.028658088642712869e+02
3.748914992208742660e+02
6.876974416414568623e+02
6.669319433068454828e+02
5.864865292655547364e+02
5.072284091496060796e+02
5.261709111392834757e+02
8.442499190211184441e+02
9.204109301896318129e+02
8.176354820841465880e+02
6.699674561460961968e+02
7.183180777701661555e+02
9.467036560909289165e+02
7.870944930427469899e+02
7.114757773304254442e+02
9.097673081485934290e+02
1.065967248195316643e+03
1.223147186268456153e+03
9.882235015512063683e+02
1.050173321581104801e+03
1.299937400849698633e+03
1.273491838087650649e+03
1.365835482912584439e+03
1.303989904270954867e+03
1.180911935610635283e+03
1.310602027274051125e+03
1.203026856742217433e+03
1.413175722134527177e+03
1.318030621322401885e+03
1.180659172314028638e+03
1.368067873819091574e+03
1.680228351758298913e+03
1.453070198758154447e+03
2.176568654622752547e+03
1.975791154780310762e+03
1.837809590780747385e+03
1.651736705085805170e+03
1.812588605273851726e+03
1.898308142615769384e+03
1.689762477003682989e+03
1.547667783052490449e+03
1.432708633372499207e+03
1.701733346837922227e+03
1.698802213771295101e+03
1.919964772861304255e+03
2.345291767761673327e+03
2.500826479662795464e+03
1.798628074829818843e+03
1.453764254753590876e+03
1.450244261054813251e+03
1.217073596343552254e+03
9.511282959141090032e+02
-1.006273655458949747e+02
-2.406211395951199847e+03
-4.430532294502655532e+03
-4.523429449785083307e+03
-4.062770077606284758e+03
-8.683400392021421794e+02
2.050191347967606816e+03
5.094432105617958086e+02
-3.590365825065111949e+03
-4.462053812124651813e+03
-2.590250142917872381e+03
-6.929508975520010381e+02
-1.788097362376126057e+03
-3.082986377421760153e+03
-7.391180351735167733e+02
2.165526841864721064e+03
-8.974339491599340590e+02
-3.774358887320269332e+03
-4.074248386223585385e+03
-4.226297870771712951e+03
-3.839406863761065779e+03
-1.756693015827789168e+03
-1.130977154406867157e+03
-3.406509298151130679e+03
-3.651432584720986597e+03
-3.642768310886536256e+03
-3.569709793099481431e+03
-2.711234512107324008e+03
-2.978240505678399131e+03
-2.729737537445213093e+03
-1.779136094917165110e+03
-1.024357262286426248e+03
-2.867186383374864363e+03
-8.198535559868612381e+02
2.797541668297917568e+03
3.048276506276758028e+03
3.471785562481321904e+03
3.248325268270648849e+03
3.329121616083142271e+03
3.021761879061277341e+03
2.867515850017814955e+03
2.659122581303486186e+03
2.905778720310424433e+03
3.101183969716511911e+03
3.187515973631308043e+03
3.219009348532920285e+03
3.112093834495351075e+03
2.971501092567850264e+03
2.961348475635816158e+03
3.386957734050859472e+03
3.525145812297158500e+03
3.413576185090059425e+03
3.120198716717999105e+03
2.631989406093120579e+03
2.737803178789583399e+03
2.750393033397104318e+03
2.636759441559745028e+03
2.663904678078356028e+03
2.693829026160162357e+03
2.333471521588426640e+03
2.006881620245977729e+03
2.004207889374289152e+03
1.983264234998442134e+03
1.871993827190921138e+03
1.745425754995045736e+03
1.576647464416360208e+03
1.347713623196475282e+03
1.197648619836935495e+03
1.333606588150784773e+03
1.366725290595818933e+03
1.491727778450996766e+03
1.332791278117636011e+03
1.478019104181141529e+03
1.444492167962777330e+03
1.171289059579633431e+03
6.534425831250360943e+02
4.299539351267036409e+02
7.031927517645686976e+02
6.133249302259712294e+02
5.473642361269037337e+02
6.692427530156963940e+02
4.219817441989159192e+02
7.655134668267255194e+00
-7.507731242439694697e+00
2.826193948466656707e+02
1.849903422042124532e+02
3.747959942885599958e+02
2.516558833127102446e+01
-1.017946749333063252e+02
-2.029430469387704647e+02
-3.901835821418808905e+02
-5.853358078126198052e+02
-9.562805100007434476e+02
-1.139855220136870230e+03
-1.197920272751156062e+03
-1.456295786071039629e+03
-9.058016682317687582e+02
-1.074345093826429547e+03
-1.067711531619268044e+03
-9.967500710419586767e+02
-1.453297198838322174e+03
-1.756213781873608013e+03
-2.530320345922604702e+03
-2.554450439748323333e+03
-2.397435034229214580e+03
-2.830079273069662577e+03
-2.491207254601202294e+03
-2.279602046240047002e+03
-2.147086107406771589e+03
-2.144457301264696071e+03
-2.504574092916482641e+03
-2.963212087549025000e+03
-3.095201037748276121e+03
-3.248400173292788622e+03
-3.257610196113159418e+03
-3.002637790293363651e+03
-3.246308458437895752e+03
-3.608423454181830948e+03
-3.645836600559288399e+03
-2.951367460008551916e+03
-2.421845563285885419e+03
-2.682123662320405856e+03
-3.220995719427285621e+03
-3.426351594208391361e+03
-3.112027656900863349e+03
-3.059898174572423159e+03
-3.568796201068278151e+03
-4.266595340204141394e+03
-4.728131641517271419e+03
-4.890289323737676568e+03
-4.738978328801609678e+03
-4.312143080071270560e+03
-3.805725099545521516e+03
-3.801598308359783459e+03
-4.202492414693469073e+03
-4.923134821775187447e+03
-4.962554764956003964e+03
-4.667637802124997506e+03
-4.554459947713541624e+03
-4.895980849207628125e+03
-4.976045591827435601e+03
-4.561290078680315673e+03
-4.348727750677329823e+03
-4.148506989524180426e+03
-3.618703894916560785e+03
-3.710334388975490128e+03
-3.538339457541613228e+03
-3.067662995109451458e+03
-2.868332942982965960e+03
-2.602350643609892359e+03
-3.070331809659434384e+03
-3.672523660559508244e+03
-3.290551000402238515e+03
-3.187194685265361841e+03
-2.982176638375434322e+03
-2.777832572779554084e+03
-2.785388188626813189e+03
-2.934951137460536302e+03
-2.510612689470146051e+03
-2.038509067638770830e+03
-1.571785835867081005e+03
-1.225542484957804163e+03
-9.399556121193004401e+02
-1.381201395388252877e+03
-1.241436671252639371e+03
-1.208782560399219165e+03
-7.674388609684351650e+02
-7.946332707495646446e+02
-6.045605672010026410e+02
-2.850795661374581158e+01
3.422853905266133552e+02
3.635948258638674133e+02
2.901047340100420229e+02
8.946356614269728880e+02
1.355839758342588084e+03
1.623417525447145181e+03
1.859102742667081202e+03
2.584536049955678209e+03
3.379374785384477946e+03
4.011348419017630931e+03
3.911111984007952742e+03
3.324296233894477155e+03
3.157555472992194609e+03
3.202500756024367092e+03
3.678715022232496267e+03
4.087852857629528899e+03
4.468546588516860538e+03
5.009431479997048882e+03
5.073072716957666671e+03
4.980063474652371951e+03
5.050023858534517785e+03
5.304564139161297135e+03
5.596251383898986205e+03
5.270641157470941835e+03
5.471318755452321057e+03
3.197870580934614281e+03
2.631834865391915628e+03
6.750809132824274457e+03
7.149364475389944346e+03
7.067043079982201562e+03
3.636376517339493148e+03
2.021971621034387908e+03
5.732393033804609331e+03
9.306209089839408989e+03
9.920031530600221231e+03
1.011545431858003030e+04
8.095989103990988042e+03
7.447219796691696502e+03
9.538734256818699578e+03
1.008610752560819492e+04
1.058893127342702428e+04
1.071576544782186647e+04
1.040323020576992712e+04
9.780969013896719844e+03
1.001560357911923711e+04
9.782769738641914955e+03
9.810083021850852674e+03
9.698157393472874901e+03
9.710678656646805393e+03
9.403329965308308601e+03
9.288720456659775664e+03
9.720528272806112000e+03
9.751443621275517216e+03
9.998188784514170038e+03
9.737443351093586898e+03
9.152921177046016965e+03
8.963368211351751597e+03
9.027479201308933625e+03
8.914050105839614844e+03
8.432905408204518608e+03
7.824764014117706211e+03
7.541455690051095189e+03
7.038780863422806760e+03
7.201556049897882986e+03
7.499629649828886613e+03
7.948846800633209568e+03
7.751065564500031542e+03
6.864198442462864477e+03
6.552073303393295646e+03
8.000699666451995654e+03
1.138798906768582674e+04
1.611391188548616446e+04
2.168540612036442690e+04
2.703644143095341133e+04
3.036805197273096201e+04
3.027725428904164073e+04
2.780904117672816210e+04
2.522944838771654395e+04
2.298856669297379995e+04
2.136346628371610495e+04
1.967020507207979972e+04
1.843592144488343183e+04
1.760780863553057134e+04
1.688100335078197168e+04
1.564666914415960855e+04
1.241196159974876900e+04
7.027086578576877400e+03
-1.366008695145671652e+02
-8.604786139186713626e+03
-1.790617390126275859e+04
-2.811864227972378285e+04
-3.934297499321100622e+04
-4.919613706928235479e+04
-5.603383997281446500e+04
-6.086142746549199364e+04
-6.388931904569661856e+04
-6.661235274529265007e+04
-6.876338949650537688e+04
-7.064313032829047006e+04
-6.627303433403348026e+04
-6.539243993115361081e+04
-6.389519796318337467e+04
-5.897210470270351652e+04
-5.623923658173204603e+04
-5.188709856702772959e+04
-4.910836798951910168e+04
-4.531759949346266512e+04
-4.103432769743783138e+04
-3.724825482369781093e+04
-3.389678198231718125e+04
-3.096213388712635788e+04
-2.784693279776185227e+04
-2.521579148416282987e+04
-2.296996897149328288e+04
-1.899399092645496057e+04
-1.376036135012513478e+04
-1.376852738322003097e+04
-1.566298478221725964e+04
-1.455620352970344538e+04
-1.292239451563197144e+04
-1.043730328676919089e+04
-8.117538983122677564e+03
-8.810323220525331635e+03
-7.985054225944629252e+03
-5.479096217853976668e+03
-4.946903265776197259e+03
-3.404874198542307568e+03
-1.651439715796277369e+03
9.697786485190059125e+01
2.772894695446507285e+03
5.510926110592276018e+03
9.306634961786256099e+03
1.425657194038191665e+04
1.452333429233127208e+04
1.535945278189858982e+04
1.891546389198067118e+04
2.533189564061972851e+04
2.896229409983473306e+04
3.098020577440260604e+04
3.229313294054517610e+04
3.353262267013341625e+04
3.438414099544342753e+04
3.484716409944010229e+04
3.486317910160797328e+04
3.488465959030892554e+04
3.442603402596977685e+04
3.388780456369646708e+04
3.333641733458392264e+04
3.272626700744374466e+04
3.195771493301979717e+04
3.059418820783212141e+04
2.943506789002140067e+04
2.844571337737090653e+04
2.708550677645306496e+04
2.583176596469870128e+04
2.476273917009878642e+04
2.328676789318132069e+04
2.180912937277763558e+04
2.079208269051618117e+04
1.962586062452864644e+04
1.860472510523743040e+04
1.685588101243715573e+04
1.399141356385389190e+04
1.468162783276971822e+04
1.525780155936659685e+04
1.465412825152000551e+04
1.353673648342577508e+04
1.284955337965365652e+04
1.242758691478655419e+04
1.211209443916900636e+04
1.137620008062084344e+04
1.031176105639733942e+04
9.753708702163354246e+03
9.186044011651663823e+03
8.335034499505707572e+03
7.630343509612718663e+03
7.115960711654625811e+03
6.840018667097048819e+03
6.050472206592708062e+03
5.311038001066092875e+03
4.792556447947649758e+03
4.212881508511491120e+03
3.977732420494427060e+03
3.326114719804787910e+03
3.029847285402873240e+03
2.855624914509366135e+03
2.509189846991005652e+03
1.838199993477579937e+03
1.155570657460953043e+03
4.160976832057309025e+02
-2.605542975785853628e+02
-1.075768298160400718e+03
-1.857794701270571522e+03
-2.234113284993351499e+03
-2.790052699210307310e+03
-3.148969939116660044e+03
-3.862229705982287214e+03
-4.058202161130864624e+03
-4.386262879982340564e+03
-5.058842231991661720e+03
-5.215379588930826685e+03
-5.631278696204654807e+03
-5.948014157043845444e+03
-5.991001678886275840e+03
-6.238702579791560311e+03
-6.563592182752804547e+03
-6.676214128410786543e+03
-6.887040020053656008e+03
-6.842471421850432307e+03
-6.735981021858608983e+03
-6.848125450395306871e+03
-7.078432916548191315e+03
-6.888398088182601896e+03
-7.207465999233883849e+03
-7.181121790121705999e+03
-6.942891534345380023e+03
-7.052332994860224971e+03
-7.939945349498088945e+03
-9.792293201100443184e+03
-1.246690045248732895e+04
-1.314725789831183465e+04
-1.125083065904474824e+04
-1.058810034540647212e+04
-9.307637952809558556e+03
-1.023595606530125951e+04
-1.185555064100939671e+04
-1.346187497595179957e+04
-1.228743945247817464e+04
-1.356677376540006298e+04
-1.390840200645152800e+04
-1.421078588128208685e+04
-1.397519919296709122e+04
-1.390822123117956289e+04
-1.398733913717174255e+04
-1.396003084284692704e+04
-1.381271233872216726e+04
-1.144984341140232391e+04
-1.244275081335912000e+04
-1.454483184460793382e+04
-1.435055289157876905e+04
-1.032127597101697756e+04
-8.808382638597828191e+03
-8.892254464602179723e+03
-8.866232553340498271e+03
-8.692627950004040031e+03
-8.778806712131547101e+03
-9.249101330907229567e+03
-9.247807066462730290e+03
-9.728202071105450159e+03
-1.006658984263689308e+04
-1.020817841997186770e+04
-9.813253307273767859e+03
-9.176020817542699660e+03
-8.682739057493647124e+03
-8.301582170655619848e+03
-8.168744125945881933e+03
-8.067463484983390117e+03
-7.500869845082035681e+03
-7.083088016259922369e+03
-6.067232808806405046e+03
-5.231448973939520329e+03
-4.835880258281662464e+03
-4.288591225929176289e+03
-3.860619913308986725e+03
-3.474067372499215253e+03
-2.659012217781879372e+03
-1.897452464215144346e+03
-1.195355889640695978e+03
-5.486588856573761177e+02
5.061841091318126473e+01
2.124609446897955820e+02
6.549170462707216984e+02
1.090052084120124391e+03
1.732905479127597346e+03
2.339556349817437422e+03
2.712150258341385324e+03
3.312833377482717879e+03
3.892704045315987514e+03
4.593833563616447464e+03
5.213412212891230411e+03
5.916655848655498630e+03
6.607686704999709946e+03
6.783912480333481653e+03
7.252335263954479160e+03
7.788718064618055905e+03
8.207560885774686540e+03
8.286330877410875473e+03
8.634667986834350813e+03
8.840511710880469764e+03
8.898665883239735194e+03
8.748405455854010143e+03
9.164382950365828947e+03
9.624770933130785124e+03
1.005591309217194430e+04
1.028897184687232038e+04
1.027502152363518326e+04
1.018445827426340293e+04
9.579553698867150160e+03
9.406651105613449545e+03
9.440087884907057742e+03
9.336230128792376490e+03
9.284332608735327085e+03
9.194754126237825403e+03
8.957782984995326842e+03
8.784752877363009247e+03
9.026992625480057541e+03
8.855865172730129416e+03
8.697677087421812757e+03
8.629711444009688421e+03
8.488290853229078493e+03
8.238746450199536412e+03
8.137448202893157031e+03
7.983751616553855456e+03
7.254955780131347638e+03
6.768329819476127341e+03
6.904216361060537565e+03
6.485955801117084775e+03
6.224860670464434406e+03
6.181252441604581691e+03
5.734454980769178292e+03
5.269715343307478179e+03
4.980311928381471262e+03
4.725507522095905188e+03
4.266609899148318618e+03
3.835982096298138913e+03
3.740897441691001859e+03
3.402454007669876773e+03
3.255719254367935264e+03
3.140738099843895725e+03
2.848593642993279445e+03
2.727428991396954189e+03
2.705572004236594239e+03
2.185516186371848107e+03
1.876659694355351121e+03
1.668288749416456994e+03
1.599666867427573834e+03
1.322008692133677641e+03
1.154527037951140755e+03
8.433843374113496338e+02
5.847381466457682109e+02
6.347849611362253199e+02
8.273258932659292952e+01
-5.690950781740648381e+02
-3.752857018850448867e+02
-7.584238877004490860e+02
-7.811688241916173183e+02
-8.861564735558490611e+02
-1.138079605486716673e+03
-1.493489672299718904e+03
-1.571238807290949126e+03
-1.623384952260899126e+03
-1.854929878346930764e+03
-1.942949374664159450e+03
-2.034390629097507599e+03
-2.689293431175391561e+03
-4.642737252557524698e+03
-3.972310103789830919e+03
-2.705771716374264543e+03
-2.951052913015927970e+03
-3.041440474745877509e+03
-3.226736952524203843e+03
-3.059558198846850246e+03
-3.149196674729155802e+03
-2.871884940829878815e+03
-3.073523900943984700e+03
-3.185226967485973091e+03
-3.027133548481958314e+03
-2.967302425341116759e+03
-4.705975633775809001e+03
-3.831496766804201343e+03
-2.633834630736271720e+03
-3.034478856178442129e+03
-2.961611480669521370e+03
-2.664967938931886238e+03
-2.721406610960062608e+03
-2.651234657763206087e+03
-2.708006661920976967e+03
-2.802960454264810323e+03
-3.222097845287260043e+03
-3.120331166207194201e+03
-2.866911949748449388e+03
-2.705158529423049458e+03
-2.647094115847884950e+03
-2.591980188483279562e+03
-2.613996803740087216e+03
-2.967328374987660027e+03
-2.765244435884092127e+03
-2.656830067583355685e+03
-2.753504051305515077e+03
-2.483781150494458416e+03
-2.545330104399659831e+03
-2.662367210576484922e+03
-2.444252230270999462e+03
-2.228498153983704015e+03
-1.933060167030888806e+03
-2.052143075377605328e+03
-1.987847786834043973e+03
-1.773373312722134870e+03
-1.779811459278313350e+03
-1.829235803782987887e+03
-1.662792785557350044e+03
-1.850613529403991151e+03
-1.743734578195426366e+03
-1.461262041553282870e+03
-1.128319303656789316e+03
-1.371007798040652915e+03
-1.286414463593890332e+03
-1.175546488049958043e+03
-1.173494393033189453e+03
-7.893145363837652440e+02
-4.640831655285419401e+02
-7.188692532800337176e+02
-5.327900277558454718e+02
-2.588419540081271748e+02
-3.550973523162253400e+02
-3.936541304262720473e+02
-2.095657421536462834e+02
-4.568817361406581767e+02
-2.862594696733480305e+03
-3.945631541168439526e+03
-3.095351169172951813e+03
-1.668781007494428195e+03
2.240962790046357895e+02
2.452563960392000411e+02
-1.374385843567038364e+03
-1.020867797989382893e+03
8.997679581495820003e+02
1.194477480290051062e+03
-6.974315845211944520e+01
-1.307941531988590441e+03
7.138530879310715136e+02
-8.543602722465327588e+02
-2.194630214990086188e+03
-9.949840293595968888e+02
1.237556555900282092e+03
1.347998378544004936e+03
1.212331978668392139e+03
1.193544264586509144e+03
-8.023807103457794483e+02
3.655304652666587231e+02
1.400340888477212729e+03
1.623016676708436080e+03
1.641537573814929146e+03
-3.750750257379467598e+02
-2.808025612339878876e+02
2.573742766118426744e+02
1.110496284019400264e+03
1.377590259980475821e+03
2.108665063717320209e+03
1.850765535138252517e+03
1.799895603835288966e+03
1.811080410950960868e+03
1.881311501109329811e+03
1.781635827141822574e+03
1.786048159683324684e+03
1.804571909715227548e+03
1.510250218052458877e+03
1.692088060458649579e+03
1.786147234877252004e+03
1.855448781697529284e+03
1.685978363370290253e+03
1.656770149723232862e+03
1.534885376974425071e+03
1.506336549925079680e+03
1.859165035402937519e+03
2.167388300194125350e+03
1.966029207443679070e+03
1.931137618146607110e+03
1.802773283849888003e+03
1.864958012180803507e+03
1.938754911425583032e+03
1.954120485257425116e+03
1.603042862435374445e+03
1.764654650771178694e+03
1.675292012378021127e+03
1.682115230279640400e+03
1.553296828947139829e+03
1.578762049904536298e+03
1.521383282405228101e+03
1.205285073561062291e+03
1.124421723674868190e+03
9.680575728981955308e+02
8.693157585931346603e+02
7.252158610406927437e+02
5.396982843681226996e+02
-4.668681500661468817e+02
-1.537498040410950580e+03
4.274626690956135917e+02
5.829766638407817254e+02
5.965452766837274794e+02
5.630890897311430763e+02
6.003194338677947144e+02
3.004853652382462883e+02
3.626065126690644433e+02
2.649353652995015977e+02
2.026632366375816048e+02
2.237401994725372845e+02
3.080451104110254619e+02
2.004174710943421758e+02
-1.094739228117677854e+01
-6.691460215530445055e+01
-2.954242215548369899e+01
-7.581447700028375891e+01
6.937135185727264286e+01
3.670220339043069089e+02
3.282298595675055708e+02
1.730332153118404506e+02
-2.520228470129799447e+00
3.858630564445429201e+01
2.335627949549888172e+01
-5.617336495964556775e+01
2.306923232152257697e+01
-2.828797796716638118e+02
-3.529457728836571277e+02
-5.171619457762562888e+02
-6.504795661546872907e+02
-4.279210350600208130e+02
-8.134388517436615302e+02
-1.152968718958702993e+03
-1.110478581063583761e+03
-1.052906023782529928e+03
-1.264243650527904038e+03
-1.136480326762846516e+03
-1.128590944657697491e+03
-9.255580752254454637e+02
-8.793594362310119550e+02
-1.311932593370808945e+03
-1.286222174327500170e+03
-1.134203394188667289e+03
-1.373868055543830451e+03
-1.499215968949853732e+03
-1.470200180575992135e+03
-1.146784432277479709e+03
-9.609508651942733195e+02
-1.457656703287040045e+03
-1.397907428350230703e+03
-1.248665902674212248e+03
-1.230906933421461190e+03
-1.066651158093505046e+03
-2.164808383525570662e+03
-4.207361837140655553e+03
-6.282298574876194834e+03
-5.955593615305356252e+03
-3.949183356699120395e+03
-4.510068329654076479e+03
-5.414240917202205310e+03
-5.431652627505887722e+03
-2.555178590204361626e+03
-6.978836110353013282e+02
-1.887371229925495300e+02
-1.977256450940205923e+02
-6.585562074431784652e+01
1.739354408343881744e+02
1.146877496928822922e+02
2.104208340887741713e+02
1.611396244656771728e+02
3.308731658975373193e+02
5.206537795942313096e+02
7.714871831841539915e+02
8.314015420928868707e+02
8.454320241810083871e+02
1.007564890532712980e+03
1.312761131482619703e+03
1.535060334541929478e+03
1.820488106770689001e+03
1.707038815752526716e+03
1.889719884125318231e+03
2.171552366344656548e+03
2.478522750442650249e+03
2.854638662442529039e+03
2.849943161637968387e+03
2.991441855067359938e+03
3.034083710403175701e+03
2.789893540440200923e+03
2.912857782438828053e+03
3.002948449346821690e+03
3.068236676545265709e+03
3.146705538442962734e+03
3.145342554248403303e+03
2.787081359692792830e+03
2.612939128361696476e+03
2.880940412471215495e+03
2.945029268246040829e+03
3.142200514654462495e+03
3.058431244776300446e+03
2.999688132450005924e+03
2.785977041677199395e+03
2.754264836535184713e+03
3.049495741262287083e+03
2.788706463078746310e+03
2.504862715743949138e+03
2.543902236844632171e+03
2.883803036365559365e+03
3.024570925782710674e+03
2.966117487826601064e+03
2.784450504872479542e+03
2.881520865984730335e+03
2.885245478855740657e+03
2.530607657154744174e+03
2.374644640338073259e+03
2.533267307777393398e+03
2.273511391334232940e+03
2.241279476266433448e+03
1.530522730395592362e+03
1.850179573999375862e+03
2.101211457861547842e+03
2.009565225973774886e+03
2.121182241679363869e+03
1.931013219549585301e+03
2.028024523877889578e+03
1.739212550508703089e+03
3.015291405940275808e+02
-2.150965884756135438e+03
-4.356506925701022737e+03
-4.374195310117834197e+03
-2.844003842351639378e+03
1.709024012712172180e+03
2.577847082497565225e+03
-1.466527287729129512e+02
-3.711505337152594620e+03
-3.772760787572404297e+03
-3.488463207711373798e+03
-3.138680330661590688e+03
-1.546493609951629423e+03
-3.209674705528574350e+02
-1.823996290060123783e+03
-1.298850954079270650e+03
-3.151607769054480286e+03
-3.608200003290053701e+03
-3.693718278721016759e+03
-2.277264885058373238e+03
3.301549602008728925e+02
-1.425530393068783724e+03
-3.567362036616661499e+03
-3.768384073715961676e+03
-3.852608425131524200e+03
-3.780121846987064146e+03
-3.789005207114119003e+03
-3.769345009206295344e+03
-3.933145942384237060e+03
-3.851473151922453781e+03
-3.725339742061866218e+03
-3.585800938303897055e+03
-1.545942010449146437e+03
-6.577870354995311573e+02
-2.269350600353726804e+03
-1.908736039587911137e+03
-1.677952127396958076e+03
-7.770394500385669971e+02
-2.950626885090258043e+02
1.357934929469752205e+03
1.479901089187466141e+03
1.799818182127704631e+03
1.497617094622923105e+03
1.501253436807584876e+03
2.018740932911156278e+03
1.899033841307204284e+03
1.594074597968791977e+03
1.780881367586237502e+03
1.921400132583708228e+03
1.774574106391419946e+03
1.478368519318373728e+03
1.015794491039019704e+03
8.618450632267471292e+02
7.024809988801100644e+02
1.024694350847742044e+03
9.924287516362013548e+02
1.080653272296616251e+03
7.094037481700805756e+02
7.736457781228551767e+02
6.503482621415421363e+02
4.684983148588025301e+02
1.731211182073232351e+02
8.414705172249665566e+01
-2.656610155751994640e+01
4.549057553902547113e+01
-3.256980513228352834e+02
-1.184920223412275249e+02
2.835236226527682746e+01
-5.741432456599028455e+01
-3.178736049103774235e+02
-2.276750694909014499e+02
6.892084468571378864e+01
-8.687754143777591764e+01
-2.941107221178295958e+02
-2.709361723421953343e+02
-2.401255671791763859e+02
-1.857618722773192133e+02
-3.757788693791614492e+02
-5.120990158367604863e+02
-4.218484652516335700e+02
-5.669882799725089626e+02
-7.253368610743486897e+02
-7.601426093828356443e+02
-1.020390591761759993e+03
-1.265793576716310781e+03
-1.095431956423682323e+03
-9.805315945468653354e+02
