7.915125881750303733e+02
1.206332257160815743e+03
9.175786731257020392e+02
6.431789851158820284e+02
6.281563034665186933e+02
4.734624262787085627e+02
2.901343103478033072e+02
-2.371159036757883598e+01
-3.150902330865405929e+02
-3.940620397451407939e+02
-1.256326752634946473e+02
1.851204448272441425e+02
2.541028113366199079e+02
1.113472506863029707e+02
2.048702479245590666e+02
4.057338518427538929e+02
-4.901588035936797638e+01
-3.694859233391449607e+02
-5.996609628608647427e+02
-6.784523038200786687e+02
-6.538424617931663079e+02
-6.858391021329217665e+02
-1.096584383676334255e+03
-1.577142422735986656e+03
-2.007481828704203508e+03
-1.796549424784869871e+03
-2.129301755747885636e+03
-1.726688602207440908e+03
3.717889651099304871e+01
2.055208160679097091e+03
2.116427187001526818e+03
1.354875167546764260e+03
7.305489960077388787e+02
6.823951591579833575e+02
1.135439532395145761e+03
1.044629870253906802e+03
1.102922375834941477e+03
7.273727354553591340e+02
5.470438302393338290e+02
-4.849348795034022714e+02
4.612772066782447951e+02
8.205504262830588686e+02
2.789780786891384992e+02
-1.569471806537609837e+03
4.259897660175811893e+02
8.461982834391809547e+02
5.893745314121736101e+02
-3.598820900390291655e+01
-3.040102588424025498e+02
3.080403536198253391e+02
2.640366000852886259e+02
4.106781219357609416e+02
7.822733514055262276e+02
1.034971013255074013e+03
1.473165892959772009e+03
1.435972452790162379e+03
1.288612199275769854e+03
8.590986075219849454e+02
5.044564391253275630e+02
6.135576240047967076e+02
8.321723146042565986e+02
7.335817879798390777e+02
1.006819806339511047e+03
1.537949444213733841e+03
1.358705806868220861e+03
7.851668314713228938e+02
6.364894813937894469e+02
5.595213814436706343e+02
1.574104954565248136e+02
1.199568414485039725e+01
2.969101359702134459e+02
9.331856725688977576e+02
1.019684317551428308e+03
1.023479391698701306e+03
1.491528790195803822e+03
1.471803909046404669e+03
1.408193613797512626e+03
1.325576148604002810e+03
1.443033509955579575e+03
2.225616020000092249e+03
2.395201552670539968e+03
2.424845160966479853e+03
2.486631921726324435e+03
2.346515962929780926e+03
2.104402684051870438e+03
1.567344544761426050e+03
1.238355864986380539e+03
1.341317871984142585e+03
1.221037407225441711e+03
1.172523797925587132e+03
8.660159486624130523e+02
6.285032960545772767e+02
4.088840687095683961e+02
5.672216667627662900e+02
2.064762800179893532e+02
1.496303732860874902e+02
-1.460364433299761458e+03
-4.775743176421780845e+03
-6.204480681727617593e+03
-5.526324471392149462e+03
-1.972164734778888260e+03
-4.017988603202390095e+03
-4.744957216062245607e+03
-3.978164873140885902e+03
-3.802373719109319609e+03
-3.951486187504426653e+03
-4.677686380390612612e+03
-4.278046548010104743e+03
-3.936561418138038789e+03
-4.170167575091759318e+03
-4.515811234049581799e+03
-4.829545630467204319e+03
-2.766310921389260329e+03
-3.117044044612378002e+03
-4.727826006230560779e+03
-4.704635174054353229e+03
-1.457360852378744539e+03
2.080814347827917175e+02
-5.643477274563928177e+02
-5.396726515449270664e+03
-7.371927667048489639e+03
-5.051943773740118559e+03
-1.673809058381880959e+03
-3.494756800259098668e+02
2.057140416214398101e+03
2.193010218286110103e+03
3.071221767310580162e+03
3.201799110732498775e+03
2.471820163370884984e+03
2.147181470886214356e+03
2.088957079266341680e+03
2.679190163139197466e+03
3.459828274632340708e+03
3.562896574915073870e+03
3.631451329713269388e+03
3.668540897585197399e+03
3.559224303513239647e+03
3.388604731309507315e+03
3.432769530455442236e+03
3.407791840015194339e+03
3.334651297668579900e+03
3.191316104114214795e+03
2.977802315115061901e+03
2.733185302264762413e+03
2.375464082575912471e+03
2.504741748644730706e+03
2.364025228150990642e+03
2.029313426314561411e+03
1.588671638914525374e+03
9.021875716941716519e+02
7.138764983695274395e+02
4.647187027974333660e+02
4.286466131173868348e+02
7.087837353525236495e+02
9.181763960417750923e+02
7.468446169309357856e+02
6.899575904502734147e+02
7.915193440161383478e+02
7.695369040089975670e+02
1.359066221340612628e+03
1.590280717939778242e+03
1.184440876550480652e+03
7.464496657871310390e+02
4.642682270809693250e+02
5.328356323050825267e+02
7.311840412708148733e+02
4.974355716572834467e+02
-5.394950718278255408e+02
-8.066509620230665405e+02
-9.078048820461252433e+01
-5.107669823403251712e+02
-2.766040347884016910e+02
-7.868569085856404399e+02
-1.137371234495953786e+03
-8.427889740953803539e+02
-7.903962439386815504e+02
-7.492110276721643913e+02
-5.779089604559011377e+02
-2.794868636803343520e+02
5.199869424135790723e+02
1.503532215064987440e+03
1.505176798167596871e+03
8.948348733338996226e+02
4.814969523705026404e+02
2.492934465648859259e+02
-3.688187281384884386e+02
-1.202891494171665272e+03
-1.807902548330550189e+03
-2.552740484797534918e+03
-3.027396327850439320e+03
-3.390884887244727452e+03
-3.282276407164239117e+03
-2.201585952757900031e+03
-8.547281949489259887e+02
-7.816785574708858348e+02
-1.520388095551837296e+03
-1.808784098331595487e+03
-1.900881423778974977e+03
-1.340680499934464706e+03
-7.671549433627486678e+02
9.657867235498859770e+01
1.310536126323959479e+03
2.226652503542549312e+03
2.617994074185243790e+03
1.799612428643842804e+03
1.206328021975971069e+03
8.301725915475186639e+02
3.971978179067019710e+02
1.782754134077515289e+02
4.234067606186047783e+02
3.706614324678816956e+02
1.739828686077783573e+02
-2.816468715649927503e+02
-2.082349275522978473e+02
-1.738017272726626175e+02
-3.692701481841227746e+02
-1.467567226950900476e+02
1.747188611481994656e+02
5.982813807327183895e+02
6.129134236566264917e+02
3.925117060483656246e+02
-1.609591325269996958e+02
-2.028592459134439878e+03
-5.020381911777837558e+03
-3.182414576989433044e+03
-1.837528016573884031e+02
1.236033597155855119e+02
1.686515389976168819e+02
3.983315669048476479e+02
4.585876179544217734e+02
-2.465927569812098170e+02
-1.011259043499062614e+03
-1.651260243233069787e+03
-2.283775263918132168e+03
-1.778662560388286806e+02
1.309519127312627461e+03
1.299291334796116189e+03
4.955012016733408586e+02
4.840852960474596216e+02
9.789792708893515965e+02
8.531303158665806450e+02
7.534340150704632606e+02
9.128917338787877043e+02
4.575373225739936629e+02
6.123643019911802412e+02
1.018340674144327295e+03
7.663544400353342780e+02
4.193572767490716160e+02
2.082366239407082560e+02
2.800272371822915147e+02
-2.528290595119057826e+01
2.073479915629185655e+02
5.288077285685775450e+02
3.450167384022341821e+02
5.739108908996645368e+02
6.624498658928014265e+02
-3.193552175033357798e+02
-7.645744624194173866e+02
7.379315112186942827e+01
3.357923874152168082e+02
3.773449113478693562e+02
3.703547978341161411e+02
1.928275665456046113e+02
6.886774448999791503e+02
1.640894293693878353e+03
2.346499281972295194e+03
2.885438035193086762e+03
3.098650777804145036e+03
2.217191969752350360e+03
1.856054584533154184e+03
1.157147586336147697e+03
7.723735444155842060e+02
1.248619993929085695e+03
9.669825927352272856e+02
7.285054095404123018e+02
1.457147741235474086e+03
2.235927842971302198e+03
3.385767378809972797e+03
3.607570723186669511e+03
2.539352416190987697e+03
1.594189768026904630e+03
1.175033825692919436e+03
1.495841918340192478e+03
2.281626152105411620e+03
2.370338564354582559e+03
1.665782779337813508e+03
1.352910438973899318e+03
1.449845655654431994e+03
2.530648187807090380e+03
3.025329183080122675e+03
2.825879883353438800e+03
2.706228379451841192e+03
2.998432270298049389e+03
2.866446739203168363e+03
2.456293570293424636e+03
1.308979994707521200e+03
-2.883827060148144596e+02
-3.175024699297692678e+03
-4.430917556703593618e+03
-4.676942691392331653e+03
-4.840971105242086196e+03
-4.487333929292793982e+03
-4.837947842530403250e+03
-3.886755357184998502e+03
-3.598674631474056241e+03
-4.097690035093285587e+03
-4.564803259673618413e+03
-4.800956956732154140e+03
-3.222237404483057617e+03
3.914460237102142628e+02
-2.931900211402534296e+03
-4.082370648553244337e+03
-1.548916748375374254e+03
-2.723480400412287963e+03
-4.900991815483088430e+03
-4.433423481153648027e+03
-4.466880389324363023e+03
-4.655338962353882380e+03
-4.457656878869421234e+03
-4.334815893186155336e+03
-4.409885643587605045e+03
-4.283859660255850940e+03
-4.939726705612478327e+03
-5.605429453266325254e+03
-4.375921774450877820e+03
-3.581181621559926043e+03
-2.807196676204351206e+03
6.859541239086817086e+02
1.295300459489696777e+03
1.218894178379858658e+03
6.617417334700137417e+02
-5.611367287759935607e+02
-4.472016972148473002e+01
1.909443996786455386e+02
1.381922225359936419e+03
1.997223048567288515e+03
1.825863396892046921e+03
2.895906752895739828e+03
4.023329041136784781e+03
4.574124870007691243e+03
3.464316215598505551e+03
3.104997732658953737e+03
3.668266608370824088e+03
3.628109117006160886e+03
3.183422103262258588e+03
2.230191194072764574e+03
1.953381305446907618e+03
2.166039750293694397e+03
2.545177017715473539e+03
3.186957347058329560e+03
3.067468728256109443e+03
2.583859300555822756e+03
1.800064244769650031e+03
1.064268483279538259e+03
4.167589679279270740e+02
2.444834637888463362e+02
8.563500420712529149e+02
2.048028825695090745e+03
2.149869014740071634e+03
1.199920390951680929e+03
1.520068195928840623e+03
2.069493325549383371e+03
1.945432890296892765e+03
1.849676078480647675e+03
2.109097499570041691e+03
2.233850438373564430e+03
1.737069847203770451e+03
7.187936421347974374e+02
-2.089627943849750409e+02
-8.643498490387437414e+02
-1.576141848121605790e+03
-1.633216218225180910e+03
-1.197664847665092339e+03
-9.987355010301455422e+02
-8.123756475189589992e+02
-5.974069889125194095e+02
1.016776595752655226e+02
1.618573861397738654e+02
-5.937828930285329676e+01
-1.601825135609850861e+02
-1.915457749161827792e+02
-4.805647962775851738e+02
6.249854956090747464e+02
9.120849698365553877e+02
1.052705663319726682e+03
7.838936821576437524e+02
5.336518588060321235e+02
5.310322460462270300e+01
-5.187066782014516093e+02
-6.308555491308106866e+02
-6.762716827212498174e+02
-8.278524361620635545e+02
-5.767279614738177997e+02
-3.728868665783816141e+02
-3.981359265369588911e+02
-2.916088678005307315e+02
-3.274062391974466664e+02
6.074273492249980677e+01
2.593628620902603288e+01
-7.592209656065118395e+01
1.281079165368719828e+02
1.050038253683316952e+03
8.798525989878174869e+02
-9.751178441980880507e+01
-5.800660418738477802e+02
-2.176135053677159021e+02
5.659793224048072489e+02
8.547012825049610001e+02
-2.053606680806219487e+01
-6.878133217689658068e+02
-1.121977881387388152e+03
-1.784014216034883248e+03
-1.809981238878023078e+03
-1.518874740442978464e+03
-1.340669169301568445e+03
-1.712345328905532369e+03
-1.972870748224204135e+03
-1.325104705084721445e+03
-7.039702374530472753e+02
-7.395452716156147517e+02
-9.798805385766443123e+02
-9.699629744513412106e+02
-1.938428348585426590e+02
-1.290515326203370478e+03
-4.151847639086248819e+03
-4.184882372891490377e+03
-3.225699892542599173e+03
-1.457122462102927329e+03
-4.372266933228122980e+03
-3.407127310927457529e+03
-1.133715708412639742e+03
-2.198040948600089450e+03
-4.325101626067314101e+03
-2.898924819642798866e+03
-1.848482147352984612e+03
-1.843777265271922715e+03
-1.395860119458112649e+03
-7.858057308929583087e+02
-8.365501326742784158e+02
-1.069026993564156783e+03
-7.713198821574911790e+02
-8.275450094693345591e+02
-9.956475027799601776e+02
-7.706429699658368691e+02
2.264081194785741786e+02
9.385101494757994942e+02
7.726196071111651236e+02
1.727047555346378545e+02
-5.262942469175233100e+02
-1.070511557589775293e+03
-1.097037374184787268e+03
-1.127861572720021513e+03
-1.058890401531141151e+03
-1.351178116516520959e+03
-1.320819556548714672e+03
-7.508941266764439888e+02
-4.974237620452764759e+02
-3.774739738932543673e+02
-1.309187276964622924e+03
-1.984601768359132393e+03
-1.397676715863515938e+03
-6.323185914612631677e+02
-2.458554526927632011e+01
5.794845480639329480e+02
7.481058770587914353e+01
-9.159801024079590093e+01
2.220152843652802233e+01
-1.758661156499164235e+02
-5.438375507637507553e+02
-7.767929148075219246e+02
-3.508455468027151483e+02
-5.096230194551723258e+01
-8.481340755279115911e+02
-1.356455804569421389e+03
-1.065865970053789169e+03
-3.974743042473202195e+02
8.475994644491788677e+02
1.700315636769443472e+03
1.404637280022674759e+03
1.690628063201968871e+03
1.681409848386019576e+03
1.251557936876064332e+03
1.677279589575477075e+03
2.289443159120715336e+03
1.828788491559171916e+03
1.151253465814919764e+03
8.828430411253854118e+02
3.126816137577884547e+02
7.477216485178547600e+02
5.798618658466740499e+02
1.610077118840557020e+01
-3.198726818347283256e+02
2.272076644880841201e+01
7.531559118430774333e+02
1.156500672669910955e+03
1.191537464197812142e+03
1.061187873476683762e+03
1.033575610131605799e+03
1.255588630471867418e+03
1.440103312326783453e+03
1.912164882814768816e+03
2.349693020106504264e+03
1.826536677345385442e+03
1.324775363774950847e+03
7.834195892098791774e+02
9.774015566507684980e+02
7.236167606302168451e+02
1.114958397796974168e+03
1.732298712631543822e+03
1.277563394838119621e+03
5.238055430323718156e+02
3.360111080644907702e+02
1.461096473644280138e+02
-1.285015736033439815e+01
3.520824206469520732e+02
1.210704665974352793e+03
1.611976478046660304e+03
1.477869574619434843e+03
1.700383785679495986e+03
1.130470481822847660e+03
4.950121943986982842e+02
3.869112381084916024e+02
9.315800233544094056e+01
-2.932755102522832544e+02
5.875487406418820910e+02
1.846699537744128065e+03
2.317111624379284876e+03
2.176817803952316353e+03
9.057480192993178889e+02
2.597414323235293523e+02
4.807991111578946288e+02
5.509121923796270721e+02
1.395995314730770815e+03
1.797023661892515747e+03
1.173913107317516733e+03
3.926579476260799311e+02
6.073363072720678701e+02
3.749418844010475595e+02
4.264350176539515473e+02
2.947060613869402914e+02
5.226704180766604395e+02
4.240732051611609421e+01
-2.289941772522061285e+02
-5.116277775884945527e+02
-9.005585832974186360e+02
-1.160880518548414329e+03
-9.465662258405326384e+02
-9.856808067298128435e+02
-6.642362609454788753e+02
-6.662608761609610610e+02
-8.338671888952012523e+02
-7.590058874601382968e+02
-1.435438319471193154e+02
-4.582652757095273728e+02
-9.188993960533330210e+02
-8.436214930149168367e+02
-7.297893098993959029e+02
-1.069593834094102021e+03
-1.783658404981795684e+03
-2.702754649767161936e+03
-3.352940391887178976e+03
-3.814270572877009727e+03
-3.509742465621045540e+03
-3.081316553455633311e+03
-3.726994592668067526e+03
-3.065973264307603131e+03
-2.339441485635859863e+03
-2.672812494900271304e+03
-3.091024014562029151e+03
-3.162547080470107630e+03
-2.877231269485119810e+03
-2.378560407067797769e+03
-3.041976061841212413e+03
-3.651584688639902197e+03
-2.969001798818278530e+03
-1.642282819219729163e+03
-8.154188523610395123e+02
-7.032895400407763873e+02
-1.265008207282763124e+03
-1.082407330737468101e+03
-4.313277831344520905e+02
-2.487537782849061685e+01
5.770053371802418951e+02
3.833684495968113310e+02
7.801636326776514352e+02
1.198515383770116159e+03
1.408368353296332316e+03
2.232809272950611557e+03
2.767951001170858945e+03
2.343649908534090173e+03
2.343029184567606990e+03
2.346061997660727229e+03
3.115865777318089386e+03
4.112650209570581865e+03
4.537328460477347107e+03
4.671951509318310855e+03
4.533665034025185378e+03
5.181685182902819179e+03
6.613046716272504455e+03
7.998800902618828331e+03
8.363135972955129546e+03
7.986126502130809968e+03
6.643881015922635015e+03
4.840418899514420445e+03
2.219790521632418404e+03
7.461009456879021400e+02
1.004262277895747388e+02
3.649314248133715637e+02
-4.232489531231794899e+02
-1.215936062127621426e+03
-1.165033666063309056e+03
-8.494280370194164789e+02
1.029443852850812959e+02
6.129984550759289164e+00
-1.594805420543128321e+03
-2.275708863531848692e+03
-3.563319186654341138e+03
-3.533623280404810430e+03
-7.805251147186129401e+02
-1.520864165098821331e+03
-3.502490066604928415e+03
-4.185301978385921757e+03
-4.141147464308811323e+03
-4.151838037483600601e+03
-4.406178870420504609e+03
-4.362077959964664842e+03
-3.885373600254180928e+03
-3.591896121089751887e+03
-3.305693541588032076e+03
-2.759701842469966323e+03
-2.722706497005734036e+03
-3.091539780895548574e+03
-1.960041378132480759e+03
1.137764398456674371e+03
2.335006700785856083e+03
3.438926944394702787e+03
3.082559002786866586e+03
2.700030808618192168e+03
2.994490800051296901e+03
3.777936145592970661e+03
3.368595797332552138e+03
2.125629018530039048e+03
5.422269835812628571e+02
2.355218964723144950e+02
1.028624139113263482e+03
1.035645535474959388e+03
1.158763929965056604e+03
2.531129023214173685e+03
2.088773363371413780e+03
1.220795351750108466e+03
2.562396647432118698e+03
2.295590654829072719e+03
1.203792648759988566e+02
9.608570484518000967e+02
3.148211152391172163e+03
4.208562173127018468e+03
4.391972227081881101e+03
4.387541093724852544e+03
4.477324708077342621e+03
3.168535953836741555e+03
8.143076180684980727e+02
2.266759713011258555e+02
7.997179500153549725e+02
1.656479481149023513e+03
1.177049315696346639e+03
-5.834018050660438348e+02
-3.597788671749235050e+02
2.000728942828754597e+01
-9.159477988950890222e+02
-2.098629577641189826e+03
-3.192996723376359114e+03
-4.584958792004783390e+03
-5.246371012786507890e+03
-4.425226816596439676e+03
-3.071556721185865626e+03
-2.699336571456175989e+03
-2.949503752509385322e+03
-2.749913718372149106e+03
-3.070509217863836056e+03
-3.938349577226077145e+03
-4.228333524835958087e+03
-4.539195529048212848e+03
-4.910891185692298677e+03
-3.991687752451823599e+03
-3.744703775922853765e+03
-4.161594681597366616e+03
-4.745629579945160913e+03
-4.803901381145617961e+03
-4.972231371058822333e+03
-5.465535646148223350e+03
-5.367773788914273609e+03
-4.923139745781956663e+03
-4.168660275517127047e+03
-3.627415023107595971e+03
-2.755473564109768631e+03
-1.210718641219172468e+03
-1.101753697986790144e+02
-6.926533625334353239e+00
6.670337630060918173e+02
1.169665622711148671e+03
1.323869659467802194e+03
1.595543425323067595e+03
1.825667325600398954e+03
2.072242587120318603e+03
2.448223844838826153e+03
2.703628349679001531e+03
2.836379138229376622e+03
2.372310334969594351e+03
2.593323235291921264e+03
2.932255862989889920e+03
2.647065810980891001e+03
2.442636860550594974e+03
2.567840433615639540e+03
2.850633628216434772e+03
2.369867953333283367e+03
1.700506875632803030e+03
1.565510081272406524e+03
1.863673128476131751e+03
1.999847784971997271e+03
2.300950846034006645e+03
1.900795373698004596e+03
2.276290579633825473e+03
3.082239755591891935e+03
3.343523290347500733e+03
3.591004265108929303e+03
2.993564380333961253e+03
1.758094719587139934e+03
1.282417195672659545e+03
1.185397122060716356e+03
8.239865890464864151e+02
2.155000127755124140e+03
3.204207556578322055e+03
3.114384179371083974e+03
2.834298764590401788e+03
2.153832617374668644e+03
1.067968855784713014e+03
1.774838654368783466e+02
-1.116781153067841842e+03
3.109019396803965265e+03
4.852666124844275146e+03
3.815029838904507869e+03
2.585031200068672206e+03
1.685528365055788299e+03
2.156313721362621436e+03
2.565137931759093590e+03
2.331025892162142100e+03
2.630852735930925974e+03
2.610503528653717694e+03
-4.939938265910799231e+01
-1.690279404266750021e+02
4.184315647008268115e+02
-4.682129100863195958e+02
-1.351079920023349587e+03
-5.562778029756340175e+02
-4.079503445798860071e+02
-9.612959778416951622e+02
-9.924699836361922962e+02
-7.916858270413716809e+02
-1.621141398887732521e+03
-1.494881416255379008e+03
-6.100064930684504816e+02
3.833248273340158221e+02
1.213871344704844432e+03
1.025524757892165326e+03
2.720871543244139730e+02
-8.606072137949055332e+02
-1.362624041923656250e+03
-1.002051578689704570e+03
-9.530514126832408692e+02
-8.057583909217179325e+02
-2.102878302589678583e+02
-1.667842420053570436e+02
-4.804470097261397541e+02
-8.093851399903105630e+02
-5.957070059433425513e+02
-5.745631420069184969e+02
-7.849946044092757802e+02
-1.098114743294933305e+03
-1.038055616230601117e+03
-7.518961379508458549e+02
-9.477542082282559477e+02
-9.517882368678642706e+02
-9.271365327399843181e+02
-3.808898904427224466e+02
6.394490009468729141e+01
-1.686052218255046000e+02
-7.536523727202152259e+02
-1.150358565723630591e+03
-1.234755171602427936e+03
-9.380020406419168921e+02
-6.111323778120339512e+02
-6.881387405383555915e+02
-8.251122442037603832e+02
-8.542047606548995873e+02
-6.854076028330503050e+02
-8.717650386378863914e+02
-1.307247433539833992e+03
-1.041949224014937045e+03
-7.389087282254655520e+01
3.959173689293487541e+02
7.674480578946788683e+02
1.436689619747017105e+03
2.518614597323069574e+03
2.427201568149065224e+03
2.366498461278264131e+03
2.536442269713786573e+03
7.639767269977272690e+02
-1.120890229131489377e+03
-2.631181198565175691e+03
-2.306006856361022983e+03
-9.203102566717337396e+00
1.675248016306042473e+03
-4.616826373033680966e+02
-6.056999034862215922e+03
-7.218598971387989877e+03
-6.269398292314210266e+03
-4.424379271379192687e+03
-3.553510857443908662e+03
-3.484741538144032802e+03
-3.111050128463593865e+03
-2.703407212265554790e+03
-3.029715094346728620e+03
-3.403045626019037627e+03
-3.477378411588269955e+03
-1.175553815915652649e+03
-1.053504682524861892e+03
-3.127230733648461865e+03
-2.776620264957981021e+02
-7.507230073902957201e+02
-3.924273314401293192e+03
-3.094254526883799372e+03
-2.931691756776716375e+03
-3.200520870574439869e+03
-2.595686599234721143e+03
-3.884095358881165794e+03
-4.739627080852750623e+03
-4.418268442831854372e+03
-4.031977294492652163e+03
-3.667582923986300557e+03
-2.979012523507851256e+03
1.208091541630423364e+02
2.443978095431990369e+03
3.053624668018442662e+03
3.565823309861102189e+03
3.925570637662795434e+03
3.195012397463082834e+03
2.852330472680286221e+03
2.278580026706912577e+03
1.789853649195806611e+03
2.288194957045918727e+03
2.053656285153211229e+03
1.698389272400863319e+03
1.736520385734447700e+03
1.707180539389840078e+03
1.515403657971243774e+03
1.781222023087193975e+03
2.934712178810639671e+03
3.616094545352978457e+03
3.906506418261912586e+03
3.737101797774201714e+03
3.363157814269653954e+03
3.229932238313461767e+03
3.125335003648939619e+03
3.090645837691726229e+03
2.954956142300100964e+03
3.296294097973895987e+03
3.382705228550708398e+03
3.446996475625780931e+03
3.254440440693524579e+03
2.999237911325390996e+03
2.896620624415112161e+03
2.253789300899728005e+03
2.203793990939241212e+03
1.945846398019542448e+03
1.654821793107737903e+03
1.146724808120882471e+03
8.980996021911744265e+02
6.735455490560631233e+02
6.992857668651878384e+02
8.984710248784232363e+02
1.355185583995992374e+03
1.265507067248246813e+03
1.762698095211664850e+03
2.801860624256351912e+03
2.237746768628559494e+03
1.224321479041093880e+03
1.042559449304910686e+03
1.467461793696741779e+03
2.626089285808633122e+03
2.613547052184623226e+03
2.027851913399357500e+03
2.630192249637794248e+03
2.152619831919094850e+03
1.634468740913663851e+03
9.647917928022040996e+02
-6.577169799738314282e+01
-5.983920870555330112e+02
-8.838064770948050182e+02
-7.518028028803865936e+02
-4.992900825736813886e+02
-7.130664315525322081e+02
-1.384280850880122216e+03
-9.641055680478880276e+02
1.144220603019738007e+02
1.382477360041947350e+02
4.185485946746964032e+02
2.125395631934356061e+03
2.684634240392133961e+03
2.006394283621390059e+03
7.908713685920788521e+02
9.608724822715953451e+02
1.002258594760035066e+03
3.741041454667167727e+02
-7.551531466937626647e+01
-2.846028934735450093e+02
3.077914385890676385e+01
-8.021099591526451889e+01
-6.834010227085284441e+02
-6.809729326260255675e+02
-6.080113964133552145e+02
-8.405230188884638665e+02
-1.242425766896017649e+03
-1.507589466482493208e+03
-1.538181935164906008e+03
-1.650252084557240096e+03
-1.961686884293538924e+03
-2.313480402262193365e+03
-2.410624275962293268e+03
-1.927108672233993047e+03
-1.985008234523532565e+03
-2.173452589408978838e+03
-2.619489477374106173e+03
-3.618074712669949804e+03
-3.687172312794741629e+03
-3.251894291484602036e+03
-3.080231204695827273e+03
-4.029127066879013000e+03
-4.375604862673238131e+03
-1.682706495670941877e+03
-1.100457669048168327e+03
-9.470153543422250095e+02
-1.357355487116627728e+03
-1.784452839266584306e+03
-1.743283620314170776e+03
-2.683888986433963055e+03
-4.302324967379436202e+03
-1.685625902729374047e+03
-9.928055684295081846e+02
-1.261925305068880107e+03
-1.890048996409209394e+03
-3.018180784616643905e+03
-3.005434521223879528e+03
-3.132951739753258153e+03
-3.364704592521305585e+03
-3.352560307920151899e+03
-3.433584452610110020e+03
-3.833931281113837485e+03
-4.027656853824254540e+03
-3.816759471500754444e+03
-3.575277936911072629e+03
-3.612240670499354565e+03
-2.715655025813818611e+03
-1.626502717833840052e+03
-1.013797572192892062e+03
-4.875196872181692243e+02
-8.187171945932459494e+02
-1.014425743660523153e+03
-1.291621780503094215e+03
-1.426327660060541575e+03
-1.009547772184687915e+03
-1.245258060895899007e+03
-1.862446896880457871e+03
-1.595146797556357797e+03
-1.161412957065521368e+03
-6.592837468691047889e+02
5.572552368228356272e+02
1.369244233603344355e+03
1.681685345680453338e+03
1.368510370998560347e+03
1.449676205994531529e+03
1.140135733863993210e+03
7.239214970231935240e+02
6.901636084694708870e+02
8.909347168977075171e+02
1.250205513378633441e+03
1.830941456233674671e+03
2.175144150542462739e+03
2.336648236990279202e+03
2.061463780714633685e+03
1.511701233897113525e+03
1.193370360558767516e+03
1.593543887345862231e+03
1.796265856195034530e+03
1.753487286472268806e+03
1.218261561716748929e+03
6.262200925427042648e+02
6.914875183938316923e+02
7.752598581892108314e+02
7.595374606050027069e+02
4.023523137415516544e+02
-1.817394798111001364e+03
-7.926955641845240734e+02
4.605253163331459518e+02
2.259244503567537777e+03
1.583491469176568671e+03
1.384524257282096642e+03
1.413181953589283921e+03
8.263079735203674545e+02
3.571960085831935316e+02
3.317025750620041435e+02
6.477871024776616196e+02
8.116667427500080976e+02
1.103088266933933255e+03
1.094362248162948617e+03
5.693189185850702643e+02
3.959712219493693510e+02
8.212782867394968207e+02
1.079209158454293174e+03
8.727090764836035532e+02
6.827475616013654189e+02
4.465886131069848943e+02
2.422180924776530446e+02
-9.928974049715910155e+01
-3.050171236450011065e+02
-4.141106598723728212e+02
-6.035536813907942815e+02
-6.023719483287870844e+02
-1.695657661607109219e+02
9.391724592909568514e+01
3.410727168567290732e+02
2.909117912906828565e+02
1.843901146533771964e+02
1.904887580303163759e+02
-6.375995295502067250e+01
-2.253399490230395372e+02
-2.952924749728263123e+02
-8.066100189799519740e+02
-7.992682133000704425e+02
-6.482805164370613511e+02
-1.073648539472210814e+03
-1.073484718401995906e+03
-9.347947570923141711e+02
-7.745425705569521142e+02
-8.677893992515064383e+02
-4.745536466856096922e+02
-2.438458258811351129e+02
2.382991628979490883e+02
7.028412979884593597e+02
4.507649114084462099e+02
-2.339169497499148918e+02
-7.452125483100790007e+02
-1.059198824346185347e+03
-6.028836720529964168e+02
-3.832537994641414798e+02
-7.173443776723236169e+02
-6.992673291189396423e+02
-7.559928306934397142e+02
-8.585180592051547137e+02
-1.037875205597699960e+03
-7.942081708356757872e+02
1.685283410183434114e+02
1.098267395196021653e+03
1.249914913856241355e+03
1.390629767559449419e+03
1.491344658377360929e+03
6.392199033894120248e+02
7.982728021358706201e+02
7.950597802990782839e+02
6.754800792967740790e+02
2.367101378679416541e+02
2.692577114870419450e+02
5.639760735943596046e+02
2.775608533724386007e+02
-5.921555673596893854e+01
-2.274440766136049774e+02
1.387745836264580248e+02
6.737686183519048200e+02
8.705651460911365120e+02
8.499446753108039729e+02
6.428802442169343294e+02
7.572942806915734764e+02
8.279471767689351509e+02
3.488066091245431721e+02
2.612832897591314349e+02
6.459422685108479527e+02
8.398574345590517396e+02
7.712339073078687761e+02
7.207777117308551169e+02
1.526465794308641762e+03
1.983300698687831755e+03
2.084150008867436100e+03
1.917049109869715267e+03
1.434025263953990134e+03
7.992304004786543601e+02
1.048427557396351176e+03
1.470523377898844501e+03
8.944364914527324117e+02
8.629435527564880886e+02
1.465050356682162374e+03
1.751852307080776200e+03
1.464311575599261687e+03
1.621384870682843257e+03
1.913148098630889081e+03
2.003555758435507641e+03
1.955506038117472826e+03
1.985296696311524329e+03
1.758676703653064578e+03
1.678608485851159230e+03
1.598109592096292090e+03
1.509114414185229862e+03
1.264591385651662677e+03
1.018539998892111157e+03
5.689561593447216410e+02
6.857359978777832339e+02
3.609175779050840447e+02
-8.074874447500129691e+02
-8.794674677305501973e+02
-3.910117650451502982e+02
-1.984112886478877272e+03
-8.607479384258716664e+02
1.400962956644920723e+03
1.957258053609402168e+03
1.618192942644904633e+03
-2.305408223353471385e+03
-4.509559140509450117e+03
-4.970289060943397089e+03
-4.692563736650710780e+03
-4.799357020388380988e+03
-4.902606204068795705e+03
-4.283335552667308548e+03
-5.345539843403143095e+03
-4.426221059431576577e+03
-1.823442102132628975e+02
-3.678992477371244149e+03
-5.066823150152881681e+03
-5.100938387021536983e+03
-5.122429125890671457e+03
-5.456282017659277699e+03
-2.785430674857606391e+03
1.745082977166979390e+03
2.906229547784616443e+03
3.043173083592242619e+03
2.365989694622303887e+03
1.166357599110395142e+02
-3.305869840396923337e+03
-5.228586677714609323e+03
-5.428437687517265658e+03
-5.272326004749322237e+03
-4.874374616233155393e+03
-1.753457591864752885e+03
2.237507021986900327e+03
2.207519527733097220e+03
-2.532846052229718623e+02
-1.495901455650136086e+03
-1.771315489755206954e+03
-2.149543802731365304e+03
1.036452769906709136e+03
3.889609502028795760e+03
3.889091905170369955e+03
3.135890419173782448e+03
2.688029836012919077e+03
2.472760800627693243e+03
2.278185527639956035e+03
2.107988310167512282e+03
1.901225176377758999e+03
1.771042496976100892e+03
1.864568552454271412e+03
1.816688044314178342e+03
1.944377972032311163e+03
2.319766585600398685e+03
2.511190688939801930e+03
1.922419139798098968e+03
1.687424589356244041e+03
2.191294889833430716e+03
1.801122430255054496e+03
1.462767982479898819e+03
1.576285509942023964e+03
1.583862488436305057e+03
1.857643425608785037e+03
1.964893283472328221e+03
1.858357214040828921e+03
2.018048324569765327e+03
1.957064999520810716e+03
2.033488945611179815e+03
1.861236174779909334e+03
1.388291304249481527e+03
9.287325958763015024e+02
9.185563678940687851e+02
1.047785852136102676e+03
1.416399628991882309e+03
1.126528551539737236e+03
6.573264178146737322e+02
4.586893108160497832e+02
7.567114507692004963e+02
8.293486987352439428e+02
7.993710220371492596e+02
4.419402950073342708e+02
1.700828781361536528e+02
-1.681180030294842709e+02
-1.646075218595438514e+02
