-6.895626055470603205e+03
-6.208288160913676620e+03
-6.040024174758064873e+03
-5.038009186507877530e+03
-3.416293563018435634e+03
-2.458836209540291748e+03
-1.560804641350437805e+03
-1.113436687064336411e+03
-8.781789879588407075e+02
-9.158091176583149036e+02
-1.147456477783469609e+03
-8.756327318631587104e+02
-3.129067588617371598e+02
-2.215920997745975853e+02
3.391181466892700769e+02
4.489926425220524493e+02
4.839398635033832647e+02
1.607868228006681761e+02
-3.872992773161500963e+02
3.023405539938398761e+02
1.196675299183178367e+03
1.264296594620022915e+03
1.237286483266772393e+03
1.495658142885261668e+03
3.237271362770731685e+03
3.934883825483461351e+03
4.026869805107337925e+03
3.687202723622643589e+03
3.862475328914059446e+03
3.708820794836794448e+03
3.908867164091226641e+03
4.234656583276773745e+03
3.791367814192744845e+03
4.084557884012062914e+03
4.022194267790492631e+03
3.561564108877469153e+03
3.373518751315205009e+03
3.918815777966583937e+03
3.925964915207840022e+03
3.151361753572631642e+03
2.583168568826818046e+03
2.421433865119456641e+03
2.277972211579556188e+03
2.751001939407573900e+03
3.276491830747912900e+03
4.063422403732430666e+03
4.310818955178830038e+03
4.092573639764820200e+03
3.637589471889486504e+03
3.264832056902486329e+03
3.111365151379011422e+03
2.984179746566994254e+03
2.775305647779385708e+03
3.005898753551357458e+03
3.155998781710715321e+03
3.202552297133191587e+03
2.891629126856601033e+03
2.324330017146712180e+03
1.666678748792177203e+03
1.660688475770171635e+03
2.081424406686921429e+03
2.039887856595590847e+03
1.849144482635342911e+03
1.872318973786263541e+03
1.536577415170096174e+03
9.809546717565152676e+02
8.134909655923297578e+02
7.643328417706183018e+02
1.359558062612987669e+03
1.919263232287557457e+03
1.534503286553740509e+03
1.160197883848119318e+03
1.616364104315492114e+03
2.546168863565506854e+03
2.973709848353742018e+03
2.876100524747027521e+03
2.140493037051297506e+03
1.023950776079606044e+03
-1.030472463869536341e+03
-3.626648991038683107e+03
-6.086503717816483913e+03
-6.351953718865734118e+03
-6.067846491451872680e+03
-5.099980578094156044e+03
-5.738212847686065288e+03
-5.281588673507689236e+03
-4.555996906938182292e+03
-3.969117977527201674e+03
-3.776956573122529335e+03
-3.820299332963597863e+03
-3.646154475301415005e+03
-1.502457290762500634e+03
7.948841957191015126e+02
5.749412118050413483e+02
7.668372645684243025e+02
9.307239402238436696e+02
7.467094959587728908e+02
-1.800872029915037160e+02
-7.194876150923655587e+02
-9.305042662131643283e+02
-6.281103908142715682e+02
-3.441412654765680941e+02
-1.594956854639882522e+02
-7.107237192252895852e+01
2.442281280852446343e+02
5.725211518640965096e+02
5.468579551830185892e+02
1.118273902832590466e+03
1.370889578618279984e+03
1.213847185084815465e+03
7.812211386343000186e+02
3.361860144222296753e+02
5.758072803317521675e+02
5.871552989053363945e+02
3.352932409642977518e+02
1.742694724800545885e+02
1.640899568578317940e+02
1.778516169161130165e+02
-5.543612891129243536e+01
-6.347208243236939325e+02
-1.247940946430005397e+03
-1.416964484399819412e+03
-7.068222934572942222e+02
1.784175849834066128e+02
3.747464975575933295e+02
1.133231480122267385e+03
1.557049167100437217e+03
1.876325813318173005e+03
1.692075672655018934e+03
1.247315997766674855e+03
6.612460901929499641e+02
2.529482110648708897e+02
4.083461642175237216e+02
3.804935811767467726e+02
-2.586413267185875497e+02
-6.651194099955110914e+02
-9.019718070401626164e+02
-1.025252512464388701e+03
-1.439917805326682810e+03
-1.658960900886291256e+03
-1.564371057575081068e+03
-1.774404895700344241e+03
-1.801024607703837091e+03
-1.629303986407753882e+03
-1.071328614516464995e+03
3.089173851595915608e+02
5.304169285586729075e+02
-7.572026636421328760e+01
-5.554422812841734185e+02
-6.588269666070570452e+01
1.806635294770898170e+01
-5.929636441104740925e+02
-3.159916738123309301e+02
-3.068012695528381641e+02
-2.964073093751341617e+02
-1.247450554427488782e+02
-5.180085186305963418e+01
-9.016124263494184561e+02
-1.752164738280969686e+03
-1.740546210696568551e+03
-1.423115377347469575e+03
-1.217161976893149358e+03
-1.665806270803314192e+03
-1.739933924411484440e+03
-1.251535681664317053e+03
-4.153891344639133365e+01
1.446059005478155541e+03
2.233193014382730780e+03
1.954875154546980184e+03
1.393088996384242591e+03
8.327729452736233497e+02
3.529779430148104780e+02
1.576456471248745572e+02
3.676162687582253170e+02
2.028208629398313008e+02
-2.247841010148764269e+02
-3.702785807908930451e+02
-3.616978121355114695e+02
-8.440596653529211153e+02
-1.482407953367597429e+03
-1.565781319387533586e+03
-1.142243894267126507e+03
-8.998743433385114940e+02
-9.906632272598501459e+02
-3.646542849568365909e+02
6.669890053433383628e+02
9.652897417195343905e+02
1.006347161397694208e+03
8.220930883603602979e+02
8.204822592225897324e+02
2.764839149654897028e+02
1.340388287454018439e+02
2.820204210199700157e+01
-1.030646567514504994e+02
1.862820083219934872e+02
-1.058425725810400593e+02
4.647187951442498388e+01
6.871839425947291602e+02
7.212902964700787152e+02
-7.126652997703584447e+01
-7.524944036780240140e+02
-8.954478890691481183e+02
-4.511774990484776708e+02
5.027362124938039756e+01
6.749250614493740841e+02
8.757391262382886907e+02
1.295728358768928729e+03
1.310907819229172901e+03
1.445315758384079345e+03
1.106882456893123390e+03
4.356448842474173944e+02
-3.413573488925944730e+02
8.872357276710332030e-01
7.145530282341829320e+01
1.191941527937708827e+02
4.708852357862916733e+02
3.115610571732757990e+02
8.250138033371347035e+01
-2.854286382624640055e+02
-5.381726787016619937e+02
-3.728911187196336527e+02
-4.775820176816206981e+02
-8.853139488629662992e+02
-4.629181630381050354e+02
-1.662516758268352746e+01
7.998605599605216412e+02
1.260511440206526004e+03
7.709810323781927082e+02
2.376384384606685387e+02
-4.257913825787483120e+01
8.923932219953982781e+01
4.987500977354051770e+02
6.061116745937160886e+02
9.135271068414170941e+02
1.041759293121096562e+03
1.324153763068263515e+03
1.277720625466441334e+03
7.880664714685733543e+02
1.526283097895226319e+02
-3.796881534191109608e+02
-4.701294378574093002e+02
-6.225168297571555058e+02
-4.561085493478537956e+02
-3.276799321895824733e+02
3.477703048565859376e+02
1.065427990587193790e+03
1.441117937372431015e+03
1.302791199188542578e+03
1.070384224265027569e+03
1.226862855094506585e+03
9.822786685338545567e+02
9.515887514607297817e+02
9.337132652759993334e+02
8.187642014870428966e+02
9.477183241585069027e+02
7.765671501804245054e+02
5.593656019774964534e+02
-2.219037712609189725e+02
-3.353323925416346356e+03
-5.917842285223325234e+03
-4.061548329147758977e+03
-1.625499830907413525e+03
-1.433600967024976399e+03
-2.672778688581406641e+03
-4.988940411544605013e+03
-4.540028951064164175e+03
-2.164921890791997157e+03
-3.844525322769452487e+03
-1.958847960954585005e+03
-2.288915507424604584e+03
-1.282751434029439451e+03
-7.874162954273654123e+02
-2.191851858229564641e+03
-1.583018829638824400e+03
4.171714260283743556e+02
2.037962757670663905e+02
-6.081909266832124104e+02
-1.864787727308045078e+03
-1.249881529072539252e+03
-1.503704182599034880e+02
-1.873208768846026260e+03
-4.479432099376802398e+03
-2.698961417729718960e+03
-1.192746279670456033e+03
-2.842671565409526465e+03
-3.536673985339788828e+02
-1.066851019453830816e+02
-2.042743858885793998e+03
4.231952392982714741e+02
-1.615726038071606354e+03
-1.922505887729131928e+03
-1.256054142779312315e+03
-4.422281380615629018e+02
-2.101051637145608311e+03
-8.715567945310103823e+02
-2.075646345589427256e+03
-1.777139414394276855e+03
-2.789955475814866531e+03
-3.593075278134322616e+03
-1.992405686133773770e+03
-1.382902295327983666e+03
-3.435665548056123271e+02
8.946509983052559392e+02
1.993827217479686169e+03
2.809021635150070779e+03
3.169362733511161423e+03
3.366916776611914429e+03
3.280708568619977086e+03
2.951759367058779844e+03
3.090148348610268386e+03
3.231925652326858653e+03
2.923143299460524759e+03
2.772867214299123589e+03
3.117172498220487796e+03
3.186157276022044243e+03
3.179915609145132294e+03
3.116461428235369112e+03
2.323783567279368071e+03
1.532915074746792470e+03
9.989175123504791145e+02
1.089726591562206977e+03
1.103429013492381500e+03
1.048123314270456149e+03
9.448358855982854720e+02
1.272621348920443779e+03
1.992491034035495204e+03
2.703483961991647448e+03
3.483705498269119289e+03
4.145174695386060193e+03
4.080820023777496772e+03
3.667586106642328104e+03
3.321621386564396744e+03
2.907199039098005869e+03
1.680050325703942690e+03
7.950591675532222098e+02
1.155662098123435271e+03
9.010154194805387533e+02
3.462191700369373279e+02
3.810796995893163341e+01
2.626726304830074810e+02
1.024854528665215639e+03
1.373610631165339413e+01
-1.114817449166393089e+03
-1.788088380807695330e+02
2.077268997762476772e+02
1.024870693712781076e+03
1.554669816649225595e+03
1.436095293276122447e+03
1.163882523769846784e+03
1.192030774212181768e+03
7.347408742748250461e+02
2.579147745274944015e+01
-8.509158151077501770e+02
-1.398446851210537943e+03
-1.427786032080385667e+03
-1.266996504226791785e+03
-1.265128373265967411e+03
-1.095240369822389994e+03
-1.076373326728913298e+03
-1.040588167087508509e+03
-9.709067863599657358e+02
-7.483724001995718709e+02
-8.380633228643141592e+02
-9.799786918042176467e+02
-1.065258970389935030e+03
-8.249069318660314138e+02
-2.639483839211535496e+02
1.029576153210274924e+03
1.868641781252233159e+03
1.763190921221925691e+03
1.167151021741482054e+03
6.234991964531075155e+02
6.321632064043868695e+02
7.350346197222992259e+02
2.520238734476814386e+02
-9.886351022222912732e+00
-1.677330243546667248e+02
1.124092520226777623e+02
-4.165174942448728643e+02
-9.676386042420201647e+02
-1.408064647956293584e+03
-2.123858577580358997e+03
-2.352186443382237485e+03
-2.526078116024383689e+03
-2.617586808267737979e+03
-2.742717948835756943e+03
-2.059507786778895934e+03
-1.322040485514808324e+03
-1.276393934765786071e+03
-6.076268022022228479e+02
-1.128237623440335966e+02
3.559944764235111734e+02
1.082733539394189393e+03
1.327331790336345875e+03
1.772747888322946665e+03
1.959919375143227626e+03
1.684764978924256866e+03
1.132176979809406475e+03
4.461106818858769429e+02
-4.024957505856717717e+02
-1.173372136388630338e+01
-4.067159085232623852e+02
-5.516355483488997606e+02
-6.315488704528962671e+02
-1.484389894889133643e+02
-3.824471846676483437e+02
-9.333762551752070067e+02
-5.454133006333370304e+02
-4.565832351263941860e+02
-4.790100732974987068e+02
-5.187551881721034306e+02
-7.458446454905694054e+02
-8.803753926871848989e+02
-6.694435566165914224e+02
-3.006814172778368821e+00
9.559153539079869688e+02
1.398257254068361590e+03
8.339219576812582773e+02
1.968584888212202770e+02
-3.429089518612510119e+02
-1.213412226398167377e+03
-1.535709148545531889e+03
-1.885949082912223503e+03
-1.843186534143871540e+03
-1.520470411622776965e+03
-9.957620899458113399e+02
-7.530219458384150357e+02
-1.212626852803796140e+02
9.674946788433013580e+02
1.383173793257896477e+03
2.091711723271463597e+03
2.206101167158882618e+03
1.327379612831339728e+03
5.324904254959163836e+02
2.634302802411065727e+02
3.422094600512633065e+02
9.718294882793081797e+02
7.272867430209360009e+02
1.215139351982116125e+02
2.725107258749549146e+02
9.813473400856756825e+02
7.539524219238256819e+02
6.132398705590227337e+02
1.355296358133411559e+03
1.219166157835040167e+03
1.151862857993151920e+03
1.163390336565969164e+03
8.968090947267080537e+02
1.234112593725398028e+03
1.655340611639014014e+03
2.655503704732122515e+03
3.307572184534248663e+03
3.174608003823545914e+03
3.129591465067971058e+03
3.273442070385755869e+03
2.992237318684774436e+03
2.947077776986308436e+03
2.814035965324545941e+03
2.122148190044239527e+03
7.663835322886056929e+02
2.938291530305839387e+02
-3.845360558004271638e+02
-8.886338047509279932e+02
-1.377466818869722147e+03
-1.453960244257555587e+03
-1.483081549980265436e+03
-1.026723347821400239e+03
1.281704713173512857e+02
1.616704847945577285e+03
2.283812249707073534e+03
1.549570306259065546e+03
-5.879779902199890103e+02
-1.951821065483808979e+03
-2.650832963929121888e+03
-3.192966331982992415e+03
-3.633184767613211079e+03
-3.276470386066124320e+03
-3.005867778191059188e+03
-3.526285882248748294e+03
-3.818601822740194166e+03
-3.723808256564789644e+03
-4.239857103894712054e+03
-4.539765027891323371e+03
-4.499481223654125642e+03
-8.518654306779980061e+02
1.893134806570679302e+03
1.820507370594925305e+03
2.813180060947948959e+02
-2.133473859542802984e+03
-2.852811883137344012e+03
-2.407649409410248154e+03
-2.436933662906632890e+03
-2.601652192030874630e+03
-2.861719375917475190e+03
-2.975096669560027749e+03
-2.092679323339937582e+03
-1.432443058490849808e+03
-1.863360401865986887e+03
-2.485363734475058209e+03
-3.460464854997300790e+03
-3.763596833908313329e+03
-1.666782005544501317e+03
7.810533869577391215e+02
1.388967122137260503e+03
1.644968415350395617e+03
1.850132739838006273e+03
2.453423689142289732e+03
3.084941530200889247e+03
3.129711320236906431e+03
3.515748229884250577e+03
3.643082295374583737e+03
3.559699569863507804e+03
4.065691468713370796e+03
4.419046214206640798e+03
4.108868008486703729e+03
3.720434791366977151e+03
2.701745304627640508e+03
1.266482457594801190e+03
3.259044717912025391e+01
-7.297878526684311282e+02
-1.150555220070813675e+03
-1.504602686959856783e+03
-9.729209847832380547e+02
2.963659375249025629e+02
1.850635302640253030e+03
3.391584873596329999e+03
4.031356350584132542e+03
4.013860569105572267e+03
3.820120686916342493e+03
3.447295671081479213e+03
3.159299860180803535e+03
2.862008576053459365e+03
2.538576108990190733e+03
1.915067146486724369e+03
1.223555165968257597e+03
9.670575075827531464e+02
8.943102189872668077e+02
1.492638377755517922e+03
1.799089443790302312e+03
1.538003250809041447e+03
1.524481484011626890e+03
2.260051595705179807e+03
2.709352442392590547e+03
2.565450607003881032e+03
2.309583953509786170e+03
2.292411918094209341e+03
2.238316076781255560e+03
2.239233378251236900e+03
2.923024180908229482e+03
2.788661151594908006e+03
2.145368202652982291e+03
1.310898923358427737e+03
9.795790932576883279e+02
8.711105998907884214e+02
4.744312175256851560e+02
4.178409610797738196e+02
8.730151694040461052e+02
7.729606464676288624e+02
9.934540943601031131e+02
1.075498299787391716e+03
6.580526646174995449e+02
7.761081500050620434e+02
1.028711358407268108e+03
1.061855844280929432e+03
5.845305961704756328e+02
1.777362112587939293e+02
9.943692070950453399e+01
-5.439818836783182121e+01
-1.417204118229057883e+02
-3.535314723728889703e+02
-3.448755432324687149e+02
5.324442780241366080e+01
7.398228352378367845e+02
1.361843587052251223e+03
1.548397923489429786e+03
1.880449445974969876e+03
9.889474168930539690e+02
7.387586873369117768e+01
-6.057287857512504843e+02
-1.298860943693028958e+03
-1.803504908415947057e+03
-1.959725115362376300e+03
-1.920563088070358845e+03
-1.816046768605547186e+03
-1.917239015166059744e+03
-2.527089070594310215e+03
-3.753554533342204195e+03
-3.877633252756720140e+03
-8.693016695081790886e+02
-2.067557758505544825e+03
-6.323316045400828443e+03
-7.205587751780803046e+03
-7.570450292030339369e+03
-7.321856838908621285e+03
-7.425828036398402219e+03
-7.111358611420223497e+03
-6.605463145586483733e+03
-6.504202962950392248e+03
-7.078387218995983858e+03
-7.289908927024284822e+03
-7.930958630456872925e+03
-7.762590961517222240e+03
-6.914860404477330121e+03
-5.749760889227042753e+03
-5.271197316097025578e+03
-3.521106692386040777e+03
-5.305437155072618225e+02
9.265659765022280681e+02
1.800243395508831100e+03
2.005527153993185493e+03
1.958461828556174169e+03
1.697948430045396208e+03
1.424936448879652289e+03
1.377480527455811853e+03
1.377457719967510457e+03
1.054872443626647964e+03
8.867822986540816146e+02
1.020198961634225043e+03
8.401628930423125894e+02
9.716290103066493202e+02
5.706278428193161290e+02
5.201231898516402907e+02
3.890545482692430710e+02
6.383005423979145831e+00
-1.918583733267336981e+02
2.942905644257677409e+02
4.908310299614788619e+02
9.518577179529180512e+02
1.431387410459693911e+03
1.526370348035678035e+03
1.296843168012367414e+03
1.382964139948577895e+03
1.401644284254024114e+03
1.093840334089816224e+03
1.235477747685264376e+03
1.681636830484301299e+03
2.102410129043966208e+03
2.127827980874297737e+03
1.535842826956749377e+03
1.155406303757818023e+03
9.015905847948527025e+02
9.694264761642057238e+02
1.168898317674021428e+03
9.129756610566087147e+02
5.336435466823797924e+02
8.379494439491287494e+02
8.468951802592753211e+02
8.044809436535617806e+02
5.196497541211182352e+02
3.913576426210848922e+02
7.445779616436379911e+02
9.182660748277288576e+02
1.124583967805206385e+03
1.191690291024036469e+03
1.293579793770490824e+03
1.724287486321165943e+03
2.214977966032283348e+03
2.765586257583800489e+03
2.873142584890350008e+03
2.076404188568165409e+03
1.239369053071318376e+03
-1.023006363854949427e+03
9.863460307460495642e+02
1.364444675306542422e+03
1.504116386346595846e+03
1.703377278532126411e+03
1.652263166496645226e+03
2.046864917816855495e+03
2.162220866353054589e+03
1.612185067935564348e+03
1.114811300030994744e+03
6.700736102417652091e+02
7.139041708180482146e+02
4.453633684915203617e+02
-2.965531134214264952e+01
-4.322555343478787790e+02
-4.544368163987268758e+02
-3.109888404391226047e+01
-3.318049118298547029e+01
4.202782759294038897e+02
3.221460778184135734e+02
7.640291510027964250e+01
3.190189425605170754e+02
6.849404932296845345e+02
1.170094058254961510e+03
1.258414644372595149e+03
1.244854024642210561e+03
9.973737735961534554e+02
1.109991209828715455e+03
9.007108148452986143e+02
9.505836650813336064e+02
7.154897536116334322e+02
2.374167729682483525e+02
2.172972053600654760e+02
-7.287482748619456174e+01
-5.010757293362833025e+02
-3.514703326646563255e+02
-3.081589561095350405e+02
-8.441133107099881272e+02
-9.774601670413885586e+02
-8.503187494267347120e+02
-9.035118825540006355e+02
-9.000738997380550472e+02
-9.010985678048859882e+02
-8.597864159344557038e+02
-4.552530567615619930e+02
-1.024547398711957982e+02
1.374931879015561549e+02
3.845871253830276828e+02
5.698667752826266906e+02
-5.968382960472269616e+01
-7.231191355572186694e+02
-1.590447548965430315e+03
-2.191757164656262830e+03
-2.413141736585099807e+03
-2.929527063141022154e+03
-2.618888335346683107e+03
-2.753336315801559067e+03
-2.694935508949902669e+03
-2.896617010595113697e+03
-3.056458807836515462e+03
-3.247641525679876850e+03
-3.123170968349509621e+03
-3.320229557117334934e+03
-3.026981132954238547e+03
-3.090436860454704856e+03
-2.953712272579618457e+03
-2.837705701270894679e+03
-2.804277388603687086e+03
-2.163540297847127476e+03
-1.478622237395469483e+03
-1.009821690806755214e+03
-8.078655124772536738e+02
-1.452560066170487744e+03
-1.970894163713423950e+03
-1.984989898674030883e+03
-1.668940761520698288e+03
-1.118939768966616157e+03
-7.657799130126437603e+02
-5.074472130242730259e+02
6.866844118974469779e+01
6.583995883100666333e+02
6.925863063360827709e+02
1.447287792615117723e+03
1.523618025529964825e+03
1.481506353385391776e+03
1.706626598756808789e+03
1.942140592838794191e+03
1.978772752164338272e+03
2.262615570982487043e+03
1.930535096122213417e+03
2.038619381727331756e+03
1.821805935089605782e+03
1.714151334366997389e+03
1.831666406887810808e+03
1.555486944109590240e+03
1.572491863543412364e+03
1.409168073069112552e+03
1.949318158361533733e+03
2.692774613244253942e+03
2.667196464604850007e+03
3.026798263000189763e+03
2.848640992830443793e+03
3.095895910363669373e+03
3.480439108810865037e+03
3.718172826178878950e+03
3.861940550533041915e+03
3.662731097946664704e+03
3.956556519893867517e+03
3.621301279714763496e+03
3.511011633900151992e+03
3.791740822756890793e+03
3.574455942468922331e+03
3.260273112556835713e+03
3.033255943166089764e+03
2.354368854845353326e+03
7.935848905636391919e+02
-1.704142313337065161e+03
-2.201768917203827186e+03
-2.306295936631575387e+03
-1.679842299620153199e+03
-1.438435054534371147e+03
-1.563052824544778559e+03
-1.612587591578164620e+03
-1.890957553060198961e+03
-2.410114619530974778e+03
-2.321967819792540922e+03
-2.204458904015772987e+03
-2.187486954012514616e+03
-2.180950674236001305e+03
-2.015744620916413623e+03
4.392605544421491004e+02
5.000940290506126757e+02
2.016838130867025939e+03
3.024485529818476607e+03
-4.818947621830610615e+02
-3.347179928075429871e+03
-2.924329550801052392e+03
-2.809299915492145828e+03
-3.818919362983441260e+03
-4.359033247522955207e+03
-4.918618727650845358e+03
-5.079581728558655414e+03
-4.525767380927457452e+03
-4.618039607987395357e+03
-4.662244817484537634e+03
-4.285180424671689252e+03
-4.068741381523053406e+03
-1.631753500864464968e+03
-1.122059599815978117e+03
-2.830506223333507023e+03
-4.698900761519112734e+02
8.918926834910581647e+02
2.176919666486938240e+03
1.509370624076700096e+03
1.468365250183067019e+03
1.213067767944789921e+03
9.056853121199306997e+02
1.038386351068833619e+03
1.199283959565726718e+03
1.121565181142947267e+03
8.714096515483978465e+02
7.089685687454451681e+02
2.664030730330692336e+02
4.185811846457153251e+01
9.522028070212281037e+00
8.360629593241593227e+01
4.929255829170551806e+01
6.681583990993700262e+00
-2.060380032818674181e+02
5.230448216101500947e+01
-2.331546254633830699e+02
-1.108207169941138318e+03
-1.685608828473475796e+03
-1.833110831837148453e+03
-1.896524023595774906e+03
-1.699772707167915769e+03
-1.745822068239950113e+03
-1.697576167818302793e+03
-1.740862394749813802e+03
-2.336561838713286306e+03
-2.210548614405324770e+03
-2.107691565267363785e+03
-2.368912223614944196e+03
-2.358038420195532581e+03
-2.474233979080456720e+03
-2.515241403373764115e+03
-2.631834937409240865e+03
-2.547903771982871149e+03
-2.417281106828589600e+03
-3.008969590803185838e+03
-3.544759665426252923e+03
-3.863772365136766894e+03
-4.437013868179966266e+03
-4.470354181060026349e+03
-3.422712790907776707e+03
-2.557105914808024863e+03
-2.701475252065817585e+03
-3.062842107245178340e+03
-3.632221186925820803e+03
-3.727653462850784763e+03
-3.239996857188461036e+03
-3.193436800073631275e+03
-2.748243307335457757e+03
-2.416439353116812526e+03
-1.936041349333231892e+03
-5.700015179530342948e+02
1.786906289559479148e+02
5.720693959398764719e+02
1.661148906505127570e+03
1.403830057449744118e+03
9.050038386295580040e+02
1.043613861830398037e+03
1.355624398869538709e+03
2.484011018774716376e+03
2.850692182860444518e+03
3.588529351436139677e+03
3.949446524368948303e+03
3.825339995909663230e+03
3.474212051112169320e+03
4.518907909594715420e+03
4.971368373206609249e+03
4.474467552610674829e+03
4.423068657754924061e+03
4.357002294326613992e+03
3.954149267930371479e+03
3.959417425960091805e+03
5.441776227484257106e+03
6.072100581358286945e+03
6.190248344676847410e+03
5.645123889024253913e+03
5.031562471813299453e+03
5.290375445041710918e+03
5.939409517060231337e+03
5.482561152398837294e+03
4.486772987169323642e+03
4.156798149693045161e+03
4.137421521870721335e+03
3.712498420284102849e+03
3.629873906023675772e+03
3.485413054142511555e+03
3.227982607721849945e+03
3.654379050372262554e+03
4.103464514328546102e+03
3.880087460333150375e+03
3.336070772090920855e+03
1.740305121844892483e+03
-7.584584328783950014e+02
-1.922419032323103011e+03
-1.739662461564465048e+03
-2.116340618659470238e+03
-2.508579133673812066e+03
-1.060615847634193415e+03
1.195362426476811379e+03
3.684064548593129530e+03
3.575497430253487437e+03
3.499657154742811144e+03
3.534325068943559017e+03
3.882386868751085331e+03
4.225417264980185792e+03
3.283405525071368174e+03
2.149197821752874006e+03
1.216621889625345602e+03
1.462439975971545209e+03
2.259482175518656732e+03
1.375671388852347718e+03
1.632953839619099654e+03
2.464199786117360418e+03
3.369266869780521574e+03
5.325043860808741556e+03
5.408454613458964559e+03
4.025378792164475271e+03
2.485721241103216471e+03
1.704385783612236082e+03
2.400220302835746224e+03
2.964121020386203327e+03
2.569934420145968488e+03
2.566566483185813922e+03
2.927950815467208940e+03
2.859989858686197749e+03
2.743669770415736366e+03
2.910817334946586470e+03
2.372377764504255083e+03
2.124337984453045920e+03
2.024727471916010927e+03
1.242441195823172620e+03
1.382477165160691811e+03
8.158823981794087103e+02
8.697503380281423233e+02
1.302992896267867991e+03
1.470535070431589702e+03
2.152443862964489654e+03
2.085740782487591332e+03
1.985351581018996285e+03
1.979316897025913477e+03
8.617007920697302552e+02
-5.225059305016902726e+02
1.126972766583158574e+02
1.233365984333931465e+03
2.163562638281164254e+03
8.393841682990356503e+02
-1.097165997475225595e+03
-1.969045268830946497e+03
-3.140202075762436380e+03
-4.083544086607552345e+03
-4.765966828190345950e+03
-5.028350118129224029e+03
-5.146511744783045287e+03
-5.129332025707252797e+03
-5.373620788803829782e+03
-6.387243880039378382e+03
-6.553109246086608437e+03
-6.641043192905032811e+03
-6.804961043476148006e+03
-7.523689768750516123e+03
-6.547131480302326963e+03
-5.674117714927084307e+03
-5.920494757458842287e+03
-5.381107082219375116e+03
-5.843796259679808827e+03
-6.918367800808316133e+03
-6.806741949586223200e+03
-8.113592972179441858e+03
-9.073630654226217302e+03
-9.449824172221984554e+03
-1.038900498267850890e+04
-1.218802239917326187e+04
-1.811465220807220976e+04
-2.101568574594291567e+04
-2.023187211028793899e+04
-1.825396568130621745e+04
-1.763075781814439688e+04
-1.725701552135127713e+04
-1.840857974673968420e+04
-1.681425041917416820e+04
-1.359683309150815512e+04
-1.400612505611820598e+04
-1.149291729352024049e+04
-9.859986234491481810e+03
-8.922086195238083747e+03
-7.182086791349628584e+03
-6.800726715685399540e+03
-8.890848960002305830e+03
-7.168261271120077254e+03
-8.753670625036938873e+03
-8.928870446653134422e+03
-1.063473964995087772e+04
-1.078991786662108098e+04
-1.002513027701553074e+04
-7.602221820307514463e+03
-4.906077232953000021e+03
8.434707704532025900e+02
6.521661768994127669e+03
7.543669591639641112e+03
9.612725413293328529e+03
1.151492087522340262e+04
7.829424695894436809e+03
6.401440900476094612e+03
5.872091483515330765e+03
8.676598531249861480e+03
1.106707796472157861e+04
1.248267307557914319e+04
1.275253872010443956e+04
1.295780387455874552e+04
1.336063995509249798e+04
1.306314821910729916e+04
1.340851715030550076e+04
1.393286311524577468e+04
1.392926752609671166e+04
1.465592332559398346e+04
1.560594435720748697e+04
1.602243147288910041e+04
1.624549711148009374e+04
1.585726955561605428e+04
1.570191235561961366e+04
1.622134843692270078e+04
1.589378738705708929e+04
1.538924783876518450e+04
1.499681569806310108e+04
1.480051092351468287e+04
1.445038063289242928e+04
1.376646387066058014e+04
1.316477055177596230e+04
1.241630260520041338e+04
1.195293638756089786e+04
1.178566560525138084e+04
1.164757248725925274e+04
1.206360707831052059e+04
1.230759142814619918e+04
1.287286249919136390e+04
1.317113174494371560e+04
1.314719818872395263e+04
1.299925000914846532e+04
1.230722824815175409e+04
1.162793065282584575e+04
1.168119079924360085e+04
1.189899741232444285e+04
1.077826554782402127e+04
9.338864487707194712e+03
8.042718427789738598e+03
6.710648782121211298e+03
6.376540318497672160e+03
6.274258927945005780e+03
5.143605431509578011e+03
3.917425678640656770e+03
3.125404473238920673e+03
2.598670005890359334e+03
2.526964466348887981e+03
2.280773283231831101e+03
1.720212217591460558e+03
9.978727207570337896e+02
1.216796908487417994e+02
-8.226025870964466549e+02
-1.756137680266900134e+03
-2.068170671175995267e+03
-2.764960444074882162e+03
-3.302705054398744778e+03
-4.199619675602920324e+03
-5.390907151748036995e+03
-6.466783126639164948e+03
-8.064439092054408320e+03
-9.543096536616678350e+03
-1.075397493853550986e+04
-1.164234767545947398e+04
-1.301444197271801931e+04
-1.372347689799577165e+04
-1.419666327263478524e+04
-1.536127720376525212e+04
-1.572152300249818836e+04
-1.621354691601875493e+04
-1.558258225134822715e+04
-1.399091722057568586e+04
-1.302474036104032530e+04
-1.316730683363326898e+04
-1.353686927087446202e+04
-1.311367628671351667e+04
-1.251095251729249321e+04
-1.184887011311388051e+04
-1.142970930027836766e+04
-1.234171505062112556e+04
-1.148410930236307831e+04
-1.024912935306112558e+04
-1.084402746446089986e+04
-1.401397191843702785e+04
-1.471415134785689770e+04
-1.398579964709573142e+04
-1.354310124058179281e+04
-1.132122215514862910e+04
-1.069028891662280148e+04
-1.052041361835825046e+04
-9.575820569111456280e+03
-8.745755322111614078e+03
-8.260500385164799809e+03
-7.955213778952239409e+03
-7.490015684393632910e+03
-6.555072807807889149e+03
-5.577605395133393358e+03
-2.958817907866139194e+03
-6.109048560431284614e+02
5.640352096428561026e+02
6.998484145374594618e+02
4.194131221953541058e+02
3.316483811901731542e+02
3.603456882742254379e+02
9.513922826533539592e+02
2.263709449441308152e+03
3.239163418852154336e+03
3.554792394882658300e+03
3.405525470002909515e+03
3.562254647979609217e+03
4.607810187067748302e+03
5.342117712095030583e+03
5.630203119424488250e+03
5.335959949722810961e+03
4.937365286091318012e+03
5.592359602136935791e+03
5.123931086346610755e+03
5.171964166745760849e+03
5.686534296401936444e+03
5.655732856278730651e+03
5.129495200334104084e+03
4.518788632842271909e+03
3.733684228085153791e+03
3.651165375910228704e+03
3.880157305515011558e+03
3.918786779164119253e+03
4.097051008854625252e+03
4.403056079353424138e+03
4.521946196195646735e+03
4.629744559545511038e+03
5.014380431907269667e+03
6.082034000844591901e+03
6.176908552549264641e+03
5.469043636609740133e+03
5.083448557891575547e+03
4.845173057033495752e+03
4.396303814793939637e+03
4.016992104171051324e+03
3.725284563428367164e+03
3.469215156969256896e+03
3.300871255686772201e+03
2.616405976280050709e+03
2.719971922969263687e+03
2.262757032677371171e+03
1.095970865350092026e+03
8.987212114556715505e+02
7.672401790361556095e+02
1.290746829426362410e+03
1.394431222054804266e+03
1.443280993065117855e+03
-1.276554572483048702e+02
-6.232083445016112933e+01
1.220625781002851454e+03
1.751199025792178645e+03
1.013493513133231772e+03
9.886485153858982358e+02
1.596778507375770914e+03
2.193132724577251338e+03
2.780947197567017156e+03
1.959409199576933133e+03
1.084515084237814335e+03
6.473344138056178281e+02
4.821174752569251041e+02
2.269281349756841166e+02
-3.721024631019286630e+02
-4.338610134684901709e+02
-2.333545748776370203e+02
-3.642765444567685336e+02
-3.173141160964386813e+02
3.047744896825458341e+02
9.810739396175988531e+02
1.371593337843743939e+03
1.596474373868891234e+03
1.230932630331804603e+03
7.790752452358411801e+02
4.509777022786817611e+02
1.108786227732937505e+03
6.346201871474950167e+02
-2.944223569771323241e+02
-1.034160333058889819e+03
