-5.867383098324249886e+02
2.280586721678046615e+03
2.468582675531856694e+03
2.161127324366842458e+03
1.993291726661069106e+03
2.194222849477997443e+03
2.231913464083780127e+03
1.856081216325275818e+03
1.151529464597626202e+03
1.129275766965935645e+03
1.367090731965684427e+03
1.169726553577749655e+03
8.913917597788620242e+02
1.192275280592777335e+03
1.874493568177381803e+03
2.181071117656104889e+03
1.605961519760493729e+03
1.467043944405107368e+03
2.316315082208710010e+03
2.370802566712434327e+03
2.349369702249513011e+03
2.086679548118054754e+03
1.538583589918710004e+03
9.254067007884160603e+02
7.431677141754212244e+02
7.067714436865902599e+02
8.603810802072907791e+02
1.053917025570840906e+03
1.498354491277757688e+03
1.945850055027305871e+03
1.457457576761681139e+03
1.947096258904596198e+02
-3.403442109962948621e+02
2.311236877454785201e+02
-1.487928265710346068e+03
-4.368420853146504669e+03
-1.835373003344131121e+03
1.377530918757834399e+02
-3.706256960153083924e+01
6.097285582253145719e+01
1.818001167953064794e+02
4.686997293262428457e+02
7.285503066414223667e+02
4.512713151535508018e+02
1.550687084819823269e+02
-1.153465407626771793e+02
-2.298546426919252372e+00
3.358796473744144464e+02
3.601898734632564469e+02
5.245019073076274481e+02
5.965638942552275239e+02
5.284897496078617678e+02
2.865949351654833777e+02
4.817134743146156666e+02
1.087672638069479490e+03
8.472050363783820330e+02
6.473022181732283116e+02
4.787707066369434870e+02
4.644852519851787775e+01
2.164260132386404791e+02
7.546125694697664130e+02
6.078578250547213884e+02
3.891798546238570111e+02
1.675093799321803090e+02
6.866485319320503322e+01
-2.765673768707744102e+02
-6.103495342384490208e+00
4.031314079557527634e+02
3.541911772725761693e+02
7.685519291986838653e+01
2.387540582647549172e+02
9.439005640483788966e+02
1.519253347746586314e+03
1.403653712359828432e+03
1.101008596810475410e+03
8.052384307255230169e+02
8.293890413180787391e+02
7.465188087287848475e+02
9.805185227372930967e+02
1.766317239712012679e+03
1.386743849563199547e+03
1.053637049463016410e+03
6.660272231647423951e+02
6.249889870954094704e+02
7.013783926251337562e+02
7.831093008183134998e+02
8.207771223969463392e+01
-2.091890682858956097e+03
-5.242864123434059366e+03
-8.109712660885750665e+03
-7.630437223350895692e+03
-2.908161384377402101e+03
4.971830967097982352e+02
6.476845863414594078e+02
-9.257343747586136260e+02
-7.366298882353404224e+03
-7.287958407035749588e+03
-3.419423140027482077e+03
-2.964796544911667297e+03
-2.471380770629737356e+02
8.890866121093980112e+00
-5.768575387557647218e+02
-1.497553608874783322e+02
1.008340660411305862e+03
1.857393251761230204e+03
2.201390777755710587e+03
1.528392644294770207e+03
1.009254414819568410e+03
1.629847600515991644e+03
1.533263998564140365e+03
4.165871798350480049e+02
2.278571836729782945e+02
1.075981647403862553e+03
1.493946777498645361e+03
1.486696378557728167e+03
1.651369603712586922e+03
2.381989447927848232e+03
2.257524203696458699e+03
1.951023008806403595e+03
1.774496900080948535e+03
1.671984721976388073e+03
2.199581973036764339e+03
1.884321572975584104e+03
1.442298385366424327e+03
8.795125026440689453e+02
2.198652550027467214e+02
-3.265330596378999672e+01
1.889727596090778263e+02
1.957621715184306197e+02
9.437614778984207078e+02
1.324960411822190736e+03
1.141464641921250177e+03
9.854218268910708503e+02
1.028955976097280200e+03
1.529034529523435367e+03
1.758478095106600904e+03
2.085394627983489954e+03
2.120938588438423722e+03
1.706221944793498778e+03
1.135119232649962669e+03
4.865645465726228736e+02
-6.583431683526388269e+02
-1.974415037228546680e+03
-8.946038202083614124e+02
-4.568254937870110552e+02
-8.000983821117013122e+02
-1.250477975610309841e+03
-1.124878739962040754e+03
-1.461222901975889727e+03
-1.829460481171693800e+03
-1.438559937937555333e+03
-1.085399868647098316e+02
6.966352086907788532e+01
-4.429002912647526955e+02
-2.841535058991110532e+02
2.999508322388200909e+01
4.525122513637662109e+02
3.424576715908377764e+02
1.120012580731344229e+02
4.174968530584358177e+02
5.709750255661189158e+02
-8.759985440668776846e+01
-3.285291444647513345e+03
-6.978875473424071060e+03
-3.803380138423433436e+03
-6.627046980018084241e+02
-3.077721449749704789e+03
-9.537656460915088985e+01
-1.748673028454155201e+03
-6.795307084882687150e+02
-3.026901729309573511e+03
-4.885722859685549338e+03
-1.193840537895545594e+03
-2.889235833765142161e+03
-1.382824168554922380e+03
-4.733502819027202349e+03
-5.989273332594334533e+03
-2.125219884259085575e+03
-1.124274695877252498e+03
-4.150381800364744777e+03
-7.974470719517640873e+02
1.741553851802109193e+03
-1.409323218693720719e+03
-2.419034199338580493e+03
-3.701503096217276379e+03
-1.216555644003904035e+03
-2.384189170944604484e+03
-4.217405154643105561e+03
-3.523139200853927377e+03
-3.942346594724969236e+03
1.135051618828928667e+03
1.738107726174821664e+03
4.108553000384734446e+02
7.454281496774096922e+02
-1.514062844519318332e+03
1.017419175228136737e+03
1.306833571125287335e+03
1.442236111785347475e+03
-2.783515998532476488e+02
-2.079336065134728244e+02
-5.235305840533912942e+02
1.785967119654874068e+03
1.725605023893483576e+03
1.570386212595857842e+03
7.873042433341710193e+02
9.951466171627029667e+01
2.500838816397585447e+02
1.478955226105213114e+03
2.353085028705088462e+03
3.374518121360877558e+03
4.124346114652160395e+03
3.953594687822151627e+03
3.734288995822966172e+03
3.055487884585239499e+03
2.818252541958849633e+03
2.712692215069462236e+03
2.642896268862064062e+03
2.358917080526097379e+03
2.179805840495577741e+03
1.888377458670525129e+03
1.879546057716388304e+03
1.470305734041209462e+03
1.203657531858975062e+03
8.868271213074340267e+02
-6.762705324149162607e+02
-1.244597646549185441e+02
4.382553478824416970e+02
9.509519346336530816e+02
1.023487599113009310e+03
2.047715047873424055e+03
3.413750030077213523e+03
3.157520510850962637e+03
2.500724295054274080e+03
2.005650925546518010e+03
1.874409613440684552e+03
2.807689979145766301e+03
2.769241890236442032e+03
1.540001621644768647e+03
1.276519475237352935e+03
1.033430141529576758e+03
1.391767326555381715e+03
2.699493686093077940e+03
2.733669872574216697e+03
2.190763755339067302e+03
2.205208448439911535e+03
2.298550431111846137e+03
1.632181112722772468e+03
5.502506125914181894e+02
5.620075029898392813e+02
3.587333291463028786e+02
-4.627386092934189321e+01
-3.154663138977848007e+02
-1.031852206811326596e+03
-1.390462914790168043e+03
-5.334914774817395937e+02
1.548134790626095082e+03
1.986651377014994978e+03
2.813523558488467643e+03
2.645646308454445716e+03
1.631152230610132619e+03
1.189036426071642836e+03
1.539228662420616274e+03
1.497682596684426244e+03
1.091374182097988978e+03
1.278280539714856104e+03
1.782424414976816934e+03
1.337680224153384870e+03
6.379459507031234580e+02
3.522375697800220564e+02
2.885299515655321443e+02
1.083696203182254976e+03
2.391707194132473887e+03
2.964601654095816230e+03
1.794386518899958219e+03
1.222980477010604773e+03
1.457239425026650451e+03
5.402324912179719831e+02
-1.476072564551831874e+03
-5.417794686206761071e+03
-6.305916598014505325e+03
-6.214385330908316064e+03
-6.580314927709459880e+03
-6.607752789450403725e+03
-6.510720945767408011e+03
-6.730227799527259776e+03
-7.695344311093729630e+03
-8.205115650034347709e+03
-7.396425175227770524e+03
-6.282167142029408751e+03
-6.778142999016023168e+03
-7.009639891721338245e+03
-5.468586819204468156e+03
-2.520894691719410730e+03
-4.747979096001361540e+03
-6.136846077982067982e+03
-6.251286190625501149e+03
-6.407382037823724204e+03
-6.482168689153503692e+03
-6.670639665609041003e+03
-7.270795602808333570e+03
-6.777551555670902417e+03
-2.263886058913261877e+03
2.231222575299726032e+03
3.048747536136766485e+03
2.788681786010030009e+03
1.847068444721611058e+03
5.529096623515717965e+02
-2.536799375096325093e+03
-1.716992959130982854e+03
1.703703636723833768e+02
2.282172889232274883e+03
2.174379413011757606e+03
1.992089529073046833e+03
1.636382955685996194e+03
1.704315851612079996e+03
2.040904219079740187e+03
2.261123257504500998e+03
1.992964182028966206e+03
2.153507824015175629e+03
2.040806086586029778e+03
1.588890708125466972e+03
8.497970610257758608e+02
5.625872864640418811e+02
5.452371732285300823e+02
9.967641269939852009e+02
1.246219312819834840e+03
1.062704128273958531e+03
1.471213911823188710e+03
1.658732324676358303e+03
8.432680434449111999e+02
3.699041169637506954e+01
-3.770424340626342428e+02
-1.688115328303674971e+02
7.837201362268018556e+02
1.502601134755517933e+03
1.970874466536958607e+03
3.003552613245299199e+03
3.082781641725422105e+03
2.513620143296509013e+03
2.323152282717865546e+03
1.949297550398499652e+03
1.697069215739365973e+03
1.921530706588190014e+03
1.453034050455883744e+03
9.299106573844758259e+02
6.604124582847946385e+02
5.306472294364143636e+02
5.724004456152347302e+02
7.605043143198337248e+02
9.181179074103282574e+02
8.800187839237089520e+02
-1.256129000661712922e+02
-2.062404706437414916e+03
-8.117213622274676936e+02
6.136263909294042662e+01
-2.110874821132358193e+03
-8.705950161509001646e+02
9.882992668015345998e+02
3.078748794600329575e+02
-3.730163773719842197e+02
1.405540232244909760e+02
8.077143185799583307e+02
1.512563720803417027e+03
1.425043308812265650e+03
9.131278285994640100e+02
1.070805219094622998e+03
1.281164350030057221e+03
1.055361176420195534e+03
1.118289083451141778e+03
1.620881497626774035e+03
1.407167485407945378e+03
1.644135835383820677e+03
1.888800836055059563e+03
1.624132570752799438e+03
1.500163755500356274e+03
1.370930956824954819e+03
1.558414828754365772e+03
1.608594005322878729e+03
1.402416809663726326e+03
1.000924705865686292e+03
5.550875089673838829e+02
1.328998114065001062e+02
-2.106042519543756555e+02
-3.494747123847621992e+02
-2.957248144560523428e+02
-3.543860302697080442e+02
-5.045481590799124660e+02
-4.132244510031349023e+02
7.760169987696434646e+01
7.159697412426785377e+02
1.456839657115239106e+03
1.733125339951391652e+03
1.454774803337914591e+03
1.500681860860250708e+03
1.925807035401191342e+03
1.312202306232549972e+03
3.888396657912286969e+02
1.986329594129300915e+02
3.985431953267259928e+02
6.865324677131811768e+02
1.803381077271322511e+03
3.030128856640293634e+03
3.025696063872136619e+03
2.742066926560550201e+03
2.548204388303330688e+03
2.708071701210489209e+03
2.630594062534843488e+03
2.526594016268601536e+03
2.710908298830453987e+03
2.876600145354379038e+03
2.618630157117482668e+03
1.835835578641148686e+03
-5.888297367304444379e+02
-2.905418548567748530e+03
-4.662937653322024744e+03
-3.514551559063732384e+03
-2.407551565357900017e+03
-1.715728801994722289e+03
-2.749927531838342020e+03
-3.125115714717190258e+03
-6.346091685203798988e+03
-5.791632369080508397e+03
-4.077958727222428934e+03
-3.253892704213842080e+03
-3.003814712193153809e+03
-2.525329984474235971e+03
-2.109796936838611146e+03
-1.878799555036519223e+03
-1.391829258595206056e+03
-1.383209327048995874e+03
-9.832769565895375763e+02
6.904609553602712140e+02
2.014012285398649510e+03
1.957621910664470533e+03
1.577441334976741700e+03
1.718687977414421084e+03
2.562560619780958859e+03
2.703791692148712627e+03
2.016147385544161125e+03
1.623848448323977436e+03
1.153985023315405442e+03
1.223089859757734985e+03
1.394238691979505120e+03
1.053607148669957724e+03
8.892589668701375558e+02
8.268258975246554883e+02
4.429774890685952187e+02
2.059278938790727054e+01
-2.728742035532839054e+02
2.020181111127882190e+01
1.039881230053967329e+03
1.854220289981299857e+03
2.231866090920558690e+03
2.679273260106635007e+03
2.847185694438338032e+03
2.967633547517524676e+03
2.522445344839696645e+03
2.604434644322919212e+03
2.968610342168839452e+03
2.395228624086940727e+03
1.260184074806289118e+03
1.352495207877897428e+03
2.123100509956361748e+03
2.377894132996198095e+03
1.882777879716898042e+03
1.508730863041330394e+03
1.625736314715377148e+03
1.406896596903896580e+03
1.008288423051347081e+03
1.092878121584400105e+03
1.544651893807108991e+03
2.565622256284000287e+03
2.981854703952379623e+03
2.475463172082610527e+03
2.067504638445970159e+03
1.326916679324996039e+03
3.476716643842627832e+02
-2.162242058667947276e+03
-5.712720566598561163e+03
-5.493776821148928320e+03
-5.378205356111110632e+03
-6.351973289582337202e+03
-6.223206264229279441e+03
-4.463719261772090249e+03
-4.320571680646493405e+03
-5.405681887821499913e+03
-5.573068386096673748e+03
-5.773735837589010771e+03
-5.207478561515878937e+03
-5.225160307801683302e+03
-5.430756194282100296e+03
-5.956244337661354621e+03
-5.224603011604363928e+03
-1.006693253441799698e+03
-1.296383120385344455e+03
-2.400654811415602580e+03
-3.119388913259910169e+03
-4.729544435660008276e+03
-4.441165299254131241e+03
-4.547084410679889515e+03
-3.860143593583740312e+03
-1.743279565966841801e+03
-4.103443352386667357e+03
-2.851495357673117724e+03
3.012699345619632368e+03
2.891176157689328647e+03
1.070254930914223905e+02
1.253358918498978255e+03
1.957273502936703835e+03
2.321874548838155079e+03
1.804261496618683395e+03
1.765476012898817999e+03
1.697443512143420548e+03
1.471351314560484070e+03
1.408286215599373463e+03
1.364390936167330665e+03
1.331851631959759061e+03
1.019715872568927011e+03
1.031997364007293299e+03
1.208858174194183221e+03
1.235423915505836248e+03
1.722691358359073320e+03
1.829753862241391062e+03
1.438798960413286750e+03
1.304934554974229286e+03
1.214216061757997295e+03
4.946893743333965858e+02
3.013828154237345984e+02
9.083255613403372308e+02
1.299707800857726852e+03
1.542707785930712362e+03
1.499369923639572107e+03
2.195670636688059858e+03
3.034687561337531406e+03
2.521617815423020147e+03
2.111803685937597947e+03
2.546391000828216875e+03
2.218368924167803925e+03
1.619971351804423193e+03
1.119110086130699074e+03
7.808275746576961183e+02
-1.474426706480990212e+01
-1.306542581976716065e+03
-2.108443499928033361e+03
-2.534649392041582360e+03
6.137644151355272015e+02
1.942067274599777420e+03
2.095363838448256047e+03
1.747647734888932291e+03
1.477931767315729985e+03
1.195168829757676122e+03
1.804474263859523944e+03
1.726849519428066287e+03
1.186400688008511452e+03
8.191744115779162030e+02
3.383158437618034782e+02
2.719012045210450879e+02
2.907566294614604772e+02
4.525402220885737279e+02
5.334234396560536879e+02
6.863179496548599445e+02
1.015088740896501918e+03
1.438595298445264916e+03
1.599458324662606856e+03
2.348970562077729937e+03
3.400670572676181109e+03
3.214271661958342065e+03
2.707673907144511304e+03
2.234896859126964500e+03
2.384904728214839906e+03
2.978740214338334681e+03
3.164376395903050707e+03
3.244925167025411611e+03
3.282473882624857652e+03
3.306701500698939071e+03
3.456552039831550701e+03
3.523031957020689333e+03
3.682055713110164106e+03
3.899624121203127743e+03
3.949885854041745915e+03
3.946595424227567946e+03
3.618520369308654153e+03
3.755585453591058922e+03
3.717734839488424313e+03
3.533983833511060311e+03
2.799447866590796366e+03
2.937288473855250231e+03
3.002430358174504818e+03
2.581496412200810028e+03
2.196253049856836242e+03
1.559709488678737898e+03
1.023968142259524484e+03
5.597774805181823012e+02
8.592995658865042685e+01
-4.745082845034166326e+02
-8.874907843898998863e+02
-3.044109355237065756e+03
-6.292418134077182913e+03
-1.035451553180966039e+04
-1.224955371036702127e+04
-1.276147275520561743e+04
-1.242307641801771388e+04
-1.172235529442622828e+04
-1.120264762509155844e+04
-8.015332126938622423e+03
-2.451378543963250195e+03
-2.344742862944982335e+03
-2.364508350478407465e+03
-4.292950708632845817e+03
-6.219778689235333331e+03
-5.403242349263602591e+03
-4.024304275144862459e+03
-2.030827878059812065e+03
-8.584180811026975562e+02
1.856843936956033474e+02
7.268041741291145286e+01
-4.504299023918271132e+02
3.321773869496833527e+02
2.063490040009730365e+03
1.901324783178152529e+03
1.016643236084949308e+03
7.434585177741993220e+02
7.115918012926334768e+02
1.405895121623304249e+03
1.427177685920513568e+03
1.622514337636583605e+03
1.891889000003725187e+03
1.565296307574336197e+03
1.517801479449401313e+03
1.775412928648748448e+03
1.707104208560027473e+03
1.920676949281907127e+03
2.060889802537597006e+03
2.077510418329677123e+03
2.265504287941229904e+03
2.360009654613532803e+03
1.983081376494569440e+03
1.361679514128248456e+03
1.035571472149478723e+03
5.107049640027875625e+02
5.161885414483996328e+02
2.209822345055825110e+02
-1.190187592115534017e+02
-5.768731694000888410e+02
-1.089753099801193912e+03
-7.048634418068011200e+02
-5.728684084434838297e+01
6.829952520754147827e+02
1.275137315484218334e+03
1.301451661802135959e+03
1.128934628638548247e+03
1.785572359491823363e+03
2.621337632670773019e+03
2.922878395334102606e+03
2.692077330135179636e+03
2.089943467300072371e+03
1.635344845973561178e+03
2.004351464254910070e+03
1.320164259158003233e+03
8.729200914483606084e+02
1.300659155264652782e+03
1.720385490828502952e+03
2.011933319821908299e+03
1.660205190988368031e+03
1.158297354801550910e+03
1.381280968655168408e+03
1.293021607653531873e+03
5.525626779031188107e+02
2.291154899464853827e+02
3.450229837367389791e+02
9.214521795832433781e+02
1.483403158170320069e+02
-3.445569383306248710e+03
-4.057212346031915786e+03
-2.472414153191866717e+03
-2.333788908037567580e+03
3.593556926078328502e+02
1.381161332597133878e+03
1.542387275513869781e+03
-7.401574251002349456e+02
-1.902430499379673847e+03
-1.582242233579542471e+03
-2.305536633514754158e+03
-9.826250571443978288e+01
-3.449287516933830375e+03
-4.823450548959188382e+03
-1.614633546223208441e+03
-1.889225411390061709e+02
-3.004522958984588513e+03
-2.556019310437787624e+02
-1.864813006681766637e+03
-2.260300689348448486e+03
-3.770984111341700554e+03
-1.311573763178012769e+03
-6.380544240317689173e+02
-2.199266157079223831e+03
-1.413496465510257849e+02
-4.128298788183699799e+03
-2.802875041223021981e+03
-1.630882710573146369e+03
4.566407583931797376e+02
1.296686636786039799e+03
-2.939629584665804941e+03
-2.467374148823864743e+03
1.277268485739456992e+03
-1.059642546878116264e+03
-8.199075307553149514e+02
-2.362491321689059987e+03
-3.486426099575527132e+03
1.383129046674165465e+02
1.443811056336322508e+03
1.674303845558689545e+03
1.679664510380618822e+03
-1.166169246591079627e+03
-1.083049052297552407e+03
7.160834086669862018e+02
1.608237923124672307e+03
2.398507209049431822e+03
2.590823837132376866e+03
2.308060874908238020e+03
2.041495048877990712e+03
1.346191002985438672e+03
6.420679907713895318e+02
1.134106464347144083e+03
1.830401068183801726e+03
1.974956227675671698e+03
1.101881373666557920e+03
2.812520783990732411e+02
-2.946038213830885599e+00
1.002427384350943385e+03
2.496363195442535471e+03
3.178911968369320675e+03
3.032128560255540833e+03
2.480056895775941484e+03
2.262902475909075747e+03
1.294878200295910347e+03
2.333725244145289253e+03
1.825455464795878243e+03
9.214687489109560374e+02
1.960752776010685466e+03
1.798094262138897648e+03
1.592649887860274475e+03
1.488513699253717959e+03
1.170483817416888087e+03
1.186767300157433510e+03
1.676329186853731017e+03
1.718309433542485976e+03
1.416491167190189344e+03
1.657222799065327763e+03
1.977622957598296125e+03
1.687025537543501514e+03
1.336781438395862551e+03
1.451240593877963420e+03
1.750033354887635141e+03
1.642456254554138468e+03
1.489472411902004296e+03
1.641847390222582362e+03
2.073674986787296348e+03
2.186755090472312531e+03
2.141589622093353682e+03
2.025898380015730481e+03
2.176197967167240222e+03
2.104938508565953725e+03
2.000107423498397566e+03
2.006532046752950691e+03
1.554274727296363153e+03
1.325368160172414946e+03
1.754952117291094737e+03
1.692892343488335882e+03
1.485086256359058325e+03
1.737677866957687911e+03
1.728564325190522368e+03
1.913765914321873879e+03
1.901123349731723010e+03
1.596510895588934318e+03
1.808889494420164738e+03
2.079299538015748567e+03
1.665703168095201818e+03
1.617949627171814427e+03
1.895939126603379464e+03
2.051693970509720657e+03
2.085329379391902421e+03
1.711713717018004900e+03
1.458764975352707097e+03
1.195420443729261024e+03
1.841614500177419586e+03
1.978267497342525985e+03
2.020167056510555540e+03
1.410218488160886864e+03
-8.396601255432580047e+02
-3.725489293853715935e+03
-6.679225114057932842e+03
-6.686937196912189393e+03
-6.908746038000987028e+03
-5.321620627159677497e+03
-5.202567457005112374e+03
-5.198659957735039825e+03
-4.518012345957716207e+03
-4.589517511357706098e+03
-3.349991611210241444e+03
-3.921538491069632528e+03
-5.862062313056712810e+03
-6.866026529905527241e+03
-7.098320498802803741e+03
-5.878830790419548975e+03
-2.375694815706090139e+03
-4.894048656511194167e+03
-6.550962444442012384e+03
-7.906513356252418816e+03
-8.608726978629363657e+03
-9.150630905001189603e+03
-8.207158624730953306e+03
-6.714358109629220053e+03
-6.312280242062866819e+03
-5.626950191343050392e+03
-9.824111594251853603e+02
2.382971734006104327e+02
-1.384873434441834434e+03
-6.581920088827768268e+03
-4.914850926963277743e+03
-1.076668494757128883e+03
1.403574667288349929e+03
2.247901196407991392e+03
2.989472478555534963e+03
2.279225451022536618e+03
1.011084338190312224e+03
5.994431431278563593e+01
-7.482221975245834074e+02
6.516819308069578938e+02
4.198646354470139158e+03
4.032652905626166557e+03
4.041683004171277389e+03
4.456780997592421045e+03
3.907953497274877009e+03
3.382164586414742644e+03
5.995495925317246474e+03
6.814988983400235156e+03
5.868680627810756050e+03
4.238546879232546416e+03
1.655561356700704437e+03
1.007868767479356364e+02
5.072385654028209956e+02
3.101001436817211925e+03
6.106027782645941443e+03
5.729337043285106120e+03
3.513972778226004266e+03
2.854990584844533259e+03
4.570516521007016308e+03
4.067596228966262970e+03
2.320252093304275149e+03
1.196430373434757257e+03
7.081800266966175741e+02
1.566579406417796463e+02
-5.238955577619536825e+02
-1.676361084824672389e+03
-3.736650132387327176e+03
-5.222811448332973669e+03
-3.311859292763530448e+03
6.760391539936235858e+02
2.187727450911932920e+03
-2.852238112386234548e+01
-1.034817045465374122e+03
-4.504003457027322952e+02
1.031015226924152870e+02
-3.301400105935021202e+03
-3.724639391690489447e+03
-3.186496689907901327e+03
-8.138619211290995281e+02
1.837288442903504119e+03
1.380475051596466074e+03
-3.532672912947744521e+02
-1.170898841922236215e+03
-1.244339280344037661e+03
-1.406479150345907783e+03
-2.644650519292401327e+02
-7.226555222538247847e+01
-5.973354107552147951e+01
7.062369201879204184e+02
8.986336659818449561e+02
1.814032823760392716e+02
-3.008518050379600027e+03
-4.715015994844970919e+03
-5.585084874440932253e+03
-6.611746887846325080e+03
-5.518927545990070030e+03
-2.958585516129772714e+03
3.232868623963273080e+02
2.692765297476667911e+03
3.079752335560016490e+03
1.407205841387110468e+03
-5.577457209275468131e+02
-5.840571956970702558e+02
6.553813434757829555e+02
2.260526575251230952e+03
1.544316531784808831e+03
5.187996668419576736e+02
1.627027193788170280e+03
3.339928676694435580e+03
4.520494139962685949e+03
5.658692826467333362e+03
5.440537644553145583e+03
3.206041347670359301e+03
-1.129095565836311152e+02
-3.429219105516448963e+03
-5.503759854324442131e+03
-3.929718159560226923e+03
-1.325176145699134622e+03
2.629810812567789526e+03
6.407048243984508190e+03
5.764514397638997252e+03
4.068366477251343895e+03
2.597686217194986511e+03
-9.985713963488941545e+02
-3.447417094244485725e+03
-3.206982062147848410e+03
-2.168301806074232900e+03
-6.823927864687645979e+02
1.226628010300426467e+03
1.521697231861686078e+03
2.667873015366765088e+01
-7.734093824378279578e+02
-6.755563530120072073e+02
-2.803881540738273088e+03
-5.784464666075582500e+03
-7.700343368728509631e+03
-7.929568390115518014e+03
-6.794170182222756011e+03
-6.663256305370071459e+03
-7.497919686233553875e+03
-7.822698166460741049e+03
-6.387897680495751956e+03
-1.371875472784932754e+03
6.384318360839350817e+02
1.019739250534211351e+03
1.382036399012171614e+03
1.741888159071719997e+02
-1.986523585861601077e+03
-3.106319401763114456e+03
-4.010457061459024317e+03
-5.042899183443685615e+03
-5.244956352356392927e+03
-3.434195887379175019e+03
-5.179105896868619539e+02
1.811440165343572971e+03
2.877955966741029897e+03
1.115868817580167388e+03
1.794678807919722658e+03
-6.743316571314044268e+02
-2.930351631971849656e+03
-1.444394984088156434e+03
-7.668076514559336374e+02
6.234949610841294998e+02
-2.914636234144396099e+02
-2.442174282627589491e+03
-1.990171207192363681e+03
8.191100031380109385e+02
2.496565807236215278e+03
3.882017310771138000e+03
6.701431018031255007e+03
8.200136835717561553e+03
6.508771520013708141e+03
4.466928051277438499e+03
4.681060071518434597e+03
5.762950743513320049e+03
5.989672370545627018e+03
5.582196583733967600e+03
5.773145941323470652e+03
8.544544047102786863e+03
9.554318734713229787e+03
8.546431813714263626e+03
9.290064005168969743e+03
1.083898891763293068e+04
1.123197781330120233e+04
1.157000752097596342e+04
1.164610367530492840e+04
1.016622080351464683e+04
1.128832130408112789e+04
1.221551013458604211e+04
1.166283618309246049e+04
1.061817390203925061e+04
9.700391947726759099e+03
7.718482489921771958e+03
6.718540738805982073e+03
6.500631271549739722e+03
6.354662042101444968e+03
7.247556850306711567e+03
6.698264550450835486e+03
6.220724846986412558e+03
5.385039336776882010e+03
3.958291844301081710e+03
2.414503463248684056e+03
1.028688736182773710e+03
-1.152168913753341712e+03
-4.255138455630171848e+03
-4.123999783242486956e+03
-3.327827503039199655e+03
-3.590584982331541141e+03
-3.477083132510160340e+03
-3.765278367028266985e+03
-6.513192170197375162e+03
-7.359746209623525829e+03
-8.262971168214617137e+03
-8.159908967578716329e+03
-1.167443636975375921e+04
-1.175148626756569320e+04
-8.761013842680469679e+03
-1.007594707128463597e+04
-1.130615769920710773e+04
-8.978477544532075626e+03
-1.131584423285508274e+04
-1.139128345622412962e+04
-1.005466339616452933e+04
-1.218583539612371897e+04
-1.253373142693921000e+04
-1.382634546635769948e+04
-1.320855599756923039e+04
-1.246415713844030506e+04
-1.214209008286353856e+04
-1.096323087093727554e+04
-1.299035143050102306e+04
-1.375642724637352330e+04
-1.388942410626446872e+04
-1.362118833469922356e+04
-1.203061043368141145e+04
-1.123461953863356030e+04
-1.149406728551306696e+04
-9.628783523938309372e+03
-8.245682769022332650e+03
-5.770626475441355979e+03
-4.500461417024715047e+03
-4.653033257489509197e+03
-4.655178543118797279e+03
-3.375844493644121485e+03
-1.921957900902415304e+03
-1.138277183446229856e+03
-1.414631647715604004e+03
-1.523962306208317614e+03
8.109446461169615077e+02
2.502276323413419959e+03
3.250148291542649531e+03
4.388645518612760497e+03
6.529848367628133019e+03
8.707812584165270891e+03
9.003778011699938361e+03
8.366916877241827024e+03
7.949503636890814960e+03
8.166820195938953475e+03
8.254014401702188479e+03
7.975136421712949414e+03
7.459312962111126581e+03
7.030862977145354307e+03
6.562734006779877745e+03
5.442135866755073039e+03
2.967162276346890394e+03
1.224912719414518506e+03
1.372597145085690272e+03
8.572403855277623279e+02
2.436188936913373709e+03
2.745453908504212905e+03
3.934118471539501115e+03
6.585378268788549576e+03
7.951131139559221992e+03
8.261417005457400592e+03
8.067732317068226621e+03
8.272875466146766485e+03
7.955197675301613344e+03
6.987767674639687357e+03
7.235659547074097645e+03
7.034821139331834274e+03
6.842290008016783759e+03
6.718251748024599692e+03
6.495767137896087661e+03
5.923820988335105540e+03
4.916609321290614389e+03
4.226107908943503389e+03
3.702529209511983026e+03
3.010546757958421040e+03
2.357029750678864275e+03
2.641046075902220309e+03
4.260765171623102106e+03
5.104246291673372070e+03
5.097672200435426930e+03
4.309106224957064114e+03
3.570594785609428072e+03
3.736190939267059093e+03
3.732682503895528498e+03
3.415869621483464925e+03
2.683067460554260379e+03
2.488332373948671830e+03
2.174581181347627535e+03
1.251833334616190996e+03
1.231165047797870329e+03
1.489345795084562724e+03
2.120467913854862672e+03
1.948608863957202630e+03
1.604891435381961173e+03
1.642464357557551693e+03
1.434171686551017956e+03
1.348851410502652470e+03
1.129336898461483543e+03
7.425319245166793962e+02
-8.734364129755027761e+01
-8.041172761306446546e+02
-7.098999389060771819e+02
-3.769379826700616718e+02
-9.110749693064289545e+01
-1.087258524008499535e+03
-2.352422489284848780e+03
-2.104763004145224386e+03
-1.071374290103821068e+03
-4.702204233363588628e+02
-8.362962314821958216e+02
-8.336075042417240866e+02
-1.872304499641037978e+02
-1.237540986230234239e+03
-4.734849379291024889e+03
-5.701037889955329774e+03
-5.333822373583424451e+03
-4.850270599038733963e+03
-4.590654712458264839e+03
-6.194158099019424299e+03
-7.343378628534149357e+03
-8.149668748242888796e+03
-5.056246725384788078e+03
-1.414410090686345995e+02
-3.839785867818417842e+01
-2.799495226517177571e+02
-2.501115613677546605e+02
-6.480441528585020023e+02
-5.448786061121404600e+02
-1.459699551509873572e+03
-1.132704966640237672e+03
-8.888704554719290627e+02
-3.992463258366313426e+02
2.030172804777529620e+02
6.481119044074328883e+01
-4.739938204239544461e+02
-4.902020286572722512e+02
-5.209589487310796585e+02
-1.046375393858111011e+03
-1.622544612649812962e+03
-1.779752513782467531e+03
-1.751255973603774464e+03
-1.181321076726376759e+03
-1.753041034184357386e+03
-3.354352675055880809e+03
-3.845139435618653806e+03
-3.754469358090510468e+03
-2.211562467616055528e+03
-1.530635794984533504e+03
-2.062908918989163794e+03
-1.880299409401015510e+03
-1.244813122851170192e+03
-8.937460525613032587e+02
-9.062047188340366120e+02
-1.426234186406984691e+03
-2.040034656938678154e+03
-2.701645048838032380e+03
-4.040841166201554188e+03
-3.691588518440985808e+03
-7.818604173654803162e+02
5.772844071814648714e+02
9.073937377196759826e+02
6.322315433249212902e+02
-1.185502157549211915e+03
-3.036994704634614209e+03
-3.141987681863779926e+03
-2.218459904778019336e+03
-1.743479881567904613e+03
-7.388677099407507285e+02
1.413117012274454680e+02
1.168688711429073095e+02
5.936625440363867483e+02
1.176566000114622284e+03
1.840454248362595990e+03
1.402417410296778144e+03
1.127501071822000995e+03
1.432624095607230856e+03
1.694687396223530641e+03
1.385789336665515975e+03
4.410394864073948611e+02
-3.076039933719849273e+02
-3.212918989115062800e+02
-3.351694908314293002e+02
-2.335080100713177217e+03
-1.007056375209795874e+03
4.180554984901421989e+01
-1.147011248896714903e+02
3.200456543156228122e+02
1.158252898512181901e+03
1.865019231238313751e+03
1.119286809160730854e+03
2.306176611591899018e+03
2.564797884453069400e+03
1.859083216823077009e+03
1.443049190972453744e+03
1.120728235372043855e+03
1.754017473760879739e+03
1.044757829492480823e+03
1.267920785937867123e+02
