-4.608454728858019394e+02
-1.755768598810976982e+03
-2.849439670931103592e+03
-4.512839182148773943e+03
-5.864777195802479582e+03
-6.102315643928000100e+03
-6.520796605458821432e+03
-5.950329288379183708e+03
-4.326978316690336214e+03
-3.011774781518898635e+03
-2.995457578606805782e+03
-1.218680375699293791e+03
3.007727803289563781e+03
6.770640622943426933e+03
7.182868605386182935e+03
6.349590116961937383e+03
4.833030854415781505e+03
3.216779536968222146e+03
3.124922678708517651e+03
3.436815855321916843e+03
1.888320340438681569e+03
3.296908087437801100e+02
-5.572275050045752778e+02
-1.784622707593357745e+03
-2.846301232758214610e+03
-2.347140245239300384e+03
-4.801883016226768177e+02
2.470799693529039814e+03
5.461967233444482190e+03
7.160404505142943890e+03
6.824254618661316272e+03
6.149623510618572254e+03
5.788376507791016593e+03
5.604689219479189887e+03
4.722268700516570789e+03
4.329273351629052740e+03
2.689550495040512942e+03
6.170135758621711375e+02
-1.007052595716203086e+03
-2.732817616427371377e+03
-3.338246996674926777e+03
-4.166252677066887372e+03
-6.280933063311544174e+03
-8.205171956414860688e+03
-7.973878516200213198e+03
-7.036150237533874133e+03
-7.121852200015766357e+03
-7.408706626858062009e+03
-6.760725470858339577e+03
-3.035155499076047363e+03
2.228005966645062472e+03
5.260778982176195314e+03
6.026351542905956194e+03
4.255921285060578157e+03
2.183551584070859917e+03
9.364446644710541250e+02
-2.527338296951853636e+01
-1.582708111519204977e+03
-3.152089408976145023e+03
-3.616492952089916344e+03
-1.192898005495553662e+03
2.246726314650580662e+03
3.183305680697160369e+03
8.848147584043229017e+02
-1.834656123055659918e+03
-3.432125049729566854e+03
-5.400608105348991558e+03
-6.740020863120857939e+03
-6.423289841460985372e+03
-5.754277569730705181e+03
-4.584000034797270018e+03
-3.310339497261306406e+03
-1.363171136133893242e+03
5.806096410965204768e+02
2.767935840316485610e+03
6.006699625531304264e+03
6.117748229184041520e+03
3.590879242998507380e+03
1.687283447107067104e+03
1.276281060191672623e+03
7.716894310684082257e+02
1.173257828981859575e+03
1.687099512258814684e+03
1.659357636695063775e+03
1.928858612748815631e+03
2.076510637963680438e+03
3.414231472077566423e+02
-1.730350615234411634e+03
8.840955220199707583e+02
2.799630934266834629e+03
3.676407205467292442e+03
3.398654303212402738e+03
2.012343813053320673e+03
1.500430172407356622e+03
1.092784439269575387e+03
5.354073172065834569e+02
1.971883341935752014e+02
-1.310898851306288407e+03
-2.815780885211809164e+03
-3.570230310979954993e+03
-2.850636748016731417e+03
-1.758145135582699368e+03
-2.207469613161435973e+03
-1.972557261018434701e+03
-2.283460483821773323e+03
-1.922196169972538883e+03
-7.630504390632573859e+02
-4.589693506562890661e+02
9.126715874782730964e+01
5.725034351744237711e+02
2.113820896914888181e+03
5.023286003524359330e+03
7.275712067347753873e+03
7.327701108996782750e+03
4.892660746348272369e+03
2.345609731851126980e+03
5.906716142315016214e+02
-2.014608961132195645e+03
-4.358199280801949499e+03
-5.539970983758262264e+03
-5.850939945151642860e+03
-5.382182037545318053e+03
-3.879039921287230754e+03
-2.127477716806533863e+03
-1.376945284751000997e+02
9.746634927756535944e+02
2.056317043493664187e+03
2.540525355384582326e+03
2.008880973424648118e+03
1.634542579224767906e+03
1.092223061756689503e+03
9.318131300183609937e+02
1.923598921331901238e+03
1.953880905378385251e+03
1.479454542052595798e+03
1.284841943984920590e+03
2.700089778763343020e+03
3.343351121124859219e+03
1.958196667540000590e+03
7.377891573438593014e+02
-1.518085584561520136e+02
4.319289993003663994e+02
1.478951340912095702e+03
1.153570394569754626e+03
-7.093982881838066987e+02
-1.933069387444895710e+03
-2.166525044588507171e+03
-3.701840676607491332e+03
-5.529957133764520222e+03
-6.179836685672400563e+03
-5.538495669500694930e+03
-4.706968975417782531e+03
-4.930324176647859531e+03
-2.217672031316768880e+03
3.627950963332934407e+03
8.457547094298724915e+03
9.671064022808994196e+03
8.099288070074897405e+03
6.066183342223910586e+03
2.870754166026437815e+03
-3.291330874553145804e+02
9.564523147529006337e+02
3.842480641472860952e+03
3.870894675554035075e+03
3.016673488482633275e+03
5.104782755383635049e+03
5.006095129124020787e+03
4.415627641136451530e+03
4.438400366464497893e+03
5.217381937373019355e+03
6.642604439927158637e+03
3.932035482584968577e+03
3.637667023424959098e+03
1.724474743878417485e+03
-1.494615610157812398e+03
-3.814660257570062640e+03
-5.390718026743255905e+03
-9.179907191591484661e+03
-1.052040858672800096e+04
-1.045917168555191711e+04
-1.236817968950044997e+04
-1.090450407171352890e+04
-6.158105597178607240e+03
-3.784052237959581817e+03
-6.111391379148086344e+03
-6.780105153566451008e+03
-6.403188601106159695e+03
-5.858654012124798101e+03
-2.275483495647567906e+03
2.574342773440830115e+03
3.529821623937995810e+03
4.848975356252251004e+03
3.140829241062253004e+03
7.144134488631150361e+02
1.147102010338927158e+02
-1.491329450939984554e+03
-1.229794416779705216e+03
-4.006674611783785735e+02
7.150905549971062101e+02
1.884512370592421121e+03
1.049504681008018906e+03
1.723065255254414524e+03
5.140232607980058674e+03
7.551981538167268809e+03
6.917267753877703399e+03
4.472153463682803704e+03
2.337707285370865520e+03
1.335979422562284526e+03
3.267050135817198225e+03
5.831051533166226363e+03
8.541977827503560547e+03
9.980838363809791190e+03
7.530699029526674167e+03
2.361656339572223715e+03
-2.865319801188923520e+03
-4.171263960985626909e+03
-3.585005331468540135e+03
-3.613439708885783148e+03
-2.146652527815697340e+03
1.505538238738084146e+03
5.027937478113471116e+03
4.221514359644736032e+03
2.514381140469094589e+03
1.237524360972233808e+03
-7.078960711696804537e+02
-6.815436491946364868e+02
2.664664647243044442e+02
2.371937035749351708e+03
5.123056095938084582e+03
7.266933602784749382e+03
7.322661725725962242e+03
4.839222479213341103e+03
3.605567342709437071e+03
2.830835605980822947e+03
4.316455549222645232e+02
6.240727673211242745e+02
1.774746294553156986e+03
4.277398333092316534e+03
4.745374357633837462e+03
2.916939425473226947e+03
1.977266557779237246e+03
2.203993367317102781e+01
-1.299304661008961830e+02
-4.732243262046608265e+02
-1.004872794545363263e+03
-5.188647574342138569e+02
9.139687277110217565e+02
2.283788053465758367e+03
5.166350301782371162e+02
-2.157382405036034925e+03
-2.049195021604100475e+03
-3.487633269334909983e+03
-6.243556507367012273e+03
-5.716821998439200797e+03
-6.826324367484802679e+03
-1.014595391327412290e+04
-1.015366607202360683e+04
-9.595374059563928313e+03
-8.519911534381166348e+03
-6.644172925642099472e+03
-1.329009017749398026e+03
3.751722780034181596e+03
4.751060904296613444e+03
4.364133677305209858e+03
2.278025293238497852e+03
-1.763285377330631491e+03
-4.020664127940511662e+03
-3.017893550894969849e+03
2.080133633191042861e+02
1.703938018882914321e+03
-7.906777586284908921e+01
-7.680145377507562543e+00
2.664364988134329906e+03
2.422558645142899252e+02
-2.421877169932941342e+03
-1.528016957267337602e+03
-1.792081140312517618e+03
1.162181932708214390e+03
2.593912757477443847e+03
8.961261633970334515e+02
-4.969799016594887462e+02
-2.801283107522819137e+03
-6.880803114558192647e+03
-8.258533068825914597e+03
-8.726490750421809935e+03
-8.061628490785882605e+03
-7.097719653075700990e+03
-4.725486817593621709e+03
-4.235812461502890073e+03
-1.463596787276740315e+03
-1.822737721650134063e+03
-2.134980397542108676e+03
-6.912514266185364704e+02
1.096576761619806604e+02
1.620837187017851875e+03
6.443656015808860502e+02
-6.076466913911182246e+02
-3.612007445963620285e+02
-1.972257437931415097e+03
-2.193570806993466704e+03
-1.158000671320456831e+03
-2.319629714834883544e+03
-2.982486495036615452e+03
-1.854154294652658450e+02
2.397703273489347794e+03
1.830874964992137393e+03
-9.613969547622056666e+01
-2.874490388716150392e+03
-4.706006269779915783e+03
-5.350496672830344323e+03
-5.555695192955873608e+03
-3.594473179675025676e+03
7.451642269062906507e+02
3.807214183327280807e+03
4.511778316512514721e+03
4.150891365385650715e+03
4.034481775398651280e+03
4.794317485486445548e+03
4.189287132703237148e+03
2.918449156338274406e+03
2.491082923046105407e+03
1.809243092939349935e+03
3.859017811056864389e+02
-8.568560755466129422e+02
-1.591092051956518389e+03
-1.572907942518542313e+03
-2.288308517455742731e+03
-2.392244116260163082e+03
-1.041765716729831411e+03
1.688926554668736799e+03
4.092627533797563956e+03
5.636182195281378881e+03
5.612402773646536843e+03
2.285461370502655427e+03
3.765066983120505029e+02
3.042439329938961237e+03
3.845033171484306877e+03
1.733186891250303916e+03
1.012778475675199957e+03
2.933719977340641435e+03
3.183908726567792655e+03
2.117185338249450979e+03
2.627336874325103963e+03
3.813448963440526768e+03
3.405562099217459490e+03
1.268671183978382942e+03
8.175013143385781405e+02
2.319760500352064810e+03
4.025365551322250667e+03
4.907313728798286320e+03
5.201460561283977768e+03
6.103596406886113982e+03
5.585610217386316435e+03
4.386311577914007103e+03
3.464640704857237779e+03
2.383413145817773511e+03
-1.223530392099279652e+03
-3.805503560385307537e+03
-3.941813564592202965e+03
-2.495491235444734230e+03
-4.479719004506983993e+01
-3.839051824087998170e+02
-2.718087241317853568e+03
-2.510625710219946541e+03
-1.046599856412168947e+03
-6.732061312266231425e+02
-3.656711978264747813e+02
-1.892916277398165334e+02
3.616095426253866094e+02
-2.133185707214005106e+03
-3.139760404928043044e+03
-2.032039869351660855e+03
1.568536283707038876e+02
-2.835400448839408909e+03
-3.175953479382768364e+03
-2.454006938280047962e+03
-9.668150834157125928e+02
-9.156846771495766006e+02
-2.127981164223903761e+03
-9.810242708457320759e+02
-2.482093600096880436e+03
-2.819492713420145719e+03
-2.870419245408730148e+03
-1.415100198703484239e+03
-1.681703998559334423e+03
-1.325393107810132278e+03
-1.024334776730737303e+03
-3.771668558655328070e+03
-4.084656262656432318e+03
-1.919628686096363481e+03
1.361291543118483105e+03
-2.580981737748602427e+02
-2.103141481841010574e+01
1.218143192466532810e+03
1.090227593186868717e+03
1.132163313508475539e+03
1.125752720480762491e+03
-1.172619540920806429e+02
-2.743224161464886492e+03
-8.703724640232819638e+02
-1.928198795099839913e+02
-1.356106012792904210e+02
-6.179493891425770471e+02
-1.881121650304369041e+03
-2.598183381153954997e+03
-2.215231397217330141e+03
-1.288489235922917032e+03
-6.111868491352742012e+02
2.935410359403353482e+02
1.244564840823430586e+03
1.568478659261846587e+03
2.041806553888324970e+03
2.909347943492674403e+03
2.366166985059269791e+03
1.823353759535101290e+03
2.237862289754918493e+03
1.895671008745083100e+03
1.346721738264954638e+03
1.026519623502293825e+03
5.757656010338428132e+02
8.314920926512235155e+02
7.156067360973091809e+02
2.540618568439604985e+02
4.790511376873198515e+02
8.085464118455497555e+02
6.274104930407439724e+02
7.885332146768319035e+02
1.350808248981076304e+03
2.002583917544970518e+03
2.470662426111792229e+03
2.581179768357555986e+03
2.843256281545194270e+03
2.880877605312748074e+03
2.957968753208260296e+03
2.870823273019175758e+03
2.964257551367704764e+03
2.459835800256830225e+03
1.092842328248686272e+03
7.410916595692999636e+02
7.332462977442072827e+01
-5.683618806582289835e+02
-1.276615432955260985e+03
-1.266291132819483209e+03
-1.314329386516941440e+03
-1.315116953283591329e+03
-1.413099911118721820e+03
-1.517998971802008327e+03
-1.203349634824807481e+03
-8.979044543611213385e+02
-6.856773444051360684e+02
-2.984723424908107177e+02
-2.155680134138751591e-01
2.524101884293579587e+02
4.292741776178737041e+02
2.373463339815940003e+02
1.986794755137923119e+02
-4.976786076839957786e+02
-1.420451976091780807e+03
-1.546625617294736003e+03
-1.908270395599339054e+03
-2.586237963101986225e+03
-3.497186065621661328e+03
-3.632750753684507799e+03
-3.185703374644755058e+03
-3.211910396735664563e+03
-2.829414708220875582e+03
-2.788098969666037647e+03
-2.934810528482023983e+03
-3.363266497891740073e+03
-2.968917869530661847e+03
-2.573306046280869850e+03
-1.726104569003018696e+03
-4.530978971431670743e+01
2.045130216138434889e+03
2.141463771270975485e+03
1.611767225156226232e+03
9.550193787257760505e+02
-1.299655078349942414e+03
-4.031737181513504311e+03
-7.268874402297650704e+03
-8.603866532320098486e+03
-6.337399029915595747e+03
-5.847364522905201738e+03
-8.110530618250655607e+03
-8.505796866391596268e+03
-8.085023652999052501e+03
-7.209893248198402944e+03
-7.225032798277657093e+03
-6.259970977658659649e+03
-5.242506421423020583e+03
-2.656381744042154423e+03
2.226832613845620017e+03
3.060211609897602102e+03
-1.263100616489184404e+03
-3.171997102609950161e+03
-2.463139391313337001e+03
-7.411864741724988903e+01
-1.905692947001879020e+03
-3.783593331156768272e+03
-8.367367778480070228e+01
1.041311805207137240e+03
1.166615580999611211e+03
1.634354836632881188e+03
2.685701936580355778e+03
3.102957734666627857e+03
2.914526860905343256e+03
2.558799425941350364e+03
2.669854759493450729e+03
3.546078530301424962e+03
4.737809052530711597e+03
5.989013470445868734e+03
6.630026073236546836e+03
7.077280560399852220e+03
7.050755330176322786e+03
7.004574655593784883e+03
6.804890362890984761e+03
6.101726833677386821e+03
5.614887760974724188e+03
5.004464300546561390e+03
4.204861457055857500e+03
3.964321610787951158e+03
3.262148346042714365e+03
2.782741284846854796e+03
2.421223594592527206e+03
2.382492594528074733e+03
2.615505920897396209e+03
2.641539347915295366e+03
2.491989225975647514e+03
2.943868668678894210e+03
3.419096220094793352e+03
3.638173619677043916e+03
3.951319139182470735e+03
4.365343399063564902e+03
4.599458281022096344e+03
4.818408102996086200e+03
4.064234817485831172e+03
3.655413892510814549e+03
3.152140829359567306e+03
2.309548584777136512e+03
1.647902718194327917e+03
9.000871196443365534e+02
-3.285753039050786128e+01
-2.919920885107039794e+02
-2.763261953469472019e+02
-6.568863854310183115e+02
-1.042617214256241823e+03
-1.456673961690090664e+03
-7.016679011888692230e+02
2.671049503349019005e+02
1.447737811037399979e+03
1.890548109068166468e+03
2.270239653183003156e+03
2.514824541984899042e+03
2.549301241949146515e+03
1.541499444954539968e+03
8.285243994509656886e+02
5.222577548007836867e+02
1.224998943038401933e+02
-7.856523100990035573e+02
-1.632312379935064428e+03
-2.124835201368810431e+03
-2.381270946778482539e+03
-2.832472536597657381e+03
-3.258408685791796415e+03
-3.335990417547149718e+03
-3.365318074958285706e+03
-3.201520684440589775e+03
-2.614697490812417527e+03
-2.001146111742331868e+03
-1.695179281513572278e+03
-1.229870587580740676e+03
-8.881490779438273648e+02
-7.500435335266014363e+02
-5.246516876131993286e+02
9.181550348143294116e+01
-5.016819063412514765e+02
-1.061221095081445583e+03
-2.144018403531123568e+03
-3.166214447174099860e+03
-3.964874265757125613e+03
-5.372125012344211427e+03
-6.565099519862166744e+03
-7.173004514716682024e+03
-5.842920457810247171e+03
-3.766978611548375284e+03
-2.074472249449027004e+03
-1.563688276499160565e+03
-1.468724679206650080e+03
-1.218673859069693435e+03
-5.115604672259399877e+02
2.067564781964093470e+02
8.071053753187321718e+02
7.909665497635365909e+02
2.832796093591269937e+02
1.761334056564992068e+02
4.052331747300958682e+02
1.041649240266717555e+02
-7.321193582361670451e+02
-3.456712525551862200e+03
-6.503894092134294624e+03
-9.138891752465286118e+03
-5.391708050693059704e+03
-2.836344269741929111e+03
-2.673078955119137390e+03
-2.940201828748664866e+03
-2.800878359376932167e+03
-1.906184084218987891e+03
-1.654203342510962102e+03
-1.008148903352978323e+03
-5.170385323019858106e+02
3.309606582299062438e+01
6.113058252016513450e+01
8.289788806142782960e+02
1.515685258836972480e+03
1.260114356488763406e+03
1.532954094598615711e+03
1.576863880403494932e+03
1.262589626777673629e+03
4.931543165787927023e+02
-6.173608795441012944e+02
-1.048269195276555365e+03
-1.119837675172732133e+03
-1.472135817847600038e+03
-1.745250791696654915e+03
-1.562260410978733717e+03
-1.441313578654693629e+03
-1.600180482754124569e+03
-8.040405978789656274e+02
7.088358170948787347e+02
1.418233550538117925e+03
1.731511081761744663e+03
2.020431184880060528e+03
2.788823845368502589e+03
3.410498359448734846e+03
3.137455123266209739e+03
2.949718594024982849e+03
2.751013992592290379e+03
2.232412204901119821e+03
1.463716687422537689e+03
7.518755622904956226e+02
2.137391097230766377e+02
-7.536401084756021191e+02
-1.145404757684633978e+03
-7.636007158557557659e+02
-5.269793118615165213e+02
-3.967343999643424013e+02
2.488698569737628929e+02
6.646994230139075626e+02
1.173123549113880699e+03
1.892991408593487449e+03
2.468189022332303466e+03
3.015834149764802987e+03
3.683948855700726199e+03
3.859434395541346021e+03
3.679359029881178685e+03
3.671827362839786929e+03
3.440488210170649381e+03
3.254389994699915405e+03
3.077554629970243695e+03
2.323024218615204518e+03
1.468817548654278426e+03
7.448797671670326963e+02
8.917197097888509916e+01
-1.283006846685666176e+02
5.245394342870185937e+02
7.536960335102545514e+02
1.149196989365564605e+03
1.783143312217340736e+03
2.235563984494901888e+03
2.559541969792371219e+03
2.991268397311737772e+03
3.659657148410833088e+03
3.880564731040170955e+03
4.073049596807493344e+03
3.547160217263774939e+03
2.488844082048087330e+03
2.011357163995146493e+02
-3.949963968342752196e+03
-5.267369193567522416e+03
-5.222020547922917103e+03
-5.238933675085680989e+03
-5.753095415994403993e+03
-6.241370797596610828e+03
-6.658724991036918254e+03
-6.392110961770815265e+03
-6.121542314027355133e+03
-5.512991493719392565e+03
-4.857327251857684132e+03
-3.724420637854966117e+03
-2.864211036159168998e+03
-5.986472944061349608e+02
1.782352459540774134e+03
-1.141486615882164557e+02
-9.930897046046502510e+02
-1.233291986839719584e+03
-9.337911439316055748e+02
-1.160535955528383283e+03
-2.166456335642178146e+03
-4.915155471016561251e+02
3.044278321576512099e+03
1.484985699734796526e+03
-3.923358511326365260e+03
-5.148721533615408589e+03
-4.664005411654391537e+03
-9.011992571719270018e+02
-1.130189723486744469e+03
-1.447928733686510441e+03
-6.673491089945956674e+02
1.937664937990876751e+03
3.663183674500656252e+03
4.530237084692203098e+03
5.223896510452751500e+03
5.307196211336297893e+03
5.213232415812257386e+03
4.908093230995678823e+03
5.031750650357003906e+03
4.801216936698703648e+03
3.910594611171273755e+03
3.080951734676348678e+03
2.474233735237669862e+03
1.852432031092990201e+03
1.218551988835273733e+03
7.486021291371332609e+02
4.816621072031681479e+02
5.137441300109740041e+02
1.005844568354487592e+03
1.059991091449107216e+03
1.211419936213784695e+03
1.866190439504976666e+03
2.409341560558665606e+03
2.978726432246088279e+03
3.555487093216544963e+03
3.999783360366985107e+03
4.012635095487160925e+03
3.724221614861174203e+03
3.691645773383203050e+03
3.173983964379970530e+03
2.392164772878886652e+03
1.413837797249665527e+03
1.233105869254792879e+03
6.933566203362767055e+02
-9.086951201538909118e+01
-3.569316958688592933e+01
-2.169204938109644161e+02
-4.844259789462222443e+02
-6.903253610533707842e+02
-6.306527599831990756e+02
-2.425063284858387078e+02
3.438866612929376174e+02
8.847445950817284483e+02
1.624531047613674900e+03
2.047157699300367085e+03
2.149413816748334739e+03
2.844128441720446062e+03
2.532666199583510206e+03
2.490153733598108829e+03
2.249952137472602317e+03
1.825163736999851608e+03
6.997207201877113221e+02
-2.835139006590858344e+02
-1.876199968256736952e+02
-1.146636105408990261e+03
-1.696497302410555903e+03
-1.724183174032838679e+03
-1.277707259059171520e+03
-1.022130252027240772e+03
-8.445141861593399426e+02
-6.849241220812109532e+02
-2.533662883864137143e+02
4.002176656694060171e+02
1.003860923612941292e+03
2.124552046755841275e+03
2.621207073521740767e+03
2.770876753926533638e+03
3.011588457855674278e+03
2.962333881780313277e+03
2.451111889178552246e+03
1.481819374233222561e+03
5.684178957500510023e+02
8.872283845520074763e+00
-8.789153874228721861e+02
-1.596012844463652527e+03
-1.803432633208528387e+03
-2.040172048162590727e+03
-2.210220704472022589e+03
-2.076663989225567548e+03
-2.078359687322730679e+03
-1.581283695445019703e+03
-1.485469606100502233e+03
-9.468843769839585320e+02
-1.318533314989133260e+03
-3.607446619645215833e+03
-4.470593087299263061e+03
-4.006001964336513083e+03
-4.125722032658206444e+03
-4.336820573703249465e+03
-4.906354008525790960e+03
-5.031281070451718733e+03
-5.418601279525225436e+03
-6.047394667823916279e+03
-5.624689650500423340e+03
-6.403469138126405596e+03
-6.936747767623348409e+03
-5.382548396659055470e+03
-7.970014269086213062e+03
-7.871159114811131076e+03
-3.455989801444238765e+03
-8.274213085791931235e+02
1.825499066979298846e+02
1.105898845176892110e+03
1.743598016822843192e+03
2.260772851707551126e+03
3.071443748838735246e+03
3.397542185232158772e+03
3.439111009579510210e+03
2.921228068829214862e+03
2.183860364664815734e+03
1.986945538918535931e+03
1.573468560783741623e+03
6.044045698205571853e+02
9.274338615235298278e+01
-4.575243587867176984e+02
-8.033678402456774847e+02
-9.858236190459555246e+02
-1.446867747906982913e+03
-1.516489106400463925e+03
-1.549676041961193050e+03
-1.159419374695146644e+03
-6.786601517914178885e+02
3.406206630508052058e+02
1.341430095823389593e+03
2.248741626957480094e+03
3.035682612031558165e+03
3.427264321878646115e+03
3.299557432975189386e+03
2.946569740240712690e+03
2.401305528374939968e+03
2.045839482391065985e+03
1.352115259366763439e+03
4.071060134639990338e+02
-6.027399901039986219e+01
-9.971364245692514032e+02
-2.098455146345700996e+03
-2.426157766488113793e+03
-2.459212567228636544e+03
-2.282546964057736659e+03
-2.100144098037413642e+03
-1.352024341311836224e+03
-4.431050155949561145e+02
4.816832701287470400e+02
1.710438667154216546e+03
2.406215551779333509e+03
2.707974673279903527e+03
3.092755224270026247e+03
2.871664845636775681e+03
2.467775750159452400e+03
1.886136197178980183e+03
1.634763619150216300e+03
1.161378663832830853e+03
2.152473278425956380e+02
-6.664297124743560516e+02
-1.342888641809485307e+03
-1.732204566412675604e+03
-1.850427585176678576e+03
-2.163474829953622702e+03
-2.330349424021605955e+03
-2.003043510123937040e+03
-1.373455667648097005e+03
-2.814355816325726209e+02
2.039242343567688067e+02
1.100649407240028495e+03
2.078858264847608552e+03
2.338550948062609677e+03
2.629771598756048206e+03
2.375592444814208648e+03
2.423099187379836621e+03
2.305281564058110234e+03
1.714033678104136243e+03
6.993671867180994468e+02
-1.786460388487357136e+02
-8.969976455019533432e+02
-1.892707678246212254e+03
-2.035775870841818232e+03
-2.177166937948773466e+03
-2.429986818427510116e+03
-2.771297048131786141e+03
-2.624029607822140406e+03
-2.059138035585536727e+03
-1.255558756806870178e+03
-5.583494723333891443e+02
1.414665850056655643e+02
9.450087741515333164e+02
1.752432849818483419e+03
1.826773367024019535e+03
1.104011574283389791e+03
6.441389414931926467e+02
7.001830456778779990e+02
6.151548026223365468e+02
-6.688617616435502100e+01
-8.470528563694527975e+02
-1.367461758296711650e+03
-1.923105453184882890e+03
-2.819943216544909319e+03
-3.327916204056345123e+03
-3.452024888301592910e+03
-3.508449511628659366e+03
-3.529290696411957924e+03
-2.909416456872678737e+03
-1.326776572765208812e+03
-5.483489295010555225e+02
5.280958834865390372e+01
3.626854922020356753e+02
7.613510114674512579e+02
1.090914835572445782e+03
1.274363815682961331e+03
1.439569266083706225e+03
7.174245165844729399e+02
-8.001373918963751066e+02
-2.277161715020595238e+03
-3.492607676717743743e+03
-4.216553938899552122e+03
-4.899238164623727243e+03
-5.385657476022534865e+03
-5.441814895111766418e+03
-5.219739096181441710e+03
-3.502415574009120974e+03
-4.878104903741073599e+02
1.515107831816689668e+03
2.586392518713961181e+03
3.470029026553819676e+03
4.428909674422208809e+03
4.478053797538105755e+03
4.209402518710705408e+03
4.056087213061827697e+03
4.094300161334431778e+03
3.890038675546757986e+03
3.477184187853857566e+03
2.643728804395518182e+03
2.269668012529079078e+03
1.946873775639092628e+03
2.033295958028733594e+03
1.449806932026144295e+03
2.493097920622293202e+02
-5.272729656465995731e+02
-2.478893339153363797e+02
-5.863324602918730477e+01
1.413567277307538177e+02
5.510895984184548979e+02
1.354418279164517571e+03
1.680358555298377951e+03
2.605966197837030904e+03
3.338410940497876254e+03
3.688731656867656511e+03
4.178968137413874501e+03
4.254051596027751657e+03
4.134645393403247908e+03
3.985524402908967204e+03
3.542987987929679548e+03
2.514381765888034806e+03
1.774436116850604776e+03
6.748958115531002022e+02
1.914768114133314896e+02
-5.656090914447856903e+02
-1.072325845207383054e+03
-8.180621180749378709e+02
-2.051586299690053181e+02
2.415329316813949561e+02
6.960627298194432342e+02
1.199362320339984080e+03
1.694662025711958904e+03
2.447101768375895062e+03
3.108526567576327579e+03
3.168878437732448219e+03
3.628250919346523460e+03
4.136750718434291230e+03
4.164377806651497849e+03
4.252013907762911003e+03
3.440585400196326191e+03
2.521980337301683903e+03
1.674089268997120371e+03
2.583172787185381125e+01
-3.073735307403939260e+03
-6.248684249488625028e+03
-7.255008645708049698e+03
-7.456657981683093567e+03
-6.258723975105968748e+03
-6.271307359579425793e+03
-6.582419439470612815e+03
-5.822107260570040125e+03
-5.245418445236210573e+03
-4.465174917467809792e+03
-3.529220609106243046e+03
-2.908592828085151268e+03
-1.847277816227285484e+03
-1.507164292266779512e+03
-1.292139320063272635e+03
1.191657349057946021e+03
-6.828115363129953721e+02
-4.006491805307030063e+03
-4.784401646923412954e+03
-4.860419703826737532e+03
-5.408582321695721475e+03
-6.262947214030060422e+03
-6.465494380130287936e+03
-6.306162739295526080e+03
-6.661758847822243297e+03
-6.721385659731062333e+03
-6.222296635044096547e+03
-5.767406145667827332e+03
-5.186592046045410825e+03
-3.676828011543248977e+03
-2.800911112272468131e+02
1.605687104139748044e+03
3.583571243588396101e+03
4.447650450468137933e+03
4.297009588236041054e+03
4.095661181405355819e+03
3.030627185364579418e+03
2.215004183782946257e+03
1.455779731611505213e+03
1.048975560157512291e+03
9.385842424900729384e+02
8.415442070052004055e+02
4.758178227242077583e+02
-2.305399786569663831e+02
-7.151496575063494276e+01
4.219906381581114942e+02
1.147083626606713551e+03
9.276895251218832072e+02
9.748810587790551381e+02
1.818834079749649163e+03
2.809580514212598246e+03
3.990173686241881569e+03
4.841864570471755542e+03
5.071741134891254660e+03
5.297700111993915925e+03
4.522819453519684430e+03
3.188133368477640943e+03
1.960589958794050972e+03
5.421775034732329459e+02
-1.049105697465621006e+03
-3.342209828081519390e+03
-3.770167953201099863e+03
-3.885866505805957331e+03
-4.078328931768774510e+03
-3.352453130856975804e+03
-2.335196675544331356e+03
-1.145483684446461211e+03
-7.183988578696542504e+01
1.384768205386799764e+03
2.590212003237857971e+03
2.850287711399085310e+03
2.613259192646374231e+03
2.878402251685407009e+03
3.036623330741001155e+03
2.924051430469561183e+03
2.899761833614495572e+03
2.862668897859811750e+03
2.718985330406871071e+03
2.272706730331418839e+03
1.185636995959425803e+03
2.671976860406149967e+02
-2.959332211457839890e+02
-2.350548462668883190e+02
7.002290409692874107e+01
1.424553318542175759e+02
-2.807189614798305684e+02
-2.496298168981461458e+02
2.365868228485167037e+02
2.289346742889335644e+02
6.895574798648791557e+02
1.703550109490640352e+03
2.384968741317717104e+03
2.595831715703020109e+03
2.840098200709989214e+03
2.480812459121529173e+03
1.765109462481960009e+03
1.008032681678589370e+03
4.875001257795528318e+02
-5.396920373792233931e+02
-9.955802864414225724e+02
-1.307040210359384673e+03
-1.871946161820526413e+03
-2.310216038191327243e+03
-2.186931776961131618e+03
-2.081150587528408778e+03
-1.872929566153945188e+03
-1.619270403628303256e+03
-1.009284976513793026e+03
-4.059063226046844761e+02
3.509497048850737428e+02
9.802933544346382178e+02
1.624053479701030483e+03
2.314214605211464914e+03
2.014750293631190516e+03
1.407747232854249205e+03
1.459289334361815918e+03
1.000224487313144323e+03
6.415160572070222997e+02
-8.564527482385369694e+01
-1.279451994841063424e+03
-1.878094513283286233e+03
-2.101595264130824035e+03
-2.846823008063317957e+03
-2.928808607585023310e+03
-3.041790232189227936e+03
-2.800867136949308133e+03
-1.732974311388453543e+03
-9.320410860489713514e+02
-3.430864585890359990e+02
8.199369844307966559e+02
2.899081719598055997e+02
-1.322303644529207531e+03
-3.932647500217911784e+03
-4.332109071333531574e+03
-1.722732817668103280e+03
1.915439692271929516e+03
2.272389851648007607e+03
1.704046653480257191e+03
8.733127366115530776e+02
6.614210266739347333e+01
-8.365104132554166654e+02
-2.307640797178592493e+03
-2.913327465739166655e+03
-2.409683931366675552e+03
-2.565851713112778725e+03
-2.677913258813618540e+03
-2.506021340841373785e+03
-2.075284505569927205e+03
-1.471610970461381385e+03
-4.508687592428830726e+02
1.097976084794418057e+03
1.949861166694838630e+03
1.726806431019209640e+03
1.646686518296409531e+03
1.931402399613655916e+03
2.150071028151985047e+03
2.392739259648793904e+03
2.443245161373600240e+03
2.470537252645682202e+03
1.911696031910310921e+03
1.228515401086732481e+03
5.348639635496048186e+02
-2.054816258563275255e+02
-3.836534975342119651e+02
-9.676545149888791002e+02
-2.237457845211308722e+03
-3.308205431577590389e+03
-2.563983517808848774e+03
-1.324893534846235070e+03
-6.088935144448105348e+02
-4.029027917951687527e+02
2.308662539479756148e+01
6.860252231085743233e+02
1.674923632541374900e+03
1.742872032899405212e+03
1.011862994493546466e+03
1.228324810097616080e+02
-4.633018949447635464e+02
4.063232398755725399e+02
1.500506259264475830e+03
5.932149788098588488e+02
-1.555448131918821900e+03
-2.278414647278551456e+03
-2.238805239496042759e+03
-1.422451906198979486e+03
-1.509062903447585086e+03
-2.086674912136167677e+03
-1.438782239123038153e+03
9.081214604587693202e+02
3.986067010367054536e+03
6.314309513436468478e+03
7.263964995290487423e+03
7.480089929412808488e+03
7.353976295652535555e+03
8.035798170421840950e+03
8.527095932320224165e+03
7.125691753866756699e+03
5.395621201826301331e+03
3.784886656762427265e+03
2.088469317842972941e+03
4.373497109161477852e+02
-8.605006646297296129e+02
-1.463200771008528818e+03
-6.368281074955408485e+02
2.415970472444430470e+02
2.310216096233952783e+02
4.359018456673167208e+01
-1.500558022631928225e+03
-3.059408899336916420e+03
-4.920892899919254887e+03
-4.479820786897832477e+03
-3.783162964501479109e+03
-2.538823716602340482e+03
-1.096818891728361905e+03
-6.752445001203019501e+02
-3.481412624253950980e+02
-4.606918590553333388e+02
-1.367784825300943794e+03
-2.592214076268471672e+03
