-6.917673192955327977e+03
-6.255935219016042538e+03
-5.324326911022044442e+03
-4.320707421196010728e+03
-3.335983887340203637e+03
3.628458711374226482e+02
4.338854533100007757e+03
6.377081109598925650e+03
5.699474813379128136e+03
4.032104044060767137e+03
6.660061297437425310e+03
7.138124320163267839e+03
6.219209380566949221e+03
5.164851372310665283e+03
4.312882008607303760e+03
3.193140185338119409e+03
2.720635955159153582e+03
2.283335834409686868e+03
2.000235950818477249e+03
2.143395730238529268e+03
3.007840206581898201e+03
4.186633010282049327e+03
4.613819458557118196e+03
4.774392716319453939e+03
5.468487811637158302e+03
6.131138361141182031e+03
6.075327944914324689e+03
6.558075839368413654e+03
6.424336524550751164e+03
4.499099387832795401e+03
4.905329717655223249e+03
4.793573227387492807e+03
2.828776485788258469e+03
2.466536994093327849e+03
1.879089507670367766e+03
1.113153177972448475e+03
6.836905249264804070e+02
9.259461174326339687e+02
9.176451154069811764e+02
9.517501599248913635e+02
1.557378246690669357e+03
2.562494205502965542e+03
3.795202862865596671e+03
4.506064768569576700e+03
4.587686120912548176e+03
4.942515417413078467e+03
5.416271166701360926e+03
5.025334393617627939e+03
4.669141660950329424e+03
4.510987657771018348e+03
4.120243114209373744e+03
3.204323272383951007e+03
2.581478117634683258e+03
1.930433295801060240e+03
8.388675300963401469e+02
2.472576659443044207e+02
-1.644246817125782911e+02
-6.279288490382515420e+02
-6.032970181873940874e+02
-3.715163220760747436e+02
5.935689901323922868e+02
1.291542185936408714e+03
1.587467644226768925e+03
2.736808395688591190e+03
3.481520853412559973e+03
3.597422514589786715e+03
3.668476562098572685e+03
3.929808282076250180e+03
3.777055507922781999e+03
3.739535182099834856e+03
3.346397740106011952e+03
2.878333455674217021e+03
2.312277650199629534e+03
1.101157791741919027e+03
-1.606582248533706547e+01
-6.074307782473305224e+02
-9.750449694215790259e+02
-1.285934787939049329e+03
-1.213128614808747670e+03
-6.226873450131826075e+02
-5.755421025830608528e+01
8.643382467810223488e+02
1.574964207048719572e+03
7.112778136031521399e+02
-1.562686791852155238e+03
-6.312885087034429489e+03
-8.303356583173897889e+03
-7.525114288218566799e+03
-7.585145762204044331e+03
-7.556476039629336810e+03
-7.402119501278618372e+03
-7.724147944997775994e+03
-8.529563827587669948e+03
-9.395363622407247021e+03
-9.625611975055046059e+03
-1.071825238472452656e+04
-1.175856133595578103e+04
-1.169857583972813336e+04
-1.022828488394502165e+04
-6.232627368799449869e+03
-8.034633773153491347e+03
-9.951311681036917435e+03
-9.023619343536078304e+03
-8.098533911886102032e+03
-7.451005142837374478e+03
-6.614021557496549576e+03
-5.949524419797244263e+03
-5.326489546624872673e+03
-3.541911713542972393e+03
3.400179595810157934e+03
4.929775714401703226e+03
3.427847230113877686e+03
4.508399062503982350e+03
3.828427574844153241e+03
2.573882150107739108e+03
1.395744671029827259e+03
8.349500505971610664e+02
3.094352171188629086e+02
5.642423995781178974e+02
7.434001723172921174e+02
1.163911025687367555e+03
1.405823330941491349e+03
2.381159176167160695e+03
3.397982651102446653e+03
4.166359710462887051e+03
4.537321063132852942e+03
5.349939050666613184e+03
5.674280804720919150e+03
5.516308226044066942e+03
5.102039680357773250e+03
4.778492960630573180e+03
4.358702057497612259e+03
3.581697889559203304e+03
2.326447429827686392e+03
1.181959673961504905e+03
1.912108112321241151e+02
-5.308436213556174152e+02
-8.712051177311169567e+02
-7.358734264765273565e+02
-4.027781389891271715e+02
3.231480168385364777e+02
1.103889198201275121e+03
2.093508640079919587e+03
2.555051323917682112e+03
3.071570084566486457e+03
3.492173382365436737e+03
3.849976653510984761e+03
4.301945834032186212e+03
3.907201401709078254e+03
3.912884059758060630e+03
3.686167447781953342e+03
2.883970481137023853e+03
2.076387793301299553e+03
1.222633409282286038e+03
4.646093649588105450e+02
-4.556748523071328805e+02
-1.185245422241296183e+03
-2.840141984012482681e+03
-6.156396900176413510e+03
-5.891973721577288416e+03
-5.570312993172367896e+03
-1.393478787232309969e+03
7.624631762487842934e+02
9.599746644596978058e+02
1.271697266019838025e+03
2.274976322075534881e+03
2.827837640285106318e+03
2.938333276279442998e+03
3.008517781248914616e+03
3.078401082509274602e+03
2.281024993371560868e+03
1.726342583868025258e+03
1.406371760206071258e+03
5.050836107575716483e+02
-4.324939800827781937e+02
-1.131390137729434855e+03
-2.276687080996049644e+03
-2.375410977635097879e+03
-2.479550804415911443e+03
-2.373056236018604068e+03
-1.877957429239769681e+03
-1.056190977687030681e+03
7.727349461291886712e+01
7.684812068656763131e+02
1.160475794982153957e+03
1.536288568202964598e+03
1.771995568399571766e+03
2.032648554039078590e+03
2.216224088278105683e+03
2.135723054796954330e+03
1.788149070567363879e+03
1.574488939856557408e+03
1.094743350527818848e+03
3.958241496183123900e+02
-7.852788856272698013e+02
-1.511621450921309815e+03
-1.986260711097056173e+03
-2.348252149269612346e+03
-2.551600691512926915e+03
-2.409266199576010422e+03
-2.250267935067396138e+03
-1.717641123624344345e+03
-7.833550039485966181e+02
1.845806876806652781e+02
6.152051261619271827e+02
1.071549424355949213e+03
1.520643272247900768e+03
2.081512698111077952e+03
2.440177069228599976e+03
2.325570650596336691e+03
2.017680868189189368e+03
1.239468512411229540e+03
4.468985116877713040e+02
-1.280458028865040490e+02
-1.422427402915662469e+03
-2.004313192054240062e+03
-2.572701670129560171e+03
-2.903718815027154051e+03
-3.065505000243069389e+03
-2.986934482081798251e+03
-2.757110949654369506e+03
-2.047130250630981891e+03
-1.341981836087644297e+03
-2.016384279132091478e+03
3.597394160347225807e+02
9.612716011550377289e+02
1.742551429480818115e+03
2.519530100853083241e+03
2.951139227117803330e+03
2.811299019755421796e+03
2.081098369058170192e+03
1.771342339389560493e+03
1.454516210580241250e+03
6.683587440003175288e+02
-4.014939563136905463e+02
-1.304462586886867712e+03
-2.282373655849265560e+03
-2.679386675476245273e+03
-2.634458251023351750e+03
-2.437800231168791015e+03
-1.745265680820781654e+03
-1.053543730678014299e+03
3.497505545364165869e+01
1.045684925725799985e+03
1.644304811497453784e+03
2.339557549203555027e+03
2.638630267141554668e+03
2.832307941212017340e+03
2.990089164969328067e+03
2.856301693980569326e+03
2.501872390181608807e+03
2.115210774263358871e+03
1.478538981839169764e+03
7.240926894247754717e+02
2.348578470438165198e+02
-8.202084436478232874e+02
-1.650592525596183577e+03
-1.966593506785889531e+03
-2.381269730695190901e+03
-2.207653662890885698e+03
-1.588777140863943714e+03
-8.471346392829238994e+02
-6.047032794648624332e+01
7.577488190416465841e+02
1.107967389555204818e+03
1.110248411041133977e+03
1.606637414707451398e+03
1.386522018018450524e+02
-2.542656548640339679e+03
5.330290298309406580e+02
2.069916363363416167e+03
1.880903813826922033e+03
1.588793610766934535e+03
1.529439308296112813e+03
6.663735211548123516e+02
-4.277437250993044699e+02
-1.346045766891309086e+03
-1.763654661690242392e+03
-1.737628713969842920e+03
-1.896844390686013185e+03
-1.198290490875944442e+03
-2.110169024195444649e+02
6.229964238513913415e+02
1.389851683442358080e+03
1.532528218152078352e+03
8.510379021255102998e+02
-3.040260536894931647e+03
-2.917524315881400071e+03
-1.329869213421390896e+03
-8.591523755278349199e+02
-3.430230186530200740e+02
1.786344704634549544e+03
-1.880146033745717205e+03
1.026479791329136333e+03
-2.206797101962624311e+03
-3.733949207137515259e+03
-4.994967862599279215e+03
-3.215891680947705936e+03
-8.549786983503388910e+03
-5.002676373448254708e+03
-1.017478488319789221e+03
-4.126108384083310739e+03
-1.020522615356248821e+03
-2.509631080584889787e+03
1.089711575511099909e+03
2.054557581561319694e+03
-7.070294654991580501e+02
3.001018870934358347e+03
-1.060212502036844398e+03
-1.119767065917591935e+03
2.444351753624193407e+03
-1.051768722871509226e+03
1.809890827538840085e+03
-1.799670607680800686e+03
9.358878990059709224e+01
2.776721686428380735e+02
-4.643881672362314248e+02
-2.788627060787621303e+03
-6.203029745686601018e+03
-3.458561647641062336e+03
-1.362164499059924538e+03
-1.083754925626430349e+03
-5.252542876763612867e+02
1.811423931694255771e+03
-7.376920686322521306e+02
3.143600101473559221e+02
3.724651415726699724e+03
4.136332770482780688e+03
4.698406017170125779e+03
4.628771625158527968e+03
4.308436562839707221e+03
3.813497653006046221e+03
2.951045941110275635e+03
2.318090233900497878e+03
1.540723702977661560e+03
1.419799730204964021e+02
-9.071837552012717651e+02
-1.026821209755843256e+03
-1.157954699318029725e+03
-1.445519703926745251e+03
-8.934880566944634666e+02
-1.794051511517272957e+01
9.113508240555579505e+02
1.571447322368120467e+03
2.093651844841576349e+03
3.046158783033287364e+03
3.695985855529710079e+03
3.588164144517701516e+03
3.655684165964679323e+03
3.642570859419842236e+03
3.056000911721726879e+03
2.127807221398275033e+03
2.504904797732202496e+03
1.847291195620093958e+03
5.007824732355089168e+02
1.913612558541700253e+02
-3.649591786661031847e+02
-1.056812491816717056e+03
-1.581625200543154278e+03
-1.938346613547128300e+03
-1.839023691826007280e+03
-1.790702775219545856e+03
-1.227446596188741296e+03
-2.212175979806694102e+02
8.800541671154453525e+02
1.704309331434914384e+03
2.150275037061102466e+03
2.321497828097850288e+03
2.675666819804644547e+03
3.055327701210014766e+03
2.994526155811421177e+03
2.959781301299365168e+03
2.562849590374547006e+03
1.847655845009194536e+03
1.124236241443150448e+03
6.014550530397793864e+02
-4.638133159168407360e+02
-1.192606784633392863e+03
-1.694906035616592135e+03
-2.063900495501595742e+03
-1.789767681877923451e+03
-1.615578658343114967e+03
-1.052190468784420091e+03
-1.275152149909352914e+02
7.205230513265079253e+02
1.293799978970705524e+03
1.800363739133030549e+03
2.053313232434842121e+03
2.463589626060948831e+03
2.675116718777251663e+03
2.760869379729949742e+03
2.873844241189211516e+03
2.652029661146394119e+03
2.124346878425024443e+03
1.225733423469328272e+03
4.460995388228863021e+02
-3.205988962524388626e+02
-1.311412394796360331e+03
-1.733341572238664867e+03
-2.310491669826033103e+03
-2.527929220106520461e+03
-2.300525859758158731e+03
-1.462109667205429560e+03
-7.246837971287390019e+02
4.757863065478480813e+00
-8.388029595107917658e+02
-3.290492955674650602e+03
-7.720268943638238852e+03
-8.516127171755386371e+03
-7.689165596183938760e+03
-7.533407067801984340e+03
-7.309832171996754369e+03
-7.480341156091331868e+03
-7.184002187959347793e+03
-7.527987314332852293e+03
-8.431843470062147389e+03
-1.023083125297442530e+04
-1.117200163975962823e+04
-8.876816643069940255e+03
-1.760178452492337783e+03
-1.494137513514111788e+03
-1.562666751036631467e+03
1.651516854503865943e+02
1.262394089977920885e+03
2.506095406673215621e+03
3.272305845326616691e+03
3.963032230713120498e+03
4.579388532511849917e+03
4.946407553473164626e+03
4.903019255812611846e+03
4.980423905787024523e+03
5.199661604918869671e+03
4.536659040782245938e+03
3.726334517610103376e+03
3.076425970428193523e+03
2.323870677250062727e+03
1.314691574858296235e+03
3.188730035258799944e+02
-3.276105100949753250e+02
-6.236758482597496140e+02
-5.542136493312874563e+02
-6.223388327327055549e+02
-1.391342900565272771e+02
8.583872709865221395e+02
1.742303818158342438e+03
2.555668290580330904e+03
3.286531890941681013e+03
3.789972078051644985e+03
4.365046697114858944e+03
4.498808337621323517e+03
4.307255799339016448e+03
4.113409421239061885e+03
3.782240866286869732e+03
2.899722914401767866e+03
2.165804993066866245e+03
1.664520853582644804e+03
9.948204827843362636e+02
2.057076748108131312e+02
-4.178283908943867004e+02
-8.938349745894098533e+02
-1.073318725439270565e+03
-1.041182505016560299e+03
-7.264715585579316439e+02
2.099121934449712512e+02
1.105105783000905149e+03
1.751085304640520690e+03
2.325803332261313244e+03
2.568295475842113319e+03
2.659712511582252318e+03
2.973059407572241525e+03
2.943347687284470794e+03
2.838621422549006184e+03
2.934785789906781702e+03
2.781013897061671742e+03
1.726312991071461511e+03
1.877607319885930792e+03
1.073831843092827967e+03
-1.005128754878462246e+03
-3.478200518496067616e+03
-2.438262624863408291e+03
-2.344110170606912106e+03
-6.285120398315828425e+03
-8.205213619535730686e+03
-6.688292299183682189e+03
-5.226208843110689486e+03
-3.596980048133901164e+03
-5.886126338086362466e+02
7.139892178654372401e+02
-4.524183410107286363e+03
-7.121315963241675036e+02
3.651660003768189426e+02
-3.204222920021858044e+03
-3.401248200709744197e+03
-5.250875766344883232e+03
-6.426170686337243751e+03
-5.280168498661132617e+03
-4.724875571499671423e+03
-5.664357309844584961e+03
-7.984644029804222555e+03
-3.886791205146331322e+03
-2.274736597167680429e+03
-3.485438920137230525e+03
-1.774016328155501697e+03
-3.276450317294547858e+03
1.947348446665365600e+03
-5.561003553382184883e+00
-3.616105202433211161e+03
-2.936246657402676647e+03
2.492018215801344923e+03
8.366047519245954334e+01
1.446689424108087223e+03
-6.028481163189178460e+02
-5.928686008029059167e+02
-5.164580101912137025e+02
-7.367481103754016658e+01
9.724582568830131777e+02
2.624876966317409369e+03
-1.906447760657823437e+03
1.254174856100292743e+02
-2.389577286871952310e+03
-1.894314004198402586e+02
8.758590503277879407e+02
1.618257430668662664e+03
7.017131217027969114e+02
-1.622336899223322462e+03
-1.535824711620466132e+03
1.264769636187257447e+03
3.432467344077429516e+03
2.800365615340451768e+03
3.714498559586767783e+02
5.038653265162981370e+03
6.205086188854583270e+03
6.262802560083898243e+03
5.533787686314655730e+03
4.377971461566623475e+03
4.027246630631630069e+03
3.435529018930323218e+03
2.557677634676099842e+03
1.735640499022109907e+03
1.266396394184179144e+03
8.318704456142502295e+02
-4.450267895206695812e+02
5.766286931970232672e+02
1.782402529463264500e+03
8.244563642508755947e+02
-1.044690496752873514e+03
2.913520066346614840e+03
4.809367498903401611e+03
5.159233036706602434e+03
5.169196177634084052e+03
5.347539972553134248e+03
5.427092453789970932e+03
5.389257399681692732e+03
5.185525782974315007e+03
4.282096082095253223e+03
2.982486917504083067e+03
1.764784051636064532e+03
3.781341806062788464e+02
-8.818658476485162510e+02
-1.427882904220024784e+03
-1.486222645987137867e+03
-1.387189571067091492e+03
-6.948519276603608432e+02
3.428592617272335019e+02
1.627700908134772590e+03
2.251217172634449526e+03
2.280102434168255968e+03
2.333845695645022715e+03
2.511575491169604902e+03
2.285119458154986205e+03
1.920483360871061450e+03
1.488815196474842651e+03
1.180375874857502140e+03
7.812510643578948475e+02
-9.264330900420202397e+01
-1.562442882833624481e+03
-1.956237094531729554e+03
-1.965050037628398968e+03
-1.960937304916748644e+03
-1.250019488857635224e+03
-1.794940448391512291e+02
-3.359943514361753500e+02
9.223770797438186264e+01
1.891997513818438165e+03
3.558507431315912527e+03
3.516743304844736940e+03
2.093746945336672979e+03
9.755574868655952514e+02
7.712273005117120874e+02
3.188424232727163599e+02
6.553719540580963212e+02
1.598769630251279068e+03
2.511035174520300188e+03
2.684207540382435127e+03
2.858247211557640640e+03
3.695089080467460462e+03
3.026752747570974407e+03
-1.475827614145217012e+03
-8.228705381011839563e+03
-1.431289571078857443e+04
-1.510040613572103393e+04
-1.443915529223077101e+04
-1.352718878548555767e+04
-1.198448823426479794e+04
-1.093395072802250434e+04
-1.013564026113492946e+04
-6.973521882472638026e+03
-4.882120455634422797e+03
-4.689594458766742719e+03
-4.787039365042724057e+03
-6.543371617446520759e+03
-7.245486719567488763e+03
-4.227466564856839796e+03
-1.193277106259713946e+03
-4.197871594588872540e+03
-4.163256382481406035e+03
-4.446405817923190625e+03
-5.485283342229727168e+03
-7.223891099106478578e+03
-8.804254477582280742e+03
-9.578410016304420424e+03
-9.654353276132538667e+03
-6.414046967047812359e+03
1.081582992258164268e+03
2.925639917307400992e+03
1.708172044798317756e+03
-9.707581385326565169e+02
2.476945719565438139e+03
3.328324372156529535e+03
4.049440035132108733e+03
5.705375534567221621e+03
7.043170555799008980e+03
7.256858913249650868e+03
7.705543201925179346e+03
8.845252840989043762e+03
8.940002429004372971e+03
7.167832989445484600e+03
4.155722981082524711e+03
2.405714433783915410e+03
2.447792876241214344e+03
3.571933049601819221e+03
3.006200610409727688e+03
2.944621826245751436e+03
4.676273218974971314e+03
6.212252555459909672e+03
6.884670121019968974e+03
6.935549736093779757e+03
7.133979502814876469e+03
7.505025388313544681e+03
7.314787243332795697e+03
6.868339812226582580e+03
5.920737392035282028e+03
4.769015117876537261e+03
3.557225840568653894e+03
2.668441123203484949e+03
8.496287423681925475e+02
-2.533158931828218556e+03
-4.499899322742478034e+03
-4.175601309604157905e+03
-3.449316347103337648e+03
-1.875079006451021087e+03
-7.499706097859959755e+02
-4.428478601807490236e+02
6.117248182375428769e+02
1.543263888350597654e+03
1.380708806037027671e+03
8.479096342702459879e+02
6.260067488252979047e+02
1.692015205279063593e+03
2.367015914183146378e+03
-4.050444441413690697e+02
3.418392656641868825e+02
1.450788300639529325e+03
2.637887032678891046e+03
2.799108678282517758e+03
3.392442810478103638e+03
1.787495397890416371e+03
5.452689088502302184e+02
-1.082430944635815422e+03
-2.175497302883381053e+03
-3.338009353497921438e+03
-3.998037752254954739e+03
-4.624533453057727456e+03
-4.766478995197176118e+03
-4.302843205115052115e+03
-4.514575945479690745e+03
-2.599639186469729793e+03
2.599987613297946041e+02
3.037378890249226515e+03
4.778542610655397766e+03
4.313531562493199090e+03
2.857289944272031335e+03
1.633796966664156571e+03
4.130834567897960028e+02
-9.398125127631320765e+02
-8.049511081667142207e+02
7.506017746921554590e+02
8.768392256513578786e+02
-1.252614716304406102e+02
-1.750781034950378626e+03
-2.700780711383726157e+03
-3.289290584135595964e+03
-3.718325994634565177e+03
-3.648916551093742328e+03
-2.786041086679785167e+03
-1.448713961993800467e+03
-3.058975523055501071e+02
4.974210240159331988e+02
1.217255948329898501e+03
1.720636741194638262e+03
1.488592406963423855e+03
1.634055942292197187e+03
1.314969044085679798e+03
8.513265467461800426e+02
4.390783300631578072e+02
-3.127907243602751350e+02
-1.285299397325284417e+03
-1.764527059177994261e+03
-3.157541497649944631e+03
-3.673424417392729993e+03
-2.327277047691033658e+03
-1.314129731698986461e+03
-1.500036600795177264e+03
-1.803039687677575102e+03
-9.740944918330477549e+02
-3.701725423023736994e+02
3.446696335951633046e+02
5.394308480606213152e+02
-3.459286865171681029e+02
6.375140145467894399e+02
1.907850373066896964e+03
2.318088721181587971e+03
1.914037176767224310e+03
-3.452761659392330102e+02
-1.760752598932381034e+03
-1.881385927868581348e+03
-8.645751240317803195e+02
-1.625351160592903398e+03
-3.313030217966633245e+03
-3.952932012985163055e+03
-2.675462363096795798e+03
-1.772674191388465260e+03
-1.600695309253162804e+03
-1.051713048933515893e+03
-4.086226576816255829e+02
6.011849412279180171e+01
4.076970438889669168e+01
1.864843741089755156e+02
8.086559183891441762e+02
1.571039778872821444e+03
1.902745273665640980e+03
2.122706802829590288e+03
2.397677298320629234e+03
2.374630538929002796e+03
1.990628863958191232e+03
1.282785230570402973e+03
1.395498796019336169e+03
1.811849098713189278e+03
8.060143402134904136e+02
-6.453164763072221604e+02
-1.370904925812043984e+03
-1.537320283382485513e+03
-1.093085457308852483e+03
-3.640337167904870057e+02
4.335794076665098942e+02
5.663080197908451510e+02
5.167504451028654557e+02
1.269607663429166450e+03
2.636154264966149640e+03
3.180272167600259309e+03
3.531902944767763984e+03
3.538948334608467121e+03
3.364318718743466889e+03
3.477935627174899309e+03
3.136278608908269234e+03
2.385854001554881052e+03
1.850968905524067850e+03
1.003246235584686701e+03
-8.382773561269689253e+02
-3.194632038814837415e+03
-2.053709705739764559e+03
-1.409360909477176619e+03
-7.777464318560647598e+02
-4.960909517269716957e+02
-2.554481137576133563e+02
-1.205087615669031891e+02
-4.759613321591450585e+02
-1.164880688426932522e+02
8.631482516035003982e+02
2.123076265692248398e+03
3.433375681976481246e+03
4.361082697558111249e+03
4.463092894642650208e+03
3.959436710482205399e+03
3.503140004161549768e+03
3.071244998102044974e+03
1.935699774891661946e+03
-1.092632950147275551e+03
-6.864405356577006387e+03
-1.009583192830063854e+04
-7.545020202567727210e+03
-9.053787383267006589e+03
-3.383030351510568380e+03
-6.095210514952288577e+03
-1.356210268945300413e+03
-5.218989234719755359e+02
-2.189040635198658038e+03
1.188252941628382814e+03
-1.565982255356612313e+03
2.447308290182245401e+03
-1.428156494343625980e+02
-4.117299960542726694e+03
2.393870458651642821e+03
3.687443549348565739e+02
-1.023661328298978106e+03
-5.131300424085870873e+03
-4.853207928407131476e+03
-2.428427892000583142e+03
-2.235964399418926860e+03
-5.161893148174453927e+03
-4.626239809678372694e+03
-4.530010582667843664e+03
-4.599183196061772833e+03
-7.210691653252593824e+03
-1.702469019594285555e+03
-4.321481666508498165e+03
-7.664662575513249010e+01
-7.369417754683348676e+02
9.546615354913856208e+02
3.617210925630120073e+03
3.905748016128986364e+03
4.993309308169473866e+02
2.073006508798669074e+03
4.089727507756569139e+03
4.477442215411222605e+03
3.943134508779436146e+03
3.079744156626104541e+03
1.960221728825958053e+03
1.055635618645972727e+03
4.279026642181923989e+02
1.749058054641948274e+02
-7.736591628256297781e+01
-3.498130718133411392e+02
-4.042620656402484087e+02
2.828904898493670217e+01
1.279841418672489908e+03
2.530468649190593624e+03
3.130132290178893527e+03
2.887763604551572371e+03
3.196380696987777355e+03
3.915048298824265203e+03
3.831744150662707398e+03
3.746387328302273545e+03
3.624074536092530252e+03
3.195175575415194999e+03
2.647943882217403825e+03
1.620255150621093890e+03
1.337689779561926116e+03
8.141482728311751771e+02
6.695497815428095123e+01
-4.369493227931110937e+02
-2.138516914911761432e+03
-4.250822647754570426e+03
-1.071193456542055173e+03
-2.485134566652812396e+02
4.743780375315752167e+02
1.052576197600698606e+03
1.880210255546084909e+03
2.309261199042686712e+03
2.567374304768378806e+03
2.849495353846134094e+03
2.720196377552055310e+03
2.567269917128387988e+03
2.957097264182602885e+03
2.944958646554002371e+03
2.770096020952806157e+03
2.258454583501643810e+03
1.567960992240851056e+03
6.445334590543656077e+02
-2.831539857934246243e+02
-7.895084542387736519e+02
-1.067814444179204884e+03
-1.004271880571149154e+03
-6.071263280249929721e+02
-1.336290509968100082e+02
2.533292811130230291e+02
7.766957384670292868e+02
1.146352167095165441e+03
1.499305820500358095e+03
1.942664494479637824e+03
2.405342554945208121e+03
2.636263106421604334e+03
2.905474947413985319e+03
3.003139799886356741e+03
3.041304794557767764e+03
2.765898926373451104e+03
1.992764648924661742e+03
1.440755790398796307e+03
2.969787686169607355e+02
-7.016405478484927016e+02
-1.473275121085832097e+03
-1.311964614768387037e+03
-1.633652539506855646e+03
-1.599300019803799614e+03
-1.264951301700250724e+03
-4.945875893460620887e+02
4.208724516740202262e+02
1.061440490924225514e+03
1.604208901204292715e+03
2.198185966286785515e+03
2.850427558991124897e+03
3.026942403983933673e+03
3.080769656901115923e+03
3.172054922284083659e+03
3.078732918646047892e+03
2.472606552217301214e+03
7.036358822433187470e+02
-3.196293217099612775e+03
-8.615226231955881303e+03
-1.222813343427694781e+04
-1.324910273068807874e+04
-1.268115201255168540e+04
-1.284818458030534930e+04
-1.215017260229407475e+04
-1.139614825635054876e+04
-1.014619378212211450e+04
-9.202383266332280982e+03
-9.063097964988273816e+03
-8.313540409486025965e+03
-7.884610682645050474e+03
-7.465527618102426459e+03
-3.412309284262474193e+03
2.787007655341125428e+03
3.924622096622510526e+03
1.976525552823710768e+03
3.154764287447121660e+03
3.048325649534186596e+03
2.223214957635324481e+03
1.469415721853507193e+03
7.259431311322193778e+02
1.857613937028523594e+02
-4.818843779429186469e+01
-3.328167590359487349e+02
-1.913026500159463694e+02
7.302726618641501091e+02
1.409927483321231875e+03
2.499749956175398893e+03
3.072932547589067326e+03
3.228625041136702748e+03
3.401868422154578184e+03
4.010783624568154664e+03
4.207392159200755486e+03
3.916607609988763215e+03
4.012324787169230603e+03
3.853616264580957250e+03
3.378589593161300854e+03
2.911338776614501967e+03
2.260828575423633538e+03
1.617061560720716670e+03
7.390207713804107925e+02
9.866972997693190450e+01
-4.300093904495130914e+02
-6.810378873506149375e+02
-9.063843778191306910e+02
-7.400266649239077879e+02
8.126001286807165158e+00
9.511441146493161796e+02
1.500163089098765568e+03
1.845190114712381501e+03
2.282312889318195630e+03
2.208617881159736044e+03
2.343099795379967873e+03
2.741814802193901869e+03
2.845787640568761617e+03
2.731052869501950681e+03
2.291688403423204818e+03
1.671649682223094487e+03
1.188828409696964400e+03
2.452340476029430079e+02
-9.691493729779310797e+02
-1.622435144961000333e+03
-1.646708235355643865e+03
-1.664600914448754338e+03
-1.518581384676609559e+03
-1.479662583562927239e+03
-1.790152243313375038e+03
-5.833779532787390281e+02
4.599133354840915899e+02
8.140982060230849129e+02
1.084952126245162844e+03
1.596749669122865043e+03
1.833517171898501147e+03
7.001137776120036733e+02
-1.525607462606294803e+03
1.092564170871916758e+03
1.865706084693213143e+03
1.439736737153702052e+03
1.159458688290686950e+03
2.128969100467076885e+02
-8.799143179093964591e+02
-1.473994165586353574e+03
-1.771348293796347434e+03
-2.340943507125207816e+03
-2.657705788590311386e+03
-2.431652550657381653e+03
-1.893807259591767206e+03
-1.227129429289767131e+03
-4.425528399692348671e+02
1.659807500470985531e+02
7.164447719570226809e+02
1.134868079114995908e+03
1.825319221752329895e+03
2.047804169422571931e+03
2.050254413881549226e+03
2.003603502577347172e+03
1.263972684159294431e+03
6.224120594701687423e+02
1.048665926143173834e+02
-8.777545626900890738e+02
-2.069523670925586430e+03
-2.539478059650429714e+03
-3.010654867575859498e+03
-3.027038091348269063e+03
-3.006610615747465090e+03
-2.677449798952027777e+03
-1.669587469981928052e+03
-8.709409740799812880e+02
-5.354868841607863033e+02
-2.732241365446216150e+02
2.228923070056586084e+02
6.018275239657936027e+02
1.156584673754025971e+03
1.299197624162475677e+03
1.454633832209044158e+03
1.536898053922800727e+03
1.219059934768483117e+03
5.621803466896907366e+02
-1.180980494948537256e+02
-8.827994112102333020e+02
-1.597005191925988811e+03
-3.292714926361523339e+03
-3.954953469056292306e+03
-2.793749203213354576e+03
-2.929121017718538042e+03
-2.830120742322462775e+03
-2.007805306574834958e+03
-8.941992260730626185e+02
1.846746142687196937e+02
6.137967364776071690e+02
1.070214275025749657e+03
1.357993308291393078e+03
2.025101947168262313e+03
2.195475023523862546e+03
1.370604238894659943e+02
1.211834272448178808e+03
1.883306990758607526e+03
1.544608647899730386e+03
1.164697503708600379e+03
5.204330773246067565e+02
-3.299723371410095751e+02
-1.421601176667383470e+03
-2.622479560618544838e+03
-1.322488889917008237e+03
-1.350474164547209057e+03
-1.226775456533524903e+03
-6.873480088913277086e+02
3.737673926157901292e+02
1.293118003580720369e+03
1.642303737541546298e+03
2.260880339675535197e+03
2.472353623966282612e+03
2.932382412697082145e+03
3.333744482778997735e+03
3.453573971911406261e+03
3.519767232349915048e+03
3.071537656598150988e+03
2.543908006563545769e+03
2.167752837781080416e+03
1.288990585565426045e+03
2.785714958157720389e+02
-2.676188955525180404e+02
-5.677923480394255193e+02
-4.630945670781468948e+02
-5.037968747884328309e+02
-5.762454331817447155e+02
-1.715981679848184172e+02
5.375691598715816326e+02
1.377966551994542669e+03
1.941737727907138378e+03
2.773380825373926655e+03
3.334025539053885041e+03
3.714612622538489177e+03
4.127169214132331035e+03
4.510691120682619839e+03
4.646187185333416892e+03
4.209607618370523596e+03
3.729919685097615002e+03
3.212081756912261881e+03
2.176116032705743237e+03
1.469970257204755171e+03
4.406138225401915633e+02
-1.240140709971129098e+02
-2.370256180826470143e+02
-1.324411617382640998e+02
-1.812143234617907694e+02
2.137169072230209110e+02
9.523682684691120812e+02
1.603701205774000982e+03
2.148818309599450913e+03
2.571760262815792885e+03
3.408563661431429864e+03
4.011270029739298479e+03
1.898905333354676941e+03
-1.848503308010592036e+03
-6.395038494458525747e+03
-6.843661568227495081e+03
-7.060352878721371781e+03
-6.660267479057652963e+03
-7.102312577575024989e+03
-9.044043580164003288e+03
-1.016285416866487321e+04
-1.096470826475864123e+04
-1.080068437135048953e+04
-1.073079704744085939e+04
-9.921082247291338717e+03
-9.301438738223449036e+03
-8.176814086052978382e+03
-5.001165206461365415e+03
-6.504241698924183765e+02
-4.278524086560314572e+03
-5.666477221011119582e+03
-4.850195944975265775e+03
-4.624625173144467226e+03
-4.526749827742777597e+03
-4.599543155125947123e+03
-4.880970871827847077e+03
-4.423973711079250279e+03
1.973467186328062326e+03
4.233317240111943647e+03
1.599552395972262048e+03
1.953149262398235123e+03
2.017128423709773188e+03
1.713515821190218048e+03
1.302325485639948965e+03
1.242598880716807571e+03
1.970394932654747890e+03
2.286765904445311662e+03
2.857775322908601083e+03
3.562506400675151326e+03
4.725992579466985262e+03
5.055305298757619312e+03
5.452513719096948080e+03
5.743672965915267014e+03
5.681825630130425452e+03
5.603975410094772997e+03
5.170182167820604263e+03
4.630512313070481468e+03
3.855001543263425447e+03
3.238563060866374144e+03
2.600267700858031731e+03
1.498078702662159003e+03
7.830024821064336038e+02
5.770399888636520700e+02
2.181907490995701835e+02
4.504968962294963148e+02
4.409567152333796116e+02
9.476685473610721147e+02
1.914688421939543332e+03
2.403104891796150241e+03
2.744971632811528707e+03
3.199353324189542491e+03
3.429296765856056936e+03
3.921702187444088850e+03
4.347635447148268213e+03
4.250365953929396710e+03
3.945479096943003697e+03
3.398052613788932376e+03
2.636867344516800586e+03
1.963813588347717769e+03
9.759347381083018718e+02
-5.558965440071540343e+02
-2.195616946634582291e+03
-5.690358448311833854e+03
-5.479111102292057694e+03
-4.567711202705943833e+03
-1.310247637524644233e+03
2.336680828030337764e+01
3.963113144986521661e+02
8.163649053403152038e+02
1.476792492424289776e+03
2.050209507414554992e+03
2.458747035541259265e+03
2.864058100740672216e+03
2.906327271493501939e+03
2.873455989167999633e+03
2.746444768122843016e+03
2.330288853833151279e+03
1.483960975659434780e+03
7.704230140299383720e+02
-3.233688398370325672e+02
