4.508932748805158553e+03
3.875683318340004917e+03
3.293212081332231264e+03
3.042607439213701582e+03
2.921974326023178946e+03
2.445440845517900470e+03
2.091998565170461006e+03
2.343607885814961719e+03
2.150304266351656679e+03
2.285175894945200071e+03
2.536339443914656840e+03
2.392836025521222382e+03
2.148782185283487706e+03
2.063267163395087209e+03
2.362311604805814568e+03
2.536990268756572277e+03
2.405381817142008913e+03
2.148578096957758135e+03
2.402626797175720640e+03
2.450533370238541465e+03
1.906333156040959238e+03
1.515307645529735964e+03
6.336647712066435361e+02
1.505564612251931749e+02
5.967333608462877237e+02
1.328243965592713266e+03
9.040631628249035430e+02
2.010379015018347957e+02
4.402607382283285915e+02
1.243834672528601004e+03
1.891857053251912703e+03
1.587555343507380712e+03
7.591576205502867651e+02
1.697685972717153845e+03
1.901156644850465000e+03
1.154468967966965693e+03
1.709428522842763186e+03
2.171028048453064457e+03
2.145603796110474377e+03
1.653015055959638175e+03
1.609092159424619922e+03
1.396793235014342372e+03
6.420878905003230557e+02
1.159510757781571897e+02
-7.955390060837530086e+01
-2.254337510265651758e+02
-8.527187874084287387e+02
-8.393792756663151522e+02
-6.924005423383990774e+02
-3.667274519314957502e+02
-3.340304609214901177e+01
5.496475973625315419e+02
4.824172586382796908e+02
2.494748352019441384e+01
1.012212035566716963e+02
2.632158857102562024e+02
2.699318171471949768e+02
2.363942560396481269e+02
8.015974659816871508e+02
1.176530815654106163e+03
5.731589822111072863e+02
-3.585268626542816151e+02
-2.994947657114061030e+02
1.330977127531137967e+02
-5.007858616535613692e+02
-1.528147802936596236e+03
-1.290006780104534073e+03
-1.111377404238330428e+03
-1.346259962884106926e+03
-6.806655707075050259e+02
2.503741612793293427e+02
2.929213260471199192e+02
-3.420874142846328141e+02
-1.557620385146477986e+02
6.639076029542470678e+02
6.838882432334640953e+02
3.111580100556251409e+02
7.386857325819396465e+02
7.614669880058545459e+02
1.081507773207616310e+03
7.037672140928117415e+02
4.511192950687368466e+02
-4.654976084206820133e+02
-3.543085739725700023e+03
-7.537673284896595760e+03
-1.145640461615144523e+04
-1.263234918682197713e+04
-1.127452690328898643e+04
-7.674901881795034569e+03
-2.154557951346808295e+03
-3.485522097513465383e+02
-2.898608932554132593e+02
1.704865932221100877e+02
4.693672063266209307e+02
8.956614560469955677e+02
-3.171753230822281466e+02
2.135049250652058390e+02
6.106692348099594483e+02
8.195836279924196788e+02
8.456528460107218734e+02
9.158978758503286599e+02
3.283560641695945606e+02
-8.902740485950324967e+01
-1.132284179138908939e+03
-1.696491907867120062e+03
-1.736673586797018743e+03
-1.857849040671245120e+03
-1.464159737386168899e+03
-4.396468951482061698e+02
3.596680856000808717e+02
1.337379925726721126e+02
6.195805480343586851e+02
1.345150877818698973e+03
1.053370000066054672e+03
1.893113448851889586e+02
4.909125290295380637e+02
9.861474740878724106e+02
2.011963627654779430e+03
1.562297456031439651e+03
1.690123711277214397e+03
2.039434964255848627e+03
1.534196251834451914e+03
6.203221627300011960e+02
6.118091175405781996e+02
1.064627183754846556e+03
3.507515149154692153e+02
2.212391371848723409e+01
5.346461462419229065e+02
3.143208074269441568e+02
6.361486067397877378e+02
1.453114386679466179e+03
1.939247944634487567e+03
1.918549675042994522e+03
1.885983700448790842e+03
1.959543197900955420e+03
2.464267036718373220e+03
2.048076681036300215e+03
2.121961211065152838e+03
2.005948602449844657e+03
1.768014974627163838e+03
1.230153070910024098e+03
6.923701128397707407e+02
2.616774032041108171e+02
-7.496000439936300097e+01
-6.945974491799744328e+02
-1.028260846933812445e+03
-1.009522285462985565e+02
8.093175160636621968e+02
1.527564719522481710e+03
2.057822230863436744e+03
2.297150871586511130e+03
2.192514448290342898e+03
2.115978694695238119e+03
2.759515266767111825e+03
2.897118232888830789e+03
2.720871564214106456e+03
2.857761099137681413e+03
1.766847720928746639e+03
-2.637829341649539856e+03
-3.658281741413994496e+03
-3.026494239698427464e+03
-3.204421290810630580e+02
-1.871176470491473310e+03
1.058338408863433415e+03
-3.719878031773341718e+03
-5.272779644308528077e+03
-4.323404633291080245e+03
6.712714863563782046e+02
-8.207179834386258790e+02
-5.489305161932776173e+03
-2.934451634166632630e+03
6.590159483206277002e+01
-1.968213539944958939e+03
-3.117658692208282218e+02
-2.677698918000126014e+03
1.164979935051575694e+03
-1.112714320220296713e+03
-3.830787698275833918e+03
-4.481692175802596694e+02
-2.159831753489096627e+03
-3.796708683150690831e+03
-6.318751917160103403e+03
-4.736984360703572747e+03
-5.672392543302923514e+03
-3.423918729290208375e+03
1.445432231167696500e+03
8.006724641110969287e+02
-3.297156651742605845e+03
-1.061002349430284312e+03
-1.790830732459005958e+03
1.479372722399076338e+03
1.934688938809396404e+03
-1.381866904650323477e+03
8.337126624450165764e+02
2.554441560663472501e+03
2.881350541245391923e+03
2.654500423752775532e+03
2.487942008681404786e+03
2.511619257237244256e+03
2.246598166158364620e+03
1.711972240433189427e+03
1.114715504139791619e+03
9.718038231309268440e+02
2.992376599615190571e+02
-5.399474719372799427e+02
-1.347658858431912563e+02
1.097734764568122614e+02
2.377243111295730671e+02
3.280617446482324340e+02
1.918149639331252558e+02
4.329792343714158847e+02
7.316477343386793564e+02
4.990995058333779753e+02
4.087054422577648438e+02
1.062296239932963545e+03
1.704875088842582954e+03
2.132455469846118831e+03
2.255077661717063620e+03
2.163566471619391450e+03
1.928041872108397911e+03
1.288453190925974013e+03
-9.850682761921341353e+02
-2.953589192361572259e+03
7.477277718999154104e+02
8.118980691563683649e+02
3.541142057955150335e+02
-2.182585347149617050e+01
-2.973945293155136369e+02
-1.435081531864678709e+03
1.101159726683154076e+02
6.692407411580651342e+02
9.073016150624883949e+02
1.161194071632798114e+03
1.712939131529565429e+03
1.990395943767250628e+03
1.940575883547093326e+03
2.014520494280301818e+03
2.319064770309025789e+03
2.796305367260364619e+03
3.083285389598394431e+03
3.049105069251821533e+03
2.632204438084914727e+03
2.079360584753065723e+03
1.311953225448405419e+03
5.338793037267239470e+02
8.004325654367713128e+01
-3.567993380129047409e+02
6.627005183529580279e+01
4.323086842019607161e+02
2.763248827867070077e+02
4.502665282524253030e+02
8.951144028211135719e+02
1.160834338945346417e+03
1.213458397284852936e+03
1.878025388901792667e+03
2.326449929684386916e+03
2.043725626102465867e+03
1.432782360930354798e+03
6.665929355607840989e+02
2.341258557792898216e+02
3.663776884668086495e+02
1.618298851240656404e+03
2.300876891373868602e+03
1.902098676811520818e+03
1.008925553776380184e+03
4.963294228129407202e+02
3.861947040061608050e+02
4.055455163791157247e+01
1.583843194503272400e+02
5.986236132438748427e+02
5.293023179907684153e+02
6.904124123920626062e+02
8.379470952742094596e+02
1.053934122856806653e+03
1.482424928260259549e+03
1.711350659446895406e+03
1.292697360951860219e+03
1.145462150939829826e+03
1.067543873134070054e+03
8.889855232192860512e+02
7.768298474648750016e+02
6.508831048036267930e+02
2.408152376950666351e+01
-2.134396003660421684e+03
-5.483525210762778443e+03
-8.411471935897274307e+03
-1.003633758942596614e+04
-1.146108943686356906e+04
-1.133060981584441652e+04
-1.069301524601070560e+04
-9.685400632313590904e+03
-9.390673484852653928e+03
-8.687673835095043614e+03
-8.051549171762245351e+03
-2.371274154169560461e+03
1.215287389960021301e+03
2.261155634126451787e+03
2.805288345087282778e+03
2.817685207843586795e+03
2.455287205329851986e+03
2.540986827660080507e+03
2.366821640707913502e+03
2.093937097728181016e+03
1.308373346430186984e+03
5.290415567324347421e+02
5.160213146712000025e+02
-5.469148289450510703e+01
5.774500427625802956e+01
2.312656375299018237e+02
7.920383816529766818e+02
1.123122660261987448e+03
1.118447173603472493e+03
1.210994020781673271e+03
1.332816310807987520e+03
1.338935725134113682e+03
1.497315313135491579e+03
1.606043422410129324e+03
1.661264741696968940e+03
2.073967651290493450e+03
1.977112451128177554e+03
1.809730012735454238e+03
1.605978938680739020e+03
1.205953436552202220e+03
6.946722818396964385e+02
3.241017215100911244e+02
-1.058273872951564556e+02
-5.390753991739244384e+02
-3.086685716617203070e+02
1.065038781470370708e+02
-2.904238281090459282e+02
-2.835071756693199063e+02
1.642142175013566430e+02
-7.120758664958104589e+01
-3.669689644327982592e+01
2.086807014571637353e+02
6.910301096857741641e+02
1.125386562755847990e+03
9.258128132863542987e+02
6.733258448388954776e+02
6.180297761494610995e+02
1.248058221966413612e+03
9.465216789338549006e+02
2.656187257346301749e+02
-6.624414906465458444e+02
-1.055881378139082244e+03
-1.106749113147181106e+03
-1.541826562605845311e+03
-1.591318759493720108e+03
-1.551318533028016645e+03
-2.419901664241341223e+03
-5.270864547754315026e+03
-1.821228710311584791e+03
-2.399534417503619181e+02
-1.690981750428467763e+02
1.763733356278181077e+02
5.075175374667073811e+02
1.973926138228650302e+02
9.589201192808151575e+01
-1.149767476094899763e+02
-1.131635121596084019e+02
-2.825483312199538091e+02
-1.311316299460139305e+02
4.131032887482854221e+02
5.526372618003098580e+01
-4.267358928582082171e+02
-7.130040836726443558e+02
-1.306528936115251781e+03
-1.498150202975294405e+03
-1.574916009861757175e+03
-1.902896681206385892e+03
-1.245946551200157046e+03
-6.089749124974177903e+02
-3.720983033308203289e+02
3.627224652111690943e+02
4.945346367656351276e+02
1.353880404191794753e+02
-9.982171603953469230e+01
1.299259552217359044e+02
1.896765984453565750e+02
2.674049092171497364e+02
3.600843171318042550e+02
5.347351732261274719e+02
8.535476854592424161e+02
4.155001663888604071e+02
-1.065968208146292397e+02
-6.886748237986414551e+02
-9.927901953529335515e+02
-1.067037179270038678e+03
-9.034472124902272299e+02
-5.370097538964774913e+02
-1.706887605026127801e+02
2.155569180775299287e+02
4.936183979169481972e+02
6.945622696790449027e+02
8.264050635510997154e+02
9.420817322048550295e+02
9.766008428040400986e+02
1.198964141510004310e+03
1.882144281259353875e+03
2.256125126744678255e+03
2.051895154682796147e+03
1.660365382371486930e+03
1.555407216353393778e+03
1.264396230132156688e+03
5.770445201938936179e+02
-2.128005728000912313e+02
-1.771248598384007664e+02
-1.194004245622399019e+01
5.606612226096855238e+02
7.376919822543723058e+02
3.380950825063981711e+02
7.798859574360133138e+02
1.119053655517096331e+03
1.396495382490164729e+03
8.311185177431739248e+02
1.191556297466104297e+03
1.833808248955553609e+03
2.286322382928271963e+03
1.970551368494808230e+03
1.893076259754259354e+03
1.858742477512686719e+03
1.740834160025721303e+03
1.220994066604804630e+03
5.251474692818439962e+02
-4.026419951426701260e+01
-6.954987880112172434e+02
-7.935952649253061963e+02
-8.208267656010503970e+02
-6.328010882907215091e+02
2.625482027425153930e+01
8.885751306526042299e+02
1.426773697495417309e+03
1.878387273985067395e+03
1.750401675850245965e+03
1.858355586272659593e+03
1.735309565099503970e+03
1.838041203695284366e+03
2.169310133640399727e+03
2.111031627617785034e+03
1.982909004950358394e+03
1.916848234862083700e+03
1.606728495280694688e+03
1.414381808390239485e+03
1.049046865611154544e+03
6.942917530497453527e+02
6.272164747584408815e+02
5.261017693066106631e+02
7.614922626880531880e+02
1.084792790362851747e+03
1.185985526591508687e+03
1.232688476632383299e+03
1.570142982273335974e+03
2.050137968311656095e+03
2.468687884861246857e+03
2.771802866446183089e+03
2.912407217659173511e+03
3.203519585599851780e+03
3.308131206021855178e+03
3.080163860678910623e+03
2.769644607042837379e+03
2.495582302962825452e+03
2.531907927891324562e+03
2.171584725759934372e+03
1.950641508569276766e+03
1.238006698408180682e+03
5.226550840961525637e+02
-1.447423794337374147e+03
-4.796251314112233558e+03
-8.234837149122220580e+03
-8.639152798102704764e+03
-8.403204382724410607e+03
-7.728027626619570583e+03
-7.279636049288380491e+03
-6.673111074546563032e+03
-7.120396108120148710e+03
-7.292428497567480917e+03
-7.053203408404359834e+03
-5.232703854224178940e+03
-5.272716081485424183e+03
-6.574177472065747679e+03
-7.062554549520562432e+03
-5.161564146776574489e+03
-1.066180655225133250e+03
-4.673386948780773309e+03
-7.512165339624060834e+03
-6.989483531719203711e+03
-6.490528772169571312e+03
-5.978245317480304948e+03
-5.474564215416311526e+03
-4.695465000822918228e+03
-5.344930353930518322e+03
-5.184898420027104294e+03
-4.664341936390366754e+03
-5.081232465763578148e+03
-5.499544764788060093e+03
-5.597257267861197761e+03
-2.534364878146980118e+03
5.922476083859805840e+01
-1.009400724022593295e+03
1.222737937073733065e+03
4.673717904824995458e+03
6.145620707449029396e+03
5.669429118750937960e+03
5.196207088634017055e+03
4.704956711815250856e+03
4.124647514890787534e+03
3.886393204833870186e+03
3.270279652530488420e+03
2.219246216695775729e+03
2.684295662842829643e+03
3.615585386728183039e+03
4.200140860413149312e+03
5.001047786470503524e+03
5.224382660270253837e+03
5.019262758416926772e+03
4.603811650805781028e+03
4.711994069600354123e+03
4.656824326603326881e+03
4.342299216951184462e+03
4.193457276744868068e+03
4.546383422676393820e+03
4.521252989045934555e+03
3.573118491987442667e+03
3.435959508960866060e+03
2.857909097634870250e+03
1.426013944125604894e+03
5.091649534313270919e+02
3.053869045953200612e+01
-4.198095234395950115e+02
-6.099363178264528642e+02
2.416023979448290859e+01
7.385225579126888533e+02
1.586197116314481036e+03
2.201658726130385730e+03
1.845102244768074797e+03
1.553517912120097662e+03
2.345899510029546036e+03
1.855363801718036711e+03
1.040984016065462356e+03
1.584787899570847458e+03
2.391970671901378864e+03
2.227825816256906819e+03
1.527242274381127118e+03
1.321197453184332062e+03
1.909788259125215291e+03
3.180745698976979270e+02
-9.919311219349278872e+02
-1.915834967224526963e+03
-1.865270385909135257e+03
-2.467097615843889798e+03
-2.805295942187904529e+03
-1.721103406140851121e+03
-6.322717779895303920e+02
5.848943574176147422e+02
1.916397748724511302e+03
1.981285646871169320e+03
5.026272138853535694e+02
-6.606534059456233763e+02
-1.025091697650845077e+02
4.500720372625400501e+02
3.911615965312569756e+02
1.549762663712951280e+03
3.145840042341949811e+03
2.850436426383234902e+03
1.761527170823495908e+03
1.966065999913911128e+03
2.373044012649394517e+03
2.180485671680628457e+03
1.556379963243735347e+03
1.110698877566041119e+03
5.134520421067257985e+02
-3.513262002755541857e+02
-5.806151624074545907e+02
-2.514333434318924674e+02
-9.707338045869742018e+02
-1.866562001238321272e+03
-2.469918401998055288e+03
-2.582791607823187860e+03
-2.466225534844511458e+03
-1.126233918743353343e+03
-3.137980088355021735e+02
-1.200943129126722624e+03
-1.118724275926427481e+03
-1.318123896678869187e+03
-1.295232677016264688e+03
-6.390659049648060090e+02
-2.195947475913470157e+02
1.261409454517091007e+02
4.800703746947166195e+01
4.698477399174537084e+01
-5.158957674146512318e+02
-6.236602715244066530e+02
-3.843594303626677515e+02
-4.960382465438501072e+02
-8.846603998385851355e+02
-1.336236222379581477e+03
-3.585807609427916759e+03
-7.553468560175040693e+03
-1.143619160572038709e+04
-1.153999270312408953e+04
-1.253490036279477317e+04
-1.172496059631113349e+04
-4.355223401804731111e+03
-1.449740588870078454e+03
-1.256510736779352555e+03
-2.071710166308199405e+03
-6.722173024531184637e+02
6.212069550898677335e+02
4.469395901557650745e+02
8.029965688437721383e+02
1.361432404426910125e+03
2.382242104016453141e+03
3.999382744282240765e+03
4.213827802174761928e+03
3.399582526433092426e+03
2.764601530242544868e+03
2.422835864699489321e+03
1.947238386558089360e+03
1.770750892204804131e+03
2.713294709458859415e+03
3.030844525458663156e+03
2.515400222435330306e+03
1.777931082697642751e+03
1.842436306717301477e+03
1.833843346903545125e+03
1.014056597483525366e+03
7.780612805012808622e+02
7.767377058252226334e+02
1.250594938308586705e+02
3.400543853542750838e+01
1.307501336975179811e+03
1.965574925896115246e+03
1.789245520834974513e+03
2.107432062487002895e+03
2.124116061774403988e+03
1.041318522809797514e+03
1.140184953023753849e+02
-2.038182744683763872e+02
8.257209263164791082e+02
2.174611644981917834e+03
2.198903728462355502e+03
2.541582473244863195e+03
2.913646369511750891e+03
2.887079796648934916e+03
2.358845410422452005e+03
1.479921892378348275e+03
1.026244505655941566e+03
1.370762713702981728e+03
1.009454367624120323e+03
7.112892333289622684e+02
1.334260103043804520e+03
1.235381989713773692e+03
1.337710480674362316e+03
1.354258552176297599e+03
1.150959254551317599e+03
9.887905359172235649e+02
9.858080795378565426e+02
-4.009759641476138654e+02
-3.513568207570451250e+03
-4.002299691802980419e+01
9.386629136531563518e+02
4.525524727554746960e+02
4.837125914749673257e+02
6.250622260383900084e+02
-4.354279518564501359e+02
-1.108770968494372028e+03
-1.397934665133740054e+03
-1.482825120766141708e+03
-1.585528561652786038e+03
-2.339100965592297598e+03
-5.702498080927313822e+03
-4.802640067641621499e+03
4.445965415285704836e+01
6.918300911288505404e+02
-3.007525489083419416e+03
-3.306520807046763821e+03
3.785791447050484493e+01
1.206174260015245068e+02
-1.608220016769909535e+03
-1.461620311508215082e+03
-3.271542741469315388e+03
-8.929671297488954451e+02
-2.264878336288727496e+03
6.287157336135273908e+02
-2.514138339957998596e+03
-1.074711773797230308e+02
-3.410306826074780474e+03
-2.669631611842633447e+03
-4.874271219873992891e+02
-3.971704199074591997e+03
-1.113397023443551689e+03
-3.469470025382938729e+03
5.215689346703851470e+01
1.366509836834231464e+03
8.985926651814106663e+02
1.210479008189587375e+03
-1.859794432145358769e+03
-3.096237267499249810e+03
-2.440825658763167667e+03
-3.144543480047494995e+03
2.616606992603993831e+02
-9.871673814132551570e+02
-1.034055412516830984e+03
-2.259957337635471958e+03
1.615342838142051818e+01
-1.519762574760565712e+03
-2.445696944405823615e+03
4.553678950527103098e+02
3.034306203641775141e+02
1.614773402910716129e+02
5.815259778957979506e+02
6.336465117283145219e+02
1.017883362685485054e+03
1.349220217687702416e+03
7.536788732653575380e+02
1.144366690595693171e+03
1.388366269675877675e+03
5.816942618813675381e+02
6.502698862113392124e+02
1.354127179074933792e+03
1.385332054591158794e+03
1.268973675412773673e+03
8.940244578749175162e+02
7.114736274384246144e+02
6.224529164885336741e+02
4.421238026458071886e+02
3.195981717752728741e+02
6.358616384923188889e+02
1.066848605596610241e+03
3.415576066550043492e+02
-6.402453164828092724e+01
3.218024099099697821e+01
-7.379650956080654112e+01
-6.719876026191546998e+02
-7.465106361565160569e+02
-3.552637278888497008e+02
-1.191081281976624524e+02
5.709710157714803245e+02
9.659432598868706918e+02
1.460264025566768851e+03
2.125128254168326293e+03
1.986919987328372827e+03
1.889372652489035090e+03
1.443480564397602848e+03
1.273221981687961033e+03
1.057602373031417073e+03
1.081595536132217831e+03
1.396244654737496603e+03
1.401449162557528780e+03
1.487145491867045621e+03
1.786391748318585769e+03
2.283200718310139564e+03
2.351640366056651601e+03
2.904624518342166539e+03
3.826610988827846541e+03
3.819801416140601305e+03
3.895373049493846793e+03
4.333261011288098416e+03
4.205152382946448597e+03
4.228054675045236763e+03
4.623911378067131409e+03
4.073692367751777056e+03
3.782379556337100894e+03
4.353944137383697125e+03
3.891399671517516254e+03
2.495745577003032395e+03
2.052832233020737476e+03
1.892594089817796885e+03
2.085013755538916485e+03
1.852015745419457744e+03
1.964641217596670231e+03
2.746875418644859110e+03
2.643742838303086501e+03
2.522226464581865002e+03
3.007349087239710570e+03
3.031092856482295701e+03
2.290411220205739028e+03
2.325277571615071338e+03
2.547682259669217274e+03
2.083656965716462764e+03
2.290141575007245137e+03
2.937139627953195031e+03
1.811717883417294615e+03
1.615825388288290469e+03
1.647473992053847951e+03
7.059505991142529524e+01
-2.641892606610889288e+03
-6.044053526993344349e+03
-1.078192394005238930e+04
-1.158154240701028357e+04
-1.038393613251963143e+04
-9.771040382891022091e+03
-1.004781964989210792e+04
-9.457381563842427568e+03
-8.441653331600122328e+03
-8.157573319235629242e+03
-7.814249380694750471e+03
-5.915709287155682432e+03
-6.184975326999853678e+03
-6.644882440723808031e+03
-6.587478009801912776e+03
-4.536870425447650632e+03
-1.438848965237739094e+03
-6.134409645801501028e+03
-7.887589818269066200e+03
-7.912421756265971453e+03
-7.922958331931635257e+03
-5.083238529635696977e+03
9.196688518789453610e+02
1.667754631773668962e+03
2.024966399028380920e+03
2.361300060921739259e+03
3.063852295435455289e+03
3.083798745551456705e+03
3.272170959707934344e+03
3.318878300547118670e+03
3.515918815234040721e+03
3.449375264862454060e+03
3.493148178824593288e+03
3.367162845625868158e+03
3.497566098677150421e+03
3.062426722120480918e+03
2.906664885829311970e+03
2.941314773378797781e+03
2.510420177538323514e+03
1.702037351989952185e+03
9.161953981268711686e+02
3.619463378533200171e+02
2.403294594163687634e+02
-9.466206095079685667e+01
2.619545691289395108e+02
6.952845667760644801e+02
8.964412872461807638e+02
1.412475931692584709e+03
1.568370832090833119e+03
1.506144394716679244e+03
1.715736468523221674e+03
1.947174717083880978e+03
1.573635253818863703e+03
1.562067435400416798e+03
1.308505862844942385e+03
1.450018125681867559e+03
1.532576388953787045e+03
1.879186851085653643e+03
1.361895292074565987e+03
1.047152204681195826e+02
-3.513319469333071652e+02
-5.731132250272432884e+02
-7.516354914883280571e+02
-1.080904593711144798e+03
-1.172867793480873388e+03
-1.069560833893829113e+03
-8.549588217520332591e+02
-5.578623037452573499e+02
-2.436854926564814718e+02
-1.012627841612012816e+02
-2.977497833838339147e+02
-2.370012344043397832e+02
2.382737682529326761e+01
-3.164578082280822287e+02
2.430623241043151950e+02
-9.196647553039503009e+02
-1.189555274727596498e+03
-2.197455175486757923e+02
-1.862473337391529356e+02
-6.559142626784270078e+02
-1.329788645777223564e+03
-1.290854640967097566e+03
-1.181177642495691771e+03
-1.561857243940555009e+03
-1.199770288254609341e+03
-9.697434529300161330e+02
-5.777136109746237480e+02
-3.847180195681593204e+02
-2.771805125492640087e+01
4.273663579819379947e+02
2.244845748838456814e+02
2.707096412808858759e+02
5.640972043813341088e+02
1.023675370451368849e+03
1.466376262602944053e+03
1.288236466019170166e+03
1.045379100987072206e+03
6.867492782473030957e+02
5.303498504892966139e+02
1.932738276042973098e+02
-1.345699798985609164e+02
-2.453293781710937083e+02
-2.519857354039528445e+02
-9.714553866000183007e+02
-1.228746773915707763e+03
-1.002852732705977246e+03
-5.896247661000379594e+02
-1.410728567373748774e+02
-3.552257074116677131e+02
-4.161822173886245082e+02
-3.270219879824525151e+02
-3.656708798850773974e+02
-3.831394898257458976e+02
-1.724554803492014230e+02
2.237229353012626731e+01
4.993544602399038581e+02
7.115200784842946859e+02
5.658263670901203568e+02
3.771901071087096966e+02
-1.723737046414945837e+02
-8.698904253903627932e+02
-1.470441557806200535e+03
-1.319031533521005258e+03
-9.267090990772567238e+02
-1.095440275270873144e+03
-9.382855685261846475e+02
-8.925496134197445031e+01
5.566353003569596467e+02
9.815004199785653327e+02
9.594347677311611733e+02
6.609981476270874055e+02
5.392786970854235733e+02
9.573428038462652694e+02
1.057034436578265513e+03
8.363196125425611172e+02
8.222243464590012536e+02
8.036974764419790063e+02
1.321702478154437131e+03
1.533164444790018479e+03
8.010014746034497648e+02
3.231744148527951666e+02
-3.531971821649017897e+02
-6.375324194534925937e+02
-3.569353456767630064e+02
-2.650228483498438550e+02
-1.456762944091896017e+01
4.381954583970635895e+02
8.619839687214645210e+02
1.319001660246413394e+03
1.549241855821685931e+03
1.750553412526993725e+03
1.955164261194300707e+03
1.838686595797137215e+03
1.775299242650457927e+03
2.118584079843638392e+03
2.054993791234168839e+03
1.948217003367554753e+03
2.128137172408485640e+03
2.114487810978677771e+03
1.616304762920810163e+03
9.419990115492277027e+02
4.670142488201152560e+02
3.696940867745972810e+02
4.864971353268836083e+02
6.244698033998391793e+02
1.086705535463838260e+03
1.727093146604337562e+03
2.070892652959088082e+03
2.147932821511220482e+03
2.165075505399847771e+03
2.288517020371574290e+03
2.658956363655312998e+03
2.637123016481473314e+03
2.870125231016781981e+03
3.628154512438877191e+03
3.877843196227459885e+03
3.801741186396891408e+03
3.591655718224202701e+03
3.362884496758284968e+03
2.820567294474365099e+03
2.116643287430366854e+03
1.882994374343569007e+03
1.790623626102347089e+03
1.346450545669115172e+03
6.174274515592016996e+02
5.416250139097788860e+02
1.186970413895266347e+03
1.943471326905279284e+03
1.787179178215269303e+03
1.325022415530428134e+03
1.525956311623841884e+03
2.171995973323219459e+03
2.178130170205610284e+03
-1.763945062859491486e+01
-3.505330048989070292e+03
-6.961981117004494081e+03
-7.046561607871340129e+03
-6.781123529917365886e+03
-6.866730314085066311e+03
-7.181323292361609674e+03
-7.522817350926057770e+03
-8.068252654951940713e+03
-8.138761292984809188e+03
-8.263291348284139531e+03
-8.047807502911059601e+03
-8.135265529854543274e+03
-7.838665435430970319e+03
-6.524010086311099258e+03
-2.213321603466799843e+03
-1.110546424313165289e+03
-5.475673856220465495e+03
-5.455698780788885415e+03
-5.708521146763423531e+03
-5.826154450944409291e+03
-5.952527633041447189e+03
-5.699607695425633210e+03
-5.039394861032849803e+03
-4.942911473168218436e+03
-5.209114653053001348e+03
-5.726882585723110424e+03
-6.345248105594612753e+03
-6.819177711555570568e+03
-5.851632104816474566e+03
-1.462542861067869126e+03
-3.125898332858817867e+03
-5.984752638974641741e+03
-2.799985733597608032e+03
2.987521454265341617e+03
4.715752619885294735e+03
5.345851313275139546e+03
5.557899391714186095e+03
5.598899929205118497e+03
5.504985555807337732e+03
5.618209962656023890e+03
5.800589635280517541e+03
5.682212765418772506e+03
5.382226134219805317e+03
5.179671417547972851e+03
4.890597902051161327e+03
4.247022691174937790e+03
3.888030571567186144e+03
3.081650833700044586e+03
2.419882221390744689e+03
2.219882314298184610e+03
2.470699417551059923e+03
2.530348788881611654e+03
2.388919603650893805e+03
2.765599766563938829e+03
3.069438421983953504e+03
3.061473466569622360e+03
3.266774218649042268e+03
3.304444092457745228e+03
3.385481678244008435e+03
3.307122788548624158e+03
4.008401780787743064e+03
4.132334858893165801e+03
3.623044615844798955e+03
3.337650175817162108e+03
3.026276750179188184e+03
2.720520991348866119e+03
2.131266421979519691e+03
1.476426111316832475e+03
1.343035244415348643e+03
1.103222690554474639e+03
6.210265005451414027e+02
5.023608375070046463e+02
4.303431017159855969e+02
5.730779690083553533e+02
-4.755841318546742400e+02
-5.038955976865712927e+01
3.207239852222546119e+02
2.468048897532798946e+02
6.659609840310748723e+02
1.207614547471732294e+03
1.518382347032437792e+03
2.482357918574938594e+03
2.157466609010487900e+03
1.337736742936835071e+03
1.001103947837142982e+03
7.332764869182152552e+02
4.759494254813329661e+01
-4.801813579372226855e+02
-1.108132981552934780e+03
-1.467285807895822018e+03
-1.667566378582729385e+03
-1.551971299886459974e+03
-1.457535348357055909e+03
-9.472088028383874416e+02
-4.109138284256462157e+02
-1.426629939939795975e+02
1.285932853725757354e+02
8.788902667744449104e+01
-9.274513328739827500e+01
1.866264693702711952e+02
2.059982300779600166e+02
9.240882010267114310e+01
5.489246069459779420e+01
6.844463586876973693e+01
-2.479359717245111483e+02
-5.922941583264943120e+02
-1.048607743467848422e+03
-1.780977606144937909e+03
-1.947436410383224029e+03
-1.744982821380277301e+03
-1.739678549892853198e+03
-1.656495485568859976e+03
-1.280443678897519476e+03
-1.148630823590754517e+03
-8.380118139905630414e+02
-6.935458609512717203e+02
-8.453190202159537421e+02
-3.293413849618825679e+02
2.433784648408228293e+02
4.458166258299265792e+02
8.848188291586860714e+02
6.693717744947355186e+02
2.355870579848105137e+02
3.544036697737005284e+02
2.766827152772283398e+02
-4.653466019159327516e+01
-6.323108820906426217e+02
-2.889771768949300167e+03
-6.249982992174545871e+03
-1.076501500472479347e+04
-1.151192866576048255e+04
-1.171375558601891498e+04
-1.108354671938764113e+04
-9.826319240265849658e+03
-8.937151529374999882e+03
-2.328122119914472933e+03
1.040803748096319168e+03
1.537488124436408270e+03
1.715099673636755824e+03
2.125480040673350686e+03
2.333453437914577080e+03
2.818048187821449574e+03
3.036206391435633122e+03
3.512906697657618224e+03
3.532007073267841406e+03
2.764434035364439751e+03
1.840214199343072323e+03
1.518181684483360186e+03
1.626276133543054357e+03
1.029431436012761424e+03
1.835720072676963639e+02
1.646189858372044910e+02
4.645082901049453312e+02
1.093256943194355472e+03
1.450834210542809160e+03
1.614161861268661596e+03
1.394173674054924277e+03
1.343827129756322620e+03
1.833109126043094875e+03
1.988902040590715842e+03
2.313202003082094052e+03
3.135935739903668946e+03
3.291027406570625317e+03
2.978443844528146656e+03
2.366138494498123691e+03
1.865047732460710449e+03
1.641201959599583688e+03
1.140553125338532482e+03
1.260930403604779031e+03
1.175302025833731022e+03
1.213652558388766010e+03
1.547922183565661271e+03
1.642095217174833351e+03
1.669161491647005050e+03
2.114046099950328426e+03
2.594742709317137269e+03
2.875268071291971864e+03
2.952494619796678307e+03
3.109414185320804791e+03
3.241067863904828755e+03
3.383386235656375447e+03
3.298318510420273469e+03
3.129924892062740128e+03
3.181120941661188226e+03
2.815895396255058586e+03
2.252215493895870168e+03
2.359039537678097986e+03
1.758396270176579719e+03
1.274255911409657756e+03
1.032499496744969065e+03
1.110105293075759846e+03
4.581097947932912007e+02
1.281458674566433274e+03
2.026260333257819184e+03
2.943546682313039582e+03
2.952199031983242548e+03
3.228248916808036029e+03
3.080791183964463926e+03
2.963731550468680325e+03
3.236126246691750111e+03
3.346943405718175654e+03
2.929094382867277545e+03
1.632760541333703713e+03
-1.204099926271268714e+03
-5.857441817820638789e+03
-7.352215907983372745e+03
-6.965508446014217043e+03
-7.902317056003358630e+03
-8.608608625615501296e+03
-8.359411814698121816e+03
-7.564747606566568720e+03
-8.271626289386131248e+03
-8.807981371135199879e+03
-7.923751123909302805e+03
-6.872915826677916812e+03
-6.284470237616090344e+03
-5.822323779668463430e+03
-4.762434559050597272e+03
-9.467414938868628269e+02
-3.632249745287782389e+03
