-1.123889398552947341e+03
-1.077362879039428435e+03
-1.176734505378133008e+03
-1.454950314333583947e+03
-1.262986284473181058e+03
-1.370811551757901498e+03
-1.276526385561018742e+03
-1.167117892422318846e+03
-9.566110557727802188e+02
-7.260902755020970289e+02
1.445529525010322835e+01
1.320404504780523496e+02
-1.323711817730450377e+02
-1.117825503154681201e+03
-2.811388354026278648e+03
-1.805076200600828770e+03
-1.169922967254789796e+02
-8.152176576981845528e+02
-3.947252547631753146e+02
1.945450198062143699e+01
-3.356937757505388049e+02
-4.191990110076602036e+02
1.769958302166984936e+02
-7.584123033329507280e+02
-6.711406178121117136e+02
-5.003267237100719171e+02
-4.172048838412270015e+02
-8.847004529098855983e+02
-1.021555470917572052e+03
-8.279280409076021670e+02
-6.292419821578874917e+02
-5.303396233894985698e+02
8.587394199970983664e+02
1.254207224324297385e+03
8.488935794400096029e+02
6.065385594498587807e+02
-3.137483241024232257e+02
-1.319986982765505900e+03
-1.807170614435647622e+03
-1.098248895710537226e+03
-7.836303378610435288e+01
4.764052113194546791e+02
4.682105446731456482e+02
5.916395690134695542e+02
1.109623319000996617e+03
2.102607573376476012e+03
2.868995579559067210e+03
3.265765917685338536e+03
2.971051149128440102e+03
2.881026163709964749e+03
2.474161250161518637e+03
2.169513311392906871e+03
2.400269280808240637e+03
1.919531306449802059e+03
1.516158554732914126e+03
1.860153574544450521e+03
2.092347277613702317e+03
1.301848902230945669e+03
4.015125909764377070e+02
-1.607418231380998463e+02
-2.756842036707893726e+02
3.103967242538963660e+02
-5.733572172021939650e+01
-7.941798761049576569e+02
-9.970492140860272912e+02
-8.098494779713688558e+02
-2.506859593450832904e+02
6.665788223510102171e+02
1.051793483484622129e+03
1.245876345133427094e+03
1.572742394183261240e+03
1.740429803414630896e+03
1.540901744551646971e+03
1.193154514228409198e+03
1.369296903609961646e+03
1.557321161904923201e+03
1.134184117930356706e+03
9.527602189326981943e+02
1.068043527303085966e+03
1.615138246831860215e+03
1.371024909531242429e+03
7.826402271856002244e+02
-6.259805912468837050e+02
-1.870816465248789655e+03
-1.001879172450400915e+03
-9.491301358591078952e+02
-2.118552104103704096e+03
-5.507094307575061976e+03
-7.143720616965008958e+03
-2.759411187133029216e+03
-6.142141082852097043e+02
-3.961080196631946819e+02
-3.361331849726346718e+03
-6.397858186173603826e+03
-6.547258608629808805e+03
-5.994652069480875070e+03
-5.787071631210313171e+03
-6.525619435512130622e+03
-6.488261091315082012e+03
-4.501959703258238733e+03
-4.607730248503092980e+02
2.372293975369444183e+02
-3.888922573448186085e+03
-5.533037422464103656e+03
-4.148053625649983587e+03
-3.448958624923872776e+03
1.367198246446130270e+03
3.529479722782451518e+03
3.415950683179922180e+03
2.651564710276219557e+03
-1.244550070713390596e+03
2.677284460640921111e+02
3.513930352313360004e+02
-3.012637410269822340e+03
-3.468370057316540624e+03
-4.004677428308284561e+03
-4.478549728727989532e+03
-4.898906198592605506e+03
-2.651682955805369602e+03
1.673059980584342838e+03
2.400331037669536272e+03
2.849176043916106210e+03
3.851583049368851334e+03
4.400588940766559062e+03
3.811286204957181781e+03
3.353758654253289478e+03
3.300032385829203577e+03
3.367137373024367662e+03
3.349145868082846846e+03
3.028130748659392793e+03
3.456127244971026357e+03
3.572263374795299114e+03
3.397553175552330686e+03
3.476886462040358765e+03
3.773274968151025405e+03
3.391754069132400218e+03
2.843462166601766967e+03
2.609487292204911682e+03
2.478832464425149738e+03
2.282456834592590440e+03
2.549383771137601343e+03
2.897654857343462936e+03
2.470309572786035915e+03
1.990357157699668505e+03
1.825826410982127072e+03
1.624846586786503622e+03
1.075553796465777850e+03
4.340191478241839604e+02
-6.974253525262724906e+01
-4.446203457320811481e+02
-2.934853961068057515e+02
-1.037190832835304263e+03
-1.897924782710346790e+03
5.002177380143390906e+02
7.383476680233711704e+02
8.775636797203794686e+02
1.000933972065085072e+03
1.066395189390431369e+03
8.668985332071802077e+02
1.101492091366632849e+03
1.157251789859653627e+03
6.989675219912534203e+02
9.298112419542636644e+02
1.263721586957918817e+03
1.235461846447815105e+03
1.202300882957481917e+03
1.836059227817908095e+03
1.928686451379590380e+03
1.451603310962835849e+03
1.610578154372449944e+03
2.067875487441136102e+03
2.324072176345037406e+03
2.018167836951752861e+03
1.746419193746056635e+03
1.177460081941484077e+03
6.353420662730336517e+02
2.230851868219067455e+02
7.563655872245621481e+01
-3.870144147527551013e+02
-2.429442572857840048e+02
1.389025976298690921e+02
-6.513588117780712672e+00
-4.652243076270750066e+02
-6.872289675195074778e+02
-6.955614856114599434e+02
-4.732814476450868710e+02
-3.163970313223484823e+02
-4.729508023175843618e+02
-6.958033598068586798e+02
-1.809154129348601430e+02
4.315925639803459717e+02
1.666675965487385156e+02
-5.979963557169793376e+01
-1.407446380573017279e+02
-1.207888565119033153e+01
2.040998418790465792e+02
5.477714227040462447e+02
1.033912933810116328e+03
1.575407007908827609e+03
2.046282272737457106e+03
1.541601169539183502e+03
7.383938039353309932e+02
6.606283889157734848e+02
9.562547216478354812e+02
7.822328778877925970e+02
-1.188429849799395924e+03
-4.471702521049974166e+03
-7.396620485683172774e+03
-7.377229621755133849e+03
-7.284588297318745390e+03
-7.210757238256642268e+03
-7.150729465966405769e+03
-3.593533433148275890e+03
4.307654877291829507e+02
7.272256808307653273e+02
-1.401245033012357453e+03
-5.365684524137158405e+03
-4.900781225452447870e+03
-1.299844942863584492e+03
1.550646149668093017e+02
-4.421054254958520687e+03
-2.482253414946510929e+03
-6.546106852778813163e+02
5.358227597699730040e+02
9.030708407229515160e+02
8.851939685183166375e+02
1.087283265166309093e+03
1.286356319286252528e+03
1.382339201880268547e+03
1.642257003050368212e+03
1.723098632055731514e+03
1.706846125781820319e+03
1.537472531485191894e+03
1.118943581647123665e+03
9.001221325034720167e+02
2.779133910375610981e+02
5.384603514259866870e+02
9.077153711821385969e+02
9.646927321157625101e+02
5.354422812498785333e+02
1.559143197714859355e+02
-2.590297667484167050e+02
-5.883283762226164981e+02
-1.794248028949245466e+01
6.121192542350991062e+02
1.069888108781103256e+03
1.101439821471955156e+03
7.126985787218754922e+02
6.565536001237928758e+02
9.291221176324388580e+02
8.184028513475220734e+02
7.994112178763845122e+02
5.671886158694010192e+02
1.130754039461240609e+03
1.072118889255371641e+03
6.313268371153474163e+02
5.783063252464780817e+02
-4.997207093551600821e+01
-6.074666226388565065e+02
-5.611397113674332786e+02
-5.479390674317355661e+02
3.130314203836990714e+02
3.527173010110591349e+02
8.113848204346500381e+01
4.427107864994912489e+01
-1.489109772693451248e+02
-1.204293151885219686e+02
3.276385789348939284e+02
7.933506420951670179e+02
9.228403379771898472e+02
8.791941391930637337e+02
1.064412430638162277e+03
1.032247328725005900e+03
7.068586460172803072e+02
4.856198411320286255e+02
1.391113093249157089e+02
-3.557030299292188147e+02
-2.017900926053211776e+02
-5.371924220034848076e+02
-2.368938381726963144e+03
-1.352934567627816023e+03
-4.152735436550405552e+02
-8.128136240727004633e+02
-1.341652276740608841e+03
-6.008193338802700509e+02
-4.543185568229043838e+02
-2.340933739027975378e+02
-1.301180312170224340e+02
-3.523718227390851325e+02
-1.619143003492961554e+02
8.731169199968486794e+01
-9.663900616566040469e+01
-2.097292627892985593e+02
8.220126959390238142e+01
-1.188541859339221816e+02
-5.288254719603202147e+01
2.120765647620817731e+02
-1.670939902994383885e+02
-4.093902936889467696e+02
-7.517068534239882638e+02
-1.621039029012310721e+03
-1.782469459615537289e+03
-2.110002937951453987e+03
-2.247588277509468753e+03
-1.494207587610728069e+03
-1.076783926293782997e+03
-1.480299752533238689e+03
-1.577698739326320720e+03
-1.432965479133486042e+03
-1.580673861789464070e+02
9.381082575960951999e+02
1.037539020412871650e+03
6.512161349702461166e+02
-1.278728208675834708e+02
-5.205945203991731205e+02
-1.886506035643277812e+01
8.123035095040046372e+02
1.153854994593053789e+03
5.658072101808013485e+02
6.929834431064521993e+01
1.493990807263716931e+02
2.064168131474227508e+00
7.930591934902466278e+01
1.861505897557696301e+02
-3.734424943305036777e+02
-8.345011060358480108e+02
-5.630306272290378047e+02
-2.520126787447412653e+02
-6.805107054204855785e+02
-7.714213735066977051e+02
-3.165633852915792659e+02
1.012991270082493088e+03
1.480199560376460113e+03
2.321760973429631747e+02
-5.120766470743460559e+02
-2.926169924795037787e+02
-3.514649995453364681e+02
-5.955141651968199312e+02
-6.466878353102601977e+02
-8.388493875908253585e+02
-1.010993170649739682e+03
-1.107264382466376219e+03
-1.382550850481593443e+03
-1.315755962044368971e+03
-8.048059792547953748e+02
1.816333804543513395e+02
6.999753429284620552e+02
-3.554338552769213067e+01
-1.951920179887358927e+03
-3.755956567643522249e+03
-2.035589317693930070e+03
-1.505115209496732405e+03
6.434423249968439507e+01
2.929675808329114943e+02
2.548008212944398849e+02
2.198922846802430513e+02
-1.410934151291303920e+02
-3.505796505654617476e+02
-6.300618183915322561e+02
-2.273656518756629339e+02
-2.137587620338240697e+02
-2.832652623364741089e+02
-6.011283492041616228e+02
-6.355186654508936499e+02
-3.112575689779214372e+02
-2.405499513297050385e+02
-2.571869839477502637e+02
-1.728052665160617778e+02
1.239509501317528901e+02
1.752526387364493132e+02
-6.842589582673538473e+01
2.275961294721554680e+02
9.921158186145687807e+01
5.436418525956575110e+01
8.298611651217888721e+02
9.686778091608563273e+02
8.305953649076793681e+02
6.116942571408683307e+02
2.309107761972576327e+02
6.710725817929021275e+01
6.929533323384055166e+01
-4.647934327189062031e+01
-2.127370918821842238e+01
2.284015853090071602e+01
-3.611725519009887080e+02
-1.803249955936569506e+02
-1.176483973854337819e+02
6.357097086753179838e+01
7.876122741300258667e+02
1.036339520286818015e+03
1.024473701644813445e+03
7.581010431111000116e+02
1.141398382083664956e+03
1.877256083432273726e+03
2.467533625176510213e+03
2.383199403884628737e+03
2.027163977383481097e+03
1.558339097245312587e+03
1.295608877596002003e+03
1.185878916199442301e+03
8.101644817699557279e+02
8.224025536260161289e+02
8.555075822226099547e+01
-2.237408865182458612e+03
-4.808488060667783429e+03
-5.830787871756127061e+03
-5.532354843726645413e+03
-4.101334755533755015e+03
-3.915746438486687111e+03
-4.666404303519210771e+03
-5.255653789014332688e+03
-5.002475401945611338e+03
-4.589018023018704298e+03
-4.746295702731077654e+03
-4.962393724289948295e+03
-4.230344073905774167e+03
-3.783270726847181777e+03
-3.077216310824924676e+03
-6.711884812729787200e+02
-2.551222968361612857e+03
-3.067351597395688259e+03
1.377369985685541224e+03
2.093938432785290388e+03
2.238263628378315389e+03
2.963267111645933710e+03
2.802957923097325420e+03
-1.417567462178540438e+02
7.750026168462778742e+02
6.472017241634846414e+02
2.957904404001222247e+03
3.280023853442270138e+03
3.205509277864079195e+03
3.406351658102410056e+03
3.605509793876456570e+03
3.881919167998958983e+03
3.670543191744392516e+03
3.847298729342206570e+03
3.657133354483431958e+03
3.220055285759223807e+03
2.898044164012446799e+03
2.886042590356175424e+03
2.113029721540458013e+03
1.946964793829247355e+03
1.546805472164660841e+03
1.449537512759132596e+03
2.031119821957326849e+03
2.401488114548533304e+03
2.209606133354022859e+03
1.812520205350003380e+03
2.299173930400176232e+03
3.285535873467540569e+03
3.359594848861766877e+03
3.177337525718615780e+03
3.618820111589241606e+03
3.116996179326501988e+03
2.754739198731027045e+03
2.554046016629170481e+03
2.143085369168051329e+03
1.984882975303130252e+03
1.750329631802216227e+03
1.168268720571940776e+03
6.416892423816958626e+02
5.527760057749077305e+02
1.149926426842055662e+03
1.227296780412159706e+03
1.156651085671204783e+03
5.579665397983915227e+02
6.723168026438388551e+02
5.007016862292063593e+02
1.408081890942446819e+02
3.946490440798642680e+02
-3.395910582179585617e+02
-1.398677659147550912e+03
-2.943806284457714355e+02
-7.598053146384985723e+01
-1.986506594942086110e+02
-5.411023048487209053e+02
-5.891028748507849286e+02
-7.782029987012947458e+02
-1.417360328449959752e+03
-1.617443601002373271e+03
-1.813404236771230217e+03
-1.964138751738908013e+03
-1.670663043423273621e+03
-1.774971870661470575e+03
-2.028931048756824794e+03
-1.819553849732944855e+03
-1.981795518071651486e+03
-2.588579437136277193e+03
-2.534875468782240205e+03
-2.414590278265780398e+03
-3.101678808182020475e+03
-3.327042699868206455e+03
-3.843677533517902702e+03
-3.773537358704651979e+03
-3.004476761756956876e+03
-2.921366234564701699e+03
-3.629130312124634656e+03
-4.009694788576510746e+03
-4.029981479339976886e+03
-4.359984583251540244e+03
-4.546650562723484654e+03
-4.035914812066154354e+03
-3.801718734888743256e+03
-4.317939507581945691e+03
-4.371485977157905836e+03
-4.888251109946925681e+03
-5.157136902368592018e+03
-5.029067137630969228e+03
-4.490898763086938743e+03
-3.821508559026721741e+03
-3.342808258082711291e+03
-3.648658985182859396e+03
-4.044030787551396770e+03
-3.736791602100724504e+03
-2.983802390131498214e+03
-1.519988254947279302e+03
-6.472784667494058795e+02
-6.767088059499091059e+02
-2.241112730204092145e+02
1.966698076770339298e+01
6.768770160155440863e+01
-1.589267218525786802e+02
-9.400880270833781651e+02
-1.779724242942678757e+03
-1.466707428219194981e+03
-9.089790048890241678e+02
-1.507384136809010897e+03
-3.065826730743762255e+03
-1.664158106938968558e+03
2.966757516514536746e+03
3.924964567883913787e+03
4.651635792079463499e+03
5.098866423378607578e+03
5.180655905524002264e+03
5.604198190785788938e+03
5.592750394086646338e+03
5.118192225167460492e+03
6.589588550871123516e+03
6.856163162367221048e+03
5.916073862699559868e+03
4.757311504306315328e+03
4.292975925026372352e+03
3.941107684186388724e+03
3.513766625179187031e+03
3.569098497754688196e+03
3.381150960355264033e+03
2.777990042401082974e+03
2.375772338781297549e+03
3.009606356851807050e+03
3.088529019156388131e+03
3.505665931884580459e+03
4.627041027608775039e+03
4.725816069873877495e+03
4.356107363646397971e+03
4.599879753664890814e+03
4.880269535823670594e+03
4.293391247079811365e+03
3.941256734274410064e+03
3.940956172523214718e+03
3.639571626221474617e+03
3.279162588657655760e+03
2.914794536622021951e+03
2.498490168644414098e+03
1.855337819292003360e+03
1.763446432612937997e+03
2.112721770770133389e+03
1.851221190621037977e+03
1.895055635461356587e+03
1.388329238125386610e+03
1.098159031816894867e+03
1.242572763750030617e+03
1.092527328633890193e+03
1.550046664785560608e+02
-2.469517127283436935e+02
-1.132282671158832841e+02
1.992125304365080467e+02
1.044050279275882502e+02
3.143709133315275039e+02
1.231106803556146360e+03
2.181658862199155919e+03
2.322082071767232719e+03
2.024405904209430219e+03
1.874652941838898641e+03
3.658116734561023122e+02
-7.680560225183592138e+02
-8.097205021884479947e+01
7.304620919895670283e+01
-5.380716085237351081e+02
-6.142585132425684833e+02
-7.163617490462320347e+02
-1.597405100648607458e+03
-2.657459515186130375e+03
-3.538504520473992216e+03
-4.279506065280422263e+03
-4.661503470002022368e+03
-5.461542491231858548e+03
-6.431654283738161212e+03
-6.981867721943580364e+03
-7.982165826221161296e+03
-1.156451599686530608e+04
-1.012605419216258269e+04
-9.651877887617565648e+03
-7.168986859694543455e+03
-5.792278743074390150e+03
-5.150707811765614679e+03
-4.335257686950277275e+03
-4.744243691796830717e+03
-6.101640426850031872e+03
-5.389627532368299399e+03
-4.808157813555469147e+03
-2.370255882692546948e+03
-1.394938434444383120e+03
-2.889227243255946178e+03
-2.782338112787488171e+02
-1.299933572521030669e+02
-1.635620065646276316e+03
-1.921171398847548062e+02
-2.054563922331755748e+03
-1.097013705098147057e+03
1.131451462653210001e+03
-9.722789000538119808e+02
-1.162241595252198522e+03
2.647795462842150371e+01
-1.689186962001049551e+03
-2.376324303317908289e+03
-2.769874660791228962e+02
9.907891812729782259e+02
1.341886079936267151e+03
1.440279728860081605e+03
-7.861536778396931595e+02
-1.205750554538564785e+02
1.489012042418127749e+03
1.992545763431448904e+03
2.160943425652332735e+03
1.808132665176746741e+03
1.848995066231806504e+03
1.886373970394995922e+03
1.726195440620437694e+03
1.495392906690191467e+03
1.491940750585276419e+03
1.887744368153795904e+03
2.242618957057921307e+03
5.748727011570695566e+01
1.784319142472100566e+03
2.412906336751486378e+03
1.261648245851393852e+02
-5.239793308288359412e+02
1.208488733522406392e+03
2.287501918823799770e+03
2.655792046657437368e+03
3.548239294092971249e+03
4.094848195882195341e+03
4.892467982646208839e+03
5.261956217770705734e+03
4.304215972512102780e+03
3.950200046277231650e+03
3.692785562894011491e+03
3.508887776102219505e+03
3.369499859656086301e+03
3.615630606007418010e+03
3.322199463598093189e+03
3.168049847852904350e+03
2.284057238966263412e+03
6.300438116464733866e+02
1.740814470106358613e+03
2.966512603983615008e+03
3.670195159567436804e+03
3.225738130260687740e+03
3.353828505636871341e+03
3.108427127844258393e+03
2.871517298707577538e+03
2.105780620871871633e+03
1.175370838807837572e+03
4.199323091292574617e+01
-3.725783600063131189e+02
-3.581361975152858577e+02
-7.238853117753329798e+02
-4.663996146771953022e+02
1.854531437087946983e+02
1.416565742704033255e+02
2.730166762983026274e+02
5.144110310219249413e+02
2.312120359133951695e+02
-3.879890934311051609e+01
6.135071744262545508e+02
8.328078270362404965e+02
5.880603645041103391e+02
6.762373632317171541e+02
8.522278212177895966e+02
9.999064535638900679e+02
8.331775965808024011e+02
6.560011598574787968e+02
6.022607180890425980e+02
6.599075233656191131e+02
5.378747749479500726e+02
2.351419076373667565e+02
2.586650386456575461e+02
4.774648589251734734e+02
5.884362231919350279e+02
6.075574414909904135e+02
3.117360280448152707e+02
2.638862559723783647e+02
3.149789335069125400e+02
4.470258664294309483e+02
6.404323497215852967e+01
-4.980561571453451393e+02
-8.973921349689612725e+02
-1.243856070348033882e+03
-4.434544942943323917e+02
3.636922184639120132e+02
-1.063798927460600794e+02
-5.987180455568960724e+02
1.896728455056208702e+02
1.092829750372249009e+03
1.371778772963502888e+03
-1.345204571825863979e+02
-2.843057057181893470e+03
-6.142815878711198820e+03
-7.016804047329018431e+03
-6.532091659690146116e+03
-6.610619541429016863e+03
-7.137394097979589787e+03
-6.948404802480982653e+03
-6.947693051301602281e+03
-7.286188146300943117e+03
-6.181854264775862248e+03
-6.029752985271056787e+03
-5.850745967533684961e+03
-5.682764367337908880e+03
-5.486895467190854106e+03
-4.029013699105017622e+03
-5.113685325110554913e+01
6.477579632950564701e+02
-1.034809411194041751e+01
-3.504161519817943713e+02
2.746303673078767247e+02
4.587504141486808180e+02
1.169934276129035425e+03
1.444268683603947693e+03
1.207743606144686510e+03
2.052442526470275425e+03
2.412387593860632933e+03
2.573587758906875933e+03
2.971155801050671471e+03
2.858206241527953352e+03
2.815710009826796068e+03
2.632728232648808898e+03
2.303362663295627499e+03
1.918646891115756034e+03
1.304672748039518638e+03
1.316462052890493396e+03
1.559974507151694070e+03
1.835306482847059442e+03
2.018548951442079215e+03
2.268745431695353091e+03
2.601964117845850524e+03
2.905220330348580319e+03
3.023555596187748961e+03
2.401994002880560402e+03
1.618581094546496843e+03
9.844695994158588519e+02
8.526812721032659965e+02
3.913374216617380057e+02
-3.414567155422440123e+02
-8.296467157661127203e+02
-5.928662523427384912e+01
2.136533926904214695e+02
7.002668601625247220e+02
7.316930821074669211e+02
5.339909468140065201e+02
8.001624644013314764e+02
1.433204441220437275e+03
1.831112758568962818e+03
1.474982260492489786e+03
1.220939043780976135e+03
1.280010930122808986e+03
1.009284261194700889e+03
7.618522891825747365e+02
4.788051449065971497e+02
2.272604965907458450e+02
4.422809653901680349e+02
-2.241345164340036717e+02
-5.099078671724815877e+02
-7.009002663262069746e+02
-5.018898382640963405e+02
-1.470634093300596703e+02
-5.076940089438772361e+02
-1.614200521449992323e+02
-1.002673212375286624e+02
-8.271883904371013614e+02
-9.831311280773932140e+02
-9.099196544512163882e+02
-9.004250962667045997e+02
-1.173621507304347233e+03
-1.120539342705060562e+03
-4.410136173906388990e+02
3.900135603514445393e+02
1.005598598358148706e+03
1.168740435450351242e+03
8.164961658523229744e+02
7.689682679790431621e+02
5.462184682994914056e+02
4.528756155193475053e+01
-8.674608401325275508e+01
9.418829691038777696e+01
1.010186871522582805e+02
1.668282835119672711e+02
-3.343358555426918883e+02
4.804907659621965763e+02
1.326401936609397126e+03
8.215065021742560702e+02
8.528080196075057984e+02
7.013595663197120302e+02
2.703020122127744571e+02
-2.633333111750113744e+02
-6.115432816974674779e+02
-5.327644275358789372e+01
4.744913849788436551e+02
-3.782395854953489902e+02
-8.124810931535762393e+02
-3.571433494699672906e+02
-4.902277957305584550e+02
-4.857586564384995995e+02
-6.066516226389938993e+02
-5.999329271162549730e+02
-2.265675925666520811e+02
2.394387009498599070e+02
5.961113498081659827e+02
7.494347068261014329e+02
6.104596572073942298e+02
4.352109154457357931e+02
1.707264617960018711e+02
4.399816504886440498e+02
3.810038203705545925e+02
7.778725222079705759e+01
3.726978780798840063e+01
-3.945784818747178520e+02
-8.837934871718080103e+02
-6.563224541429417513e+02
-6.441520208420762401e+02
-7.942345413430608687e+02
-1.180657250099189014e+03
-1.399529715599401925e+03
-1.558860709515186045e+03
-1.577646263646336593e+03
-1.483934632093344135e+03
-1.442522938184494706e+03
-1.371448249771583050e+03
-1.195749053529179719e+03
-6.064592857944878688e+02
-8.562553053636757738e+01
-8.531265589171614749e+01
-3.425346030234913997e+02
-7.872962960624980724e+02
-1.072669882552818308e+03
-2.568165079421605128e+02
-2.251227594689494822e+02
-4.390533120771022482e+02
-5.845658947483478869e+02
-2.651835944963387419e+02
-4.236363170652338113e+02
-2.652532927250060197e+02
-7.783376750644335118e+01
1.485281179093562116e+02
-4.097440466187414643e+01
-1.785144275182989020e+02
-2.932924027515879857e+02
4.048082307980687489e+01
4.898579751905744502e+02
3.201528415681866022e+02
2.607795667808469489e+02
1.648212132502245879e+02
5.033663416291140607e+02
5.901735958496028616e+02
5.234974236100734970e+02
4.771230728473602198e+02
2.457947566148649798e+02
1.987735610502724910e+02
-1.660623715309291981e+02
-4.279087088175452891e+02
-6.725903802469216544e+02
-8.962471240541216275e+02
-9.301588282903829850e+02
-9.573185314167266142e+02
-6.247215596604908114e+02
-7.534622368380252055e+02
-1.028397389643735551e+03
-7.997795342746750293e+02
-4.844678803108535590e+02
-1.726235250491087925e+02
1.787180372336856635e+02
3.655721628010102791e+02
-2.121398153789447747e+02
-8.704750054165991742e+02
-1.213601908443961747e+03
-6.432745832818801546e+02
-4.655418894193552433e+02
-9.575883758133318224e+02
-1.441483970660275872e+03
-9.371015506974229083e+02
-1.184732005494654004e+03
-1.733288044932507773e+03
-2.388550828540475322e+03
-1.935618995933629321e+03
-1.387681088460543322e+02
2.549016523353749051e+02
4.774430124686571162e+02
1.586771627536314327e+03
1.879844927258312282e+03
1.361587838854078200e+03
8.409567574490445168e+02
1.046052926493468021e+03
5.758639894663997438e+02
5.593801642290843574e+02
9.225951059454343977e+02
6.975054970012266722e+02
-3.459241936788519638e+02
-1.307661356232901198e+03
-1.515757433776021799e+03
-1.383245953755354549e+03
-3.837926648415470936e+03
-4.652030504350008414e+03
-3.468559983555720009e+03
-1.418571041250881990e+03
-1.669964920286323832e+03
-1.781762191205275712e+03
-8.949192014319022519e+02
-1.889447952622826733e+03
3.206984036138701981e+02
6.805772364831811956e+02
1.584183247124916534e+03
2.313510639689524396e+03
2.758520786988643522e+03
2.457247003260656129e+03
1.775612911153264577e+03
1.338558986247882331e+03
-1.128085945069108647e+02
-3.603378029052316379e+03
-5.211150862541502647e+03
-5.320121558521855150e+03
-3.569317470015657364e+03
-1.871814466619601490e+03
-1.154548356857905446e+03
-4.149214222803178131e+01
1.087369886809017771e+03
1.728049617719668277e+03
2.249565236482991168e+03
2.700000115725198611e+03
2.895417778848380294e+03
2.865856360371038136e+03
2.290363659224791718e+03
2.053900557748338997e+03
2.173463647661501000e+03
2.383073692733393727e+03
2.372683226069465945e+03
2.371309065606435524e+03
1.932020991573875335e+03
1.569890409662963521e+03
1.152906249095646444e+03
7.110512228810451916e+02
5.613871311779691951e+02
5.869958910408597603e+02
8.894847622670889109e+01
5.622057585727154674e+02
1.141767148540893686e+03
1.213631195480175393e+03
1.052824795176630914e+03
4.474929074734068877e+02
-7.433246069733775130e+01
-3.377635899740188847e+02
8.323137805570993919e+01
3.076335123652546244e+01
-2.869760987940065320e+02
-4.978701238247464289e+02
-4.138053766385909853e+02
-4.527266860806927298e+02
-1.358887608759893055e+02
-3.135665201270114721e+01
-5.237850049698972725e+02
-1.138160717940262202e+03
-1.371411920668760104e+03
-1.615439513447236095e+03
-2.359230436200473832e+03
-2.729840253499459322e+03
-3.107218945823451577e+03
-2.685334022509267925e+03
-1.414188725523734774e+03
-7.407790010861095880e+02
-2.112086172645086037e+02
9.495312220520077062e+01
4.634687875812433617e+02
1.004125785655133541e+03
1.030175185617913712e+03
3.916011874112286932e+02
3.423949413320432313e+02
1.364884343479343727e+02
1.218961561959933420e+02
-3.744599605881542175e+02
-9.665441689654891206e+02
-1.120319467021140554e+03
-9.068531540940331297e+02
-1.053093953979664093e+03
-9.260004326309388034e+02
-9.794956956231394543e+02
-8.845023130496700787e+02
-5.889391634664651747e+02
-2.480432417587129024e+01
2.799061462620264251e+02
6.591390359865062010e+02
6.948507090830181596e+02
7.860937577760902286e+02
1.447932138953716731e+03
1.296380072501453697e+03
9.564387314504622282e+02
8.640958302708479550e+02
3.374267451256853292e+02
1.134897834519747022e+02
-3.136980407085786169e+02
-6.091541598712879022e+02
-1.918450848868210130e+02
6.692477933731749999e+02
6.361132405001771986e+02
4.296704227049804672e+02
5.478644527305068550e+02
9.266540969878449232e+02
1.120095963788952758e+03
1.234230309527203190e+03
1.040985691784145502e+03
9.033037238069609884e+02
8.082058602907110298e+02
6.357564596629268863e+02
4.319522007456287724e+02
2.947500322817920733e+02
2.971452084838746828e+02
2.731254596846632694e+02
1.777053183660252103e+02
-3.411458988166479571e+02
-7.884531293591104486e+02
-8.021596618142533544e+02
-1.101291265817675821e+03
-6.278396083331929276e+02
-3.638688101522386091e+02
-3.994060423894229075e+02
5.396012811084719942e+02
3.790828570100946422e+02
-2.619280084975005138e+02
-1.657512432478376923e+03
-1.391694333254318963e+03
-5.543234312291547212e+02
-6.485956028750176756e+02
2.234737628731135430e+02
1.747940145048449494e+03
2.188652712656586118e+03
2.140572615337434854e+03
1.751660716759783099e+03
1.250882074790584738e+03
1.083298879713535371e+03
1.471883273002811620e+03
1.497626424038779987e+03
1.330462561835288852e+03
1.500373389727226368e+03
1.168358613834099515e+03
7.384092515635625205e+02
6.584282701800981386e+02
4.094501053269340218e+02
-1.686188916505317366e+02
-5.238499501408092556e+02
-8.571839517654387919e+02
-9.726728187404561368e+02
-6.473113908083532806e+02
-1.651339033490430666e+02
3.609249090324934173e+02
9.478227995600218492e+02
1.467409888462257413e+03
1.631690035205157301e+03
1.122717783556878430e+03
1.024420247095983768e+03
1.086722235053724944e+03
1.074676291955736360e+03
1.363227770889657222e+03
1.445367823451627373e+03
1.171077191314539732e+03
6.912612404384200318e+02
7.818714222172455948e+02
2.169159484236805326e+02
-9.246535957125100822e+02
-1.693845744557324679e+03
-1.590629665822570587e+03
-1.551987573998302196e+03
-1.509962365880865946e+03
-1.119497536579487587e+03
-4.645792888245055110e+02
3.766504955103335988e+02
3.061733210319587215e+02
6.250458286804083627e+02
1.529198304369206426e+03
1.818595018853084639e+03
1.192224837723541214e+03
1.070063992498221523e+03
6.030967629397697465e+02
-5.716199847542063708e+02
-1.963094895930224084e+03
-4.663703680571413202e+02
2.845442254663793165e+02
6.226181780280521707e+02
9.358688777348755821e+02
1.064257599089040696e+03
1.036775002773203141e+03
6.804834698107252962e+02
2.484035331521722298e+02
-5.385684486303051699e+02
-4.100337703656211488e+03
-2.710024194539584187e+03
-1.661626835340773596e+03
2.009371908897331878e+02
-1.651377389856946593e+03
-5.362089092672005819e+01
-2.686717300501383306e+03
-2.028708711441325931e+03
-3.213568171690656527e+03
-2.547321478495634892e+03
-1.224960916695131573e+03
-1.677447493589232408e+03
-2.047752589397889778e+03
-2.180909219840163587e+03
1.060569715612145814e+02
6.318958501720521070e+01
-4.304642903424330029e+02
-1.129858514229099001e+03
-1.483052434266180398e+03
-1.303016665503503418e+03
-3.867081816354511261e+02
-2.801354332808704726e+02
-5.032266210855482882e+02
3.005849616475888109e+00
2.546138286265820625e+02
4.956058347239370505e+02
3.089933407241679788e+02
9.181793889065512815e+01
1.951010884430457679e+02
3.008409083588592807e+02
-4.830080749986328783e+02
-1.700366242874441923e+03
-3.257180710812927373e+03
-1.106448232581665934e+03
-9.901723035488042797e+02
-1.010242889848305822e+03
-8.116110134338829312e+02
-6.953177562527580449e+02
-7.763454961308632392e+02
-3.036649834120599735e+03
-1.915238893042155723e+03
-3.901590588718156596e+02
-5.934757522464499857e+01
-5.368415777948435874e+01
-8.402175308036918295e+02
-1.222924785959495694e+03
-8.437478931829373323e+02
-2.426565888592276679e+02
9.953919974033059361e+02
1.911330169702368948e+03
1.750078598183976965e+03
2.149676079562828363e+03
2.623016141662361406e+03
2.814149309671732226e+03
2.805456170923600894e+03
2.166075212174274839e+03
1.519690382815304474e+03
1.275329660952047561e+03
1.097322444783499350e+03
1.036596100530968215e+03
1.138881058904639076e+03
1.416535601693806484e+03
1.824466879343266100e+03
1.861875824077853395e+03
5.706125144041615158e+02
7.164184757973497426e+02
7.117698103684989519e+02
1.258674464839393522e+03
9.089755916247593177e+02
6.795817324596871458e+02
7.138315856225099196e+02
9.644402078357336450e+02
1.040597289036586062e+03
1.047217572429031179e+03
1.420172292816029312e+03
1.233695410668981140e+03
1.440372823256589527e+03
1.501540882052772304e+03
1.498286147700899392e+03
9.627373351850485506e+02
-1.503814244730102985e+02
-8.917895333025576292e+02
-1.624857824152515207e+02
7.617119251978081138e+02
1.239683877096581455e+03
1.179346048163309661e+03
8.725329935687431089e+02
8.121862991776398530e+02
