2.446515872778596531e+03
2.519795218387228488e+03
2.765591962028338912e+03
2.627033151741895836e+03
2.408192585798355594e+03
2.416087353050198089e+03
2.154844602485908126e+03
2.147499585924015719e+03
1.951136263462380839e+03
1.977795373266841807e+03
1.742467842093748459e+03
1.762213775848960040e+03
1.816011877787460435e+03
1.793850054960172656e+03
1.829747713772746238e+03
1.697773488042004374e+03
2.007066249595723548e+03
1.774121875160662057e+03
1.523989482366795755e+03
1.331569426556091003e+03
1.510306508737655349e+03
1.701006718846758758e+03
1.665651353351822308e+03
1.009217763698951330e+03
9.453919111215786870e+02
9.770127521951920926e+02
1.257138922509566783e+03
8.342861676449122115e+02
7.589952401832645137e+02
6.364408036278827012e+02
7.144937517145134507e+02
9.379965880485823391e+02
3.522463347313197346e+02
8.441073293175775234e+02
7.569347779125926081e+02
7.731451057698085378e+02
9.595474925911526043e+02
5.877696550835038352e+02
9.470030795839733173e+02
9.169237726869890821e+02
7.234914239148556589e+02
7.767464768835249060e+02
7.947221148387781113e+02
7.334069951165772636e+02
2.119472751023806438e+02
2.131988875740508718e+02
4.778290706790395461e+02
4.377218549797335641e+02
1.579617223092420488e+02
1.115618985635755962e+02
-5.243782218152592378e+01
1.303647678462016657e+01
-3.496056717363453004e+01
1.104773238480201769e+02
3.462181164944783518e+02
3.022099752440130374e+02
4.715454887293397519e+02
3.442652685239722814e+02
1.883347975493939543e+02
2.137216107714448299e+02
2.063735471870250819e+02
-2.627036697166316799e+02
-6.305729577224495870e+02
-1.092334274328492967e+02
-1.464764203578485535e+01
1.361921619448153535e+02
3.821589884461864273e+01
3.641971811788718583e+01
-2.291701935375607206e+02
-1.366144960060879043e+02
5.705754889658552287e+01
1.929087590664936158e+02
7.987281948665658149e+01
-1.081221793612541830e+02
-1.706244344797134005e+01
9.994635097920303224e+01
-1.372790986131399507e+02
-1.817493110307782160e+02
-1.774429267131801851e+02
-3.303275970627873335e+02
-1.914508445115381505e+02
-1.648648327302300913e+02
2.743696478112743264e+01
-8.577775774829673310e+02
-3.506618965902501714e+03
-7.997003770047707803e+03
-9.018035941600126534e+03
-8.831883535636176020e+03
-6.892394428246505413e+03
-9.125799299060387284e+02
-1.014210438401944003e+02
-8.040302613169644701e+02
-1.394813265039457519e+02
1.655305510606479231e+02
-2.699363964605343469e+01
1.897980718403120761e+02
1.725423271196635824e+02
2.445463911555806078e+02
2.067559267271369947e+02
2.829900518235381810e+02
3.773173725194640156e+02
-1.952798653531876312e+02
-3.898517802415835121e+01
3.321799128648910369e+02
3.812290001247835107e+02
2.990446497767977121e+02
4.204544980728079508e+02
7.184169826985585132e+02
6.060121345324504318e+02
3.962003388480638364e+02
5.619167684413757797e+02
4.351653593423755524e+02
3.528918895046139710e+02
4.580896234764172732e+02
5.418439803970533148e+02
6.351368521558308657e+02
8.229079378693039644e+02
6.561075836384927698e+02
4.916636588024499588e+02
5.245591510252082799e+02
5.407903803272369032e+02
7.123823475436719264e+02
9.153467163548270946e+02
8.486794970972819101e+02
5.743646056293978290e+02
2.633011136701136934e+02
7.634118021655947359e+02
6.026941411186336381e+02
3.291455544164712705e+02
6.757671565043278861e+02
6.225117381509153347e+02
5.014029720714040650e+02
5.674503626077014360e+02
7.846433015518235834e+02
7.659567538505526727e+02
4.533681822992758157e+02
1.579041360671383529e+02
1.905905059512837454e+02
7.954189281230026154e+02
1.249399123913247422e+03
1.150512862205306192e+03
9.707261909671601643e+02
9.040523963247909478e+02
7.965380506937357268e+02
1.033123492006711331e+03
1.287841149654765104e+03
1.233714571380684674e+03
1.169658549346756217e+03
1.149698840938934154e+03
1.173840357004680072e+03
1.089070931603125928e+03
1.243367831807132916e+03
1.487758213790322770e+03
1.618337346695613860e+03
1.115189337946110072e+03
-3.687701556750369036e+02
-3.918543598791394743e+03
-5.744096673173185991e+03
-4.585488314385892409e+03
-5.129760755829242044e+03
-2.901832991216660957e+03
1.174309429335759205e+03
1.193623505001488638e+03
-1.846897495153379168e+03
4.028203403595808254e+02
1.564788048026076922e+03
1.481038014946471321e+03
1.539550636702715565e+03
1.491308500439954742e+03
1.387285844929806217e+03
-9.244906356666892862e+02
-1.581020722019765344e+03
-8.162396156366353352e+02
-1.205123284710634834e+03
1.305387885954361536e+03
1.259291911730793572e+03
-2.321340379341478638e+03
-4.018414111317263178e+03
-2.399970835941252062e+03
-2.889054006254038086e+03
-5.876368525404568572e+02
4.033799659218508395e+02
-2.777038740616942050e+03
-3.581829192264353878e+03
-4.883962212405494029e+03
-1.469391229755751965e+03
4.928732915006466442e+02
-2.254210483868415849e+03
7.542834850317792643e+02
-1.351615830671920776e+03
-4.867794639785389563e+02
1.140840606032605137e+03
-1.843783883716124592e+03
-1.059639502087855135e+03
8.792822002465760534e+02
1.431952369719916533e+03
1.373514665381211898e+03
1.485106579334909839e+03
1.698633382327697291e+03
1.606913639605559410e+03
1.761819676618345966e+03
1.646394196756885776e+03
1.355634066117492921e+03
1.372669921093259063e+03
1.525588549978633182e+03
1.637381634365978471e+03
1.108942799154812747e+03
9.032814391049308824e+02
8.565029470775950813e+02
1.039326024338834941e+03
1.019576663457625614e+03
9.947721777639201264e+02
9.677324243761494245e+02
8.948524014474653541e+02
8.322103741678043889e+02
9.908456877012895347e+02
1.181812141376499767e+03
9.583114912450809015e+02
9.005315752691874422e+02
-1.666902509412708184e+02
-5.070337900944380749e+02
7.326764326971864421e+02
1.409402957455142541e+03
1.619274995211172836e+03
1.141114955694813943e+03
5.571094117681232092e+02
3.363409475144288194e+02
5.637206766429718527e+02
5.149548860393836094e+02
3.587262063782097812e+02
4.704706258870733109e+02
5.591202007070636455e+02
6.488948646943263157e+02
7.847820944761535884e+02
1.065772349072780798e+03
1.014814824287792476e+03
8.929036463444851961e+02
9.770919198629461562e+02
1.155306975296148266e+03
1.164535450736557095e+03
9.658580488934833284e+02
1.037238512959851960e+03
1.250241591628036304e+03
1.031962042894556362e+03
9.188645766317430343e+02
7.793224245900943288e+02
8.033395443839709742e+02
8.021169604227313812e+02
6.842940205530370577e+02
6.141563937349311573e+02
7.006350383965291257e+02
8.578883392984664624e+02
7.796990712413351048e+02
5.278338075525105069e+02
3.364843239487373694e+02
5.182733096776313886e+01
1.286929298890009647e+02
3.360412312427488928e+02
4.778857304466866935e+02
7.471396381202695238e+02
8.527980012881690755e+02
5.898578504556985536e+02
7.612843475485861973e+02
8.741310662072716013e+02
8.083711390199648577e+02
4.979703620376558320e+02
4.359013938547522002e+02
5.691764124679904171e+02
6.637795400827960748e+02
9.327502503387231627e+02
7.551039723084934394e+02
3.378844862819557449e+01
-1.257194912189167553e+03
-4.585626519788840483e+01
2.658013124220933037e+02
4.327585568567633345e+02
-1.792977681980181615e+03
-6.911415307130239853e+03
-2.449539855008568338e+03
5.556270944531922851e+02
5.941084278948433166e+02
-2.479111603136084341e+03
-5.847027300697171086e+03
-8.676480658588297956e+02
1.692548409577116075e+01
1.769487849167009585e+02
-2.340458929826857911e+03
-7.438411951133640287e+03
-8.967031728559566545e+03
-8.269241658673627171e+03
-7.710143085449341925e+03
-8.143668903163884352e+03
-7.902724502389747613e+03
-7.116330086075423424e+03
-1.605462598800529122e+03
1.058118342546564747e+02
9.995636071710936221e+02
1.343854442263993860e+03
1.539713849211218530e+03
1.780149058701416152e+03
1.871155751702534417e+03
1.561790579247264077e+03
1.504060353757392477e+03
1.529948469394694712e+03
1.697519768337984942e+03
1.511819662611914509e+03
1.426847340610130686e+03
1.326675739952646381e+03
1.428274013966014991e+03
1.347664411871790207e+03
1.176890230447825616e+03
1.238024503209770728e+03
1.239116028239983734e+03
8.051447647485913421e+02
7.571497279925846442e+02
7.601879378411257449e+02
8.442446673987761869e+02
9.703462810913648582e+02
1.141583357634651065e+03
9.650108235434175867e+02
8.795973245775979876e+02
1.005403899483816645e+03
1.102471404890329268e+03
8.288458839102938782e+02
7.155413247689846230e+02
4.806420347554104069e+02
3.731475447381802155e+02
4.331060765620512711e+02
3.705641851514022278e+02
5.375470574075482091e+02
6.871316511078325675e+02
4.013125569432160091e+02
8.308735649595422501e+01
1.045651910759024474e+02
1.227720866089980092e+02
-3.824113705742194469e+01
-3.424307837014310518e+00
-1.087751747714586514e+02
8.778460613228040188e+01
2.462542435378263121e+02
5.874899789240566861e+01
-1.105645161654564959e+02
-6.475461202085733703e+02
-7.324523861301593115e+02
2.047847064192868629e+02
-2.967721486176991519e+01
-3.349177054634135970e+02
-1.690751457441935372e+03
-4.330298091115065290e+03
-2.562543351433519092e+03
-3.985529460819719247e+02
-6.426566330998126375e+01
-3.125713923380380493e+03
-1.434841827529143984e+03
2.336159983400481011e+01
-6.580743589930063990e+02
-7.761189141097383981e+02
5.424154428610275147e+01
8.504806769115965892e+01
2.012434703661454876e+02
2.587723111359369454e+02
3.177304723499053125e+02
-3.284168938602076793e+01
2.104817653998786042e+01
5.136969661912416996e+01
-9.287105494084337920e+01
7.231637841277671441e+01
3.239226033388245583e+02
-2.299214626719168919e+01
-2.374431799022026155e+02
1.235378060011648529e+02
1.859664054590253102e+02
2.384554352982519632e+01
-1.586179229051783679e+01
-1.011428051206803644e+02
-1.229945676242343922e+02
-2.324650789084836333e+02
-2.452609299834711720e+01
4.198278789861605560e+02
5.505790031723381617e+02
6.456967894702161175e+02
5.971506592588566491e+02
3.749388041531616977e+02
4.309737135588147225e+02
2.023026428970026984e+02
3.689181349310947553e+02
6.326895541716844491e+02
7.725936729889673416e+02
6.016507612779628289e+02
4.928117070618891375e+02
4.940522686092943445e+02
3.122915659710592422e+02
3.665245196200421560e+02
6.107083756520951283e+02
4.637890998170298076e+02
1.996105844026517104e+02
2.912645021282555717e+02
1.637257364885011555e+02
-7.908702868032295896e+01
9.764003406094538207e+00
-5.157583127215316381e+02
-9.277644417587595171e+02
-1.135280914638950435e+03
-3.353763434759165420e+02
3.749626042203027509e+02
3.646683510292848496e+02
1.116518054413837433e+02
-2.541145913321190051e+02
-6.547575831015216181e+02
-3.583589944846555113e+02
1.056030566349646961e+03
1.922449620348869075e+03
2.844961509302484956e+03
2.553698451938961625e+03
2.175418368063627440e+03
2.286908614238964674e+03
2.394013994961995195e+03
2.422658508660848838e+03
2.255058866111384759e+03
1.945045081970016327e+03
2.110742373400212728e+03
2.007691035745944191e+03
1.802890300844848070e+03
1.869321644658580453e+03
1.682846119951117316e+03
1.446448518945278920e+03
1.397079586099403969e+03
9.928227740779316264e+02
6.802610289165120321e+02
1.078316233052776738e+02
-2.354946941965650637e+02
-8.294952155575875850e+02
-9.637152788985943062e+02
2.599609649829411850e+01
4.595173041170916690e+02
-3.463262878262007689e+02
-9.688918941410961452e+02
-6.562384280295061671e+02
-1.019919721508437306e+03
-8.030266677947043945e+02
-4.748210614200951341e+02
3.807299334182260395e+02
1.038172527313682849e+03
9.444939958755271618e+02
-9.004651472567906012e+01
-9.186296077369044042e+02
-7.832383328612480682e+02
-4.707352188280531209e+02
-4.286378771951578415e+02
-4.733385569349044317e+02
-7.731047425188786519e+02
-1.177202132944307095e+03
7.291430673560232556e+00
3.178408212369092325e+03
5.734112857961371446e+03
6.376346584889796759e+03
4.968124033220091405e+03
3.374434769287426661e+03
1.810262577667858068e+03
1.332560967194839577e+03
1.673317073167162334e+03
1.644544203738292708e+03
7.220355592972678593e+00
-2.100561709093783065e+03
-3.985814378690925423e+03
1.766428696950635640e+03
4.699108048359509667e+03
1.542412851881711049e+02
-5.134151383376690319e+03
-5.536063855937523840e+03
-5.429486964909866401e+03
-5.142376032039965139e+03
-3.072709617726220131e+03
3.157601132297075310e+03
5.428529896266111791e+03
5.090887209145354973e+03
4.515895299444760894e+03
4.627308404752173487e+02
-3.644814732596687918e+03
-3.990770635695610963e+03
-4.398089705198690353e+03
-4.580631031641393747e+03
-4.117335057308288015e+03
-3.351157525332549540e+03
-3.316135914657921603e+03
-4.122172573031139677e+02
-2.453330971652074822e+03
-5.045445193048871261e+03
-4.970509809014475650e+03
-5.036477730370261270e+03
-5.153318234394791034e+03
-5.349915638813528858e+03
-5.675164153364686172e+03
-5.450069352334465293e+03
-5.613636707287044374e+03
-6.209785963144667221e+03
-5.822452129401038292e+03
-5.195533536204884513e+03
-5.791937918679135691e+03
-3.613616807084246375e+03
1.699530614305430390e+03
7.485718510037161195e+02
-2.173814253768815377e+02
1.116739102524493319e+03
-1.458007300705518901e+03
-8.475370434160018931e+02
-3.117951159361292639e+02
2.395263614724569834e+03
2.708725291309418026e+03
2.168315569160223788e+01
-4.497510703123604685e+02
1.554523201619897918e+03
1.858653735542229924e+03
2.013643960995351335e+03
2.746496205284136522e+03
2.871316341872845896e+03
2.735172461012586609e+03
2.560195159699342639e+03
2.230520585251434568e+03
2.422159411920386447e+03
2.696183306413934133e+03
2.461673850919788038e+03
2.135765904000154478e+03
1.699527964711747472e+03
1.285985004321044926e+03
1.499239266221628213e+03
2.031366712023655282e+03
2.120487386257697381e+03
2.139766771310162767e+03
2.629239811202333385e+03
2.676650215138705335e+03
2.416208361245954620e+03
2.221210716746874368e+03
2.307085879238500183e+03
2.722155503565972140e+03
2.710762512307380803e+03
2.204042299204771098e+03
1.859246222693186610e+03
1.559756926777182343e+03
1.306778183020445340e+03
-1.426350117084868543e+03
-9.884005839399009119e+02
1.147658664287152078e+03
2.348215145661326005e+03
2.205725199325741869e+03
2.029179166274423324e+03
1.369961794517111684e+03
7.220741845083298358e+02
1.190877998165146437e+03
1.520406074147483878e+03
1.397683367898891220e+03
8.595120702189958592e+02
5.439251895030675996e+02
5.487651411533636292e+02
9.663063442507768741e+02
1.287564445338265386e+03
1.231560961148173419e+03
1.052155675612294090e+03
1.103372920117314152e+03
9.162281234073498126e+02
9.487364466423670137e+02
9.588989279003479851e+02
7.877441814488461205e+02
1.074265576203876662e+03
8.264516278122146105e+02
2.773041327847909656e+02
-2.101803828727239587e+00
4.222397852393605149e+02
9.413077577372063161e+02
1.115106716428134405e+03
1.104683354875116265e+03
1.372008046321340998e+03
1.197006501957348519e+03
8.206864316094612377e+02
5.541273018813021736e+02
4.902656205085203283e+02
4.660582698556659125e+02
4.084834169044886494e+02
5.014056383836645523e+02
4.817890385516272431e+02
2.106214181873196480e+02
2.089006274912017602e+02
3.161081165458726261e+01
1.176895908700136744e+02
3.441182268273734621e+02
1.698827748837111073e+02
3.919138926060518315e+02
3.521649885655568255e+02
-2.293920436290875671e+02
-3.537973808434697389e+02
-5.051241875373735297e+02
-4.494230305409363950e+02
-3.817068603922231205e+02
-4.640339548457032492e+02
-4.643143504758064921e+01
1.880400817546423582e+02
3.422914492757607832e+02
-5.266932464646253464e+01
-2.167788432411188751e+03
-6.015109500380667669e+03
-9.208783847065000373e+03
-9.151008637118635306e+03
-4.848785826313050165e+03
-1.860223985471953029e+03
-1.886337016715354139e+03
-5.408371647362553176e+02
-4.082056179736786135e+02
-2.506740531273067631e+02
-3.991715794802859705e+02
-3.364760026783382614e+02
-2.970187069222150740e+02
-2.308324943481154605e+02
1.711635757351643861e+02
6.878444580920797762e+02
8.960610220967630539e+02
8.888234345825014771e+02
1.971199657304753998e+02
2.348965729632699322e+02
5.731319862637594724e+02
1.013834131152171494e+03
1.302944547172142165e+03
1.245414778471514865e+03
8.102234857177527374e+02
4.931984487429422757e+02
6.260899643376396853e+02
6.019053916863626910e+02
3.545592277508682173e+02
3.238907320718961387e+02
4.459778499057962904e+02
3.138619897100098797e+02
5.447877718582444828e+01
-1.352628683093942641e+02
-7.095183109274954631e+02
-8.523629806623770264e+02
-5.258249761070537716e+02
-2.003640253086742007e+01
1.769131681390575181e+02
-4.018843891210853059e+00
-6.486303124114479601e+01
-1.176931485525783074e+02
1.874499809345051347e+02
6.905742783694047375e+02
5.776083946636890687e+02
1.335088187847360359e+02
2.352470850194878267e+02
3.578012394809499028e+02
9.111825773445667664e+02
7.534109006342970360e+02
6.664272470204791716e+02
4.531374974244467353e+02
3.414853792024330232e+02
-7.135194478709759096e+02
-8.389644759030201726e+01
4.622423637696743981e+02
5.379142466684689907e+02
5.331339286117829488e+02
6.478961187370966854e+02
3.403063705302192261e+02
4.193025989333216330e+02
-2.814723833386801388e+01
3.618520852787225408e+02
7.302270491431073651e+02
7.820882348908353379e+02
1.161474379930465830e+03
9.333884116043972199e+02
4.658783037366001736e+02
-8.515742967676060005e+01
-1.318228124908960126e+02
2.148910443486815609e+02
4.057977131043332975e+02
-8.057624323386556853e+02
-1.226735201236032481e+03
-4.976355319650287129e+03
-6.594559513858514038e+03
-1.472327525734596065e+03
-4.225847087197914789e+02
-2.332932281338011933e+02
1.436617120409626978e+02
8.514912273673488698e+02
1.183130470234143786e+03
6.675093012239116206e+02
5.916120147539476193e+02
6.124973562395167619e+02
-1.017865945780454240e+02
-4.830252440651462166e+03
-1.958919426505622368e+03
9.902006265209282674e+02
-2.105995062872988456e+03
-1.101428665617124807e+03
-1.311999988778416991e+03
-1.145760278316871563e+03
1.172403260036083793e+03
-2.485417269611438769e+03
-3.808300090035247194e+03
8.657249136637192350e+02
1.274795540755037791e+03
8.639239954010438396e+02
7.151346880207153163e+02
3.284130525506451477e+02
-4.881889785767424996e+02
-2.571629624458847047e+03
-6.317828114724418356e+02
-2.972545573945688375e+03
-1.468832456599361933e+02
-2.285833625294947979e+03
-1.042425784530957799e+03
1.164455712846495771e+03
2.377973747140429623e+03
2.083256644552332091e+03
2.004209260796043509e+03
2.003693765093454658e+03
1.687819417298641383e+03
1.512689336501292928e+03
1.742379156469313330e+03
1.782099414265630003e+03
1.132926956168421157e+03
6.225264417544756270e+02
5.117647818530073209e+02
1.716877990875609896e+02
4.023280273976313310e+02
8.496632726114407888e+02
1.118840411997373394e+03
8.783837074866921739e+02
5.833182384908657241e+02
4.142269691306477739e+02
1.654445678884902975e+02
-2.381586242898706871e+02
-2.965525204763070519e+02
-6.648885561515253784e+00
1.524355046314940864e+03
2.367129632334414964e+03
4.950014051789918312e+02
-3.435486868089162726e+02
1.415354108160924852e+03
2.164628788437103594e+03
1.904314599144223394e+03
1.369852697510507824e+03
1.397535857731609440e+03
1.471672981427650484e+03
1.931392718446189292e+03
1.875502578302833854e+03
1.646035833514940578e+03
1.552924146159138445e+03
1.489925786679466455e+03
1.407334924193623920e+03
1.247403415208962997e+03
7.710891098108787673e+02
1.252100281936760666e+03
2.231194440462108560e+03
2.428627838544262886e+03
1.923563978186236454e+03
1.660096298732125888e+03
1.142234865687404863e+03
7.058924430160789143e+02
7.722047645771895077e+02
7.381767914064191700e+02
6.222628814531985881e+02
4.546310021900384868e+02
7.175206218185122680e+02
1.124812573332761531e+03
1.376248808293758657e+03
1.646060501768574113e+03
1.683026143963057848e+03
1.414163399719341214e+03
1.275214025777976985e+03
1.020356499418509884e+03
8.869120834790222716e+02
9.916808692207603144e+02
1.920409707167202441e+03
2.352205954949306943e+03
1.926169850298141000e+03
1.692275222748021179e+03
1.374539971552954057e+03
1.527919740240289002e+03
2.061406074176481525e+03
2.172007751618661132e+03
2.126730434255026466e+03
1.852571592453015683e+03
1.932492078022714850e+03
2.067393777437003337e+03
1.643277625594025949e+03
1.394098203249875951e+03
1.255774904298601541e+03
1.166281150728279954e+03
1.564664065560002427e+03
4.849040147907940081e+02
-2.995052283434158653e+03
-6.381179202116121814e+03
-7.669463171762855382e+03
-7.228878822593663244e+03
-7.457441908071818943e+03
-7.624229925365249073e+03
-7.443236508608672921e+03
-7.501382900999879894e+03
-6.992593146243460978e+03
-5.613918150401509592e+03
-4.663446960077628319e+03
-4.794987484561722340e+03
-6.071543684511731954e+03
-6.316283965587644161e+03
-4.832293563213634116e+03
-6.795225671971033989e+02
-2.612963519347298643e+03
-5.736585394166166225e+03
-6.214362884047753141e+03
-6.210378633638438259e+03
-5.621651710318102232e+03
-1.919140062650395294e+03
-3.888209438633424497e+02
-1.756730111241300392e+03
-3.788525943295721277e+02
1.141762911335523313e+03
3.189123118733195042e+03
3.334258964403574737e+03
3.101189105586003734e+03
3.006890183786692432e+03
2.982389539842708018e+03
2.975671346618323241e+03
2.832761369474195817e+03
2.509706025532667809e+03
1.792488985651486246e+03
1.067122781854053528e+03
1.008671797186907611e+03
8.951692669382888425e+02
7.365495888063680923e+02
6.248359341854942386e+02
7.260190408080632096e+02
9.511059955763112157e+02
3.931342639572640678e+02
1.151559634081616537e+02
1.273203634514590703e+03
2.243246392870017644e+03
2.811278901422813306e+03
3.676343919775713857e+03
3.467412866866434797e+03
3.113520160243377177e+03
2.493733575951755938e+03
2.283099907111379252e+03
2.112608945658635548e+03
1.621285213583173345e+03
1.475123772786868585e+03
1.549137773560229107e+03
1.538340441049382207e+03
1.526753815492478907e+03
1.261370308102757690e+03
9.032109851399615081e+02
4.332876122654262758e+02
-1.723904460981447073e+02
-6.108337107907584596e+02
-1.050109784508479379e+03
-1.390243737435538151e+03
-1.546333072917812615e+03
-2.221221440488158350e+03
-2.533636376694174942e+03
-1.307535709606748469e+03
1.026048568837102515e+01
8.379312812050718549e+02
1.248504366908009160e+03
1.467802388177189869e+03
9.484711460414401927e+02
-4.222089797453892288e+02
9.577394309308150468e+02
1.593040846754937775e+03
1.067713037358208794e+03
7.167164260105826088e+02
2.350928942380831757e+02
-4.941641975375268316e+02
-7.040719218708843528e+02
-1.120620898430024226e+03
-1.986835321080995527e+03
-3.129750297642393434e+03
-4.279306475249199138e+03
-4.863517975958548959e+03
-5.508345910600166462e+03
-5.694815306622185744e+03
-5.391973650586382064e+03
-4.497846681772513875e+03
-3.117432366681169697e+03
-8.997006019148190035e+02
7.614140281323527688e+02
3.518749714944461857e+02
1.706355180442045878e+02
-3.303072109563530603e+02
-1.761908798393238158e+03
-1.859213078104432043e+03
-7.672612164418677594e+02
6.869999191920860540e+02
2.032529003855718656e+03
2.405320879048260849e+03
2.502435377421278190e+03
3.426822954788033258e+03
3.864398850549989675e+03
3.631116394088048764e+03
3.461965767073778807e+03
3.377977441358738815e+03
2.658115796295032396e+03
2.106393803283080160e+03
1.818737480061909309e+03
1.475091580650236210e+03
1.174488570854276077e+03
8.649341714178292477e+02
3.293410278991911468e+02
3.557057042977486390e+02
1.298936572674468152e+03
1.903059789190669790e+03
2.014075694135811091e+03
2.028977983161573775e+03
2.167719448605894740e+03
2.249328954845889257e+03
1.439663403734241911e+03
7.087514216555808844e+02
7.954997700522304171e+01
-1.959880908345633941e+02
4.721020998937551667e+02
6.298428283211192138e+02
6.991456469208789031e+02
6.600275921984823526e+02
-2.145986998431249333e+02
-3.377544134865925116e+02
-1.694762761985669499e+02
-7.876929112909090236e+01
6.253555470906455866e+02
8.409174277218218094e+02
1.117793112868398566e+03
1.282680708295869181e+03
-1.006900811765412755e+03
-3.731277798512141999e+02
9.130208153439099306e+02
-5.206037810645610762e+02
-1.611673546203299338e+03
-3.024201253894967067e+03
-4.260909292897764317e+03
-5.832504911851116958e+03
-5.964819437708006262e+03
-3.635333072614922457e+03
-2.048698691845675967e+03
-1.055807794832863920e+03
-6.399161905306225435e+02
3.048945444241973064e+02
2.070616044589499779e+03
3.357296725607666758e+03
4.395204519714528942e+03
4.783569846073294684e+03
3.527623516114771519e+03
2.231054910287808980e+03
2.045300586482796461e+03
2.057144611400855865e+03
2.893916203017003681e+03
3.432181009918662312e+03
2.534761523216995101e+03
1.507098283934552910e+03
9.608293690059482515e+02
6.052043851828589140e+02
2.345416631152212119e+02
-1.683959323440736569e+02
-4.268554780302779932e+02
-1.440406670105232251e+03
-2.676065074315220045e+03
-3.338343988558440742e+03
-3.211552479169048183e+03
-3.863297162362916424e+03
-5.937059647802283507e+03
-7.580989430580435510e+03
-8.215493262053036233e+03
-7.923621671934320148e+03
-7.548924354324592059e+03
-6.695422953670205970e+03
-4.352247976522900899e+03
-2.033446067314872380e+03
-8.969693841733177351e+02
2.535140496551178785e+03
7.252932786694778770e+03
8.979469433382686475e+03
9.810750684527583871e+03
1.083875088378273722e+04
1.021155825649696635e+04
7.621142008597998938e+03
5.742487095167398365e+03
5.306642925719310369e+03
2.826648260005745669e+03
-1.018479700849209962e+03
-3.807727832719076105e+03
-4.955056943192417748e+03
-5.802406482519897509e+03
-5.660768287085912561e+03
-6.305167344968871475e+03
-6.300712765145688536e+03
-5.076304832926684867e+03
5.923035529413638187e+02
5.426080257851568604e+03
5.581816233153527719e+03
4.871634922952850502e+03
-8.403685699303223373e+02
-4.313135132327390238e+03
-4.279655386809111405e+03
-1.708932839995028871e+03
-8.099832196709519394e+02
1.741849679898918524e+01
3.740256446073850839e+03
-6.344851769565626682e+02
-3.404739463757309750e+03
-6.634706472879482817e+02
2.094321727491467755e+03
1.281746507282972971e+03
-3.506198444791612019e+03
-6.193584590732561082e+03
-6.674306338037198657e+03
-6.363283107572558947e+03
-6.413474247900693626e+03
-6.643803652898687687e+03
-4.461229738300346071e+03
-2.879769225326081141e+03
-5.379360779716295838e+03
-1.323932963908525153e+03
1.037546449788051859e+03
2.146075218376734483e+03
2.600683786916769805e+03
2.061412966676676206e+03
1.596299203903410216e+03
1.493389400958295028e+03
6.777463102920842175e+02
9.439416797356025768e+01
4.084024501238581593e+02
8.081640181495193076e+01
-8.523532216893112263e+02
-1.940140410679670367e+03
-1.837482918961022278e+03
-1.150281685184151002e+03
-4.145075772183835738e+02
-2.641220742079840988e+02
-1.301351167610509378e+02
7.946013365637814729e+01
1.182742033208033490e+03
2.925744082869878184e+03
4.226508132247289723e+03
4.476063703881575748e+03
4.774406376573628222e+03
4.592629263831812750e+03
4.056770478206040480e+03
3.640823789270942598e+03
3.566840807672961546e+03
3.294796257352381417e+03
2.941807172976541551e+03
2.596149395584818649e+03
2.112921539646746623e+03
2.011033416346763715e+03
2.092323200593880756e+03
1.638842859516893213e+03
8.336378400675461080e+02
4.106861077333888375e+02
1.145984916812236179e+03
1.409437392843676889e+03
5.039290299222128624e+02
-1.049609230518524555e+03
2.642382323921926286e+02
1.926676825431169618e+03
2.347662825804655313e+03
2.321010441604522839e+03
2.370493789301274774e+03
2.267585498113091489e+03
2.374360725976336653e+03
2.595627389749249232e+03
2.600463070512545983e+03
2.766660520917273061e+03
2.759970251768294474e+03
2.360605682788635022e+03
2.388018581276415262e+03
2.235630057439826487e+03
2.118336854941862839e+03
1.996977228682220357e+03
1.894661911691592422e+03
1.609410372200568190e+03
1.284155928508235093e+03
7.808911478662486161e+02
4.006021862597499421e+02
2.613029223757109207e+02
2.760389579285550781e+02
-2.452151076809845449e+02
-5.654579856923843408e+02
-4.377316178348104927e+02
-5.470772989622220166e+02
-2.395165107978053527e+02
-4.230399653997941982e+02
-9.097172365962558160e+02
-8.045717256752263893e+02
-5.715608133276072067e+02
-2.847356949211710457e+02
-5.242238417941860007e+02
-9.210521562028268363e+02
-9.672158925792130049e+02
-1.701787074000333178e+03
-2.178729420500106698e+03
-2.129016094119805530e+03
-1.920629631899935703e+03
-1.745647268590188560e+03
-1.597117016932013257e+03
-1.399006666317874306e+03
-9.473547664154417589e+02
-8.252116712956564015e+02
-8.159556459791232896e+01
3.004557970238673761e+02
1.949616790450410235e+02
4.589095084006646061e+02
6.822763959342315729e+02
8.600584239354384408e+02
-5.677662009697642986e+01
-1.984229610995555277e+03
-5.515346829834460550e+03
-8.139170189196465799e+03
-7.794664100730209611e+03
-7.621877259316852360e+03
-7.311972122063515599e+03
-7.347022189571121089e+03
-7.451034332399070991e+03
-7.059959652075231133e+03
-6.343873940202788617e+03
-1.761659066860476287e+03
7.726939153410954759e+02
1.714933673081747656e+03
1.984176541831186569e+03
1.779413776913025231e+03
1.746574327126521666e+03
1.809690984795790655e+03
1.611794518302810047e+03
1.531802974714578113e+03
1.527768583713938142e+03
1.281742260216446084e+03
1.608716574716916512e+03
1.631693522003987027e+03
1.377625879003943510e+03
1.464520551026540261e+03
1.337325929673073460e+03
1.093962785864500120e+03
8.163687028096644553e+02
6.164833071816817665e+02
9.061952087119138923e+02
8.714621118753169640e+02
7.464287627473889870e+02
5.091334212329148841e+02
7.035623219203863528e+02
6.738226748037805010e+02
3.857969972467895445e+02
6.844034616611754700e+02
4.505725801415000547e+02
2.892626030735767699e+02
6.285536644105228561e+02
9.654485854918181076e+02
9.738649528695426625e+02
8.928314125976926334e+02
6.664261072004776452e+02
6.716575555614637096e+02
5.455109453727444588e+02
8.700832941179089630e+02
9.653831382521518663e+02
9.483819337261782039e+02
1.090106418079753894e+03
1.237546400738406419e+03
1.068743301903503152e+03
1.220747547299426060e+03
1.032544032107394287e+03
7.910410036284146145e+02
9.072103406791360385e+02
1.165129415996462967e+03
1.270827313832375239e+03
9.823163385664695397e+02
7.816210308878521573e+02
1.449849238749176720e+03
1.663991086489220606e+03
1.595096272664834032e+03
1.575174597672007167e+03
1.802164978538979994e+03
1.642081845952576032e+03
1.468985322962488226e+03
1.352884364303335133e+03
1.424857643121514229e+03
1.117859548278330521e+03
1.527939841969589224e+03
1.664094731761683079e+03
2.187279765098844564e+03
1.238509134194357330e+03
-3.547059918924864178e+03
-1.189457533139472844e+03
-4.104701007260392203e+02
-4.362919897087339791e+02
-1.591969703869513523e+03
-2.290291748761191229e+03
-1.317212319371326430e+03
-2.010664087024628543e+03
-1.921625081606304320e+03
2.819938599235690617e+02
-3.270888270771257339e+03
-1.854475278334970653e+03
1.682250130046237700e+03
1.867320126408983015e+03
1.680812600029855503e+03
1.770676487413619952e+03
1.996854610130807032e+03
1.151371977325107309e+03
-2.537745195180977134e+03
-2.654425575432933783e+03
