2.079940201902958052e+03
1.179764748151393405e+03
1.956224077370712280e+02
-4.713059406134028109e+02
-8.090439339946545942e+02
-8.166867721013363735e+02
-7.932652140031041199e+02
-6.257700120689760297e+02
-4.812477498595924885e+02
-5.587620497825533903e+02
-6.582936513834305288e+02
-2.167708032020846645e+02
4.968143005885727916e+02
6.994787860411502152e+02
8.402384216426277135e+02
1.780021023776185302e+03
2.337897090992285484e+03
2.265937940955606337e+03
1.906145691484208555e+03
1.577505276143812580e+03
1.311011450325276201e+03
8.186677448840026727e+02
1.824612392332033437e+02
-1.806331422792370063e+02
-5.355330449782154574e+02
-9.550829769214353746e+02
-1.352138198538926872e+03
-1.162475158685869701e+03
-1.023183662412472017e+03
-8.337659800992822738e+02
-4.467809753292187338e+02
-5.647555639306199282e+02
-7.641200566416837319e+02
-1.263462381187028313e+03
-3.016497212143104889e+02
9.817272621951025258e+02
1.950622483698964970e+03
2.075368595128030847e+03
2.152657098966618378e+03
2.404101354589348830e+03
2.480019479968241740e+03
1.599472435246623718e+03
7.257693549602380472e+02
2.884986473247374192e+02
-5.213266781237064151e+02
-1.322618661278063655e+03
-1.278675294029410225e+03
-7.478778531614043459e+02
-6.661372942757399187e+02
-7.763353713102861775e+02
-4.974388283984607710e+02
1.334976926378928113e+02
4.184293656189768740e+02
5.534206877515159704e+02
8.334986672319231502e+02
1.346636470104704586e+03
1.949765836912835312e+03
2.523841519645671269e+03
2.647924917505447411e+03
2.002144490935010708e+03
1.045496868454053583e+03
1.359897632419991567e+02
-5.683593146012827901e+02
-1.383509443727583175e+03
-1.569549569008899880e+03
-1.246588604332853492e+03
-1.276667260691169986e+03
-1.485763837091683172e+03
-1.574877749865738451e+03
-1.606978107421914729e+03
-1.386100083618421877e+03
-8.733159538077757134e+02
1.503673157232409210e+02
9.989534579506182581e+02
7.023821895486042877e+02
4.146830935139493590e+02
1.235826721363366232e+03
1.780822723756167761e+03
1.207714628937860653e+03
1.072507159319773336e+03
1.016169721204415850e+03
6.216500512662315714e+02
-1.860314149719732768e+02
-1.723833746763033105e+03
-3.516730475082134490e+03
-5.310698432485929516e+03
-7.825708032438453301e+03
-1.025872659010951611e+04
-1.057376764665162591e+04
-1.047286548799213233e+04
-9.998146561525829384e+03
-4.954662410133963022e+03
-3.731570421151416213e+03
-6.196879684690825343e+03
-9.501633834642947477e+03
-6.854847262586768920e+03
-3.166547833006816745e+03
-1.471593780953169926e+03
3.835221634393702516e+03
7.194539689580858067e+03
7.729426945664222330e+03
6.997894712479339432e+03
5.761988694425376707e+03
4.367679239119484919e+03
3.136954768285689170e+03
2.779812579772535173e+03
2.531282121387234838e+03
2.309391262778469354e+03
1.243034252435554208e+03
5.771259850351898422e+02
8.956868756474614202e+02
1.090669785807273684e+03
1.167036910873580155e+03
7.588189995885066992e+02
5.379694116249838771e+02
1.145514458185019521e+03
1.535353372567731412e+03
1.438482461089566868e+03
2.307005864598559583e+03
3.163983864594727947e+03
3.449429085862926513e+03
3.454314870301127939e+03
2.632631962566703805e+03
1.590411200467724484e+03
8.076685786560140059e+02
8.224475026873794832e+02
1.915748155160267061e+03
2.679553192741693692e+03
2.294806148740279241e+03
1.783465948136683664e+03
1.219522106848875183e+03
1.569965004330244483e+03
2.562827614580058253e+03
3.265053723548568087e+03
3.343602826905426809e+03
3.254532605680360575e+03
3.931870669314726456e+03
4.607584988070791951e+03
4.952758707916173989e+03
4.237386285324822893e+03
4.034505774971940355e+03
3.695150755854116596e+03
2.565325133974959499e+03
6.181204163191363250e+02
-1.051434220156521633e+03
-9.413330498206929633e+02
1.203281304649481598e+02
5.074789199955561116e+02
1.156205164215547256e+03
1.783560494917056985e+03
1.047456727742052408e+03
3.739184363339600736e+02
-4.481595727897703227e+02
-9.967356101287473393e+02
-4.507941857232738130e+02
9.636499129357907805e+02
2.721670303243952276e+03
3.319284715246353244e+03
2.797508146340445819e+03
1.051410701477283737e+03
-8.089726249685974153e+02
-8.355983061576572481e+02
-7.941448982890728985e+03
-6.275401415444856866e+03
-6.302537734587291197e+03
-5.945884684240821116e+03
-4.778432803905154287e+03
-6.991481146771262729e+02
-8.829865178395775729e+02
-5.527951753446858675e+03
-7.012028914065446770e+03
-8.639261186121231731e+03
-7.370702803596642298e+03
-1.209380437362275643e+03
-1.850233180677026894e+03
-9.017249585372383081e+03
-1.058038744462880095e+04
-8.420592083019697384e+03
-6.618781689591647591e+03
-5.501993623987264073e+03
-3.647164766162720298e+03
-8.762751491470951350e+02
1.636794389616931937e+02
2.174821975970010044e+03
5.233137593772794389e+03
4.813520624673784368e+03
9.789789559177955880e+02
-3.764228269601124452e+02
4.803316437526086702e+02
-2.402796702742086381e+03
6.121679350110131281e+02
2.031251471832500329e+03
-1.025121937727007833e+02
-3.069101859585585771e+03
-4.734581593530912869e+03
-3.787881384462979895e+03
-3.875878512207503718e+03
-4.208658228605842851e+03
-4.014261538215472228e+03
-1.527610321194625385e+03
-1.946255609083177376e+02
-1.372325586613215592e+03
-3.606705766921967097e+03
-4.756732800297464564e+03
-4.812409571187213260e+03
-3.589637991643429814e+03
-1.912381796074871545e+03
1.209332103984858804e+03
3.886410367480457808e+03
3.562817909601604242e+03
2.431530748805604617e+03
2.693530615634661444e+03
3.431822111301509722e+03
3.832405865323240050e+03
4.858149769395304247e+03
6.130056436066030983e+03
6.844239438745074040e+03
5.526807991679140287e+03
2.306973457547753696e+03
-3.714690938119236563e+01
-1.567565248893594799e+03
-1.783287250345578968e+03
3.606158065790290266e+02
4.411159891199838057e+03
7.992458017084115454e+03
9.353844928874656034e+03
9.797171669283361553e+03
8.940779605327319587e+03
7.639809350650451051e+03
6.621626219700049660e+03
6.079935118638201857e+03
5.260956711518688280e+03
3.654661233085975709e+03
2.350535037914364239e+03
1.966777278227152010e+03
8.327568018003320276e+02
2.842475754127907521e+02
2.009382326188390664e+02
-1.257347227761502836e+03
-2.377312459124041652e+03
-2.426764315523996174e+03
-2.910733660970400706e+03
-2.995182619344414888e+03
-2.620801705640436012e+03
-1.054681960628389561e+03
1.149963953180836143e+03
2.463989501201047005e+03
2.633303799902993433e+03
2.471946776004436288e+03
2.843866870104179270e+03
2.935998843856240001e+03
2.801254373992302135e+03
2.727575335399442793e+03
2.532132473978112557e+03
2.341032386064874117e+03
9.768938466841200352e+02
-6.202823882882172484e+02
-2.288385899126767981e+03
-2.717390880630243828e+03
-1.524274261505720460e+03
-3.880288577311550284e+02
3.743124108457556076e+02
6.147046721210926989e+02
7.541458545342057960e+02
7.626186496655681140e+02
1.241098120347944445e+02
-3.493846954174160260e+02
6.720403389376514269e+01
6.367815355309921870e+02
1.095291618274065968e+03
1.660697060676812271e+03
1.330011820430695252e+03
1.010113488313749599e+03
1.592992587618163270e+03
2.007630621574631732e+03
1.668047861914058558e+03
9.822730339443617140e+02
2.062774803675175974e+02
-1.542951306977799277e+03
-4.311412134123971555e+03
-7.758087336651691658e+03
-9.199937611854606075e+03
-8.968932923218708311e+03
-7.588091688805967351e+03
-6.932448236406537035e+03
-7.372986351766159714e+03
-3.441707300494986612e+03
-3.116375173271924837e+02
-1.053750095056844430e+03
-6.384042085985098311e+03
-1.014640795431779406e+04
-9.954022362063236869e+03
-9.529014401972202904e+03
-5.175416028575338714e+03
-4.307196338301419928e+03
-3.035372657960021570e+03
-2.229570581937090310e+02
4.280332718557992280e+02
6.726855768295047255e+02
3.490471692468516949e+02
9.221285602026123343e+02
2.506002608563061585e+03
3.537691084619719732e+03
3.610172002684786548e+03
3.098433791619764179e+03
3.165489721525996629e+03
3.709384922824553541e+03
3.731153845871931480e+03
3.291774612545264517e+03
2.955209826998364406e+03
2.569487932143829767e+03
2.231542618041591595e+03
1.892336421976750216e+03
1.370888409330449349e+03
6.401673910844667716e+02
4.802161282296390823e+02
-3.658731276728498756e+02
-7.790822177143355702e+02
-1.098351427895263896e+03
-3.557232683581365791e+02
-1.488529175240854430e-01
-2.355964899321931512e+02
-4.310738873667871189e+02
5.847127239161925161e+01
8.240680708183946308e+02
1.201753657585734118e+03
1.356572302117784602e+03
1.390539061401334493e+03
1.637631327068669634e+03
1.740777433441203812e+03
1.436952663181649541e+03
1.382296578846512602e+03
7.108516630912330356e+02
-1.495013670030469655e+02
-3.367781207504662575e+02
-4.498651001727666880e+02
-7.577654725713114203e+02
-2.086446309225365439e+03
-3.249901371025069693e+03
-4.495058117837071222e+03
-5.274769801888802249e+03
-5.690950383258184047e+03
-5.609642784110168577e+03
-4.717756787731170334e+03
-3.004130299062383983e+03
-2.744637722053010975e+02
1.487367864128359088e+03
3.608944155533656158e+03
4.257846659737428126e+03
5.047308596157706233e+03
5.123612117119418144e+03
4.463868001724462374e+03
3.118594674133383705e+03
2.316661735244935244e+03
1.542188566463801635e+03
4.338159275961447747e+02
2.706079981802836301e+02
-2.382195541104547090e+02
-6.925980897687214792e+02
-1.015427811438211734e+03
-1.164620185834048925e+03
-8.761262303646100236e+02
-3.640081640926002251e+02
7.947865864780131915e+02
1.764302903133222799e+03
2.114635803305949594e+03
2.858762199181761844e+03
3.182643021975919055e+03
3.140310592887767143e+03
3.484782277481614074e+03
3.487083330278580888e+03
3.669216310292301387e+03
2.568089909385219016e+03
1.130701014850475758e+03
2.400500657949554864e+02
-4.549602149861993894e+02
-7.263660409389555070e+02
-1.139148420994857815e+03
-1.664252673681998886e+03
-1.788596806361130120e+03
-1.705139403814242542e+03
-1.303848628753056346e+03
-9.147586863463034206e+02
-3.559525473306864569e+02
-5.043703036461135980e+01
2.098973013572230286e+02
3.990771714915779853e+02
8.001090803334549264e+02
1.685930042814321268e+03
2.050446178553540449e+03
1.553643835051112546e+03
1.223513490013507862e+03
5.170550898844802532e+02
-2.607983729691812300e+02
-6.441062885455992273e+02
-1.483910236376261992e+03
-2.280130752442126777e+03
-2.604843550077477630e+03
-2.827060678724461013e+03
-2.936671414999073932e+03
-2.923573648506722293e+03
-2.102775630981473569e+03
-1.567421246531103407e+03
-1.216573617774961804e+03
-5.361670510298100680e+02
5.427069728615999793e+02
7.800114017163637072e+02
1.379846296651835473e+03
1.463207540782226033e+03
2.024070779661904680e+03
2.341420937918517666e+03
1.835136613751119739e+03
1.263051197261921743e+03
5.740876951089973090e+02
-4.686942571689450574e+02
-7.403181832640144648e+02
-1.133802867544894298e+03
-2.057253916860110621e+03
-2.117636637060521025e+03
-1.743108254010234987e+03
-1.623284286430907514e+03
-1.652588277465255260e+03
-1.954565316754333935e+03
-1.944415980025029285e+03
-9.955396184433183180e+02
2.112822938008591791e+02
1.254709280072586807e+03
2.028412775455919700e+03
2.281037962064922795e+03
1.998507264271162512e+03
2.183669121581404852e+03
1.851697920448731793e+03
1.521007268674811030e+03
1.441175724877182802e+03
1.215724751109672070e+03
5.499440067082920223e+02
2.605248645974458555e+02
-9.534901691895018416e+01
-4.820003512423213010e+02
-5.846001513953636959e+02
-4.110301593435526684e+02
-4.422782168850413882e+02
-4.653359989512896959e+02
-2.580701575540975909e+02
4.476679954762388434e+02
1.281748995826835881e+03
1.458082343870048135e+03
1.584554323209605627e+03
2.458073105572985241e+03
2.923847114466750099e+03
2.255807753050036808e+03
2.022227032625716220e+03
2.420748843692244009e+03
2.107380951267124601e+03
1.548059278493320335e+03
9.216439391756653094e+02
7.199206204931932689e+02
5.839505781415247156e+02
4.087800060791460055e+01
4.279026628510470687e+01
-1.563530646608369636e+02
2.063607811820025972e+02
1.289845014680937084e+03
1.825029950163681633e+03
1.947808636401899093e+03
2.146168134805147474e+03
2.348306084720042236e+03
2.310266128137818214e+03
2.682957613120572660e+03
2.910305675641305697e+03
1.065340230966424997e+03
-1.991034854995127489e+03
-4.597857549299760649e+03
-6.383094599030649988e+03
-7.002624136702951546e+03
-6.763222731478275819e+03
-6.330924074623906563e+03
-5.920770672797581028e+03
-6.477847403037030745e+03
-7.011344193984997219e+03
-5.928468538685854583e+03
-7.572204435945625391e+02
5.786244714907991238e+02
-3.345887422216170307e+03
-5.268592255221997220e+03
-4.576401627268331140e+03
-4.023268496118650091e+03
-2.451203533163447446e+03
7.697955811577871827e+02
-1.625155487285154095e+03
-2.413018821929995283e+03
2.204177429594212299e+03
4.661571166353656736e+03
2.998120908622225215e+03
-2.981249571705713606e+03
-5.588375538423716534e+03
-5.858180069271944376e+03
-6.417729610635029530e+03
-6.971016971593252492e+03
-3.465055850360378372e+03
-6.178236938289340969e+02
9.726208775188767959e+02
1.263223535783611624e+03
1.341034538850706440e+03
2.303200987618699401e+03
3.037831653718483722e+03
3.420907274578238230e+03
3.523458238976353186e+03
3.242536323149778127e+03
3.627168134261805790e+03
3.531451025861518701e+03
3.331407151974437511e+03
2.976174171113739703e+03
2.837816555619353039e+03
2.290367330073148423e+03
1.781781596775428625e+03
1.589978892620056513e+03
1.332951995347087859e+03
9.157136583834682142e+02
6.312829217276274676e+02
4.476641941651681122e+02
2.779339914232838282e+02
-7.712358540082127512e+00
8.277411242509124349e+02
1.435276903483408205e+03
2.125905829778168481e+03
2.263684934748575870e+03
2.864609381032599231e+03
3.149758779793436133e+03
3.390221698814243609e+03
2.988944005904496862e+03
2.569942289941574018e+03
2.574343926319938419e+03
2.325174307495946323e+03
1.620444997910884240e+03
5.532301055153637890e+02
-2.532770141586713635e+02
-6.719496498688747579e+02
-8.228906270127619109e+02
-1.255192187428438274e+03
-1.556031296653342906e+03
-1.599237882610647603e+03
-1.458695189724178590e+03
-1.253834017527122796e+03
-1.040445676695251223e+03
-7.781623970053896073e+02
7.562990988858142600e+02
2.006706017632101521e+03
2.512901437374162469e+03
2.740219403637579944e+03
2.730353328363682976e+03
2.464704081154622145e+03
2.202992102506829269e+03
1.449944088397363885e+03
5.135713272488702614e+02
-3.021335381813718755e+02
-9.541076251491643916e+02
-1.402414453874181390e+03
-1.967148806374642390e+03
-2.246319749776348999e+03
-2.219826708303643954e+03
-2.512542189218939257e+03
-2.563485498642730818e+03
-1.766693693780027161e+03
-6.341280139561063152e+02
-1.027370876172952023e+02
7.635117995764794614e+02
9.956512465012428947e+02
9.766929892605755867e+02
1.338598066158376014e+03
1.311352818482117300e+03
1.300002478230770976e+03
1.477537433341967471e+03
1.162944439617938542e+03
1.191115496161199644e+03
3.690936614380538003e+02
-5.651494615600041698e+02
-9.776222923787424861e+02
-1.267319318538782227e+03
-1.487310443840661264e+03
-1.849688910159866509e+03
-1.949430989890755654e+03
-1.651446788041211903e+03
-9.967182181625582871e+02
-3.082507146151165784e+02
6.789346785555110841e+01
-1.629781714406153625e+01
4.052333173306158756e+02
1.204425241881362581e+03
1.539311158492981576e+03
1.329977283009124449e+03
1.133387975878322777e+03
9.114804740300725143e+02
8.542109442741256089e+02
9.365093936716306189e+01
-8.062394268355445774e+02
-1.327482820297665512e+03
-1.849127872453765349e+03
-4.019218515365727399e+03
-7.304777229645023908e+03
-1.015290564174963947e+04
-7.703776601856810885e+03
-2.473539924745529788e+03
-1.587025547282410116e+03
-7.402620345435500440e+02
1.427418831482207224e+02
8.079576726509932314e+02
1.270411990831594721e+03
1.322134525711312335e+03
1.443219819172602683e+03
1.694695179984145170e+03
1.712585318842305469e+03
1.516842979103861126e+03
1.525323211266708995e+03
7.890065447674659254e+02
1.557924393210342373e+02
-2.013631074017509377e+02
-3.973598590232509764e+02
-1.040231290645836680e+03
-1.288079918980797856e+03
-1.199036133125352762e+03
-1.042173776669364315e+03
-1.161499563788390105e+03
-9.779449597315382334e+02
-4.744643043598154009e+02
2.079547495022524117e+02
7.443227739273502266e+02
1.502723740509990421e+03
2.072040952274625397e+03
2.603321780251002110e+03
2.733570740849352205e+03
2.650678631866590422e+03
2.219662439710823946e+03
1.420539920240331867e+03
8.793110663238718416e+02
2.899777284876922749e+02
-4.104988089171128536e+02
-8.222359543691418367e+02
-1.038257479469688860e+03
-1.099645319657168329e+03
-1.332471375968654229e+03
-1.226682139514513210e+03
-9.042245189860537948e+02
-5.190850375394319371e+02
1.857417196701397017e+02
7.911616203045284692e+02
1.447245459054927096e+03
1.721120996523539816e+03
2.056821086785304033e+03
2.664274847540747487e+03
2.983441533252439967e+03
2.770309147951235900e+03
2.612941967220198876e+03
1.971321657232825601e+03
9.603747929769821212e+02
4.010869145971388434e+02
4.445506010741183189e+01
-4.795263697595498229e+02
-1.166905598764967408e+03
-1.399756711520279168e+03
-9.571323811932875287e+02
-9.370943643764200033e+02
-9.436128515986791854e+02
-7.015760499125299248e+02
-2.169251850545359446e+02
4.834293742198858723e+01
6.901030768654347867e+02
1.420353426275524725e+03
1.645186938395587958e+03
2.118625749641633320e+03
3.082743150411394708e+03
3.161644596792438733e+03
1.687244277244591558e+03
-2.020438857168569257e+03
-4.062349296889762627e+03
-3.019632562704699922e+03
-9.913392546482275520e+02
-5.798373787880404961e+03
-4.327767482058471614e+03
-3.702485192191368697e+03
-4.140569337378900855e+03
-5.306119962235861749e+03
-2.440155460436823887e+03
-3.246220106415277087e+02
-2.892507283176935744e+03
-3.540727235139635923e+03
6.947793044704654903e+02
2.354932364591295027e+03
2.505748377109547619e+03
2.192325775201694796e+03
-3.103288974664553166e+02
1.499789917561038010e+03
-4.813125014458029796e+02
1.513335814582596640e+03
1.633752373662669015e+03
-1.646053324397738379e+03
-2.117026750598241506e+03
-1.312241929110456908e+02
-6.016779251322249138e+02
-3.413376141120254488e+03
-2.404307430824218500e+03
-1.184792409742873645e+02
-2.679914079362341909e+03
-4.825069705105308344e+02
2.518109267607448771e+02
4.729502986388102386e+02
-1.615102178311835360e+03
8.647769177154076488e+02
2.114569097564238746e+03
3.186284505306985011e+03
3.670018627585056947e+03
3.185835762620061359e+03
2.776739876397843545e+03
2.716641125317610658e+03
2.190542321113915932e+03
1.332508430324765413e+03
6.104561776840150742e+02
-2.976053006248409361e+02
-8.917115359108955772e+02
-1.539961132764128934e+03
-1.418248854671407344e+03
-9.645704593710393056e+02
-4.619481507515855014e+02
-2.473616968179754281e+02
2.163074979312403912e+02
4.500185937443390003e+02
9.977781222175725588e+02
1.219697006913431551e+03
1.548938724206230518e+03
2.072806084633456976e+03
2.049430847694738077e+03
2.357725897908121169e+03
2.337482583355283168e+03
1.944622789852830465e+03
1.330186910682952202e+03
6.112523115323175489e+02
-4.182197461091552100e+02
-1.354398309463790838e+03
-1.324728315561392492e+03
-1.684769843840011845e+03
-1.611835896437674364e+03
-1.385366460854570505e+03
-7.640449567919794163e+02
-1.466240177085497294e+02
-1.857778855814979124e+02
-1.591106970417094999e+02
-1.807485032889814391e+01
1.894113195233839235e+02
1.040117688816246073e+03
1.587170822827133634e+03
1.241465048930748253e+03
1.034060707188049264e+03
1.519974680057809337e+03
1.845366572646939403e+03
1.410190511252428223e+03
6.194060626035420682e+02
8.662929774342647704e+01
-2.330375762091962031e+02
-5.923468844039658734e+02
-1.281599623994128478e+03
-1.591926430913151080e+03
-1.274433683331689053e+03
-1.013082500038456942e+03
-9.928095346252503077e+02
-9.915906668726534008e+02
-1.085426857183732409e+03
-4.773926580380408495e+02
6.159487891599685838e+01
6.935672646986259906e+02
1.244515779632468366e+03
1.380421457696466405e+03
1.521261208384017664e+03
2.023990466426659623e+03
2.384636397278555251e+03
2.419257570175105684e+03
1.808828290328005323e+03
5.232682342383855030e+02
-6.534993926962314390e+02
-6.454916170152741870e+02
-8.816613205857804587e+02
-9.311189676492643912e+02
-1.004874832255122442e+03
-7.229251621623334358e+02
-6.402221542947254420e+02
-8.387701010616410713e+02
-3.535622888617210151e+02
8.736482109387389983e+01
4.040672380625577489e+02
1.393613986391662820e+03
2.068945539462272791e+03
2.377024133332209658e+03
1.971903809180647386e+03
2.069657697058341000e+03
2.003249936528137141e+03
1.650635417873092138e+03
1.281789822249925237e+03
-5.303026712011579775e+02
-1.185658931392414615e+03
-1.826228199104298710e+03
-3.761137830135598051e+03
-3.347455690786727246e+03
-1.770088128138916090e+03
-2.012068799875152763e+03
-5.597466043469970828e+03
-8.809230666942423341e+03
-7.908351094386600380e+03
-6.231790067191116577e+03
-1.525538058021372080e+03
1.095406198191926705e+03
2.720067221608650016e+03
2.909513596681633771e+03
2.587756823439174696e+03
2.312855279618986060e+03
1.973753818911090320e+03
1.513440089079691461e+03
4.299726535490671608e+02
-5.456751824827452992e+02
-7.815863418442438615e+02
-8.767473720331788627e+02
-9.971245972302239124e+02
-1.176716760323106428e+03
-1.315632908755769677e+03
-1.067876389622420902e+03
-4.664685344721174829e+02
4.196339034460780226e+02
8.984987429488440966e+02
1.004125296479920735e+03
1.423606710037774064e+03
2.414947242636039391e+03
2.654196370903742263e+03
1.777370672049753466e+03
1.383443810724512559e+03
1.862521743295746774e+03
2.219640395160246499e+03
2.250745421716706460e+03
1.392811824674464560e+03
-1.131625303179265671e+02
-1.060118331622026290e+03
-1.082051020209494482e+03
-8.589852217711759295e+02
-5.899489654271050085e+02
-6.939079353678820326e+02
-9.358595704519070750e+02
-6.998094233251174501e+02
-8.687377556480987550e+02
-1.205616079948247261e+03
-5.933884246026049141e+02
5.370204685216783673e+02
1.383647205128275345e+03
1.827514772368623881e+03
2.333626839175070472e+03
2.525064324134191338e+03
2.306890767603626955e+03
1.872126624128718049e+03
1.241752893966339116e+03
9.638394461405462152e+02
5.335524380143934877e+02
-8.981042775548853569e+02
-2.814392061614437807e+03
-2.931370064431380342e+03
-2.223552679435428217e+03
-2.437337440417948983e+03
-2.498789076188445961e+03
-2.620921033317618367e+03
-3.026709216396482134e+03
-2.995908868802855977e+03
-1.986502827617925959e+03
-2.305596117733880419e+02
9.899284845480377726e+02
1.648020075655880646e+03
2.043720951882786267e+03
1.316140991879170087e+03
7.430352061561987398e+01
3.871089458757624016e+02
1.143519473715121421e+03
1.309592227469291174e+03
9.053158235544667605e+02
-3.153526326236232080e+02
-2.247432801530291272e+03
-2.881871127926059216e+03
-3.120543686077763141e+03
-3.404520383524243698e+03
-2.909838002983479782e+03
-1.146552458681451526e+03
-1.196913641468033802e+02
5.278142129643223370e+02
8.969777314997051008e+02
2.738392584164383265e+02
-6.652083513604128484e+01
3.279226162615034355e+02
8.092074028131781915e+02
1.427327621660499290e+03
2.260255224917872511e+03
2.077005190654954276e+03
2.154578787196435314e+03
1.364968068768746434e+03
-1.918672152572750633e+02
-1.414994103418402347e+03
-2.035507333522824410e+03
-2.520418933026179275e+03
-2.613727514893439547e+03
-3.264440644651975163e+03
-3.380550416184243659e+03
-2.568081769696344963e+03
-8.700148335429259987e+02
-2.043882589850070985e+02
-1.522255476105904961e+02
1.115872045129940062e+02
7.910552745096349554e+02
1.305149624762402937e+03
1.360883262110027545e+03
1.351295912233226773e+03
1.465380556180037502e+03
1.743109044680642910e+03
2.527507198842893558e+03
2.400577200799045386e+03
1.432239470142446407e+03
-1.746369541705105348e+02
-1.093039416416750555e+03
-1.418037014359010755e+03
-4.536446529474429781e+02
3.270931926706579134e+02
9.918654994395183166e+01
-4.234512615407870157e+02
-7.708684549011384206e+02
-1.209047347758352771e+03
-1.099033821730878117e+03
-1.408630635117779946e+02
4.565034173571269775e+02
1.208957159148796336e+03
2.141046229201395363e+03
1.989610818263514830e+03
1.529205136131279687e+03
2.056081903820717798e+03
2.046290676065931848e+03
2.109592148067153175e+03
1.794785544487529023e+03
1.037097011314152496e+03
2.912820045629366064e+02
1.393482531748852011e+02
-5.695021212131706534e+01
3.305928230244143720e+02
9.601851823159227024e+02
9.592179693612027904e+02
4.177797309400348809e+02
9.009826172765876890e+02
1.687761349236074011e+03
2.420379386361817524e+03
2.653694362127984277e+03
2.677663025316252060e+03
2.641180348145863718e+03
2.434480717492413987e+03
3.075828221813251275e+03
3.259676045820296622e+03
2.657740166015672912e+03
1.894211532344544594e+03
1.199122918560738754e+03
7.252384890603112808e+02
-2.447632628614036676e+01
-2.414425265519618335e+02
2.896728796581739402e+02
4.787036046553962478e+02
6.500139608941329072e+01
-1.842066143538590381e+02
-6.204570756926792683e+02
-4.847750625740358714e+02
1.028236285987281065e+02
1.218357306724644559e+03
2.302874097176068517e+03
2.593357432268926459e+03
2.890756790167999497e+03
3.529150192121497639e+03
3.543557952705040861e+03
3.310936603867398389e+03
3.030266729668097923e+03
2.127534828969355203e+03
1.988719978062864584e+03
1.355749449791059760e+03
1.935864503947671835e+02
-1.107769256007210515e+03
-1.456372733813018385e+03
-2.149268721006907526e+03
-3.192386238148555094e+03
-5.707750922686322156e+03
-8.872367752795411434e+03
-9.010190035730414820e+03
-7.082271484834684998e+03
-4.964580254197769136e+03
-4.414061215766398163e+03
-4.565658283374305938e+03
-4.091304850175574757e+03
-3.480967128755259637e+03
-3.398797995818491017e+03
-3.838832363766071012e+03
-5.338676227895220109e+03
-4.230509043232235854e+03
9.245566499827708640e+02
2.591500064001958890e+03
-2.458567214886792499e+03
-5.297652927554870075e+03
-2.638945189815815866e+03
-5.456396468789973369e+03
-7.348996398775421767e+03
-7.224698243231945526e+03
-3.631401503576837513e+03
1.558965962795485211e+03
2.196419463086049291e+03
-2.132986818520113047e+03
-4.853252159784659852e+03
-3.669429444459081878e+03
-3.134423287011713910e+03
-3.050214581927176823e+03
-3.347796085872107597e+03
-1.872118506923570749e+03
3.089841414884634560e+03
4.051123956415173325e+03
3.349719026840806237e+03
2.200664313940575994e+03
1.425982172306137500e+03
1.260648905727097144e+03
1.290758045364185591e+03
9.843882726851386451e+02
3.995638988058404948e+02
4.892800163130499413e+02
1.042573612916037519e+03
1.512396582968485518e+03
2.166739946390349814e+03
2.256679807520194117e+03
1.756212710668070486e+03
1.924382318862569036e+03
3.032307349828349743e+03
3.983029816371193647e+03
4.261627869427059522e+03
3.717202257481304969e+03
2.897815430823597580e+03
2.498442350863299453e+03
1.884140163207609930e+03
1.042867553753559150e+03
4.346274730169646432e+02
-3.451838055364390101e+01
5.339614681766008175e+01
1.483093151006547430e+02
-1.367111621478046573e+02
-3.466037978423129857e+02
3.507412734232299272e+02
8.993705686006710494e+02
8.223819603987336677e+02
9.467691196425303133e+02
1.601484102791683426e+03
2.042459908150108049e+03
2.317705446661140741e+03
2.647466039649666527e+03
2.537893503330973999e+03
2.289071292688152880e+03
3.061111419249573373e+03
2.504279997931457729e+03
9.832328698562083673e+02
5.256808508962085398e+02
-3.910530163899869081e+02
-8.280576933295966455e+02
-5.613418382894356000e+02
-6.378305217725267084e+02
-4.144027711486121461e+02
-2.500259578168447092e+02
-3.899600389767857678e+02
-3.279622502669441246e+02
7.163943144456336176e-01
8.313115987692467002e+01
8.813534846573791128e+02
1.027442658396102615e+03
1.058438475615986590e+03
1.632334046874789919e+03
2.140142354700715259e+03
1.838847679975611300e+03
1.178428940583715530e+03
9.729549815722677977e+02
1.735428282769650195e+03
1.705829355925900927e+03
1.072213664054076617e+03
4.025156458932905252e+02
-5.404875927913700480e+02
-1.187820662220328359e+03
-1.731337844616247367e+03
-1.650835663878683818e+03
-1.672368172994255474e+03
-9.330964445329548198e+02
-5.230772842956802151e+02
-2.412483047441140798e+02
3.794296300837164608e+02
1.111814387326896849e+03
1.450864731203394285e+03
1.350562489806714439e+03
9.799952761974013811e+02
9.062239643169328929e+02
8.892044855878713179e+02
7.648991045748226725e+02
5.092694873699236950e+02
6.823409287739606270e+02
4.931601324991032698e+02
-5.873248591365885432e+02
-1.348220765212600554e+03
-1.588588915809396667e+03
-1.737394859867368950e+03
-1.733617685183286312e+03
-1.544192869524374601e+03
-1.359224142503126359e+03
-1.224762387028928060e+03
-1.091853616582128097e+03
-6.905146455179905161e+02
6.625905216378264129e+01
3.334586020397794641e+02
-8.628922166739340582e+02
-2.337891162901736152e+03
-4.880539831491130826e+03
-6.268735963957866261e+03
-4.842432651334564071e+03
-1.348264312300190682e+02
7.496232942921467668e+01
-5.610015049935342404e+02
-1.869767623982964551e+03
-3.559347598803186429e+03
-2.817730006217408118e+03
-1.768866786783975158e+03
-1.476866443288281744e+03
-1.470722998969785749e+03
-1.121323466476600743e+03
-6.167002449517325431e+02
4.700240173268107355e+02
1.934012321769295795e+03
2.348352698524276548e+03
2.257738885684762863e+03
2.180992442724510965e+03
2.081021264836048886e+03
1.537906380907880930e+03
5.167069797811499257e+02
-4.705442826038853354e+02
3.050568097238308951e+02
6.344420392474544315e+02
7.955827614492682187e+02
8.936668233476348178e+01
-8.933543992818546258e+02
-1.276553596530684899e+03
-1.558208124683189226e+03
-1.793274200477564364e+03
-1.237682141720986465e+03
-6.934537581648957030e+02
-8.858734941670118701e+01
6.759136566817434186e+02
1.022908935870385903e+03
1.387309794907383548e+03
2.081275605138556784e+03
3.057861092345729048e+03
3.953150641645790529e+03
3.987165756453372524e+03
3.113891582686909715e+03
2.232308635127363686e+03
1.406484302934042262e+03
8.772813423160263255e+02
5.176049367629915423e+02
6.151972562018281820e+01
-4.019682966105688706e+02
-1.275067653900155165e+03
-2.162917711092913578e+03
-1.678548625491818484e+03
-1.407959135709111933e+03
-1.304191955322122340e+03
-1.467253461802546099e+03
-1.563045048163452975e+03
-1.285426795527214836e+03
-1.001424587619001386e+03
-3.110514840751884549e+02
5.356545967234560521e+02
1.154771522588059725e+03
1.160316521087438787e+03
1.277310306572658192e+03
7.258321735602435183e+02
4.628652620009538055e+02
2.113185905536221298e+02
2.581976289616529812e+02
-2.249578462558043412e+01
-4.196812867753689034e+02
-7.403808770565714212e+02
-1.071583020565408106e+03
-8.651995409769830303e+02
-5.092131696502525529e+02
-3.272550050865229423e+03
-1.728155084098642646e+03
-6.092334087489223293e+02
-1.895492738262250214e+03
2.236104042371860942e+03
5.393090991663578961e+02
2.008125325715162717e+03
8.044916867012824468e+02
1.895462698834510093e+03
-8.749931884802215336e+02
1.038180606236972153e+03
2.820139280320555031e+02
-2.632508174971939752e+03
-1.153416202036983123e+03
-1.588694056359935530e+03
