2.786958265548842064e+03
2.755703274667000187e+03
2.632048152364607631e+03
2.143131401019682016e+03
1.920115983929658569e+03
1.875099248119353206e+03
1.528073327457630739e+03
1.262142854581671600e+03
1.144331651323280767e+03
8.405751562287581464e+02
6.656615455146355771e+02
1.227863339810671278e+03
1.292187523397143423e+03
1.275247903237702076e+03
1.860921929806409480e+03
1.128583577850901975e+03
2.995925581777432853e+02
1.437021993172611474e+03
2.024782585877771908e+03
1.885901532335630009e+03
1.779437126056121087e+03
1.822089003563095503e+03
1.631954797967706327e+03
1.084129803374562016e+03
8.988373981465358611e+02
7.152964604969071161e+02
4.506763762883363142e+02
-4.299940451225405127e+02
-1.079946955493461473e+03
-5.640974022751354369e+02
2.266779636791563135e+01
-2.265623027142892454e+02
-7.844465346368192513e+02
-3.637428501221385773e+02
-4.537697094481030717e+02
-5.331807402868944337e+02
1.188087814124107844e+01
4.918513690112770860e+02
1.052707960317974084e+03
1.860748397907014578e+03
1.687643895213085671e+03
1.562683157916129858e+03
1.321476176994754724e+03
7.561163555862804060e+02
6.406535581540966859e+02
3.501281773552332766e+02
2.517048870581733411e+02
-1.866474000868937821e+02
-4.730162190860594364e+02
-5.463297001640983126e+02
-7.477250696620369581e+02
-7.092069424522898089e+02
-5.425581694435336431e+02
-6.305792909962329986e+02
-4.981366029215487288e+02
2.546865775602806536e+02
5.116295283508719081e+02
7.004747769715838785e+02
8.433947543893343664e+02
9.286461620376564952e+02
1.145820489434827550e+03
1.320910858925527918e+03
8.099262352695221807e+02
6.438180128482300688e+02
8.426925966575432767e+02
5.724987349434650241e+02
4.071334509811862290e+02
2.667259348595151209e+02
2.752994435857046938e+02
1.847624046717999420e+02
-3.049136658922600986e+02
-7.066112861219017987e+02
-2.884053597972427383e+02
-7.133438846337996893e+02
-7.612874181313621875e+02
-1.922470258994898700e+02
4.337212353473370285e+02
6.045643032013812217e+02
4.280803756577882382e+02
1.051899957807221000e+02
2.601615604447436567e+02
4.901702505088683779e+02
2.102477732387788762e+02
4.853504359866813047e+02
4.562226277232859388e+02
-4.616832157773963559e+02
-2.203304102610212794e+03
-5.628343932909881005e+03
-8.561825840959818379e+03
-8.555882389406449875e+03
-7.458587146789274811e+03
-2.899901443949721852e+03
1.421971464443427990e+01
1.148947799867093948e+02
-1.458872850394508021e+02
-1.201669399254394790e+02
-6.551223775829383840e+02
-7.476346981245342249e+01
7.540045090525719615e+02
1.210233174913416406e+03
1.694799169360037695e+03
1.598565819083956058e+03
1.242601210837574627e+03
9.838251368747353354e+02
8.461368222845817400e+02
5.265996965718503589e+02
3.312327238893258823e+02
3.330126762295115554e+02
1.158275360726983081e+02
2.086109418449443922e+02
1.023534431530249122e+02
5.280347494998937918e+02
4.766838295410929618e+02
7.424044471122899722e+02
8.411193893866461622e+02
8.087283271669446094e+02
7.001899494155892398e+02
9.575561787818136281e+02
1.132913282286912818e+03
5.802242554688235714e+02
6.733564942947456302e+02
9.341857429397902024e+02
5.257239304605653842e+02
6.211321867419210321e+02
7.093627765436671098e+02
4.092437056859919267e+02
5.897997427876143774e+02
4.120146655963616240e+02
-7.318909915551411416e+01
-3.097246843919448906e+02
-1.665602089425165673e+02
1.013095476532192407e+02
4.338382753355383556e+02
4.468306766372601260e+02
7.661965586152250580e+02
1.091283740189875289e+03
8.751858538042096143e+02
1.155679877855558971e+03
1.337775709866132956e+03
1.082483402168963494e+03
7.015787726887397184e+02
4.200844569247515778e+02
6.621579586431722646e+02
9.868216285832587573e+02
1.310996790463480920e+03
1.341649182410314552e+03
1.052735612195520844e+03
5.962552218905752852e+02
5.261729522352443382e+02
1.944702617427359712e+02
-1.527970362269774398e+02
-1.474741058431199008e+02
-4.673890088885232785e+01
-5.357372961738161621e+01
1.081357234479020093e+02
4.364487216525012627e+02
4.862555983685758179e+02
5.406110943113891381e+02
5.655672365312708507e+02
8.290388803513321818e+02
-4.750391206291542403e+02
-4.634714431833584058e+03
-4.185755086741083687e+03
-4.417044223088268154e+03
-9.887550010307718367e+02
-2.339863045535823403e+03
-3.832355807062948315e+03
6.765337005016911576e+01
-7.668033690946244860e+02
-2.627816173392958262e+03
-3.893354133504817582e+02
-2.826187458748446716e+03
2.155264497656454736e+01
-5.251363145597021003e+02
-2.680125879233778505e+03
-2.575348372908235888e+03
-2.356743505661315794e+03
-1.064369761794278475e+03
-1.597258426068651715e+03
-2.985515973810370724e+03
-2.820084700083932603e+03
-1.708811003921368865e+02
-1.597790928511065204e+03
-1.428016855086366945e+02
-1.775937847273856050e+03
5.977409587413825420e+02
-1.552780164831860475e+03
-2.893960479630193277e+02
4.698874231216013300e+02
-2.513894930273638693e+03
2.731024343868590876e+01
-1.577558062635007900e+03
-1.492447680795937231e+03
-2.695428200238417958e+03
-4.684619900211092158e+02
1.062569825132020924e+03
1.187638480596150885e+03
1.379590529696968133e+03
1.380640536923626769e+03
1.044967747461771978e+03
1.486446297214669357e+03
1.765939047035901922e+03
1.716583688576355371e+03
2.150436288503476590e+03
1.870376409976356854e+03
1.458388362362040198e+03
1.094494472032810563e+03
1.068711761794913400e+03
1.120092321673335618e+03
1.246608885681071115e+03
1.095282286114356566e+03
7.961378836610132339e+02
5.861810872443062408e+02
3.974157852502373771e+02
5.208451250666208807e+02
1.445530537576686584e+03
2.092542494812746099e+03
2.241197487214159992e+03
2.473481934987755722e+03
2.229403820423910020e+03
1.733980038451369182e+03
1.305225339060595161e+03
1.158918587984752321e+03
9.766743948552858683e+02
6.539289686870126843e+02
9.655395806159340566e+01
5.624555728543225541e+02
8.639878295563399888e+02
6.524263345334694577e+02
5.285760673563802357e+02
6.875033541261417440e+02
6.630458471382193011e+02
7.087873860432910078e+02
1.314937406270501015e+03
1.218627311926358516e+03
9.085427469891193368e+02
1.024516350957630038e+03
1.198785163686999795e+03
1.150571140952793712e+03
1.313098665173468589e+03
1.460269623447630238e+03
1.240201424522731941e+03
1.023395803854255291e+03
1.130517011473569937e+03
1.033044177163927088e+03
5.435905365176884061e+02
3.683719471948336377e+02
9.982515411847543874e+02
1.076146924163836502e+03
9.198781898668997883e+02
7.464697813073082671e+02
6.569555590410492414e+02
9.222989489155773981e+02
1.001473237096784032e+03
1.099477446129925283e+03
1.123215410153909716e+03
1.358717993689115474e+03
1.293031292751432602e+03
1.586120761413459832e+03
1.937936411910077823e+03
2.330474181262120510e+03
2.451743046588299421e+03
2.188694528763146991e+03
1.812365301789983278e+03
1.495710026238471755e+03
1.479691435282999691e+03
1.308335456842489293e+03
7.245832494456570885e+02
4.623858127070362229e+02
2.997315853712339049e+02
2.996479445869816800e+02
6.530430693545359873e+02
8.519974978745254930e+02
9.615072332932926429e+02
1.184415606754348119e+03
1.348718645893378380e+03
1.231475678027842378e+03
-6.472728808849738016e+02
-2.646543962204372292e+03
-6.017358778336258183e+03
-7.064714196548118707e+03
-7.254630917395717915e+03
-7.520097621912758768e+03
-7.341094724289829173e+03
-7.671568739563764211e+03
-7.456572211041972878e+03
-6.979209911972726331e+03
-7.054476125453891655e+03
-3.952335467032154156e+03
4.662651182815017137e+02
2.411982919531482139e+02
-4.672494501441777174e+03
-6.715769265635533884e+03
-7.097657948708785625e+03
-7.159165410664829324e+03
-5.211313070468149817e+03
-3.291845764046880163e+02
1.337284869882936391e+03
1.939129402152338344e+03
2.337449663930068709e+03
2.287277951857522567e+03
2.141527641440616208e+03
2.355202704673190965e+03
2.325278290203504639e+03
1.831852389114428661e+03
1.544951535815054740e+03
1.424512089769568320e+03
9.755490244049719877e+02
8.421448163932308262e+02
9.772926527094365383e+02
8.320640494803737965e+02
8.414913914077978916e+02
9.435161630045197398e+02
5.521584702236939393e+02
6.913894504626023263e+02
8.862216086224229912e+02
1.216647173185599286e+03
1.180666592884623014e+03
1.142366157646159763e+03
1.656828396729712040e+03
1.759039990489094180e+03
1.723012575187031189e+03
1.625796383386142224e+03
1.828403715344555167e+03
1.780833832345973633e+03
1.283098135439435509e+03
9.172693235845489426e+02
6.963608260105996806e+02
1.733958720602691983e+02
2.343545877508792046e+02
3.633720871012844782e+02
2.374597072824639667e+02
1.935941165575254672e+02
4.457685230956562918e+02
3.920167486124597644e+02
6.324083175513630977e+02
5.129897883936790777e+02
6.557450279118251046e+02
7.517109542857264159e+02
6.989590542912077353e+02
9.044962612471058492e+02
7.853815604937165062e+02
6.785665054270893961e+02
7.281489578951557178e+02
6.064884853282861741e+02
6.038848350434724352e+02
7.811744406298755621e+02
2.213127419603438284e+02
-3.978661775846687192e+02
-6.452934298833215507e+02
-1.365108793241040530e+03
-1.484304666909124080e+03
-1.005889431963249990e+03
-8.766728522767743925e+02
-8.137316205011555894e+02
-9.071160279973013303e+02
-6.568069653884039099e+02
-3.847750248371571615e+02
8.706089923791367369e+01
4.587415067818176908e+02
2.683294044377618093e+02
3.658633217296280691e+02
2.473054487618123289e+02
1.396946995297009551e+02
3.910198458646977429e+02
2.593219489122648724e+02
-2.013829795350260667e+02
-5.361031864223888306e+02
-5.689135239992940569e+02
-4.487550238450392612e+02
-1.605947561045952625e+02
-1.994365359436768586e+02
-4.992658603198331662e+02
-5.040687904545324614e+02
-1.908113985419812764e+02
3.546646573232452937e+01
2.982717704901895672e+01
-2.467034996079387668e+02
-3.161248899134126304e+02
-4.184245221358440858e+02
-1.267325900144824260e+02
5.001941530339866659e+01
1.099253969000144622e+02
8.596679443106853569e+01
-1.981093597969304199e+01
-3.534215336570626391e+02
-5.129733391683871560e+02
-7.195204567667751689e+02
-1.023130526821466106e+03
-8.758304863460888328e+02
-9.055793095486289985e+02
-5.773389080895572079e+02
-1.204074834994598632e+03
-1.231790027649988588e+03
-8.936327227023780324e+02
-2.386269248436695705e+02
1.722802625105691163e+02
6.211183806199912283e+00
-2.979095877395281491e+02
4.168117387591140641e+02
8.652814452711411377e+02
6.454251329834836497e+02
6.162478202794618483e+02
5.847776902870371032e+02
1.910693427212453059e+02
1.320474838490003151e+02
-5.963464497771007018e+02
-2.250442176537465855e+02
-1.949201691947457107e+02
-8.820945208681415579e+02
-7.046922556718781152e+02
-6.207587125496162344e+02
-6.853881548490880959e+02
-5.286959740105970695e+02
-2.437172425210720235e+02
1.216205035731854451e+02
4.662258116669715378e+02
-9.815801890698971022e+00
-1.943020605155315366e+02
1.155528439137444366e+03
1.499656451717920390e+03
1.469717025359527497e+03
1.598253113536890851e+03
1.400762607881491022e+03
1.400820504654618617e+03
1.056978385787348998e+03
7.373982660596460619e+02
1.008783479091627441e+03
1.037354442928570279e+03
9.165725182682691639e+02
9.157127673383248521e+02
8.658957362086983949e+02
1.183914508874535841e+03
1.061603929135018689e+03
1.120971201555327525e+03
1.336134370054014198e+03
1.222118489691101331e+03
9.049968666291157433e+02
1.192418880809445000e+03
1.623491910786745166e+03
1.835755385999324972e+03
1.730114781005821669e+03
1.446409605523220080e+03
1.568270727895789605e+03
1.608524988568992967e+03
1.359136250811704940e+03
1.453198751122077510e+03
1.673248662682891563e+03
2.225499644351717052e+03
1.593844384466110569e+03
1.293452384332393422e+03
1.572353152962949252e+03
1.696356118444520234e+03
1.813291527702271196e+03
1.786006021840668609e+03
2.077437746250004238e+03
2.246552351784122948e+03
2.313293044100699717e+03
2.612642373998112362e+03
2.819620703857110129e+03
2.678210379653968630e+03
2.638413273916997696e+03
2.715219329280052989e+03
2.588681643929556230e+03
2.397765923780914818e+03
2.073407510574104435e+03
1.755750820343793066e+03
1.586968747950338866e+03
1.391939550181299865e+03
9.314086829968704251e+02
-2.138172991112048464e+02
-2.675801268255335799e+03
-6.793471271364836866e+03
-7.262790441689473482e+03
-6.941740141464258159e+03
-6.641253621150158324e+03
-6.290271762253449197e+03
-5.670784050437406222e+03
-5.989830551858544823e+03
-6.004394855259477481e+03
-3.374382598163609600e+03
-3.839674929966543004e+03
-5.211414617566972993e+03
-6.122772666440318972e+03
-6.162730064666466205e+03
-5.600271321009503481e+03
-2.291314077961333169e+03
-1.421857062146770886e+03
-5.287901737372118077e+03
-6.692383254325829512e+03
-6.750168760283099800e+03
-7.114271102390398482e+03
-6.686643011594718701e+03
-6.114337070898459388e+03
-6.122465830096010905e+03
-5.464019957531038017e+03
-3.691004471603904676e+03
1.958789750166175509e+03
1.700511407013404096e+03
-3.812765731034409328e+03
-3.382042993872943498e+03
-3.138438471748907887e+03
1.996042724657096869e+03
3.545578154747190638e+03
4.370237730254935741e+03
4.149866245486131447e+03
3.663411707430014758e+03
3.646035336328302947e+03
3.570714498149113297e+03
3.152487978600103816e+03
3.104588106340894683e+03
2.735246696849460477e+03
2.793471261079838314e+03
2.899004780919520726e+03
3.257797767558859050e+03
3.155993588627066401e+03
2.748636489077268379e+03
2.846845843630709624e+03
2.718726740324290859e+03
2.983365313017512563e+03
2.952684624139749303e+03
2.766606508092240347e+03
2.920113414139063934e+03
2.612416392477851787e+03
2.675684291315140854e+03
2.382055393502344941e+03
2.583601577896372419e+03
2.525281996166243516e+03
2.350020938247282174e+03
1.955759001609095549e+03
1.668624559700929012e+03
1.083745968015240123e+03
6.322059220314328059e+02
8.310105124217606090e+02
1.183203342592092667e+03
1.211928212475076634e+03
9.375750488719386340e+02
7.364086169953478702e+02
7.343805668304468099e+02
9.972908854098584470e+02
1.378822532900128635e+03
1.257911892508011761e+03
9.896480622942062837e+02
1.077365179969196333e+03
8.915237588321065232e+02
1.030845014371041771e+03
4.947004029452597251e+02
-8.399655696443144848e+01
-1.713892845682892698e+02
4.669750245522544674e+01
3.392292172119064162e+02
6.381091594914730649e+02
2.461816619027683544e+02
-3.977807487087649179e+02
-7.993921383536592202e+02
-1.137535576584299832e+02
6.629297187648630825e+02
7.016760900599660999e+02
4.305677154013111476e+02
-2.613867180113048221e+02
-3.341467558380727496e+02
-1.317056868298221843e+02
-7.920132870952144231e+02
-1.810044468357300048e+03
-1.871778615120297218e+03
-2.097284256532877407e+03
-1.850581290301775880e+03
-1.035607716922995223e+03
-2.453137203319790274e+02
4.002800372291449662e+02
5.282490398064945794e+02
5.895724873347697894e+02
2.202190355824025687e+02
-3.748874059066915834e+02
-1.956574681262520130e+02
7.386109094406398867e+01
1.706473877217439679e+02
5.358036589908784890e+02
8.382852525140488069e+02
1.097071671089944402e+03
1.027231318793308219e+03
8.698759734924846043e+02
1.220064743890030741e+03
9.265567827923606501e+02
4.461149647191011809e+02
5.706305307274746497e+01
1.543794998122211837e+02
3.829634954257713275e+02
6.938244054459908057e+02
8.079619873758646236e+02
6.082561843384811482e+02
5.236310750355592063e+02
4.020723541822600282e+02
7.055847633645798567e+01
-1.340416975549185565e+02
-4.056835605172591954e+02
-4.893201044572747946e+02
-5.099970309857130815e+02
-2.897707611701657243e+03
-6.400494399447919932e+03
-8.859367380295381736e+03
-8.504200969924107994e+03
-7.972135890917205870e+03
-6.944305067300451810e+03
-3.635685359684600826e+03
5.247156524002062952e+02
6.887672668650835703e+02
1.724417694623812451e+02
-7.293510138877391000e+02
-2.047227957623368297e+02
2.534089848989365521e+02
2.330267747197271433e+02
-1.148642187452241075e+02
-3.253129434901928221e+02
-3.713547801664644226e+02
-5.501140639897901110e+02
-1.776478929556942603e+02
6.380797259332313160e+02
5.579968447267284546e+02
8.061614791045988113e+02
8.885658530514355107e+02
1.062163948381546788e+03
1.624014654179001582e+03
1.781021308980115009e+03
1.331011558297871034e+03
9.278425486706839820e+02
1.102550246437190026e+03
9.660565770746205772e+02
7.053201064753112632e+02
3.202444959227512982e+02
6.378335120589631515e+02
3.221522432964956124e+02
-1.578274083883740104e+02
1.937886096585762061e+02
8.519999516149381407e+02
1.065891120838603001e+03
-6.750006287710259301e+01
-5.153155082544402603e+02
-1.767149194542460009e+02
5.591623098760513813e+02
1.839340027109208449e+03
2.939907453315328894e+03
3.065865769833691502e+03
2.993253612145177613e+03
2.260057183691623777e+03
1.238196548557315509e+03
3.735715408807499784e+02
4.011472109049053074e+02
1.255831838933614108e+03
1.945767360100384394e+03
1.478852242498550822e+03
7.319646033148972037e+02
2.981193474192712074e+02
1.593307481216168298e+03
2.496538988830405287e+03
3.041844609025943100e+03
2.908072815153841475e+03
2.103264859680229165e+03
1.224713962023740805e+03
4.773446571962667235e+02
4.049148631234846789e+02
-2.456953278102634286e+01
-1.388124104118088781e+03
-1.841680836668566144e+03
2.337064062665816948e+02
1.764085532699458781e+03
2.301474214799735364e+03
3.068887672605249463e+03
3.475374035561440905e+03
2.577824397873644102e+03
1.456177538677271059e+03
1.594400518553572738e+03
1.294543656866219635e+03
7.685963755574828156e+02
-4.644145110145667559e+02
-2.604821878769222963e+02
-4.156284916231070952e+02
-7.057797930439121501e+02
2.380981285883837245e+03
-9.992735007951225725e+02
-4.507439624709162672e+03
-5.317566574207677149e+03
-4.989662408493076327e+03
-3.584699076392403185e+03
-3.304688935827429759e+03
-4.161661035899271155e+03
-4.169533811470252658e+03
-4.062217823584081088e+03
-4.087651360062398453e+03
-5.778921630746647679e+03
-5.815041085536587161e+03
-5.514028325495351055e+03
-5.438862169200122480e+03
-2.048534030054268442e+03
1.089018786915551118e+03
2.889826028843124277e+03
2.373893392060732367e+03
-2.669708339775407239e+03
-6.320884863482099718e+03
-6.378686156192763519e+03
-4.690147547151619619e+03
-2.764196684449344502e+03
-2.973717368596510369e+03
-3.285718904709599883e+03
-4.646200220774016998e+03
-5.796157495711567208e+03
-5.954492070704933212e+03
-1.133289906425749905e+03
2.592438324806388664e+03
4.062775087015720146e+03
4.321813051965480554e+03
4.025523563248550545e+03
3.143846892389616642e+03
2.493908899877592376e+03
1.714781018464658700e+03
1.033427038530363006e+03
8.508889980637270583e+02
1.702622584061609246e+02
-8.184702897490307123e+02
-1.101265289318430632e+03
-1.385080624223849782e+03
-2.379859440498800723e+03
-1.206557937407606687e+03
2.770762885362069028e+03
6.134131503974478619e+03
6.998585821450332332e+03
5.433134610453515052e+03
2.985845540544087271e+03
2.077863687231712902e+03
1.456540390876880565e+03
5.315780355756668314e+02
4.998136184170983256e+02
7.902007293178756981e+02
9.100177049164601613e+02
3.774517075058834621e+02
1.106594822842970274e+02
9.956367791887379326e+02
3.586224347729989859e+03
4.356230886688054852e+03
3.889446771990747948e+03
3.360321710547719704e+03
2.162033219080236449e+03
1.679575462685729235e+03
1.183743928337397165e+03
8.026277058286424904e+01
-5.867678261801620465e+02
9.596879117905458543e+02
1.742842344417942513e+03
2.832753538781087627e+03
3.602343186213428453e+03
2.698676352925360334e+03
1.041973823030777794e+03
-1.346859677994674939e+03
-1.784297635096424756e+03
-1.058958547034119647e+03
4.355273262818625994e+02
2.237923946123278256e+03
2.115127191671011133e+03
8.332598346257595949e+02
1.528490250488040601e+03
3.935971034406669332e+03
3.711721840684054314e+03
1.813792846340630831e+03
1.079236797838014127e+03
-7.569708208649686867e+02
-2.766904228237506231e+03
-2.758736016703984205e+03
7.699148801896127736e+01
3.172127255605965729e+03
3.046554854512944530e+03
1.180285563506214430e+03
6.502487985112403521e+02
9.642126827241358455e+01
6.068846266661718118e+02
1.894599182922462205e+03
3.689536125009081388e+03
3.974630004414636915e+03
2.462947022548689347e+03
-1.754448385130149290e+02
-1.419687843933392060e+03
-1.863828112061863521e+03
-8.838531921461433285e+02
7.893940957166448698e+02
1.823935590852825953e+03
1.816673859091464010e+03
1.355971397816193189e+02
-9.182346142435724232e+02
-9.218126500431723116e+02
-4.192097829755061298e+02
-6.935039201200186199e+02
-3.437732680907335634e+03
-6.313913472314113278e+03
-7.376072228879282193e+03
-3.492106905132596239e+03
1.050936391463692189e+03
3.300023684315992341e+03
1.507077095681046103e+03
-2.913905208670531920e+03
-7.297941397279035300e+03
-8.223051501355228538e+03
-3.736250578126397158e+03
1.596465332187464128e+03
1.416869779570400851e+03
-5.313753290455271781e+03
-8.113103487500667143e+03
-7.423470163670120201e+03
-5.954112486379241091e+03
-5.595965907071500624e+03
-5.236790413046964204e+03
-4.114508464177807582e+03
-3.524763169699316023e+01
2.540125413788265632e+03
2.438347430974730287e+03
1.793308986379675844e+03
1.722054173050992404e+03
1.892710287161676661e+03
2.191645618335876861e+03
1.816661587085435713e+03
1.960533372966890511e+03
2.442299800267159753e+03
2.727963039741856846e+03
2.200516917473627018e+03
1.384917921764747234e+03
7.861051730359237126e+02
7.880708393602452588e+02
5.148051187548371672e+02
5.903025489203354255e+02
9.026069250422679033e+02
9.317120902818745662e+02
6.759327765113364705e+01
-1.097531511430869955e+02
-1.043324719899074580e+03
-1.828051217886623363e+03
-1.671995691593067932e+03
-2.215227972542421867e+03
-3.237706387122915658e+03
-3.100417469244954191e+03
-1.411310779170252317e+03
1.219651552752452062e+03
1.296464034916016544e+03
-1.824838431617819879e+03
-1.339258338545861079e+03
-1.787826638449998313e+02
2.195639475941152909e+02
8.787633650218149342e+02
2.122814868299970840e+03
2.684722765240578610e+03
2.335541084419148774e+03
2.415269787845139035e+03
2.197902815164004551e+03
6.824684310407805015e+02
-2.410541631631275266e+02
-4.976227216942858718e+02
-7.612003211767620314e+02
-9.277920233309596370e+02
-1.345191035516734701e+03
-1.404212138838374813e+03
6.481829418196332426e+02
1.859784120843082292e+03
2.226584129382775245e+03
2.676562107575859045e+03
3.456461766484630516e+03
3.404157066177590423e+03
2.815933791830724203e+03
1.865866564274320353e+03
3.030068188280677077e+02
-2.407660784996614893e+02
-6.775630145704177494e+02
-7.731927451075687259e+02
-6.173819112954678303e+02
-2.443475002687499966e+02
-6.651003314604432717e+02
-1.459592976329375233e+03
-2.001862859519754920e+03
-2.880916237268070290e+03
-2.847674112846463686e+03
-2.368148778531380685e+03
-1.411334096372073418e+03
8.718246922523203466e+02
2.549308253256442185e+03
2.821139075933735512e+03
1.965408999232997303e+03
2.178095778675345628e+03
2.154137551480705952e+03
1.761601855535809136e+03
4.947752538972802938e+01
-1.272199615314227003e+03
-1.072480823684880761e+03
-7.102859468705530617e+02
-1.514608309343624114e+03
-2.411490892903747863e+03
-1.642890559823708145e+03
3.541996650714894486e+02
1.841838496448704973e+03
1.854985970956714254e+03
1.935927110084907383e+02
-1.250339390839312728e+03
-1.487853514753246372e+03
-1.686924546270074870e+03
-8.365108287935212275e+02
3.653846805536385887e+02
9.628607846947135158e+02
1.149956562277590365e+03
1.072658853181242648e+03
4.359101314350439793e+02
9.086388949398871091e+02
9.458440798887767187e+02
-2.437577175673004959e+01
-2.590144905944480342e+02
-5.480537066507502004e+02
-1.158678578491131930e+03
-1.504884302255308512e+03
-2.760675273398806439e+03
-3.741971869711173895e+03
-1.259720410594979057e+03
1.194100581196192934e+03
9.475321591924108589e+02
3.665012062135400583e+02
-1.900151612495061215e+02
-7.038660520911502090e+02
-8.820679044422631705e+02
-6.788599345870677553e+02
-1.037295252091062594e+03
-3.333524737533608686e+02
1.246938644405620835e+03
1.535566975758498529e+03
1.269611931705600682e+03
6.250736578620966384e+02
6.738658125575175291e+02
5.970239660555174623e+02
-1.594256311932761889e+02
-9.174550954768839119e+02
-4.121931981171175039e+02
2.893515812638722764e+02
-5.667358744494526945e+02
-6.068377143119388393e+02
3.052461616862912024e+02
7.539539653537111690e+02
5.555164059877034788e+02
4.104766699074206144e+02
4.706041102722414848e+02
-3.720838146442465586e+02
-7.225107456604609979e+02
-2.176703570574450808e+01
1.450106249057024115e+03
2.249102135865020500e+03
2.330319815704309349e+03
2.051614139621588947e+03
1.901915909867837399e+03
1.135198589639326428e+03
4.149625851645028547e+02
2.475397107294929242e+02
1.587980025710474052e+01
2.249979089818538114e+02
1.156290577676925068e+03
9.765427076886624036e+02
2.656781619605928881e+02
-6.444502419964108242e+01
4.491837916419970043e+02
9.417830604012692675e+02
1.381959997728845565e+03
2.101205696067858753e+03
2.713315176865106423e+03
2.069094046814986541e+03
1.321983529832120439e+03
1.031986895449019585e+03
1.632505995832185590e+03
1.417404862609576412e+03
2.356612687130487984e+02
5.732451955071907435e+01
3.683679793369542494e+02
1.307451774331158560e+02
-1.653296155360391850e+01
3.834828234802162683e+02
3.178260933610208099e+02
5.965442964943406423e+02
9.305583492304417632e+02
1.683886019449922287e+03
2.694594523050615862e+03
2.644470425146163052e+03
2.733232927314817971e+03
2.968820859509370621e+03
2.654343400967511116e+03
1.877049786067937248e+03
6.220243112037275068e+02
9.801439058371674946e+02
2.774144269485855716e+02
-2.419152927530995839e+03
-6.818593068033871532e+03
-8.560937058835765129e+03
-7.892228552437241888e+03
-6.006432933489306379e+03
-3.552553237540781083e+03
5.242764341933407195e+02
-4.160015616850078004e+02
-6.256362739973565112e+03
-7.222696977102243181e+03
-5.175938173757437653e+03
-1.970019087390117647e+03
2.819008638726296340e+03
2.710173654718400940e+03
-1.948457228273739929e+03
-5.547916759429281228e+03
-5.852340952001759433e+03
-5.879736417869196885e+03
-6.212151008397816440e+03
-5.408571709799619384e+03
-1.695846869849540781e+03
2.619144512363752256e+03
2.938498320669576515e+03
-1.659148077064282347e+02
-4.723197391319783492e+03
-6.302403314608779510e+03
-3.820596792880996873e+03
1.172417484402826858e+03
1.899735459694190467e+03
2.070215754890600692e+03
2.175725059545081876e+03
2.012495020092192817e+03
2.242667523396323759e+03
2.731221417409948117e+03
2.286263798203654460e+03
-1.223103637061284417e+03
1.430030462986158682e+03
2.331391583721741881e+03
2.356896735964446634e+03
2.775822019016858121e+03
2.785322241245562964e+03
2.110349517772058789e+03
2.161926141715292033e+03
2.334991556516205947e+03
2.032501770320634478e+03
1.307402343934254304e+03
1.202848225861034962e+03
2.031062152310784995e+03
1.567149907875990266e+03
-9.990789436917883393e+01
-1.531136064667139635e+03
-1.352635541681926725e+03
-7.146701381156124455e+01
5.642851828170804396e+01
6.214887294651618532e+01
8.078389979810310706e+02
2.129540504280299047e+03
2.511200631902180703e+03
2.070793857647393907e+03
1.871422982525454245e+03
1.833284804532046110e+03
1.299395874039128330e+03
1.939640161875607419e+03
2.317586325414393741e+03
2.723452286671744787e+03
2.662433299207623350e+03
3.005867805106348442e+03
2.857053262586418441e+03
2.344069733140856442e+03
2.034841728680283495e+03
1.552089675059562296e+03
-1.886820612671774143e+03
-2.848742082337917964e+03
2.802634127085428872e+02
7.051575142272594121e+02
-2.045251069563740202e+03
-4.373951321458956954e+03
-3.641093027693054864e+03
-2.232553732968283384e+03
-2.614223213625163226e+03
-8.955322858077112187e+02
-1.132438075488405730e+03
-2.620642564415680226e+03
-4.543299129233648273e+03
-5.487512722827877042e+03
-1.828307287495395713e+03
6.853548458247887538e+02
1.069535408424213756e+03
1.180199342801645116e+03
7.843190566957086958e+02
1.206939427535354753e+03
9.701540034932961589e+02
3.869974073508586230e+02
3.934603761925602612e+02
5.245300076121342272e+02
7.042599955240641521e+02
1.134630320373578570e+03
1.574594197377510682e+03
1.249161952854934270e+03
3.654182592750051981e+02
6.830595964922245855e+01
8.728904178447645563e+02
8.171603119808683005e+02
5.004233392728445295e+01
-3.594302777627547130e+02
-7.301425333627200871e+02
-9.011443163191391932e+02
-7.936279707749191630e+02
-2.227129077201984160e+02
1.987733799423351968e+02
2.680670964411719410e+02
4.099181348620886638e+02
6.272605106061106426e+02
7.181756822291113167e+02
8.696330861758110586e+02
8.265141551870615331e+02
1.045866762568014565e+03
1.265740458945045475e+03
1.229083040607660678e+03
1.123903637759773346e+03
5.722874581572890520e+02
1.502521806475968162e+02
1.237445310797413072e+02
-1.202891668491235038e+02
-6.628771085083901653e+02
-9.919539298490155943e+02
-7.215649674897753130e+02
-7.048779284222518982e+02
-5.958854844533328787e+02
-1.026087703144792869e+02
-1.270383425813672176e+02
-9.319885064212546411e+01
2.393327730004917342e+01
2.203845602464643036e+02
3.572127082247242811e+02
1.165374774674380376e+02
-1.993767419093133185e+03
-2.640745074693247261e+03
-1.134506746766622314e+02
-1.898617129201479656e+02
-5.259673961758753649e+02
-6.758071246512598691e+02
-9.883594992560640549e+02
-1.027642088945323849e+03
-1.062652698176775630e+03
-1.120464347432917066e+03
-1.479124478819145679e+03
-1.224687453255184892e+03
-8.503169990368643312e+02
-6.130127359895245718e+02
9.232647870692012759e+01
3.977721674994930936e+02
3.112123879090170817e+02
6.526543510777944448e+02
5.431348245824152627e+02
5.117295358709951074e+02
3.403962396200553258e+02
4.100735006818474631e+02
1.327254090356167353e+02
-7.558155287800695987e+01
6.561500838732595184e+02
1.199781954207712261e+03
9.621674058401691809e+02
4.983132781998695577e+02
-5.068156156642038468e+01
-2.157125814610150201e+02
-2.337786353620271314e+02
1.731049046942069083e+02
2.908966228083884857e+02
9.352268766920853693e+01
3.399426629606113011e+02
5.811710737950166958e+02
5.552360939809062756e+02
5.471327940678166897e+02
5.528962110506053023e+02
5.834605852108768431e+02
7.848440460494236959e+02
6.461276061490787015e+02
9.492336682679070918e+02
7.691698135938405585e+02
5.359378736576671827e+02
2.250466122336271013e+01
-1.360175182904370388e+02
-4.025995642419992464e+02
-6.985689704858428968e+02
-4.809930621107037609e+02
-5.177163391783886937e+02
-1.269656982147401777e+03
-1.228770192145871988e+03
-4.910783370847196352e+02
2.623857491432709708e+02
5.586048490704376945e+02
6.125245286195288372e+02
8.901122482976785477e+02
1.040736633315970948e+03
1.035223080441355478e+03
6.774794839635433163e+02
4.605570761059926213e+02
4.114192631194845262e+02
5.970564243133503624e+02
4.316136120462267058e+02
8.309961105733273712e+01
-6.206266160813746637e+02
-2.155641994303117599e+02
-7.385669548700246878e+02
-5.671698159452263099e+03
-6.532097265046856592e+03
-1.474712033851224533e+03
-5.146895696262406972e+01
2.706390005774775318e+02
2.906239410726680603e+02
4.355660948416861515e+02
5.284734572404593109e+02
