2.142316251484322038e+03
1.220595394386879661e+03
5.425116314964809590e+02
2.551083436487426752e+03
1.897358088193172080e+03
-9.766446125292974330e+02
-9.959162372655659965e+02
3.245847842496118005e+02
2.170909440510406512e+03
2.049044556004251262e+03
2.073018233670092741e+03
2.468821532810436111e+03
1.895516708881442582e+03
1.731114753316336646e+03
1.940634371852159802e+03
2.587099161792240920e+03
3.434519429534939718e+03
3.013941870036154796e+03
2.444427173021573253e+03
1.782012735722169964e+03
1.559812502062817202e+03
2.010826105934129828e+03
2.240679814103696117e+03
2.092994426244981696e+03
1.451006486983289733e+03
7.773029531961811927e+02
3.377798742528756293e+02
-1.227982602416916507e+03
-2.362987785945515952e+03
-2.668452276311481455e+03
-2.500468515298648072e+03
-1.068188225007872461e+03
-2.254976336505282234e+03
-1.047979629501808404e+03
-5.241854079310386716e+00
1.587528973049156775e+03
2.088777673216227413e+03
7.931556345012362499e+02
-9.018311669336492287e+02
-3.260052720477431194e+03
-4.649689353774819210e+03
-5.725745756420168618e+03
-5.888133836622410854e+03
-6.091905351821058503e+03
-5.545023259913599759e+03
-3.383451005738817003e+03
-9.516658992629031388e+01
1.104857495472108667e+03
1.135649413799131253e+03
1.689199339537562992e+03
2.526537903168659341e+03
3.462701144245293563e+03
2.843715800029002821e+03
1.634553938506983286e+03
1.100273063437458859e+03
4.139091087426492663e+02
-3.353531542108686381e+01
-1.027044925399744898e+03
-5.015930522319901570e+02
7.478231375360654738e+02
4.002164990790503225e+02
-1.254372528531672060e+03
-1.514966000584131734e+03
-1.206569750435496189e+03
-1.195133302811071417e+03
-7.886534795639313415e+02
1.948957195672838054e+02
1.823521282767270350e+03
1.903227141912441766e+03
1.615019524592537664e+03
1.683910167283628880e+03
1.179892514322235229e+03
3.309620419577462940e+02
-7.338569640708112729e+02
-1.399559475415642055e+03
-1.825163648806019182e+03
-2.284667087817025276e+03
-2.711052783168459882e+03
-4.188280918963687327e+03
-4.743365736562749589e+03
-4.667301003267678425e+03
-2.803077427597019323e+03
2.448247047537206072e+03
4.703711319471840397e+03
3.727311810031641471e+03
1.340042736803080743e+03
-6.741567120517476042e+02
-1.246119206383292976e+03
-1.230945675345759810e+03
-1.815660783778819678e+03
-2.771250019720690489e+03
-2.192743610831537808e+03
-2.700173747560602351e+03
-2.865634451152660858e+03
-2.440930289222713782e+03
-3.488108252590656775e+03
-2.985163289487089514e+03
-1.753125144356811688e+03
7.128302461417900986e+02
2.065946830777330433e+03
2.592863602423009070e+03
1.018847835799253517e+03
-3.692137849716913252e+02
-5.335083329292575627e+02
2.902721200168124369e+02
1.239910728133952261e+03
1.974541668680878502e+03
2.667846343756944862e+03
2.994915836512569513e+03
3.774734255959654092e+03
2.918229845127433691e+03
1.168430958551459753e+03
-1.777156481648560202e+02
-7.181861249685605344e+02
-2.030172176798552357e+02
-4.691022807652791471e+02
-5.156488334081636538e+01
1.372428679970245867e+03
1.723971626618907067e+03
2.368069565895763390e+03
2.875646237082446987e+03
2.861745399920488126e+03
2.705480578661728941e+03
2.188625997041638129e+03
1.240970038098641226e+03
6.295682908732718488e+02
7.084281418899838627e+02
1.679529739309142997e+03
2.776885288995512383e+03
3.326402250143956280e+03
3.706105885645922172e+03
3.108960570954627656e+03
2.441108154246643608e+03
2.163315212443467317e+03
2.336464664808319867e+03
2.762609204606188996e+03
2.093781763085432431e+03
1.867051454570908390e+03
2.580063574954320757e+03
2.754046874759997536e+03
2.421985520972252289e+03
2.372604950758587165e+03
2.426894881832951341e+03
2.384979631988244819e+03
2.256806730036244062e+03
1.890312195687744861e+03
1.402452360450991364e+03
7.501706017713611345e+02
6.834568875424660064e+02
1.175282451383738817e+03
1.154628560615410606e+03
7.294898912492919862e+02
-6.231729424882372541e+02
-3.057436684848237292e+03
-6.195309640363507242e+03
-6.497748307303517322e+03
-4.927838126803550949e+03
-3.809630506991326911e+03
-3.826119490573595158e+03
-5.565252786316371385e+03
-6.314152335185130141e+03
-6.115019409336737226e+03
-3.734535022384689455e+03
5.803212561124751119e+02
1.009446780817483500e+03
4.437284113118904543e+02
-3.804804385524381814e+03
-5.766217857985277078e+03
-5.317517516574573165e+03
-6.056706646657776218e+03
-5.945831137019161361e+03
-5.733906575583554513e+03
-3.486870663266747670e+03
-3.122740290385006574e+03
-5.623575828268421901e+03
-5.117420898127366854e+03
-3.538411942377579180e+03
7.334688988293639795e+02
2.198290608232586692e+03
2.123917551693445603e+03
3.136683816437826522e+01
-9.593026131531971714e+02
1.718904372830863622e+03
2.095053524174157246e+03
2.037283082143628235e+03
-6.997670472199991991e+02
-2.937256675931162590e+03
1.072936322835002784e+03
1.536826688691128311e+03
1.223513562654475663e+03
-3.007894735426697025e+03
-2.843346203180319662e+03
-6.609326775168279937e+02
2.263113585724450161e+02
1.724106133617820831e+02
1.330271476948267718e+03
2.239899144720012828e+03
1.722271991435115524e+03
8.972594169401081672e+02
9.494498750175374369e+01
3.883261981341564706e+02
1.150436558492100630e+03
1.302333853722607500e+03
1.390933760446120687e+03
1.307230397048945406e+03
1.490301263518435690e+03
1.881165183152549844e+03
1.903811644288107345e+03
1.769252302801338374e+03
1.999481230540142178e+03
2.311495286135780134e+03
1.577239395972282182e+03
1.261702139835801972e+03
1.459020545674521372e+03
1.151142083366564975e+03
5.820674907418150497e+02
7.667452353168256423e+02
1.099161530653731916e+03
1.217315412183197850e+03
1.821599901197270356e+03
1.862918662013991934e+03
9.623646923428300397e+02
-1.030971933653853739e+03
-1.361776822985885474e+03
-1.911456611091396951e+01
3.572355473225579203e+02
9.472066323759535180e+02
4.523358091317198841e+02
1.288198223542595144e+02
5.303821555119963023e+02
8.500434383901296087e+02
9.030251388144231441e+02
7.103311132279173989e+02
4.140367079013944931e+02
1.012323332669729439e+02
5.928008559477801782e+02
1.183523682448482532e+03
1.398559705041818233e+03
1.221014124968809256e+03
9.429731605903700711e+02
8.867648269779472230e+02
7.031862422426381727e+02
4.510829464173869496e+02
2.777779500366589787e+02
5.380456349966556218e+02
7.787552774520477215e+02
6.508650219187566108e+02
5.322664413015506852e+02
3.280991775913067272e+02
5.334376027455973599e+02
6.861766390297452745e+02
7.362190065889217294e+02
8.745945466514766622e+02
9.004736955067044164e+02
6.737713290791920144e+02
9.203269769088888097e+02
1.120344385656131863e+03
1.160038266093006314e+03
9.523614960488215502e+02
6.202891206131675972e+02
4.696198555189092190e+02
3.705720839923231438e+02
2.483594273231453826e+02
4.658257048525109099e+02
1.197870274079647061e+03
1.338420366450535766e+03
1.319621329635808479e+03
1.138485432529122590e+03
1.255004237069937517e+03
1.158277160054857177e+03
1.340297128153073572e+03
1.082051503987757769e+03
6.805007225686570109e+02
4.046166792872086830e+02
6.315359806998915246e+02
7.993026245300586652e+02
1.829516192921577442e+02
-1.714548403095404183e+03
-4.830191861548926681e+03
-6.000971923762945153e+03
-5.858863287121157555e+03
-5.554771404881718809e+03
-5.482685986038854935e+03
-5.059595467968305456e+03
-5.118387332326703472e+03
-5.333102573602493067e+03
-4.966765985096506483e+03
-5.128235331233539000e+03
-5.014688369945024533e+03
-4.995956836571759595e+03
-3.807212176449567778e+03
7.565254165540327449e+02
9.741893162770560366e+02
-1.485130892335592989e+03
-3.462737595891177307e+02
6.988823091938486414e+02
1.661416591353944796e+03
1.663292957268600048e+03
1.806517365314196013e+03
1.595060981798688090e+03
1.494922640689936088e+03
1.536045275335019369e+03
1.409303919506456623e+03
1.586558722051538098e+03
1.565931036051014416e+03
1.196508123299892986e+03
1.246240895390407786e+03
1.116097841870104048e+03
1.023065313290243580e+03
7.403214350124205794e+02
8.399167186796089482e+02
1.005815927478941717e+03
9.890550966340842933e+02
7.976437742173932293e+02
8.976877228015529226e+02
7.330543062252825166e+02
7.996731251432366889e+02
9.576637851055493229e+02
8.021451607156061527e+02
7.370638915445271095e+02
7.823911934933494194e+02
6.761485010623404150e+02
8.833236097472423580e+02
9.948555603993597742e+02
9.876772679450865553e+02
8.718928247844177122e+02
6.965886904820742984e+02
6.537491392425447430e+02
8.204133320584663807e+02
7.976476712914902691e+02
6.784718127568120281e+02
1.878651812049567695e+02
5.085142786040342600e+01
8.045046399696876449e+01
1.765819837372457357e+01
1.161232927761787614e+01
2.472550874227355280e+02
1.975405651392218260e+02
-3.027782874295414217e+02
-2.419592614816921810e+02
-3.905158966211168945e+02
-7.373735675470703654e+02
-1.708504655003524931e+03
-4.810416461881442274e+02
-7.005928981488231955e+01
-1.311389438087506676e+02
-5.260749131728099428e+02
-4.881376927974200157e+02
-3.264914718650324517e+02
-1.719147393282457188e+03
-9.539729755141248688e+02
-1.740758348798858890e+02
-5.163850963015482876e+02
-3.509226479834469501e+02
-1.927834544390359497e+02
-2.091251799367351794e+02
-1.918838255748363508e+02
-2.999972856200685101e+02
-1.342907391025165396e+02
-3.547676752005390881e+02
-4.214683734552178862e+02
-3.625050115776133453e+02
-2.118698665073873428e+02
-9.155819697751941533e+01
-1.255647185434939388e+02
-3.138964603233370667e+02
-5.555506276497038698e+02
-4.814095699417313199e+02
-7.523991455971321329e+02
-5.005314081088459375e+02
-5.698206404181187281e+02
-7.823307328550417878e+02
-6.180243065602976458e+02
-6.239382753065996212e+02
-7.441855171959878135e+02
-3.676786514616951536e+02
-5.414644508520017325e+02
-3.425395195264059112e+02
-1.118887720622926878e+02
-3.054948617115191496e+02
-1.263316156586081576e+02
-1.953141914142905193e+02
-3.664701159551340197e+02
-3.108666597198650265e+02
-2.855618195862284097e+02
-2.186132899525942435e+02
-2.639985356899878184e+02
-1.967072969530787532e+02
-1.616529232088628021e+02
4.017770764104089665e+01
9.974740198037686412e+01
9.401411386061562325e+01
1.794355885652111482e+01
-1.963678771669179071e+02
-3.429796175655390016e+02
-6.229453774648773106e+02
-3.142639424307312765e+02
-3.090389745190060822e+01
-6.868610473369602687e+02
-1.331724606755348361e+02
4.371712862575323015e+02
5.131804036920252656e+02
5.368529798513573041e+02
2.081830918974843598e+02
2.320695444754818837e+01
-1.431478779330848567e+02
-9.695916570887618491e+01
-4.422007895211209672e+01
-1.278771341643507213e+02
-3.498818827014334261e+02
-2.881332720045512019e+02
1.324781306588199072e+02
-1.402823472672619687e+02
-3.866257343770919306e+02
-2.075145511793852791e+02
2.019047642198526660e+01
-1.036547126961539334e+03
-3.253923913093496594e+03
-2.198627971001283640e+03
-5.890875012637802683e+02
4.346185513256995137e+02
1.344491355754890094e+02
4.375992570251974598e+02
7.373074564853209267e+02
8.916392260875805960e+02
9.481417682608083624e+02
8.648953684716490216e+02
6.919374098514828120e+02
9.853159458685643131e+02
8.658502904792018171e+02
8.783526932520627497e+02
1.019095804014224541e+03
8.228911232361074326e+02
7.977051207476814625e+02
7.100860111787251299e+02
6.132294354395650089e+02
7.133559048631126416e+02
9.513505240432925802e+02
1.094253353923977329e+03
1.307870524792417200e+03
1.251129158122493664e+03
1.169069631066418651e+03
1.141013686531963003e+03
1.141698618435736989e+03
8.817778101857845741e+02
9.574581844410837448e+02
1.224756960652955286e+03
1.492090361653508126e+03
1.445864071736935784e+03
1.233121066840713866e+03
1.197913004208890243e+03
9.581306852913229477e+02
1.279642111417028900e+03
1.447427006262009172e+03
1.223577366041373807e+03
1.334093140291426835e+03
1.453990386559203444e+03
1.512193242787426243e+03
1.870580176255549077e+03
1.680190579900372541e+03
1.499967320221060618e+03
1.544909376199339249e+03
1.738016724479337427e+03
1.812251274331742025e+03
1.815614557534014693e+03
1.738080768679829589e+03
1.922601300932142522e+03
1.626173347691756817e+03
1.356878084971965109e+03
1.504647625426145851e+03
1.470436606688839447e+03
1.372290044184903536e+03
2.482316272158744823e+02
-1.629824467759031677e+03
-4.743901446029219187e+03
-4.200004255906464095e+03
-4.477187325512274583e+03
-3.810471198575540711e+03
-4.161759069329994418e+03
-2.353779362995998781e+03
8.942738053330779167e+02
-2.167890003420697269e+02
-4.708919747597944479e+03
-5.507155977626369349e+03
-5.287393871181924624e+03
-5.270653292635153775e+03
-5.286994629458808049e+03
-4.584422736287784574e+03
-4.785872464164174744e+03
-4.490365494245615082e+03
-2.496905255915969519e+03
-1.564455576152282902e+03
-3.997085457634936574e+03
-4.297834829486755552e+03
-3.411646030557199083e+03
-4.324497203238625843e+03
-4.288346886197529784e+03
-4.235219276083712430e+03
-3.098084741603031034e+03
5.060869169982441917e+02
1.968293062883338507e+03
2.280471322452084678e+03
2.244670011461430931e+03
1.846918049401841699e+03
2.114228946012006418e+03
2.587620604543405534e+03
2.569090148959971430e+03
2.433659316035193115e+03
2.113335322247591648e+03
2.006125979442674179e+03
1.962070385121499385e+03
1.921176729553778614e+03
1.881437298271963073e+03
2.039867594981915545e+03
2.327474943405262366e+03
2.143303030991973628e+03
1.994409243540781063e+03
1.941800663848333897e+03
1.714512574290071598e+03
1.740551058518627769e+03
1.817906202926705191e+03
1.713556956858838248e+03
1.499555147140201825e+03
1.325938735875947941e+03
1.236749122497079725e+03
1.219009874257302272e+03
1.222761376626295942e+03
1.253969312975679259e+03
1.117701865980312505e+03
7.529923930179488707e+02
6.698568608613592232e+02
6.572686834413615315e+02
6.371249296610960755e+02
2.967230807180960710e+02
5.263279575749419337e+02
5.573145388390116750e+02
3.302592234270119320e+02
5.271644889782888868e+02
4.890988562960999957e+02
5.081438407031256475e+02
4.013137478736793469e+02
-4.453176832658118656e+02
-1.359884902771266070e+03
-9.737637513211669216e+01
4.463214595098030486e+02
4.992084953314372910e+02
6.254036737547718303e+02
4.769147083876276270e+02
1.530608136104818016e+02
-6.973478784147690135e+01
-3.520246936966796625e+02
-1.892217815531316205e+01
4.131285966126849729e+01
-1.742686286020560971e+01
-1.520971539463284898e+02
-1.257509342153235643e+01
-6.684426251263820973e+01
-1.789220987614079377e+02
-2.078845589099950431e+01
1.095642076876220727e+02
2.021118029789845707e+02
2.919118124389530635e+02
2.060245975336048332e+02
-6.583487200526336736e+00
-2.838998846399603053e+02
6.110919621265365720e+01
1.164722683614807579e+02
2.171701579417392836e+00
-1.457604794947954758e+02
-2.623163793850736170e+02
1.415248835391678597e+02
2.267481569529323906e+02
2.424053011481441899e+02
1.684782698004344468e+02
-1.399958498769390758e+02
-1.729963514952300727e+02
-1.305301289361146075e+02
-2.025715196427474609e+02
-1.111220621543930207e+02
-1.741962227216313011e+02
-2.737719498038935058e+02
-5.618138240971321693e+02
-2.923231198389063366e+02
2.668219546637542550e+01
1.222226543536044119e+02
4.582832213153865837e+02
4.878694061618262481e+02
2.670083847214102093e+02
2.947557319233832231e+02
3.120798153785731301e+02
4.197437886276442498e+01
9.947816123584483705e+01
-4.742285027288515664e+01
-3.778009659735513424e+02
-2.231575010843632299e+03
-3.629699624999157550e+03
-7.382631470455734188e+02
4.227644960777450933e+02
3.641811509415599346e+01
-2.830233436934136535e+03
-6.573383471121524053e+03
-4.835966681780422732e+03
-4.569456771171484206e+02
4.637018431228049735e+02
8.409119719050449930e+02
-1.692729307478709302e+02
6.732580471998396661e+02
8.103052725937699279e+02
1.658685422485161496e+02
6.270463711067794748e+02
8.517343300958301597e+02
7.138983727942146515e+02
6.877565770200199040e+02
8.052157921518740977e+02
8.662574349881074340e+02
5.678350407048884563e+02
6.788366781735363702e+02
3.292884172497898589e+02
3.295789983041565847e+02
3.315384243682155443e+02
5.030133140803652623e+02
2.759370268534313482e+02
6.312803209908840927e+02
8.643076328823512995e+02
7.759697534803158305e+02
4.281971974871230486e+02
3.710039124607249050e+02
5.392224850590978349e+02
4.330897705263274702e+02
5.476621638697343997e+02
4.565235913849549547e+02
6.569843488878406106e+02
7.061654288834171211e+02
8.326976080667641327e+02
6.928680244904174970e+02
5.794742442047698887e+02
3.105227496537506227e+02
5.172140227957485195e+02
5.632058065697139000e+02
3.877713683738637087e+02
5.407785740302405202e+02
4.000905622673947732e+02
2.230535811970424618e+02
1.435443749526523902e+02
2.234130212681275225e+02
3.178766364445913268e+02
2.786170145684803288e+02
2.019906286660548460e+02
7.665703018502789234e+01
1.487745559567818816e+02
-1.475654947057039408e+02
-4.765518879376136852e+01
-2.551515418274711635e+02
-5.323668193534319926e+02
-4.201165562166093537e+02
-5.493054213385323692e+02
-5.261219452742329850e+02
-2.995981179318409886e+02
-2.007423080830472202e+02
-2.355479265057963119e+02
1.000360259731475878e+02
2.519242470530921878e+02
2.391043214368068277e+02
4.385429798991090422e+01
2.938590587980272630e+02
2.582366200677132611e+02
1.661433868959129825e+02
3.163920317223639245e+02
1.169788103312172325e+02
-5.691249718319110116e+02
-6.740132169875370209e+02
4.595607827249322099e+02
-4.954186041074876243e+02
-3.522889784499116104e+03
-1.471826386774696175e+03
-1.855433984784774566e+03
9.422013527121083598e+01
-1.368876404071116212e+03
-1.206606324740372656e+03
-2.078027819332273339e+03
-1.651776983482199910e+02
-1.414049376660259668e+03
-2.846614623283646779e+03
-2.858869741011907990e+03
-1.572810736124831237e+03
5.815461841288459937e+02
-7.257939208972605911e+02
-1.585845768711357323e+03
-1.900613741046271116e+03
-8.140436175012273452e+02
-1.667193470417651497e+03
-1.842027770330053499e+03
2.144674256096511300e+01
-1.512784377571652385e+03
-1.721751467974082061e+03
1.956327936892836661e+01
-5.808752513669999189e+02
-8.320211187925436889e+02
4.821681174727643793e+02
-1.472344878297886225e+03
-1.283586666957879970e+03
-9.925235112543008427e+02
-8.571580893211006469e+02
6.604914275390153762e+02
-1.316609453643534835e+03
-1.794367756461055023e+02
1.430030708624012050e+03
1.335786193797906208e+03
1.195846326242681926e+03
1.101150394257806738e+03
1.101719155759711157e+03
8.835802727897448676e+02
9.536544244809911106e+02
1.443002581595811762e+03
1.311611314722500083e+03
1.477443205314059696e+03
1.117534421260960926e+03
7.298971645312363989e+02
8.294941301255338431e+02
9.943181731911653287e+02
1.132386435400799883e+03
9.836790515813120237e+02
7.451625097469154753e+02
7.968503396942694508e+02
1.013740719619183665e+03
8.237853104614054018e+02
6.778918011445440470e+02
7.450898077055067006e+02
9.306177298646369991e+02
8.856248928991112734e+02
8.952048168139631343e+02
8.054351625511968678e+02
6.860386699175412559e+02
-2.079148024647365673e+02
-1.057540423498292512e+03
2.492417603117194460e+02
7.372893233753997038e+02
7.433985821908975140e+02
6.888518482757706352e+02
5.149634402139278109e+02
6.346272548283392325e+02
6.027556210522473066e+02
5.369345260538467528e+02
4.032489676124879452e+02
9.378234932254858904e+02
9.936845306202484380e+02
7.957906323501600809e+02
9.249811223963989733e+02
9.782624524501122778e+02
6.738825346180034330e+02
7.416848052747151314e+02
6.135605768697115536e+02
7.706369282014179589e+02
7.068311525932635959e+02
7.541071630996731301e+02
9.834559658042788897e+02
1.126676294509359195e+03
7.497183918406103658e+02
8.615414416435661451e+02
8.500708574329717067e+02
8.203127306493618107e+02
7.012102393533650684e+02
7.677447116252944852e+02
9.529216224512074405e+02
9.867218119314932210e+02
1.040148690221163633e+03
1.338165286069043077e+03
1.272756545555964067e+03
1.359932504917577262e+03
1.446632886377012255e+03
1.238875944089763379e+03
1.013610222330739248e+03
1.045863310136110613e+03
1.024603285273718711e+03
1.231819471616056717e+03
1.217511917185935772e+03
1.137653405677499222e+03
1.130200437166455913e+03
1.000159190991312698e+03
8.795527226583805032e+02
7.633495913084435642e+02
9.345409467805246777e+02
1.150087125287683421e+03
8.900033374318057895e+02
6.692794943185581360e+02
2.329034232346746762e+02
-4.391191243980043168e+02
-1.525809556714343671e+03
-4.880179712984110665e+03
-6.246228919698070058e+03
-6.395935758750619243e+03
-3.615350971774641494e+03
-5.054475445348332869e+03
-5.907306863203066314e+03
-6.120877368388212744e+03
-5.772164654942720517e+03
-4.990178818749747734e+03
-3.732961373696784449e+03
-4.651415836934395884e+03
-5.329438526972613545e+03
-5.453265063847077727e+03
-5.647875824870830002e+03
-4.563260340600029849e+03
-1.822558109982824590e+03
-3.885509160798209450e+03
-4.930054604881170235e+03
-3.440331586912257990e+03
4.475191020677165739e+02
1.597724656962715926e+03
1.431175065560249777e+03
6.180635588206866942e+02
1.272276866006521914e+03
1.665781803965577183e+03
1.726557503924290131e+03
1.990642742683084634e+03
1.980010749058722695e+03
1.712658259489858892e+03
1.760608351857594926e+03
2.011888592044028655e+03
2.040517656642268321e+03
1.816540831083745388e+03
1.811937853389890961e+03
1.737658535974149345e+03
1.584744865521933662e+03
1.775210062407732494e+03
1.758065704336998351e+03
1.624362991454501298e+03
1.366057237068905579e+03
1.307178734142742996e+03
1.045742960590434222e+03
1.230773623117352372e+03
1.262292417726065423e+03
1.124299943155167057e+03
1.308836087159428644e+03
1.210919813358185593e+03
1.120567715819669274e+03
1.148816142186090701e+03
1.477648648412798366e+03
1.641113118458063809e+03
1.381197783231891435e+03
1.378913443195478749e+03
1.333298764877962867e+03
1.084370862354413703e+03
9.601453812253721480e+02
1.038669863387500072e+03
9.319670015180155360e+02
8.310145196361875151e+02
1.123888009157979468e+03
1.323570162270954143e+03
8.030871887708836994e+02
1.006517541942022376e+03
1.328998807968527217e+03
1.018533386943948926e+03
8.067880691876725905e+02
7.499229700012007243e+02
7.920665564815575408e+02
5.804272904213715947e+02
6.051658704246848401e+02
7.249093276886454760e+02
7.863901775506761851e+02
3.998438337755206362e+02
7.353052296736431117e+02
8.839665845487222668e+02
5.668200877171104821e+02
4.577789216362535853e+02
6.019193603838023137e+02
-1.437194125133536318e+02
-1.528179082762496137e+03
-2.344215189407087507e+02
1.675868080567316554e+02
3.208211210531890174e+02
2.223243784613808884e+02
-1.954839894306187489e+03
-4.224714512928226213e+03
-1.238226945861605600e+03
3.366152645375439647e+02
1.978676999641456860e+02
-1.062499917217938673e+03
-3.288445013545349866e+03
-2.347021628585247527e+03
-1.450211712867145934e+03
-1.670956475466092115e+03
-1.083238465834298268e+03
-3.071068475322675567e+03
-2.301435133887302527e+03
3.267983645770108581e+01
-3.184691334481928152e+03
-2.872497267659993213e+03
3.215844359629437044e+00
-2.245594502821521928e+03
-4.219267839445137156e+02
-8.677099151698720334e+02
-1.766894698114163248e+03
5.255328802124470258e+02
-1.752505491427582911e+03
-7.649364004956197505e+02
-1.125669970563846618e+03
-3.587744792386915833e+03
-1.559175878832051922e+03
-8.109700375366454637e+02
-1.865127693726926509e+03
1.035773395968187671e+01
-1.972505624373206047e+03
6.501542994985460382e+02
-9.836634600764867855e+02
-8.119074889225819334e+02
6.115059818546936867e+02
-1.783423538052363256e+03
1.364237433433832081e+00
-1.567076034955157866e+03
-7.786795358949900674e+02
5.644691520136287863e+02
9.513240416665424846e+02
1.221795323068679409e+03
1.023787612716896319e+03
8.573146583148542277e+02
9.793625051562617045e+02
-4.181048755150277962e+00
-1.477461972196098486e+03
9.676130715514258327e+02
-4.627947612477117900e+02
-7.217473037637880680e+02
1.070723721177231482e+03
9.626050054257667625e+02
1.279854196863131847e+03
5.154832688232677356e+02
-1.906620511803630507e+03
-9.275230356558936364e+02
2.408613480288119035e+02
1.084847768865752641e+03
7.674173654235771664e+02
9.379599028136326524e+02
1.241581822264248785e+03
1.203095781646395380e+03
1.490973462549309716e+03
1.715016953585974306e+03
1.563439238720145795e+03
1.374000781788138966e+03
1.470687360504337903e+03
1.491876285261399516e+03
1.441424842287457295e+03
1.696153652626961502e+03
1.658605999308618266e+03
1.532300161374172376e+03
1.476841443494323357e+03
1.814177163723459898e+03
1.562522113453274642e+03
1.677666114841175613e+03
1.696785597059135853e+03
1.743476671259992372e+03
1.574189675556102429e+03
1.572935844833227975e+03
1.192239820372792337e+03
1.092233754228983798e+03
1.545015703644091218e+03
1.636503178288601930e+03
1.402986232727158722e+03
1.271288276218511101e+03
1.433095544579429315e+03
1.665589085551368498e+03
1.557328213407805379e+03
1.462779631284336347e+03
1.443451960895218008e+03
1.508387353589779650e+03
1.590996552347146462e+03
1.491213906605608372e+03
1.599909423891693223e+03
1.727888841335169673e+03
1.126896751700046934e+03
1.332108981091569831e+03
1.399675549573407807e+03
1.388399271877408182e+03
1.350163891576248261e+03
1.487954864880740388e+03
1.410950265144128025e+03
1.471948782494176157e+03
1.772979182105240625e+03
1.870113308548909572e+03
1.468433313389551813e+03
1.538023837472202331e+03
1.107809538747359284e+03
-1.462053622610048649e+02
-2.614924127969814435e+03
-5.531418903505699745e+03
-5.853875521435413248e+03
-5.383400035677194865e+03
-4.643977870495162279e+03
-4.618487045424846656e+03
-4.747876434795824935e+03
-4.654178610927358932e+03
-4.951389722759267897e+03
-5.135616723679878305e+03
-4.627852546328753306e+03
-4.408936027938538246e+03
-4.502047415392921721e+03
-4.566177577583483071e+03
-2.585354135367912022e+03
4.467118826574612456e+00
-2.710571236891848912e+03
-4.799449318373731330e+03
-4.523012629418752113e+03
-4.511198475043778672e+03
-4.290885496165947188e+03
-3.842908282109242464e+03
-3.707477386937799565e+03
-3.728942218627290003e+03
-3.785554790176567622e+03
-3.752300845950681833e+03
-3.639090004836215030e+03
-3.483703872288643652e+03
-3.501973188543532160e+03
-1.942744160240228211e+03
9.650096827777332464e+02
2.615328491964721707e+03
3.400428451689017493e+03
3.254189195478469628e+03
2.963666288921192063e+03
2.780890626866898856e+03
2.904021819716193932e+03
2.932455199374205677e+03
2.809220332906856584e+03
2.695893856232651160e+03
2.458258118046795971e+03
2.249209249799180725e+03
2.386439414817843954e+03
1.928926148373305750e+03
2.111911140015849469e+03
2.063611992050382014e+03
2.135133323129954988e+03
1.995561016540134915e+03
1.982099785861249984e+03
1.963781169218469358e+03
2.036406537678875111e+03
1.794796345614621714e+03
1.583969631599854893e+03
1.696084915872637794e+03
1.580345789601446086e+03
1.567008853299422753e+03
1.233303926844380385e+03
1.243615461553445584e+03
1.335116212503590077e+03
1.248579849933267724e+03
1.057982572952714236e+03
9.182954347756956395e+02
7.893676508044245566e+02
7.709795211456940933e+02
7.857113579831520838e+02
8.314948662788239062e+02
8.183583498541100880e+02
6.298976677477935482e+02
5.044093713866532198e+02
5.271277732982404132e+02
5.632196933359053901e+02
-8.023787872057528148e+01
-4.164911290112156621e+02
4.015874943535840202e+02
6.046750205962064229e+02
6.593231893120348559e+02
4.484259826857345956e+02
-1.760906288595310116e+03
-1.110440988579679015e+03
3.323999540550388474e+02
2.112168027676551390e+02
-2.194265815826882772e+03
-1.283399756639778388e+03
-2.024675265732200160e+03
-3.204333328746032521e+02
5.091730592545849987e+01
2.994494370952372151e+02
3.464011202305113812e+01
9.139455242015826286e+01
-4.022768575395618385e+00
-2.679891974799456875e+02
-3.952884540636677002e+02
-2.547539016957235845e+02
-1.327248098195641148e+02
3.627922205377432761e+02
4.121509100018188292e+02
3.055362696961289544e+02
3.499405656295643325e+02
2.234972216677425649e+02
-3.345626313298464538e+01
1.921066781667611281e+02
2.655864258064102614e+02
3.060538706598077283e+02
3.025578177034248029e+02
3.081105397428357833e+02
7.169874717667512698e+01
-2.066704452622414294e+02
-1.427647647402973803e+02
-1.749487587338934134e+02
-4.664194334820646759e+01
2.129257987849802305e+02
-3.617014125927000379e+01
-2.108652898089810606e+02
-2.621231755789283397e+02
-3.178769176726946739e+02
-3.151938445903099932e+02
-2.398506232757828371e+01
-2.307710386908700784e+01
4.750913152193650291e+01
4.135046162626429691e+02
2.347208190081601913e+02
4.282580610360689661e+02
4.450692001905804318e+02
2.800783560060081641e+02
6.163420878160477514e+02
6.839184885636390163e+02
5.279044579931440921e+02
2.521266346271591203e+02
5.674869694855024136e+02
8.880736212018190372e+02
7.187976230260100010e+02
5.618111256727726186e+02
5.621461457531290762e+02
2.887450562286624063e+02
-7.058188985587460706e+01
-7.779292629536038248e+02
-8.793405313583332372e+02
6.571733558256988772e+02
3.946958055128237675e+02
-1.097898764866412620e+02
7.486917748609091632e+02
7.791191205455653517e+02
6.795104324437211289e+02
8.546388557374109496e+02
6.055362051447052636e+02
5.931919153563299005e+02
7.876349726519100614e+02
5.779958161461942154e+02
5.463282989160674106e+02
4.841859765169671732e+02
9.786267282545683202e+02
1.156754112760185080e+03
1.321649130069794182e+03
1.205405923948659165e+03
1.053772090726397209e+03
1.168736249320240859e+03
1.011352255312163265e+03
7.285524687843850415e+02
6.225404396736233821e+02
2.730890749920718008e+02
3.830191761832561497e+02
8.987716490682972790e+02
1.097085305821593465e+03
4.567356317485788395e+02
-3.668855568493733585e+02
-8.201281739517198730e+02
-8.048408799694312847e+02
-9.169274301449851237e+02
-1.776646965766281028e+03
-2.041695101136063158e+03
-1.405280108668672710e+03
-8.292972243914668979e+02
-6.775439487439745108e+02
-6.973813801044387901e+02
-6.687063365339672600e+02
-3.483486154491520779e+02
2.494457833645086282e+02
-9.820546162526617309e+02
-2.630193568677616440e+03
-4.070617285626327885e+03
-4.451452892223667732e+03
-5.368819011676273476e+03
-5.189371857952439314e+03
-4.445407764047001365e+03
-2.574637133561673636e+03
-8.412392618461008169e+02
6.076934206584462572e+02
1.501231490622541742e+03
1.719443394341930571e+03
2.317518336186280976e+03
2.968591716199233815e+03
2.863507762664867187e+03
6.662735272859125644e+02
-7.510694175438289903e+02
-2.197520061096442987e+02
3.255728629086476644e+02
5.298284407773865041e+02
7.848139129724629584e+02
1.059659731727202143e+03
1.477363230347925082e+03
-4.181820843782544017e+01
-2.147758298687636398e+03
-1.744712359119823986e+03
1.376326745486679101e+03
2.512372357635155822e+03
1.022558819163965040e+03
-1.537152238864729952e+03
-4.386758935489458963e+03
-4.655191870726584057e+03
-5.943450501731324039e+03
-5.444522482845587547e+03
-4.644372707310771148e+03
-7.021914124217277276e+03
-4.818136890717897586e+03
-2.280028539681987240e+03
4.504370800503821783e+02
-8.347135044191143152e+02
1.696549333460537355e+03
