-1.540834586663441144e+02
-6.352537352443789587e+00
-4.702083951108913880e+02
-6.956113976351059591e+02
-7.356182406380370367e+02
-4.232179866152710588e+02
-1.658472910838898770e+03
-3.984409078551086623e+03
-7.317970693655818650e+03
-7.828163142111702655e+03
-7.272065496585616529e+03
-7.072695313243446435e+03
-5.060073171189397726e+03
-1.048104617465081219e+03
-4.848197343083417081e+02
-9.429483313111582277e+01
6.303539377399411023e+02
4.262075992581264359e+02
-1.825332187555740973e+02
8.902172653098904220e+01
-6.133074271169801506e+01
1.025074223579133417e+02
1.945317994310627512e+02
2.686758283508370937e+02
5.099111760565389204e+02
5.931884050140193949e+02
4.935024968938378720e+02
4.786574428692335204e+01
-1.086694352353128892e+02
2.188391068217359532e+02
6.293760243311479599e+02
7.019283975743819610e+02
-1.666092075685916711e+02
-1.717835301515115987e+01
1.149234772697278004e+03
1.311585636609459925e+03
9.868918963737846752e+02
5.391236495451310020e+02
8.592176534404841277e+02
8.820687825337889763e+02
7.667145919180836700e+02
1.033148683552669127e+03
7.894288593073351876e+02
2.765562178628881043e+02
3.164675760129064201e+02
7.811105797602442635e+02
1.079566858907545566e+03
1.086875300544466427e+03
9.239356884203382378e+02
9.067994372882881180e+02
5.545116061559984928e+02
2.979999187807659951e+02
3.301718808001808156e+02
3.730591147359192519e+02
7.367042392662749535e+02
1.096134786227604764e+03
1.102308073962979734e+03
7.562247850682327908e+02
6.258943320273573363e+02
5.353756129734016440e+02
5.296752853050322756e+02
2.737258849069084476e+02
6.275016556362614892e+02
9.520739657644750196e+02
9.774345563927815874e+02
9.785839874069170037e+02
9.385655972617337284e+02
1.168424618961000533e+03
8.310813954975009210e+02
7.365454704532144206e+02
6.318523109958989608e+02
8.249989060158274015e+02
9.020488610865181727e+02
5.118876625040111321e+02
4.615491528161564929e+02
5.411538849075882354e+02
7.206667029271870888e+02
7.390739321673621589e+02
5.003971526620977102e+02
5.435631318354232917e+02
-5.112572715557283232e+02
-3.934228673785536557e+03
-3.630421564904758725e+03
-2.849530470548671019e+03
-7.006131278489654051e+02
-3.264775463395475526e+03
-1.616983124522400658e+03
7.780593084140180338e+01
-1.873403019012974482e+03
2.093927569261511792e+02
4.771826544217631749e+02
1.889289705861437767e+02
-2.111239466735441056e+03
-3.993164382705668345e+02
8.466131734545310792e+02
8.925534353587553369e+02
9.994640736745402592e+02
-9.336094229801367419e+02
-2.534601338056182612e+03
-1.804509123773196052e+03
3.857065593538726489e+02
-6.779188992342654956e+02
-2.102401266922994637e+03
-8.317426466477770646e+02
-1.660966965730478933e+03
7.039288092074481256e+02
-1.364034550875879859e+03
-4.574837993267493403e+03
-5.317412896421483310e+03
-1.662805322212795772e+03
-5.430252549334859395e+02
-2.399090682886155719e+03
-8.029825320749314415e+02
-2.314667668933620917e+03
-1.771139657118588957e+03
-1.864486990010115619e+02
-1.264610127031703314e+03
-8.961753243794993296e+01
8.735428559840513572e+02
9.569256207341682057e+02
6.455345327529292945e+02
6.043995079854427104e+02
7.304659665579213197e+02
1.016718043075598416e+03
1.334177156626771875e+03
1.570782174774647501e+03
1.259541138907416780e+03
1.280564780088476937e+03
1.202839001646200586e+03
9.632939828903894295e+02
7.908743547464840731e+02
1.076641795005938775e+03
1.063744732212139752e+03
1.021173704273975090e+03
1.011955186426005184e+03
1.326783925630838667e+03
1.807909674235694411e+03
1.520351165800324679e+03
1.301174854028987966e+03
1.360389482721521972e+03
1.578969862459262458e+03
1.564822907559985651e+03
7.847573362104793659e+02
2.966581218095794270e+02
8.020974890884145907e+02
1.204584731795401922e+03
1.306110566065166040e+03
1.177917865394027331e+03
8.450357833469007574e+02
8.164222378693223163e+02
7.939823942001584101e+02
1.083469528299781132e+03
1.331119471587865519e+03
1.137756957661935303e+03
1.261132264150490300e+03
1.188647798386674822e+03
1.080466964218127714e+03
1.248724195557948406e+03
1.113864918536576852e+03
1.173381223379705943e+03
1.067996712677218284e+03
9.866237597951342195e+02
1.072289817594663873e+03
1.396994905570395076e+03
1.294741617275652288e+03
1.188423324922911206e+03
1.140026171588221359e+03
1.163312510703654652e+03
9.694613406851850641e+02
9.852830556388339573e+02
9.696500476940725548e+02
1.056553588986900422e+03
1.245959938930992848e+03
1.224848386394093950e+03
9.851926667328142457e+02
1.224980675712505899e+03
1.121184998914615790e+03
8.997962674254076774e+02
9.448163370047515173e+02
9.102642751279289541e+02
7.031748092901005975e+02
4.204748613935302615e+02
3.960859912784420089e+02
7.239889475173146138e+02
9.141901955909831941e+02
8.986958572122572377e+02
1.275509251246062149e+03
1.366597898514258077e+03
1.205977502670119748e+03
1.240607578676638695e+03
1.142487683086526886e+03
1.056610410922211258e+03
1.083965059523173750e+03
1.130605747081735899e+03
4.265248511435291334e+02
-1.397306286847046977e+03
-4.616895540113306197e+03
-6.399265682481471231e+03
-6.588426578753390459e+03
-4.871366681154223443e+03
-3.728069247992308192e+03
-2.676501825742197525e+03
-3.241674185761457011e+03
-5.703630303175046720e+03
-5.689402573941111768e+03
-1.045954641858630794e+03
-1.953329819997281675e+03
-5.350555137715939964e+03
-5.941286340524676234e+03
-6.038674681984163726e+03
-5.804779000801521761e+03
-5.907705473905276449e+03
-4.479249702727030126e+03
-2.130434802622869938e+03
-4.766297144242535069e+03
-6.036913093331068012e+03
-5.868379319118127569e+03
-3.908294774789741041e+03
3.962632538927819041e+02
1.983198412909279341e+03
2.598512934292632508e+03
2.403219717810462498e+03
2.313393797226837705e+03
2.594054853425769124e+03
2.922203441242870213e+03
2.715857574443477006e+03
2.360024356444556361e+03
2.097724256550109658e+03
2.119996947645938235e+03
2.219808871980982531e+03
2.184226649367837126e+03
1.671301015813224922e+03
1.331025243882909081e+03
1.822423991219557820e+03
1.951533025611064431e+03
2.119366345581907808e+03
2.223994642502754687e+03
2.073434002659660564e+03
1.460706001697625425e+03
1.164815026427801968e+03
1.290779859521031995e+03
1.386645005129208357e+03
1.381467359056220857e+03
1.702275118826763446e+03
1.610114557963175002e+03
1.312973883201023000e+03
1.215841781072430649e+03
1.126769060287116417e+03
8.807848097852356659e+02
7.519398896941231669e+02
9.002873752411649093e+02
7.338366185680339413e+02
5.906218103174481939e+02
7.156670996665681059e+02
6.880317629803939781e+02
6.997182878007654381e+02
6.198042625460683439e+02
4.023105982422412694e+02
5.622701122623871015e+02
8.247413407047438341e+02
5.047132955629874118e+02
4.962042422351299251e+02
2.992468763999900148e+02
5.797841279130057757e+01
3.525543469273621326e+02
6.191689146216777999e+02
5.186614107086040804e+02
1.399387534407849785e+02
-3.600619424507463009e+02
-2.484651430829549952e+02
-3.117094545203432077e+01
-9.399502683761631943e+02
-2.952911616162950395e+03
-2.762139937890423425e+03
-9.625542031071423708e+02
-2.220448022437818167e+02
-3.986431486813905849e+02
-4.893334581137472128e+02
-4.871186044849069390e+02
-2.809834730603113826e+02
4.001211154861532577e+02
5.652158005894270900e+02
4.663133430708505216e+02
3.424550049650990218e+02
1.167121569217670753e+02
-1.739073664444286749e+02
-2.654497733378905764e+02
2.380810838675004106e+02
2.647165079391194809e+02
-5.460616265440636496e+00
-4.614853146001984214e+02
-3.304666275164976241e+02
-1.053828644247239339e+02
-2.212124108405809579e+02
-2.449454494813026884e+02
5.936273022820356715e+01
1.237578886443237280e+02
-4.277281193069103438e+01
-1.602492829757656807e+02
1.623728566888507316e+02
2.931106461930833689e+02
1.191102392593045778e+01
-1.642381426840105973e+02
-9.935835303364807203e+01
-2.374471104926993803e+02
-2.534702889762192228e+02
-3.054546071853491185e+02
-4.923824176757215696e+02
-5.352362384842317624e+02
-5.310958942855421583e+02
-4.859438824447720435e+02
-2.698181896968007436e+02
-3.517459271574190893e+02
-4.466723473281856513e+02
-6.755773317329078509e+02
-3.495603073772577432e+02
-1.306538316521266836e+02
-1.628523348606464651e+02
-2.201875214410454760e+02
-5.897275595192950277e+02
-5.614823310473462925e+02
-5.584700801705183721e+02
-5.997432568219446694e+02
-2.162157646868533050e+02
-1.939628591456888387e+02
-3.659918193635824650e+02
-7.813462933845029283e+02
-7.890572036926615738e+02
-1.981588317773783672e+02
-2.346826458442457408e+02
-3.545910833092997905e+02
6.800010411848354863e+01
3.980893487900740979e+02
4.246341175774788894e+02
7.045956749971520594e+02
2.929490457362029474e+02
2.896390390932072023e+02
-1.201307863126471148e+03
-2.529768244795513056e+03
-9.260770621148076316e+02
4.327490959768633161e+02
6.577177983833686312e+02
7.562198261561248955e+02
9.019214937663016372e+02
1.187733334734441769e+03
1.345947730700674128e+03
1.205232187029028410e+03
8.896688239815787256e+02
8.422418967230672706e+02
8.980028202703192619e+02
9.677040647089412460e+02
1.061558451990203594e+03
1.115314941279180402e+03
9.255691830214253741e+02
8.574945593570209894e+02
4.183802335689203460e+02
5.780991041053464414e+02
1.043091134429164867e+03
1.165747398819426962e+03
9.651764097502184541e+02
7.741709219811224330e+02
8.378497112156924231e+02
8.979382491131889310e+02
6.737646478554960368e+02
8.273837111274126528e+02
1.153605834606274357e+03
1.423998373927907323e+03
1.197604917545028002e+03
1.157629603930955454e+03
1.440789441160270371e+03
1.630388045299989699e+03
1.652304699919271116e+03
1.780163506002915028e+03
1.841209281510213941e+03
1.572180663151227691e+03
1.428013602324320345e+03
1.230743368617349915e+03
1.453362710602712013e+03
1.379794162806122358e+03
1.332023552132862051e+03
1.298987226763163335e+03
1.270670471135405933e+03
1.411065652817380169e+03
1.678124621539405325e+03
1.888803724907453216e+03
1.962055517425756307e+03
1.811868001673497020e+03
1.694284330935040998e+03
2.093251507993425093e+03
1.967787300304966038e+03
2.749009154197739804e+02
-1.996346233004821215e+03
-3.525042804810068446e+03
-5.308284361319738309e+03
-5.235096239770362445e+03
-5.114474139531822402e+03
-3.793350447462611555e+03
1.107245166587530548e+03
2.187305715187034366e+03
-5.150118898297941996e+02
-1.476614044649377178e+01
-2.873009047199949691e+03
-5.562680812547173446e+03
-5.278822536515032880e+03
-5.134427210140453099e+03
-5.081481167271624145e+03
-4.881046229292466705e+03
-3.574155154222766669e+03
1.258254759419729453e+03
1.847260491463114931e+03
-2.110098925948024316e+03
-4.201804543813754208e+03
-1.411816269674492332e+03
-3.295170843830407648e+03
-4.440870540361112035e+03
-4.660823655660925397e+03
-5.045993486804439272e+03
-4.954343234470430616e+03
-4.774895240746718628e+03
-4.509639451922836997e+03
-4.108579789537860051e+03
-4.371638225959797637e+03
-4.041790846997427252e+03
-2.657977692776142248e+03
9.278314114198765310e+02
1.907657664300479155e+03
2.578526805419711764e+03
2.636524681085435986e+03
2.451668248468756701e+03
2.660978621198576093e+03
2.900520286980715809e+03
2.746404269195302732e+03
2.574591190273247776e+03
2.459118380652361338e+03
2.446086398434051716e+03
2.383535744772589624e+03
2.519561984026948267e+03
2.359200828466937764e+03
2.359409392858124193e+03
2.324214407354500054e+03
2.244665100933287704e+03
2.310854254856988064e+03
2.376885879104676405e+03
2.109760811400017246e+03
1.997554463787246505e+03
1.664307381136395406e+03
1.580148704913673328e+03
1.210208844263508581e+03
6.194741396009815162e+02
7.069940212442863867e+02
8.858522908599728680e+02
1.144026710874557466e+03
1.458518413414028373e+03
1.482527748296522759e+03
1.323988479795900275e+03
1.246048271920173875e+03
1.193670838050724797e+03
1.325007062304337069e+03
1.546113588342216872e+03
1.192168348812293061e+03
1.058382172466135216e+03
9.335872552055209326e+02
-4.686566719967556196e+02
-2.687866837618059890e+03
-1.700345804796165483e+00
1.098612416481183800e+03
7.659882538206969684e+02
-3.924780278145792067e+02
1.975180539893207765e+02
6.917142370516683059e+02
8.016273895416012465e+02
-1.425742732054853334e+01
-2.692816593299900887e+03
-1.102041791362264803e+03
2.939896576631724088e+02
3.641422336484121161e+02
2.978105072767177930e+01
2.696964202810678835e+00
1.238422864414373379e+02
-1.658501109686277175e+02
-1.604258085270319043e+02
-2.588738186741724689e+02
-1.891148699033900300e+02
-1.131044682260927630e+02
6.919637844578389263e+01
-5.841343040273386578e+02
-6.501535149876580135e+02
-2.838832989998517746e+02
-2.412358549450166265e+02
-2.322082525859193822e+02
-1.408743957691030460e+02
-2.791523859483227739e+02
-1.030190859295403243e+02
-4.346114662280517393e+01
1.154778207303095314e+02
-2.172995746390598448e+00
-1.334351106825610032e+02
-1.203785471319064158e+02
-7.489040284389575675e+01
-1.791057416608280661e+01
3.504544550822481597e+02
3.991674656292264558e+02
2.392138544005061078e+02
-5.643547318485082087e+01
-3.068150417339462024e+02
-5.448713730334641241e+02
-4.276254714940480994e+02
-5.191408671867307021e+02
-5.573399142774634356e+02
-7.622646552798781840e+02
-5.791187327172093546e+02
-6.149330607256981693e+02
-7.906411958422006592e+02
-6.181974915758793259e+02
-2.226326142903502898e+02
-4.799138980679623501e+01
-2.623893668571460012e+02
-5.428034137277454647e+02
-4.182868853980104404e+02
-5.827883301333488362e+02
-7.143244518324323735e+02
-4.270675431431419611e+02
-1.300570216195088733e+02
-2.321706645727184934e+02
-1.935374598387278638e+03
-3.925845793094104010e+03
-2.188715697044075114e+03
-1.791329853603484139e+02
4.200496494240407515e+02
1.479141925405969005e+02
-3.436755788045313693e+02
-2.897649678020920305e+02
-4.758037870419444459e+01
-2.791021319720924794e+02
-5.632890787194718314e+02
-1.049110033407714354e+03
-1.236701433107419234e+03
-1.212176167759634609e+03
-1.389571401909787710e+03
-1.476892079890800687e+03
-1.254145599637206487e+03
-8.263844363907787738e+02
-5.706668243102202496e+02
-2.720854980958131364e+02
9.427871292039436923e+01
4.425693197047164062e+02
1.312808090667295119e+03
2.096825144862469642e+03
2.393501962662317965e+03
2.437765764745167417e+03
2.322601635826864367e+03
2.177010570304290923e+03
2.347873315395168447e+03
2.196112538885488902e+03
2.170731900771342680e+03
2.230672481210775004e+03
2.173915316980974694e+03
1.935483761845818890e+03
2.083384794787777992e+03
1.968479375221387500e+03
1.665792911532885000e+03
1.670377726543707695e+03
1.551095008476252133e+03
1.360868460980516375e+03
1.553676106905361394e+03
1.103528858764145070e+03
9.963947554949686491e+02
9.362624105313329892e+02
7.850748007833577731e+02
1.284751902985421566e+03
2.033249779117613571e+03
1.990590710617823106e+03
1.759758436708771114e+03
1.933768236358298054e+03
1.687598557470759033e+03
1.412250952537991452e+03
1.324685411702363808e+03
1.006850062299912224e+03
1.587183540686013430e+02
6.513312214673752578e+02
9.096062727019026397e+02
8.735683719106904164e+02
8.122762684314265016e+02
6.627118402849723680e+02
7.578316844908554231e+02
7.745678793328560232e+02
1.229980091167185037e+03
9.101255608905363488e+02
1.109948619511745392e+03
1.390430395171612872e+03
1.531553897219146393e+03
1.529343263075787718e+03
1.525855450047728709e+03
1.024016412514237572e+03
-6.709635787174552206e+02
-3.473066006605800794e+03
-6.118575478162900254e+03
-6.914481271460106655e+03
-7.145694344132217338e+03
-7.156165374875327871e+03
-7.411894435093137872e+03
-7.136916698814063238e+03
-6.509158208389620995e+03
-5.677588427175216566e+03
-4.935168261098069706e+03
-5.370877320379670891e+03
-4.514696982858976298e+03
2.354072573287595276e+02
2.112454561546922378e+03
-7.425728506698101228e+02
-3.949615227424445038e+03
-3.436634197271406720e+03
-1.519548631560438707e+03
-4.613356923239525713e+03
-5.885072533852086053e+03
-6.194674082782325058e+03
-6.050084586916873377e+03
-5.922301085478285131e+03
-5.381308078132491573e+03
-4.356055154712646072e+03
-3.793442441409536968e+03
-3.071508017624360946e+03
-2.471265746855805901e+03
-2.699685856025515477e+03
-2.995646170971024731e+03
-3.124094547301124749e+03
-1.859045874346540586e+03
7.305180093292964330e+02
5.716798170891549944e+02
1.495485211416858874e+03
1.926931120717350950e+03
2.095052021476459231e+03
2.435850158148809896e+03
2.722396429295457438e+03
2.632726431182848501e+03
2.922879714443673492e+03
3.000869330352469660e+03
3.389717350725143206e+03
4.135468639659135988e+03
4.097180793469869059e+03
4.066875041354111090e+03
3.509542361880509361e+03
2.654251317692910106e+03
2.453036744808402091e+03
2.188921908379142224e+03
2.019893427369138635e+03
2.086024699936541310e+03
3.287494427662380076e+03
4.122451464097346616e+03
4.251862876301267534e+03
3.307760788172291541e+03
2.232056742348452190e+03
2.189835602077897420e+03
1.959028460667375384e+03
1.329235042242768714e+03
1.817745517445719770e+03
1.704842291809096878e+03
1.888192981497595611e+03
2.966182212306116071e+03
3.408005646977580000e+03
3.714544625237869241e+03
3.887019635561746782e+03
3.347118292660840780e+03
1.985789805669361613e+03
1.336948299984458117e+03
1.433243845202005559e+03
1.382995252476158385e+03
1.678614182861210793e+03
2.146986618506014111e+03
1.832727941311626410e+03
1.384538641710214733e+03
1.458087281518974805e+03
1.934458033876972877e+03
2.512532882079624869e+03
2.528256845953151242e+03
2.466534058960119182e+03
2.221681169665675952e+03
2.134719308137115149e+03
1.854382770034606892e+03
1.917540895414517991e+03
2.007416791876040861e+03
1.627471780236671293e+03
1.175913397937095169e+03
1.253796098370499294e+03
1.152223323848236532e+03
8.942259842159821801e+02
6.818520786757983387e+02
1.131015882993543073e+03
1.049642836303767808e+03
4.727205645339837474e+02
3.632495527047374821e+02
4.291983909669530135e+02
1.162560138112250797e+03
1.731290406409444586e+03
9.914199890869340379e+02
-2.106045091520001478e+01
-8.681816466310468741e+02
-1.399944623301243837e+03
-1.494379088837203199e+03
-1.835561644061932839e+03
-2.165494784518109100e+03
-3.045960990655044498e+03
-2.830011109898675386e+03
-1.530737596449854891e+03
-7.941793625229138343e+02
2.886756985102126123e+02
2.256755639286534006e+03
2.826079440902541592e+03
1.219623697024276680e+03
-9.656507425882815596e+02
-4.576760748860789136e+03
-6.238699953402041501e+03
-7.194534798910158315e+03
-7.117257579374978377e+03
-6.633879401387820508e+03
-5.831398648757114643e+03
-4.958796892411417502e+03
-4.444095795980805633e+03
-4.856328109491347277e+03
-4.680403283256144277e+03
-3.488100413702356946e+03
-3.271864049405063270e+03
-4.283689123032097996e+03
-4.307545107986293260e+03
-6.843080955191978774e+02
1.671878798525894808e+03
-1.208990032752912612e+03
-4.007907073690564175e+03
-5.280853108979602439e+03
-5.739638521710689929e+03
-5.492615612294785933e+03
-3.912810005473178535e+03
9.438756379481621934e+02
3.050432765725784066e+03
3.908873887573603042e+03
3.825162860745942453e+03
3.228295487478751966e+03
2.504262141760308623e+03
1.893114146367294779e+03
1.268801050116584520e+03
8.353127859122078007e+02
1.527650141285491600e+03
1.528858572493857537e+03
9.128765339783627724e+02
6.506949911018841703e+02
3.173232321250449672e+02
-3.142534670032645181e+02
-3.140427921791147128e+02
7.298501830986168670e+01
7.228205888227757896e+02
6.274703079189877144e+02
3.149278452012238176e+02
-1.327645258809369864e+02
-1.221607066210914354e+03
-8.805761773391714087e+02
4.663170970251748031e+02
1.214004553389953344e+03
1.368458322086941507e+03
1.253798560571689450e+03
1.062053158629726795e+03
5.202016377831770342e+02
6.322504624330432534e+02
8.261997351479803910e+02
7.640544943518519858e+02
1.793870158599937668e+03
2.847639321339250273e+03
1.890369732053829694e+03
4.140824723232530573e+02
-8.414886215879774056e+01
2.406382845737075797e+02
4.404133498160467752e+02
9.181194975517162220e+02
4.847199300387091512e+02
6.838828304980376060e+01
-4.567015637182656178e+02
-1.145840930191321121e+02
4.978438801197356156e+02
-8.138499272947225904e+01
-8.102560559364675328e+02
2.182078214667364193e+02
2.255042604517192558e+03
2.630401027795354821e+03
2.450363488186284940e+03
8.227572200538097604e+02
1.167092265474178276e+02
-6.609668872915765405e+02
-7.711737630447647689e+02
1.241026405738162566e+03
3.525474519457079055e+02
-8.156205382116442024e+02
-1.004448805665842201e+03
-2.387243116871707826e+01
1.801538975123345381e+02
1.386193026080346726e+02
-2.524669189405850602e+02
-4.541056793912823650e+02
-2.142671236356804343e+02
-1.729467772769509963e+02
-4.581643059504442022e+02
-1.358860306155604121e+03
-2.318033940666419312e+03
-1.256714812604858480e+03
7.290565086046065062e+02
1.145217304250258394e+03
1.228845352873260254e+03
1.085982297603436109e+03
9.566507673987522367e+02
1.533871426262898922e+03
1.580657011852589903e+03
9.039721922704823101e+02
4.068596421965128798e+02
-5.037372783181949671e+02
-8.537605907930486637e+02
-5.521068516485421469e+02
2.220454881707434880e-01
-7.448474160964730117e+02
-5.512858447026108024e+02
7.479221268530491216e+02
1.012743333178162970e+03
6.732046234889975267e+02
1.923382661935231681e+02
3.190876162027474834e+02
5.044794866896697272e+02
1.062456786372025135e+03
1.598123957405156489e+03
1.187532593560644273e+03
3.366002815975886620e+02
-2.936919138001319425e+02
-3.723112115004261682e+02
1.971661203614897673e+01
2.403974099158285753e+02
7.807095386903467897e+02
7.235892615541724808e+02
5.240838800462888685e+02
6.120717464928468843e+01
1.989985589248442750e+02
-1.306823704520574552e+02
-4.017432950213704430e+02
-9.118192506621328519e+00
-3.083183446093220681e+01
-2.109704284938365220e+02
-6.105515507062298184e+02
-8.495534166285843867e+02
-4.190280424798818899e+02
-1.498418695062524897e+01
2.165539594578473555e+02
-7.442307602272806832e+01
1.738623343260232161e+02
4.364643523270460719e+02
-1.649163662594536106e+01
4.431290846230523357e+02
9.444350021798348962e+02
6.625715186281707929e+02
4.555887119789395570e+02
2.414350654120120794e+02
3.742120538400773739e+02
3.965983203994732662e+02
-1.294914653840408789e+02
-8.343384009026206627e+01
-2.151458407335808261e+02
-3.971951820600169754e+02
-4.125928593736159087e+02
-3.855643674360956652e+02
-1.676324741958050311e+02
7.607584069057926968e+01
-2.831521030756996993e+02
-5.719435967410411195e+02
-6.972312513449910512e+02
-5.931784111374337272e+02
-2.239572316930982936e+02
5.952692420617611191e+01
-1.599627159010807453e+01
1.746765005632326506e+02
-5.542392693132046588e+01
-3.343223007472198560e+02
-4.281079765052388098e+02
7.806784377023927846e+01
9.720147026817245717e+01
-3.186768153378284296e+02
-9.105948724333246673e+02
-9.645338516037206773e+02
-6.174751566177666291e+02
-5.055109578678197408e+02
-6.587383670898153696e+02
-3.291173457969409810e+02
3.892363646638711430e+02
7.031638218116149801e+02
6.857387753659113514e+02
2.537859087033479852e+02
1.052672591960705830e+02
4.072496095367013709e+02
5.536785825567226311e+02
4.394857066310117943e+02
1.166943729155450740e+02
-1.457379200634260030e+02
7.912373852708977040e+01
4.042748782131248504e+02
2.186917871757014780e+02
3.994351381275788526e+02
4.125270414204732106e+02
3.109974217519751960e+02
1.668526982060971591e+02
5.903000481523719145e+01
5.046753174217646176e+01
5.660973848143220266e+02
6.509440091694955299e+02
9.102778229973851865e+01
-3.985684523819744527e+02
-8.837047582630644271e+00
7.821710718826266202e+02
6.594152946868312029e+02
9.970339082494874674e+02
7.099065026250508481e+02
-1.521966904180029360e+03
-3.244539610472962522e+03
-3.503936977585036402e+03
-2.769176284251229845e+03
1.162785179801190452e+03
1.426996820183445379e+03
1.088495744563856078e+03
7.503603188274730655e+02
-1.042015866929422607e+01
-4.939732152938274226e+02
-9.232606748161762198e+02
-2.058282532859956518e+03
-3.601047146827928373e+03
-5.714789472021340089e+02
-1.197562028314993086e+03
6.468570599879680572e+01
-3.227345803064569623e+02
-1.124864789454580659e+03
-3.429746874958311309e+03
-1.554285152278073156e+03
1.511562290628898836e+03
9.077673712498447003e+02
-1.032636173794212937e+03
1.310392251646763498e+03
-2.221511242577421967e+02
-1.372216884677133976e+03
-2.099766579395806275e+03
-2.040865504700574320e+03
-1.725451559600854353e+03
-4.944235474441156697e+01
1.085187234119658342e+03
1.151357059257982655e+03
1.127115109957205959e+03
1.276530440991121168e+03
1.266621789159082255e+03
1.252449352241290399e+03
9.929376910744332463e+02
9.470688467736262055e+02
1.097898471273351333e+03
9.885023686049308935e+02
9.629477494200613137e+02
8.612116815625481649e+02
-1.786712523902276928e+02
-1.782649537202048123e+03
-3.287013485627099385e+02
7.072745523895714541e+02
1.141188224509445490e+03
9.689289121028378986e+02
7.645470264953177093e+02
3.820178591623878788e+02
5.552094296545693624e+02
8.381111068245556908e+02
1.025899120825950604e+03
9.838651172799975484e+02
1.038568943743631053e+03
4.267270616532655367e+02
-7.637727310505125544e+00
-2.809665253994010072e+02
-2.272519040944935682e+02
-3.413756962596274320e+02
-4.081153216360758051e+02
-7.884715403994599683e+02
-1.429429736213726073e+03
-2.618956698589665280e+02
6.330925550976602381e+02
8.515691340250166377e+02
2.676210458807832993e+02
3.690809163526180328e+02
5.137141779407006652e+02
8.727729177155968046e+02
1.293369857644951935e+03
1.138765381074260858e+03
1.254501441782289703e+03
1.130436217693657909e+03
9.967710174944869550e+02
1.118631896937113879e+03
7.908493921637801805e+02
9.853327585968497715e+02
1.018069731849654431e+03
6.190581081284799438e+02
3.613541052566159806e+02
7.499936188378528641e+02
7.889719033111011868e+02
8.003399814238492809e+02
1.058069148721271404e+03
1.093062373712048611e+03
8.463583220632872326e+02
9.760221691659107819e+02
1.001046151832050668e+03
8.014504808603036281e+02
5.412963834286186966e+02
3.614930582477275607e+02
3.340119735343443494e+02
2.598099613201634952e+02
1.699534177639769439e+02
3.075261851912736120e+02
3.604728095626563231e+02
8.498032560480087341e+02
1.285470276961980971e+03
7.773825127616870532e+02
1.551545858500931629e+01
3.709216235121560885e+02
8.547112357408226444e+02
8.148211270922430458e+02
6.782424548488577329e+02
2.829644891546417398e+02
6.400142733250429217e+01
1.832948562212429806e+02
8.273292830666954956e+01
-3.597013700923803867e+02
-3.868291970239647526e+02
2.243819884331689423e+02
5.486677240404087996e+01
-4.444627161402784168e+02
-1.833598025791971395e+03
-4.619593479730371655e+03
-6.422388397536617958e+03
-6.652999278066054103e+03
-7.332421127348427945e+03
-7.345714999079216796e+03
-7.204914224017492415e+03
-6.614952920035017087e+03
-6.399826797791925856e+03
-6.332640103773355804e+03
-6.414553849573422667e+03
-6.523490404501383637e+03
-5.254404227279383122e+03
-1.110133910767970065e+03
4.103081800477044538e+01
1.776326217928003871e+03
2.508746001173822151e+03
2.519140658202945815e+03
2.420574633517147049e+03
1.946098572831448109e+03
1.922615081245057127e+03
1.991005297504060536e+03
1.944312644090274262e+03
2.030526537985020241e+03
1.667643325378801364e+03
1.497677394110112118e+03
1.521598020223537560e+03
1.401387923964392940e+03
1.838063115301897597e+03
2.367687914252880091e+03
2.620269618998551323e+03
2.261618724552720778e+03
1.475601638412329976e+03
1.575300376414602397e+03
1.745775163058803855e+03
1.890008405192246528e+03
2.022990933755800370e+03
2.152645155567363872e+03
2.018023750501562972e+03
1.964171735335249650e+03
1.038074072110548514e+03
6.607553344801031017e+02
1.442199041677456762e+03
2.068337372078364751e+03
2.131156674493996888e+03
2.265771470870241956e+03
2.315012460948476928e+03
2.133809623988774547e+03
2.082259236427749329e+03
2.322410117310520945e+03
2.208238363521857991e+03
1.655717718964421692e+03
3.858421110220307355e+02
2.965576384084025676e+02
8.088572264654410446e+02
1.074802182240212005e+03
1.644411430756660820e+03
2.105722712075766594e+03
2.116675712538682092e+03
2.738242381615714294e+03
2.809438311141297618e+03
1.932213662036280539e+03
1.744613667518774491e+03
1.480725396567221878e+03
1.046558046566402027e+03
1.504209272237630124e+01
9.220398602558823598e+00
8.101038199718936994e+02
1.594654108370664289e+03
1.372861764124277670e+03
1.272734882615043716e+03
1.576355074586494311e+03
1.973763733490869072e+03
1.692841329935565227e+03
1.759560392309256940e+03
2.090960340877929866e+03
-6.468992768415777164e+02
-3.351078160195740111e+03
-4.827567254169543958e+03
-5.216255654331184815e+03
-5.624261491422928884e+03
-5.741615288193256674e+03
-5.550209106459452414e+03
-4.172000205402779102e+03
-5.799223158101006703e+01
1.119779134547016611e+03
1.445347840973203802e+03
-2.714228705117891877e+03
-6.009026883234206252e+03
-3.102966948533293817e+03
1.021033897641120575e+03
2.135950504246397486e+03
-2.208263397327938037e+03
-4.053605046128687718e+03
-4.185035183208775379e+03
-4.130505697070532733e+03
-4.066062517620616745e+03
-2.175667399305543313e+03
9.365382342595886200e+01
-1.123106928975687879e+03
-4.901888449033569486e+03
-5.580692686183100705e+03
-5.144540091808314173e+03
-4.550388641917971654e+03
-4.148230126051503248e+03
-4.697032740662897595e+03
-5.399814678713210924e+03
-5.140551915880570959e+03
-4.812214916947312304e+03
-4.664758698697035470e+03
-4.016212224985899411e+03
-4.066600685092941603e+03
-3.453884093403601128e+03
3.859544904849025215e+02
1.218885643879846384e+03
1.648927485898795567e+03
3.270104677366100987e+03
2.899431150209543830e+03
2.442919053422665456e+03
3.169578149474940801e+03
3.199363873990573211e+03
2.973294901478802785e+03
3.105380322909769347e+03
3.334543583137042788e+03
3.497899880130039946e+03
3.078658197101118731e+03
2.392653438829352581e+03
1.897865218269204888e+03
1.207280424704277948e+03
1.518911134931936658e+03
2.046817045233367026e+03
2.010986123042594272e+03
1.456396977304374104e+03
1.364069906649637687e+03
1.608937498633385303e+03
1.662045144188217137e+03
1.683445466566867481e+03
1.445111043408345950e+03
1.473986342614978639e+03
7.140363335980247257e+02
1.232332860315460039e+03
1.435828113173136671e+03
1.098480964359778454e+03
1.723437611853448061e+03
1.913968591274848450e+03
1.396641113529097765e+03
1.285730768201275396e+03
1.749044965670435658e+03
1.974581791662571277e+03
2.137352054776232308e+03
2.649287228726314424e+03
2.142316265316577301e+03
1.812646290811689369e+03
1.732475382272413299e+03
1.719602696448288043e+03
1.831993360776782083e+03
1.822485443438158427e+03
1.961183747268400339e+03
2.571027497998499257e+03
2.878139973032572470e+03
1.941512015720164527e+03
1.868221172188312039e+03
1.951973731918335488e+03
1.584662479123404182e+03
1.125433760093003229e+03
1.280577019968714922e+03
1.262831762455065245e+03
1.161165356561383305e+03
1.158912237819648681e+03
5.058630580809265211e+02
1.179597864070548496e+02
3.441067586909773581e+02
7.359804098996465882e+02
