-2.102613683541423597e+03
1.254008843727575453e+02
-1.407423541963654088e+03
-1.226007525640885433e+03
-6.423155217241542232e+02
-2.234387275824705284e+03
-3.050247487888412707e+03
-3.633874664947473320e+03
-4.380290411783694253e+03
-4.500475406217191448e+03
-4.700418815618823828e+03
-4.384165052951495454e+03
-4.152668548357871259e+03
-4.040850467418148583e+03
-3.646657655083573900e+03
-2.568032950583015918e+03
1.800388549715330555e+02
-6.624130725113296876e+02
-2.242275690177029901e+03
-2.730527503190157859e+03
-2.704255028040847264e+03
-2.617433907389566230e+03
-8.519439367293871328e+02
3.013216572577293846e+03
3.599096626592696339e+03
3.504688261604504987e+03
2.853010710307230511e+03
2.480064160990054006e+03
1.982871555351458255e+03
1.405454109502507663e+03
1.350752279971333110e+03
1.366722621486721437e+03
1.621405875751037229e+03
2.152922041677900324e+03
2.601292987122966224e+03
3.123614155027242759e+03
3.176934917354680238e+03
2.861245923685070920e+03
2.530561920492968056e+03
2.328890225051990910e+03
2.335255611450128526e+03
2.275681957989594594e+03
2.246206846047692579e+03
2.354832513137263959e+03
3.009582936879177851e+03
3.539400287342175488e+03
3.547522954782625675e+03
2.813052215830588466e+03
1.829201788936337607e+03
1.742972453040954633e+03
1.901340646814306638e+03
1.748183747536578949e+03
1.692574637554307628e+03
1.138560171556501018e+03
1.208103943860677646e+03
1.543339091671018878e+03
6.990726730324553273e+02
2.044899676292923019e+00
-4.557840782067505359e+01
4.825909382239581760e+02
4.395133374737092140e+02
1.170202647089834500e+03
2.084536753650108039e+03
2.551295781439526763e+03
2.946723826290795387e+03
3.197872483252143411e+03
2.828540869882876905e+03
2.184968254289883134e+03
1.029171535102746248e+03
4.110484393576431899e+02
-2.524208839804819320e+02
-5.332608274566206319e+02
-1.904606485123343020e+02
5.509200743417769672e+02
1.036719552750557568e+03
1.486111731417976443e+03
1.571123615775474036e+03
1.318678582710897217e+03
1.616719390073048316e+03
1.749102656644328135e+03
1.733632439535606181e+03
1.949603683516469573e+03
2.477984244770455462e+03
2.428766516008327017e+03
1.884948678737036516e+03
1.668461216081441989e+03
8.392671456709425684e+02
-3.176721888538038456e+02
-1.280410275770425415e+03
-1.742952034639271233e+03
-1.955326996201826432e+03
-1.746555328280070171e+03
-1.439686380915570453e+03
-1.135644661640166078e+03
-9.044063976706585208e+02
-8.919510749539812196e+02
-6.882904300933457762e+02
6.260726693639118423e+01
1.193725793428194265e+03
1.775031630437004651e+03
1.754523401116566220e+03
1.421146916166324218e+03
1.709874771443679265e+03
1.663729475205246899e+03
1.197708153807130657e+03
1.342815544397541544e+03
1.193024240826135610e+03
4.653479741911725682e+02
-6.692796513499617959e+02
-2.189882865483921705e+03
-3.711474499312783792e+03
-6.467135733918477854e+03
-8.561846597941728760e+03
-9.019577533835335998e+03
-8.297324578500492862e+03
-7.421067187245605965e+03
-7.241762395090652717e+03
-6.843389135883179733e+03
-5.936966377117998491e+03
-5.361504587916527271e+03
-4.980034425868386279e+03
-4.520621417059795931e+03
-4.009303477861954889e+03
-4.144073357811891583e+03
-4.346951933359590839e+03
-1.042730580843263851e+03
1.119442525624713653e+03
7.814931000659270239e+02
-1.965436575724412762e+02
-1.123634599835524568e+03
-1.002767438482980879e+03
-4.230219514730173387e+02
4.645807461564307346e+02
1.738059837930799404e+03
2.277407820089130837e+03
2.879676439735636905e+03
3.665918801062601233e+03
3.765091099676474187e+03
3.549208313989305225e+03
3.555244107324529068e+03
3.288112515469555547e+03
3.337867594250332786e+03
3.218567427156048325e+03
2.951262169993780390e+03
2.712976376192119460e+03
2.672752163820282476e+03
2.143582721037802912e+03
1.083461389914924894e+03
-4.565647428585688061e+01
-9.117924012749548410e+02
-1.755038415258785562e+03
-1.942390974439626689e+03
-2.136875752579112032e+03
-1.910449844802020380e+03
-1.060032975499054373e+03
-2.636516944198227748e+02
-1.453239865637703190e+02
2.229405227195160251e+02
1.215214829617847499e+03
2.004544895986046868e+03
2.105978600584141532e+03
2.021548184826836632e+03
1.930234482481054556e+03
1.934125954268469286e+03
1.941204928296252547e+03
1.656437826705450107e+03
1.009868171150694025e+03
8.442051706464017968e+01
-8.389898705256347284e+02
-1.728374670656156468e+03
-1.901703645752465945e+03
-2.220932371093879283e+03
-2.016034865232977381e+03
-1.548930224335715820e+03
-1.556563963613607939e+03
-5.697368974742664705e+02
2.784582475173082230e+02
8.499233401772959269e+02
1.430696287183321374e+03
1.705903059504775683e+03
1.090618885770851193e+03
3.747223268762792259e+02
2.031404339439797582e+02
2.039238686017962152e+02
8.305476414339186420e+01
-1.763959738081613011e+02
-3.427309065298547353e+01
-7.481915724538019674e+01
-3.229298301729634773e+02
-8.796223381961079895e+02
-1.155933669803200473e+03
-1.348925188779069231e+03
-1.710527314162737184e+03
-1.504761428620264951e+03
-9.426117271683664285e+02
-5.570470872322248397e+02
-1.819872821518013950e+02
6.456159114867908499e+01
1.985804898362670485e+02
3.681535939474743486e+02
2.603059036537226802e+02
1.710606374311203126e+02
2.243503459679101013e+02
1.021248302931309468e+03
1.657887486494477116e+03
1.709160902647345210e+03
1.193007420482832913e+03
2.434235949168433990e+02
-5.466692592074929280e+02
-1.087364902243410143e+03
-1.668661944730209825e+03
-1.761575653349689219e+03
-1.336966187824012650e+03
-1.139754141966898487e+03
-8.730264419715493887e+02
-1.628611683132414782e+02
3.497004427159231454e+02
4.177838802234288664e+02
5.964504089314846169e+02
9.895108107728888172e+02
1.233947519087525279e+03
1.249819751191872228e+03
1.466149722518421413e+03
1.238910316021772132e+03
8.910628075715226259e+02
7.396955826934444076e+02
1.498192070617019453e+02
-7.956575848891940268e+02
-1.657900483356790801e+03
-2.089049259856404660e+03
-2.451273229355444073e+03
-2.415574828654464909e+03
-1.409911220289944595e+03
-4.731831040470182757e+02
4.471084528891400112e+01
5.127748363275393331e+02
1.236041890468879046e+03
1.338541773548442052e+03
1.177288079788957930e+03
1.457371515513608301e+03
1.419989418751951689e+03
1.341960160846713507e+03
1.320064491938326000e+03
1.344683108133654287e+03
1.010151964733307295e+03
8.519791172075778150e+02
1.008990821180603007e+03
2.131661363050240823e+02
-7.557387449386903882e+02
-6.549506753986838703e+02
-7.304841359200300985e+02
-1.105447530697379079e+03
-1.232761245353847471e+03
-9.711845546807837763e+02
-3.547301636937324929e+02
2.734336483298571352e+02
1.064223287335112900e+03
1.324535794106142248e+03
1.803366413459382784e+03
1.953093773317375508e+03
2.261588771068144524e+03
2.321947430502910265e+03
2.034832901133747782e+03
1.953890021246716969e+03
1.730456832879954163e+03
1.517801612211514566e+03
1.241715591576619545e+03
2.732631693660528072e+02
-7.387895022266043270e+02
-1.418068653643566222e+03
-1.665348984495936293e+03
-1.242606238557657207e+03
-8.990671092418559738e+02
-9.739634680471573347e+02
-2.609748829900073588e+02
6.600219778715058965e+02
1.438881747762381565e+03
1.684574491124797305e+03
2.289125427058062542e+03
2.338400467524161286e+03
2.604299195507208424e+03
2.686015747692931654e+03
2.774271029693305991e+03
2.754974182358407688e+03
2.718046386765685384e+03
2.665544889619098740e+03
2.432445661455924892e+03
1.613672671002051175e+03
6.922371277873813824e+02
1.240349703753151402e+02
2.400733219467760549e+01
8.915175195652560092e+01
-2.607735914352044215e+00
1.476822282559684538e+02
9.102030318676617071e+02
1.533093692770503594e+03
1.614349735589003558e+03
1.796958984734856585e+03
2.138995718747970386e+03
1.547479656429063652e+03
1.273762797929823591e+02
-2.939395883620557470e+03
-3.704833145886509556e+03
-3.929876038242596678e+03
-3.601513052133866040e+03
-3.925695407064131814e+03
-4.363525108900495070e+03
-4.696005956295602118e+03
-5.261067024709418547e+03
-5.440727531136775724e+03
-5.757954650714669697e+03
-3.969791238242604777e+03
-2.772838425758297944e+02
-4.782876703405402736e+02
-3.723783649518401944e+03
-4.432755309651705829e+03
-3.967159085366465206e+03
-1.516941825162174609e+03
-5.101164622256280268e+02
-2.918563503330798994e+03
-3.096163385192253827e+03
-2.567078673198960587e+03
-2.287282858171552562e+03
-2.179676498703815923e+03
-2.461293844969597103e+03
-2.642061214001419103e+03
-2.928964045261769115e+03
-3.832955537234670828e+03
-4.284010834574804903e+03
-5.152129250318277627e+03
-4.564390286737419956e+03
-1.433799082474691886e+03
5.946441904911184793e+02
1.651986027960890851e+03
2.191370889153952703e+03
2.099788440211063516e+03
5.202917834361333007e+02
2.456916049887736790e+03
3.553673729231564266e+03
3.865548146169063784e+03
4.160599664948796999e+03
4.323862512011207400e+03
4.153324269168555475e+03
3.821021307906743004e+03
3.818093944354799078e+03
3.775541207848441445e+03
3.229394693066992659e+03
2.451681074957679357e+03
1.414388683205346069e+03
9.335124945522048847e+02
6.281398496622498442e+02
5.363453974993519751e+02
2.361995616634843316e+02
5.737271972198284402e+02
1.247020426616925306e+03
1.554154955556404502e+03
1.805286685390123239e+03
2.110554443326151613e+03
2.346085904439713431e+03
2.503901921834538825e+03
2.495126707670610813e+03
2.412813574146846804e+03
2.475973864733423852e+03
2.845734145958765112e+03
2.202170160879504692e+03
1.933426222299483925e+03
1.647594212498142952e+03
5.527354873080087145e+02
-3.420168667316444271e+02
-1.152639243781856749e+03
-1.756968128064512030e+03
-2.062888137314369942e+03
-1.865367476036055905e+03
-1.566248046888394128e+03
-1.265519899925549907e+03
-9.291707293939606416e+02
-4.670165192510712018e+02
-2.541170281388515946e+02
2.161002334225809562e+01
-7.837131905315841323e+02
-1.497999420653778770e+03
8.497970369244741278e+02
1.028534408429420637e+03
3.404271000531998652e+02
5.737160400349343092e+01
4.542396592129239963e+01
1.226152592081503911e+02
-3.930915521852162442e+02
-1.470673614522542948e+03
-2.403156669511650762e+03
-3.373586937095817575e+03
-3.867870032688874744e+03
-3.415934976150952934e+03
-2.874723933995893276e+03
-2.154156965723991107e+03
-1.425223881688598567e+03
-1.254900580241740727e+03
-9.060468130114916221e+02
-5.796659270911763997e+02
-5.627391261187543705e+02
-3.322442984303415869e+02
-4.813759915344596862e+01
3.895408809395719913e+02
6.798568211677616091e+02
4.328911783535671134e+02
3.826788674245581205e+02
5.230711939833508239e+00
-2.124604079033675532e+02
-9.974138940719644779e+02
-1.461620557548266333e+03
-1.108140694225797915e+03
-1.072089730842463950e+03
-1.439507800298051052e+03
-2.487363818928284218e+03
-2.364660695978958756e+03
-1.411461514876923729e+03
-7.957545048104099124e+02
-2.394762917904560595e+02
3.943128111415165904e+01
4.909572512761928920e+02
8.720240138630056208e+02
9.335840553099640147e+02
1.791598093523492480e+03
2.007094235020787437e+03
1.214090177509872092e+03
3.675534172063168512e+02
-5.557580410275730287e+01
-3.823847247128393292e+02
-1.065904388187512268e+03
-1.715271289741779128e+03
-2.338565763523514761e+03
-2.361844813416987108e+03
-2.525310244928175507e+03
-2.170989175504083050e+03
-2.359915102277263941e+03
-7.421004715537618495e+02
1.239434174953703405e+03
2.438708139901389131e+03
2.327662058691704715e+03
2.480198266585640340e+03
2.297206945632939551e+03
8.336551884933761585e+02
9.534731883160815187e+02
1.415567690760503865e+03
1.631906049387152962e+03
1.693413868740350154e+03
1.748031257893115708e+03
1.086623303820819956e+03
1.151124174309755062e+03
3.964777687881644965e+02
-5.424463769837142308e+02
-1.168782372519983937e+03
-1.009698403003211979e+03
-9.963718819839756407e+02
-1.273823970036662104e+03
-5.680297575715414951e+02
-1.799741257798758909e+02
3.131916412640962335e+02
5.084034884604834588e+02
8.295769160466596759e+02
2.052527267957083950e+03
2.475124792714687374e+03
2.468308035191688759e+03
2.778106037941270642e+03
2.807457507812760923e+03
2.097259147285401468e+03
7.363683430090164848e+02
-9.743019282927084532e+02
-5.308877087247651616e+02
9.344767510629857270e+02
1.252701212062341028e+03
6.986819421247688524e+02
-2.047221825658600949e+02
7.593980295808339633e+02
2.905968421266601581e+03
2.808948935162440648e+03
2.337260447006213326e+03
2.987852541213689165e+03
3.571663426498922945e+03
4.080555120003281900e+03
4.215527143087700097e+03
5.376549621029094851e+03
6.877455269784708435e+03
7.641167337558247709e+03
7.162651277586252036e+03
5.753861626777924357e+03
3.632695504254867046e+03
1.051058206293714420e+03
-1.145073711344125741e+03
-2.388845207269601815e+03
-3.449300187692438612e+03
-4.563470372029510145e+03
-4.848504347002461145e+03
-4.400496005167042313e+03
-3.903460557457591676e+03
-1.140372141558907970e+03
3.370719169944029545e+03
5.285794782493549064e+03
5.765820093654218908e+03
3.520775372995134603e+03
9.196142355753213451e+02
4.272687040835526773e+02
1.127684465984635381e+03
3.199848483829584438e+03
3.731826041698997869e+03
2.414669957348483877e+03
5.122607137284453529e+02
-3.693434459188014898e+03
-7.211403580618301930e+03
-6.895660283834894472e+03
-5.701269035983479625e+03
-6.339315020609643398e+03
-8.036780970907750998e+03
-1.010566572546990574e+04
-1.056492141958203320e+04
-9.303480310781329536e+03
-7.306308703626027636e+03
-2.177415644615995461e+03
-2.587740530970545478e+03
-7.300166644721387456e+03
-7.843638166357097361e+03
-4.424144500102399434e+03
-1.896633368429306074e+03
2.812909478225695239e+03
6.736590842894014713e+03
3.209444676506531323e+03
2.487456184356154608e+03
2.917643980891476531e+03
1.730997613031405308e+03
-1.754373552013064455e+02
-1.227551281516770132e+03
-1.473415549784334189e+03
-2.491059385522581579e+03
-3.236410392605816014e+03
-3.259290679226754492e+03
-2.584730364129654845e+03
5.413898509356446311e+02
4.840198171385329260e+03
6.052849883852836683e+03
5.978434316393997506e+03
5.310999791517474478e+03
5.427632708891714174e+03
5.367374971553118485e+03
5.052339475775481333e+03
5.247663057012097852e+03
4.620458312836946789e+03
3.684830807464850750e+03
2.764798737505633198e+03
9.204496002495917537e+02
-2.423150812993177169e+03
-4.401912944682493617e+03
-4.913816876861913443e+03
-5.479790789427293021e+03
-6.111683766147421920e+03
-5.866313511739676869e+03
-5.198630491927002367e+03
-4.649499625181877491e+03
-4.394780986891287284e+03
-3.993971841682075592e+03
-3.154001101162268242e+03
-2.915813613846108638e+03
-2.507319226728722697e+03
-2.704345649242754462e+03
-2.835871921668052437e+03
-2.448817203516837253e+03
-2.302016311466434217e+03
-2.465419032816739218e+03
-2.863960519346924684e+03
-3.927653102706495247e+03
-4.858677099233406807e+03
-6.132630977075041301e+03
-7.218102191989896710e+03
-7.583247006694989977e+03
-8.215266696331827916e+03
-8.620052517188360071e+03
-7.325394477630753499e+03
-4.594848727517487532e+03
-3.824480861712794649e+03
-2.940256151627813779e+03
-1.505064429244922849e+03
-1.077749713276909915e+03
-7.691863186464221371e+02
-2.863918888370273521e+02
2.957278258943142077e+02
1.218342526291545255e+03
2.649524789082974166e+03
3.441441018479708873e+03
3.751745758117229343e+03
3.694399709487859127e+03
3.387668009978282498e+03
4.111379728049694677e+03
4.928569448908850063e+03
6.029295468565826013e+03
7.196728022854772462e+03
8.556696570762167539e+03
9.903280868943109454e+03
1.129863907476422719e+04
1.229579733527317148e+04
1.299779115949851985e+04
1.290170535396353807e+04
1.348055464117209522e+04
1.342234997623943127e+04
1.346611950644322496e+04
1.338492590072815801e+04
1.285681226194269948e+04
1.152982780661628749e+04
1.040096897561608785e+04
9.224211185530790317e+03
7.684508009121079340e+03
5.437909407876578371e+03
3.758359895418420820e+03
2.493799077444259638e+03
1.834228895951314598e+03
1.456665160309403291e+03
1.465081921724169661e+03
1.513512023301256022e+03
2.081975641572267705e+03
2.064504105121816337e+03
1.877088068947064585e+03
2.176672276957888698e+03
1.900194639600596702e+03
1.939664685687568408e+03
1.527017257681578485e+03
4.672406165808587275e+02
-1.974574027088122193e+03
-5.740481959517273026e+03
-7.688527295104368932e+03
-8.077779132824507542e+03
-8.650311959686148839e+03
-8.651201436420542450e+03
-9.110513722822479394e+03
-9.682361760918476648e+03
-8.789835836172525887e+03
-9.507963615196051251e+03
-9.916781073305708560e+03
-9.329347468603491507e+03
-8.835602303774741813e+03
-8.498597509613140573e+03
-6.478598048168502828e+03
-1.962538863379457780e+03
-9.884556298173779396e+02
-5.734221416465782113e+02
-5.195120447084638045e+02
-6.008803524277568613e+02
-3.975347798296751876e+02
-5.804616739075778469e+02
-1.360736103679621692e+03
-2.170417935822235904e+03
-2.535599798634224044e+03
-2.320433222887850661e+03
-2.078112959480604786e+03
-2.530734910181826308e+03
-3.052436745456888275e+03
-2.493261358126319465e+03
-1.930296472944311972e+03
-1.535568019859252217e+03
-1.299062536695466406e+03
-7.239679662555478217e+02
-6.833471905525291277e+02
-5.722656506317259755e+02
-3.068332845688564703e+02
-3.606474884440186912e+01
3.439826269916114825e+02
4.142230887196165554e+02
7.755232741974689361e+02
1.317854029088309971e+03
1.665175609487060001e+03
1.371393402475230459e+03
6.914208496558175057e+02
-2.418485881483946116e+02
-9.774013917615533273e+02
-1.755357661779095906e+03
-2.343850855826331554e+03
-2.587952028012168739e+03
-1.979707167849232064e+03
-1.064162302566915514e+03
-5.593859999391993369e+02
-1.934365451084649408e+02
-2.302771834877290758e+02
6.593829893523262342e+01
6.851472405535831740e+02
1.312351404988570948e+03
1.637499502940180037e+03
2.107510988110860580e+03
2.735292333134961154e+03
2.876857546371281842e+03
3.069190804889489755e+03
2.823223349166491971e+03
1.658747636593869856e+03
7.266988391873076125e+02
-2.030144439361478135e+02
-5.099059632293536879e+02
-5.102283550207862390e+02
-3.493800293763554237e+02
-3.513760041369424698e+02
-2.891037654821428191e+02
-6.136498187770489494e+02
-6.089378765799157236e+02
-7.548174816569194263e+02
-7.574289650395472790e+02
-2.907028400178717220e+02
1.073594292737290345e+02
4.627019274203731811e+02
3.513103901036076877e+02
5.051598982210342115e+02
8.672027768165726229e+02
1.329661414274680965e+03
1.784447615929168705e+03
1.149470447424804661e+03
-8.783148617635113169e+02
-2.570887200378509988e+03
-3.166261681369966936e+03
-2.312609644396297881e+03
-2.420931482359701477e+03
-2.181160171762703612e+03
-1.614253824804505484e+03
-1.270205627414806258e+03
-1.356179055708907299e+03
-1.598151634655808266e+03
-8.579983400185584514e+02
-1.656461247342213881e+02
4.939153532227602454e+02
7.017700048076966368e+02
8.440157081183882610e+02
8.506805771155895854e+02
8.865882190116536776e+02
7.866157723392379921e+02
6.139045469257933973e+02
2.845605977871421146e+02
-2.263650364279783957e+02
-1.134024100094528649e+03
-1.489521521327466417e+03
-1.556728506781710394e+03
-1.252542216119496061e+03
-8.019671716357205469e+02
-8.189770505906260496e+02
-2.095938868255870204e+02
1.050288519743801771e+03
1.484673723455601703e+03
1.394603485836403252e+03
1.197070140989882475e+03
1.139110964554611883e+03
8.679420723143971372e+02
6.972038869715707676e+01
5.648942127566612470e+01
9.927231090179137141e+01
6.130546969772955208e+02
1.405915045674111752e+03
1.147954377124265420e+03
6.690741688937445133e+02
-4.474003732051313875e+01
-2.254480781105888525e+02
-3.827657771278764187e+01
1.985236814023078296e+02
4.881190253990570795e+02
1.142662035426526700e+03
1.846490019335224133e+03
1.740751955666845561e+03
1.327373054861217724e+03
1.313336255574271490e+03
1.377455150300970217e+03
2.047709657703263247e+03
2.489671919872241688e+03
2.578342607432208752e+03
2.610953183770893247e+03
2.769411318127601589e+03
2.552706440800701330e+03
1.561631931304563295e+03
6.805080817514706268e+02
-1.557831010277984660e+02
-1.156183170488615588e+03
-1.317433969250678501e+03
-1.589978770041147527e+03
-2.155704584052335122e+03
-2.606986945256996933e+03
-2.330475789614411497e+03
-1.430708905944822845e+03
-8.180554560695720738e+02
1.574057142098895383e+02
9.146564135770393023e+02
1.885273278877188886e+03
2.662775800348546909e+03
2.916240087419882002e+03
3.178742598221232129e+03
3.427339001271923735e+03
3.673981330994180553e+03
4.361796781530571934e+03
4.351833119614952921e+03
3.495168592067333520e+03
2.594749303121478988e+03
2.597613552182157491e+03
1.654527421482143609e+03
5.625072194661300955e+02
2.023603619385087029e+02
7.039230706436497940e+02
1.516346298097539830e+03
1.954758875371863951e+03
2.529179805976601074e+03
2.594557856311795149e+03
2.803229640797224420e+03
2.948063017051103088e+03
3.085041002489383118e+03
3.657258866440216934e+03
3.746671236954733558e+03
3.963280591749917221e+03
3.636222991728087891e+03
3.405720134231796692e+03
2.804685521281294314e+03
1.669026944694192025e+03
4.137417327521866923e+02
1.188040643276203099e+02
-8.008631592119544393e+02
-2.663285910346745368e+03
-5.849461495800523153e+03
-6.717396539361066971e+03
-6.298065825340104311e+03
-6.019511029831163796e+03
-5.215660995922964503e+03
-3.903483243225759907e+03
-3.649918975039139241e+03
-3.625011238374589084e+03
-3.043773192511482193e+03
-2.687236655550971136e+03
-2.955450626907276273e+03
-2.285369903903333125e+03
-2.498820379153641170e+03
-2.233827338950999092e+03
-1.241404922910089681e+03
-1.333528872215290676e+03
-4.488192855174246688e+03
-5.632421120530101689e+03
-6.526180842288580607e+03
-6.628668924421912379e+03
-6.888111545099612158e+03
-7.144361526191229132e+03
-7.286459907477730667e+03
-6.548398389835349008e+03
-5.410118007904626211e+03
-5.311587716980307960e+03
-5.112786294308787546e+03
-4.323734294463023616e+03
-2.947466958237272138e+03
-3.570402765355840984e+02
-1.395428944506620837e+03
-7.386431719993290699e+02
2.685331180943208892e+03
3.132558043847974659e+03
3.071954631621130375e+03
2.427529617696348851e+03
1.405275504086051342e+03
9.531768610873476746e+02
3.681985208580582594e+02
6.153404486352936829e+02
7.925689839042261156e+02
9.028999446904495016e+02
1.395362349200124527e+03
1.517065573821107591e+03
1.736987113493338711e+03
2.004164940774533761e+03
2.273608797551156385e+03
2.507333622104828919e+03
2.730424961708622504e+03
3.196992306647021451e+03
3.394016992512679735e+03
3.066511541526240308e+03
3.041557885733679541e+03
2.933308000428257401e+03
2.483754104785064101e+03
1.733871822552090407e+03
1.124662105373453187e+03
2.411206872576517242e+02
-2.407445904196657978e+02
-3.819395938195548297e+02
-1.349794439238928057e+01
5.316028878743981068e+02
9.353988881346044764e+02
1.350911363930787729e+03
1.255187561352873445e+03
9.292119927621229181e+02
7.359355647781526386e+02
1.243429399684773443e+03
1.611923646894879994e+03
1.921811998367643582e+03
2.014005423476791066e+03
1.965396779791240306e+03
2.110035756630150900e+03
2.308919527266303703e+03
1.815015638521841083e+03
8.213253293390250747e+02
2.507392332621844275e+02
-3.226931116620264675e+02
-8.939894305840928155e+02
-1.140221116640969740e+03
-1.401464510582910407e+03
-9.105600353946618952e+02
-4.256071317244508236e+02
-3.829782925303478009e+02
-6.151651969198956493e+01
5.987610116255154935e+02
3.618889035474466027e+02
2.908796784994434574e+02
6.316835680740977068e+02
9.702536319423247733e+02
1.360626060764224803e+03
2.014761678930346989e+03
2.917645007268976315e+03
2.686212544005998552e+03
2.586418475688829403e+03
1.868312708424714856e+03
1.003950291713982551e+03
6.822040517369445922e+01
-2.609611958567994634e+02
3.993783026289991085e+02
-4.580213921690667433e+01
-2.295189747007010794e+02
2.927446647185972139e+01
-1.474581971934397586e+02
-4.271805618969390395e+01
5.854785489659248015e+02
8.481464760777411129e+02
4.583036341955293551e+02
-1.491045583104329069e+02
-2.221674682461805901e+02
3.251093001343340916e+02
5.577399276610505012e+02
-1.392328034304736661e+02
-7.707818065068605620e+02
-1.104967399546157139e+03
-1.356823807541034967e+03
-1.874398539605947690e+03
-2.135752548042870330e+03
-2.392958242404354678e+03
-2.502118251073854026e+03
-2.556279836934434570e+03
-1.500388079531326639e+03
-4.794361239384336955e+02
1.905763560602983091e+02
6.636154181602071276e+02
1.015619478201114021e+03
1.365611743245476873e+03
1.202598187299254732e+03
1.378566187546659876e+03
1.935499732416928055e+03
2.186326760360183471e+03
7.140739119201737140e+02
-1.712290212988640405e+03
-5.009890521695304415e+03
-2.155428097580592748e+03
6.609300141892987313e+02
-8.690603209052314071e+01
-1.233988271580406717e+03
-1.987311051139215351e+03
-3.561891227661439189e+03
-4.537698844131481565e+03
-5.002821066829684241e+03
-5.790228035695883591e+03
-5.055878275933836449e+03
-4.076827136854950368e+03
-3.564083799414996975e+03
-2.919667413254982421e+03
-3.211534232641653034e+03
-3.423731477970849483e+03
-1.347323761391386597e+03
-3.173308275610773421e+02
-1.108408739720296978e+02
4.001573602281293915e+02
1.288804688800949634e+03
1.881126633058335528e+03
1.324087563704763170e+03
3.705659983226721579e+02
3.196292427201850046e+02
5.512283415791471270e+02
1.070302925981619410e+03
4.668349868362745951e+02
-8.261470891211233720e+02
-1.293640226484912091e+03
-6.377598505271174645e+02
-1.465251184146034120e+02
5.210748990972886077e+02
1.509096118054512090e+03
2.075559019450505275e+03
2.219451940106985603e+03
1.766791008984886503e+03
1.904566053526573342e+03
2.280785038292919580e+03
2.560485248192448580e+03
2.486646284597507019e+03
2.299312248587234990e+03
1.288432742262058582e+03
5.509425686644181042e+02
4.017692487590938413e+02
2.508842875902454352e+02
-6.676683799878235277e+02
-1.119956036684662422e+03
-7.880361181365655057e+02
5.371589430242878507e+02
1.113697537085919294e+03
4.866296842805077745e+02
9.629826199677447676e+02
2.011803375189717599e+03
2.258131447789128288e+03
2.138954589118723561e+03
1.859280607541184509e+03
2.042038043935599489e+03
2.920170082519291100e+03
2.897780329839692513e+03
3.078888066553194676e+03
3.666519155967340794e+03
3.735645211712627770e+03
2.763261277527067705e+03
1.440350267885691437e+03
1.519263265037754707e+02
-4.850613610507139697e+02
-7.906239030047549932e+02
-8.527092586705138046e+02
-2.832717486996265279e+02
-8.013479733198081476e+02
-3.668828506618557640e+03
-1.708754164281432168e+03
-8.100671141338734742e+02
-2.607077856927763833e+02
-1.723708978154378428e+03
-2.560695642733763862e+02
-5.398289419041775545e+02
1.439140788477460774e+03
3.478874920527676409e+02
-1.541592198358197038e+03
9.767092607186328905e+02
-4.902277893473294625e+02
3.256245318251794174e+02
2.223475900233526374e+02
-7.070867386309788571e+02
-1.121776594517025842e+03
-3.414772828670735180e+03
-2.850042595961387178e+03
-2.795607173847532977e+03
-5.692454997734354038e+03
-1.709542104705286647e+03
-4.258822991073463527e+03
-4.200241108099784469e+03
-2.331790874199552945e+03
-2.880487460861984800e+03
-3.292329015294352303e+03
-2.847407590026004073e+03
-6.106682497783981489e+02
2.210382438879321398e+02
1.739757841218790645e+03
8.134487395612171667e+02
5.991802151554844613e+02
7.169805360162795296e+02
7.568448009454785961e+02
1.356886508823420741e+02
-2.805968500596221702e+02
-1.544036395925196302e+03
-3.338651000290226875e+03
-1.094405153607733610e+03
-6.663336836488292647e+02
3.359220090013416637e+01
1.180379778455347150e+03
1.263020720095057868e+03
1.009573983489356010e+03
1.089042776286944445e+03
1.863483616481789113e+03
2.291871086308768554e+03
2.760207132142522823e+03
3.086603472474638238e+03
2.865122413063851127e+03
2.386603953683400960e+03
2.004012548378953397e+03
1.590427251603048262e+03
7.282609767046719753e+02
2.313481049869141657e+02
-3.593720985463751276e+02
-6.318784450545947493e+02
-2.412954681738762019e+02
4.463612067257917602e+02
7.101515858496253486e+02
1.480171977647477661e+03
1.805397202784044794e+03
1.131872588617038673e+03
5.516279141967274882e+02
1.371539941796022504e+03
1.913759666808743532e+03
1.690204154725011676e+03
1.633782504637411648e+03
2.289276066323308896e+03
2.359873672723043455e+03
3.082677856736466765e+03
3.245718998850275057e+03
2.405837295306463147e+03
1.771047019787865793e+03
7.033732339866681968e+02
3.877542133906069921e+02
-7.988615961599366244e+01
-3.196236840364950353e+02
-7.038252895255394037e+01
1.458006112043522648e+02
4.379029264492771176e+02
8.339448302556917270e+02
1.214895784297364798e+03
1.050673465074918113e+03
5.281830573786755849e+02
3.094879469849183806e+02
-1.003222168361907052e+02
-3.254460578790413479e+02
-2.869224069432307260e+02
-2.327304381904494903e+02
-2.809011726972730685e+02
-1.684502900870647863e+02
-2.844871285396990856e+02
-5.509635510028414274e+02
-8.208804784105793715e+02
-6.623144102417658132e+02
-2.252847149468216799e+02
-3.879279280705863187e+01
1.701414064498642063e+02
2.185350339312697372e+02
6.453955354702326304e+02
1.331734526405598899e+03
1.527556343128250546e+03
1.295904791587551927e+03
1.118845795483845450e+03
1.505370814576323028e+03
1.727427292061042181e+03
1.482043078067513534e+03
1.389173975735967588e+03
1.189796483510235475e+03
1.258959140142664864e+03
1.146646738198021239e+03
1.027812283729464752e+03
4.484393428726705793e+02
-1.674995401496452132e+02
-2.410017122266006595e+02
-4.570996311727628836e+02
-7.947821652462409929e+02
-2.691995144476723908e+03
-5.237687622751541312e+03
-7.429886034288877454e+03
-7.066558955827475984e+03
-6.788698884963324417e+03
-6.642268717720358836e+03
-6.119229781253607143e+03
-4.931613473648919353e+03
-4.462443684993580064e+03
-4.097653954875940144e+03
-3.465179270108850687e+03
-3.680030239170655022e+03
-3.967189459245930266e+03
-4.139629208187912809e+03
-5.347352713469996161e+03
-4.516331579792092271e+03
-2.497615763156456069e+03
-1.394213847663815841e+03
-7.630765142981548479e+02
-5.142189773437401072e+02
1.003596836533273660e+02
1.063785893500909879e+03
2.083106909081093363e+03
2.444331215788238751e+03
2.800467503613528606e+03
2.608543445727755170e+03
2.676577119170825881e+03
2.696539904522299821e+03
2.378511056524844207e+03
2.109476533214251958e+03
2.595502564256064943e+03
3.101666591838759814e+03
2.960052470638894192e+03
2.597648480696221668e+03
1.703402970501093023e+03
1.077416416045583446e+03
6.986971791242319796e+02
3.923265078478827661e+01
-3.319322450509296800e+02
-6.998077162108947959e+02
-4.624133406661458139e+02
1.013360231044261326e+02
7.145407028010372414e+02
8.283009200663138927e+02
1.098637057627074000e+03
1.228527187736699943e+03
1.744040847235310594e+03
2.599296616122276191e+03
3.130295294259270577e+03
3.386014628310143053e+03
3.386517641324019223e+03
3.121859915368770999e+03
3.111034484926560708e+03
2.528089728991678385e+03
1.165034845730884626e+03
5.148564347036833624e+02
-3.135058263400329679e+02
-6.400157775425752789e+02
-7.366681154573901722e+02
-1.262478942201036489e+03
-1.502358708705795607e+03
-1.139248456239275811e+03
-2.060699348961648525e+02
6.290972809021627654e+02
1.060246135936449946e+03
