3.615945343948242225e+03
3.947614499580206029e+03
3.189813739966582489e+03
-9.694687015631678833e+02
-2.142017054486770746e+02
1.455608312547271453e+03
1.987884564172608634e+03
1.778632081781053330e+03
1.243921840295565744e+03
5.366949302373401451e+02
5.669363770107389655e+02
4.546372191429408076e+02
5.938661012566857380e+02
1.765663587964940859e+02
-4.322609973031500203e+02
-5.595771432973748460e+02
1.826062339415492488e+02
1.135278425943716002e+03
1.711462916350988280e+03
1.700173831312767561e+03
1.870360698416870719e+03
1.246905984742714736e+03
1.547267419446026452e+03
4.712638805597146074e+02
-2.080356493022732138e+03
-7.984921847082608792e+02
-9.161304454859530324e+02
-1.160882564308003339e+03
-8.427524927843597879e+02
-1.203219232875449734e+03
-2.439492964451228090e+03
-2.925347797103517678e+03
-7.060473376789769873e+02
2.107559075200624648e+03
2.140927700610001466e+03
1.920511038512688856e+03
1.518220827832296436e+03
1.063567535539155642e+03
1.246994101547658829e+03
1.367707924367053693e+03
1.459874926294707166e+03
2.008114644693729360e+03
2.033641042022723695e+03
1.772430900941710888e+03
1.817173315975403284e+03
1.330233892867108125e+03
1.322904154204578845e+03
2.668164942746979591e+02
-6.554841024888721677e+02
-4.768016796870667804e+02
-8.108822422803199288e+02
-8.201227903389492440e+02
-6.735673069339316044e+02
-6.341160958772157983e+02
1.772237548537709699e+03
2.997389139632427032e+03
2.270642462564786911e+03
1.560902697346160039e+03
1.383041023125751963e+03
1.377011443621590615e+03
2.173073129396653712e+03
3.235929397757821334e+03
3.489504529934320544e+03
2.788764174307853864e+03
2.159691833783822403e+03
1.928413462534897235e+03
1.102875334177038212e+03
5.194423868889013107e+01
-1.594141523412306185e+02
-4.431763272475614031e+02
-9.963415198320948321e+02
-8.969655144345368853e+02
7.298597748073296998e+01
5.936336361402228476e+02
5.748837467530584036e+02
6.456968896237908666e+02
4.000449618611792175e+02
1.464883708817847264e+03
1.825228798193584453e+03
2.146064018299267445e+03
2.369239990303953164e+03
1.909856097223150982e+03
1.358007489503941997e+03
-5.782551028617200473e+02
-4.563039246947368156e+03
-6.452362970757865696e+03
-7.520159520881749813e+03
-8.086534406757557008e+03
-8.197398440512910383e+03
-8.159823032974175476e+03
-7.902912071256878335e+03
-6.964747971047021565e+03
-6.341184156310747312e+03
-6.052000967752587712e+03
-6.616276580234296489e+03
-6.371094574400731290e+03
-6.328548194547105595e+03
-6.374552113033979367e+03
-3.070103288808284560e+03
-6.617895291376690636e+01
9.232980881174991055e+02
9.022748300597681919e+02
3.309691401024403604e+03
3.538577937234178535e+03
1.301030408788829618e+03
1.060117350692668765e+02
1.754490714547620428e+03
9.194215178631815206e+02
5.858644247404680527e+02
6.418493558402992676e+02
3.882926985022951953e+02
1.051561291330732359e+02
1.805019071671569861e+02
1.255396255364470790e+03
2.212893773111745304e+03
2.090948586331646311e+03
2.232700748441665837e+03
2.056186331603370036e+03
1.591386094378188773e+03
1.130192532123101955e+03
1.598606511430075670e+03
2.764687735597452047e+03
2.594400209184281266e+03
2.621826302242064230e+03
2.433017815720122599e+03
1.741968876590170112e+03
7.616446953776123792e+02
7.590516196544990635e+02
6.551472320912820351e+02
-1.600540267639973635e+01
-4.413921981822904286e+02
-4.349710327500513927e+02
7.472937578950561601e+02
1.014441177088663949e+03
8.674289664175787493e+02
1.443665699133138958e+02
-7.626968400685647111e+02
3.752429663223072112e+02
2.036210047676120212e+03
2.444235623318123089e+03
2.152313255242168907e+03
2.232509802289738218e+03
2.014963229360082323e+03
1.454598950709515975e+03
1.376331850020566435e+03
1.644153487328292840e+03
9.470924870093986101e+02
5.481752994344850549e+02
3.413809110312625421e+02
-1.683281631831288223e+02
-7.209534277824643596e+02
-1.255350273815337914e+03
-1.495101525993684845e+03
-1.048834704486017017e+03
5.575825802583808581e+02
4.785866146269477213e+02
-2.767305551794320309e+02
1.878469219241474661e+02
1.788108468399978221e+02
-3.888244123347668619e+02
-5.301128824158502084e+02
6.549597506510505127e+02
1.216424722841507901e+03
4.233796553767322735e+02
-9.868730212826193338e+02
-7.834995929372707906e+02
4.405198290891930810e+02
1.152812329116196906e+03
1.714719710519618445e+02
-8.824546988611047027e+02
-9.610068144596629054e+02
-7.712260719330384973e+02
-5.890838165683012448e+02
-5.105767813656420913e+02
-3.444187182902441009e+02
2.152958858257967165e+02
6.344042803913100670e+02
7.599947754884304914e+02
6.840878698688743498e+02
8.996630175470521635e+02
1.192720930557228485e+03
1.358275948678602163e+03
1.162412711028083777e+03
1.153109648418578217e+03
1.335397359479988609e+03
8.513638414165027370e+02
2.680185802319869026e+02
-1.638301170585615125e+02
-7.162283070119108288e+02
-1.138197030712252399e+03
-1.537778943906935865e+03
-1.889979984298981890e+03
-2.838698946161635831e+03
-3.141923511574095301e+03
-2.580668510066546787e+03
-1.776867939162118773e+03
-1.593563672588939653e+03
-2.256697926493463910e+03
-2.082281341710000106e+03
-1.692299855607506515e+03
-2.568256902546565925e+02
2.189992798512779700e+03
3.518265967031737091e+03
3.034147320191033941e+03
2.242578953111741157e+03
1.872420707503156109e+03
1.487733371849473315e+03
7.445663842912387054e+02
-4.714565435462059639e+01
-8.035206806355704430e+02
-1.686665490998989526e+03
-1.608589667691943077e+03
-6.352463964940943697e+02
3.338885465334244174e+01
-4.016893241807391632e+02
-5.094877601364198085e+02
1.930072299421391619e+02
6.117590291553551651e+02
7.167734146530084445e+02
1.057985953804288101e+03
9.614326858858820515e+02
3.410763604263556203e+02
7.519769994714656605e+02
1.151269181329923413e+03
1.221951591374466716e+03
7.618490673232834069e+02
2.958602793547388501e+02
4.495969260192933348e+01
-2.248901165509938664e+02
-8.118054199522908903e+02
-1.254705753760750213e+03
-8.623989196572593983e+02
-5.969662821654800382e+02
-5.195031808037962264e+02
-1.102091127034100282e+03
-1.374704371082257239e+03
-1.483375160567878766e+03
-1.065963736965357384e+03
-5.564750155538933996e+02
-2.626778964468222739e+02
1.250951018439275515e+02
1.279720284912583793e+03
2.012558367946940962e+03
6.593361216870194994e+02
-6.667226790668654530e+02
-1.230644950070669239e+02
4.825909545027394074e+02
9.801094506996081464e+02
8.394890108250673393e+02
3.725390914644438567e+02
-4.266878132506764132e+02
-1.047142725520444628e+03
-6.519329664626300200e+02
-1.741738309067834791e+02
2.023230662078601085e+02
-1.562426286521200680e+01
-5.286792623229521837e+01
6.155362484850759301e+02
6.685488472212105080e+02
7.572629825508061003e+02
1.233964130173848162e+03
1.846269180379990075e+03
1.952073466230396207e+03
1.887446943774425563e+03
2.335459696896526111e+03
1.860167831843163640e+03
7.835819858566021594e+02
-1.434760938325571260e+02
-3.689177583290365305e+02
-5.976575826410015679e+02
-6.134659929210173459e+02
-7.774585104617797242e+02
-1.014911456483976167e+03
-9.678439250917073196e+02
-6.720159160468982691e+02
-3.056383260332008263e+02
-5.765721246568861034e+02
-3.739822815781621557e+03
-1.314475817718199551e+03
-1.667133866154709096e+02
-2.347080783935858108e+03
-3.403542736754200632e+03
-4.517409630543392268e+03
1.342941863741514226e+02
1.695955851069136088e+03
1.711408730679011114e+03
1.339587403829377763e+03
5.296219393177390202e+02
-3.121525775842099392e+03
-5.236073468388284709e+03
-6.940590033963710539e+02
-1.942341368362827552e+03
-2.404058672430533079e+03
-2.352316725287543022e+02
-5.108236736639622109e+02
-5.158500728721585347e+02
-5.363028629668608573e+02
-1.612257164616957255e+02
1.482358943726072766e+03
1.924546831184370149e+03
-1.901574563587858165e+03
-7.730259282533153282e+02
1.912228713404319478e+03
3.192114625357062778e+03
3.033734708350874371e+03
2.363174248658041961e+03
2.010314947825426543e+03
2.124084872911665116e+03
1.234470146307259938e+03
-1.035430165418001849e+02
-1.093945054599793139e+03
-3.286849472327747662e+03
-7.231745903914677456e+02
3.022599522407444965e+02
4.740908859508851236e+01
-2.037546994181307980e+02
3.978640283687165038e+02
1.100314583174039853e+03
1.216712064388109638e+03
1.144996600468224642e+03
9.270853429621236046e+02
1.234989790270352614e+03
1.469690150801711752e+03
1.604318938881868462e+03
1.351984064137655196e+03
1.007670718029533305e+03
1.139342326716647904e+03
1.549505476279406935e+02
-4.796438724157812317e+02
5.004314478032441684e+02
7.573215217794908085e+02
4.100491378567565448e+02
-3.548731950402461877e+01
5.743442426007726809e+00
4.406498721909723599e+02
6.382397277106410911e+02
6.396089741853299984e+02
6.128166509329158771e+02
5.950502696006943779e+02
1.069262758806813281e+03
1.209481051896273357e+03
9.817809868838004377e+02
1.311271265897986950e+03
1.475273803976015415e+03
1.742758071772960875e+03
1.504800144508319590e+03
4.864341640636174589e+02
-2.171379868831166732e+03
-3.607753856448196984e+03
-2.290520891434237910e+03
-1.507135899502394977e+03
-1.188599483896051197e+03
-1.606885969779936204e+03
-1.270910764784387538e+03
-7.344307478228503214e+02
-2.836955964324270667e+02
2.792177131296052153e+02
3.132465124431091681e+02
1.871960659339765698e+02
-8.100752760755563031e+01
6.378497074316279623e+02
1.429254104926398668e+03
1.758000180851942559e+03
1.546975061059271411e+03
1.632261311846483295e+03
1.966859961932750139e+03
1.418760918589901621e+03
2.008579362877641472e+02
-9.550104285984340322e+02
-1.558881518772971276e+03
-1.399790652438021880e+03
-1.998763439729131051e+03
-1.256744919231190579e+03
-3.966283861932503214e+02
-2.223736605363602052e+02
-3.610158312389577304e+02
-5.185300799911846070e+02
1.610160291062308602e+02
4.234768113168551622e+02
7.838775078779077603e+02
1.246256486549956207e+03
1.473757072115912251e+03
1.514549229065150030e+03
1.292725488948110296e+03
7.381683425056691021e+02
5.319740917865591427e+02
-6.819037430375890274e+00
-4.821754285757336902e+02
-9.722720114440518273e+02
-1.570262005619063302e+03
-2.166052965576650422e+03
-1.991578667913958270e+03
-1.936736567477322069e+03
-1.685585633021741160e+03
-9.993795330020230949e+02
-3.141403814536770938e+02
-7.946872752525135866e+02
-1.179861447474764645e+03
-7.686020422988425480e+02
7.602484573757237740e+01
3.630101551237929698e+02
6.654314142596321062e+02
4.153030717007636099e+02
1.655254176927415131e+02
1.286953200440604633e+03
1.975528307178944033e+03
1.492354255416666774e+03
4.768088492275202270e+02
6.955997605265697814e+01
-3.673417549388438147e+03
-5.639081486889881489e+03
-4.296392527845222503e+03
-1.640220756365135912e+03
-3.670567896269878020e+03
-1.675608904375937982e+03
-5.763040793036626610e+02
-2.935890375537363184e+02
-5.051307860492879342e+01
5.883747808398223356e+01
3.854349334750717730e+02
3.954379917083504665e+02
4.089595094770859873e+02
1.039824253109547044e+03
1.583879929875948164e+03
1.648243249476481424e+03
1.453066436656974020e+03
9.153100509966495792e+02
2.819471367544544478e+02
-1.393045721299546180e+01
-3.863817785151275643e+02
-6.445854355295656433e+02
-3.336263877289985658e+02
-5.254924119766932336e+02
-7.491055322671487602e+02
-1.070372466243320559e+03
-1.551155490751374145e+03
-8.603186094874340597e+02
-3.873871211990618235e+00
5.399779870418913106e+02
5.431434375794625566e+02
7.865918798359507491e+02
1.123375945471936348e+03
1.527585959177941731e+03
1.084301235297899211e+03
9.736169256145127520e+02
1.161498125105839108e+03
8.968682219081911171e+02
3.268076329073516604e+02
3.032755779619659506e+02
-2.357119434161080846e+02
-8.163235289304334401e+02
-5.736209702702326467e+02
-4.145117576251524838e+02
-1.869475476736912185e+02
-9.407914696567893031e+01
5.049681254018338450e+02
6.333316510362200233e+02
1.300830316910488627e+01
-1.281085662165044141e+02
3.738606426216742875e+02
7.950922697204773613e+02
6.056305016108499331e+02
5.143407692900259462e+02
6.412761916936833586e+02
1.025785106558993220e+03
1.441030956730311800e+03
8.696678375140071466e+02
3.187382999670321055e+02
3.079577531358420401e+02
7.249421972718998575e+01
-1.207182382356038346e+02
2.025145555581262613e+01
1.184201537503860777e+02
-2.842005079760334070e+02
-1.638038218754163777e+00
1.190528364922684119e+02
3.038548597366396393e+02
3.068390346335988852e+02
4.609836187562279264e+01
2.255887237090922497e+02
1.050267254697754652e+03
1.669033391124049786e+03
1.864915470322146120e+03
1.847986145869316488e+03
2.136247636311843507e+03
1.077061269730113082e+02
-6.266150261811327482e+02
1.012267293948405722e+03
9.862464571529607156e+02
4.681324232722870420e+02
-2.706391591545738962e+01
4.472257626376980966e+01
-7.453313898123134607e+01
-1.076814812629681455e+03
-5.215212883218272509e+03
-1.866813142685615048e+03
-2.717507901477084033e+03
-1.874195792909844158e+03
7.280586301654961972e+02
-1.991787468641983651e+03
2.252876422813750992e+02
-7.047580996718636470e+02
-1.764073846881412010e+03
-5.017262775355314943e+02
1.904275619278421573e+03
1.800940249283998810e+03
1.650365496821250645e+03
1.425589531248072035e+03
1.199532694140611511e+03
7.141077179704180935e+02
1.142585877937688963e+02
-2.479060374254503131e+03
-3.380238937493612639e+01
2.980008198678905273e+02
4.152840808908693475e+02
7.261323391202422499e+02
7.965443076382695153e+02
4.744802672317205179e+02
3.690246124498015945e+01
-3.832144583968537290e+02
-6.238929443662600534e+02
-5.281982713910522307e+02
-5.690667833779534703e+02
-2.457495637073295711e+03
-3.741540152258072339e+03
-3.829057557584783808e+03
-1.200072283743692196e+03
1.793430870880436316e+02
-1.627887229213965156e+03
-3.142853912265265535e+03
-1.049619476422135904e+03
-1.637219871430905187e+03
-9.356808997954560709e+02
1.279189127792105296e+02
-7.371335832730401307e+02
-3.566188580802648175e+03
-2.254858357168738166e+03
-2.298660209512993788e+03
-2.746029392126984021e+03
-5.153021115839274898e+03
-2.800194640347233417e+03
-1.573471893899722545e+03
-1.757940705806222013e+03
-1.348271433094586200e+03
-7.929838585370949886e+02
7.292351759313925186e+01
2.068879187876998458e+03
3.959415714634342748e+03
4.030252817122448050e+03
3.481331339175153062e+03
3.082408471709463811e+03
2.987765145767852573e+03
2.910479417587988792e+03
2.107014557958670139e+03
1.283628275291470118e+03
1.033266317286933827e+03
1.551166672969465480e+03
2.155727604164540935e+03
2.714335214520008321e+03
2.731562605934440398e+03
2.827921694508899691e+03
3.996271685200109459e+03
4.859622988557016470e+03
4.245016438998253761e+03
3.494266719603187084e+03
2.436112096284993640e+03
1.015008848857086264e+03
4.751367582879089468e+02
4.685153696948096069e+01
-1.554634068509559484e+02
-1.432848510026789199e+03
-3.182349174372217021e+03
-4.044947601236198352e+03
-3.567711116716506240e+03
-8.218897544351220859e+02
9.789956941224673983e+02
7.811501313537099804e+02
4.252578689191929016e+02
-1.526819813819496972e+02
6.331198794071893587e+01
1.259241009089007775e+03
3.253164016334460939e+03
5.050103479006234920e+03
6.153009491108565271e+03
6.135046696938949935e+03
5.308158834260915683e+03
5.998181172177025474e+03
6.599201441575014542e+03
5.897329386177179913e+03
4.956544238792498618e+03
3.899804765575286638e+03
1.916070518369771207e+03
6.633812942715853751e+02
-2.852564693075714786e+02
2.661902393747463407e+02
-1.362862002496477203e+02
-2.398841454539995539e+03
-7.654149173332046303e+03
-1.155208362009310986e+04
-1.154851048221857309e+04
-1.183561133542780044e+04
-1.081744192415024918e+04
-8.962953709462772167e+03
-6.957015130838098230e+03
-5.129478695377374606e+03
-4.754291544544832391e+02
-1.446062222408317893e+03
-3.801298554597668954e+03
-5.675081194968894124e+03
-7.133334113609059386e+03
-5.617113018421518063e+03
-3.053392680687299617e+03
-3.041385030634513669e+02
5.706193603884885306e+02
-2.266057050927965065e+03
-3.996229019035241436e+03
-5.314862465595604590e+03
-3.105614725352294954e+03
-2.693698896004322705e+03
-5.681116552545130389e+02
6.160920172656277600e+02
2.518257963293499415e+03
5.219388743648561103e+03
6.765446500990573441e+03
6.270511468919748950e+03
5.448650629441819547e+03
5.167858535917051995e+03
4.572069567910497426e+03
3.455387297050962843e+03
3.840787625353609656e+03
4.521297835885075074e+03
4.417964486885262886e+03
4.475747280221553410e+03
4.585678859834818468e+03
3.580728917265557811e+03
1.195951617361175749e+03
-1.220556289930454341e+03
-2.621794031481296315e+03
-2.751723288951102859e+03
-2.241251084888911919e+03
-2.433284090113156708e+03
-1.478804677524370618e+03
-5.188110583642619531e+02
1.312767626606846761e+03
1.464965086126859205e+03
8.818372407210159736e+02
6.004245317925331165e+02
6.937258557961894212e+02
1.479744547643600072e+03
1.121488469397302879e+03
-7.620160501086152181e+02
-2.586791327501189244e+03
-3.508797432218225367e+03
-3.251914268957958029e+03
-1.718115079942029752e+03
-1.149435233565753606e+03
-1.135928973283931100e+03
4.164990332178268773e+02
3.025861898914133235e+03
3.735215152448125082e+03
2.654593702220834075e+03
4.779924504754897043e+02
-1.333550491918329726e+03
1.640067837284102552e+03
4.199338270368829171e+02
-1.356994810086073812e+03
-2.269391706790466287e+03
-1.278358546905289359e+03
1.778264765712295343e+02
1.104040170240128418e+03
1.052658993287284147e+03
1.069378210694344034e+03
1.287039669458113394e+03
1.203050509687881913e+03
1.482446111767018465e+03
9.591729626256967549e+02
1.002192656998338066e+03
1.660522941789135530e+03
1.588189085289893228e+03
6.201494779891110056e+02
7.704536051358211353e+02
1.205140221869055722e+03
7.782058564001265495e+02
7.646715460882614934e+02
2.431567392273867881e+03
3.787896016864475769e+03
2.847686218563636885e+03
5.098970039984840810e+02
-1.803564225638802782e+03
-3.708653954085137229e+03
-5.113258178388962733e+03
-5.184384027638876432e+03
-2.955141346517293641e+03
-9.061126836851882160e+01
5.832136788127772888e+02
-3.486148828721302948e+02
-1.841061241614630035e+03
-2.776190575047501170e+03
-3.492039301308571794e+03
-3.546635837018175607e+03
-2.196861776062507943e+03
-1.233710011591659168e+03
-1.086240232071501850e+03
2.355139623824385637e+02
1.349629407239453030e+03
2.226065973776200735e+03
1.510810011844873770e+03
7.868666916385353716e+02
1.787169264870271491e+03
3.335724122503975195e+03
2.174478216875838825e+03
-2.066071407156286455e+02
-8.546537384210641903e+02
-1.816650634189419691e+02
9.514245408262478350e+02
1.589360306990232008e+00
-5.262647677343858277e+02
-1.051204087025801527e+03
-3.362158759341663426e+03
-5.671129355196716460e+03
-4.060164620992210075e+03
2.436919858865315973e+02
6.453977202529831629e+02
1.533992307697469187e+03
-3.964729590900124663e+02
9.069041625497394534e+02
1.673073468067252406e+03
5.630000628501119309e+02
-1.933650452037323362e+02
1.639985211377713483e+02
2.150724723213559173e+02
-6.623042971854855523e+02
-1.577187828908745814e+03
-2.044631995750170745e+03
-1.845617547140330998e+03
-9.300933278487708549e+02
-9.809578663316179359e+01
-6.407295994434276736e+02
-1.429076541885193592e+03
-1.355097312398411304e+03
-9.048794955067735373e+02
-1.335076137339790989e+02
9.312382065845473562e+02
2.305317245574128265e+03
3.716489245821006534e+03
2.949695309358385657e+03
2.198935362480467120e+03
1.597191131094541106e+03
9.193826252828609995e+02
6.595135814530891594e+02
-1.133749623340222286e+02
-1.898982792722941440e+03
-2.524901601854946421e+03
-1.395965821898028935e+03
4.776550531050548898e+02
2.336778690557864138e+03
2.846874927467595626e+03
2.787589951616196231e+03
2.822131212783172941e+03
2.411525980736351812e+03
2.065571534770269409e+03
1.331089330934308236e+03
1.626158597483799213e+03
2.278699294176863987e+03
2.227664849528221566e+03
2.297991625334103901e+03
2.080698490401809977e+03
1.420814051756175331e+03
8.724758066642125414e+02
1.312814764479034864e+02
-6.236807835462001322e+02
-6.894969958908408216e+02
-4.752490472507823256e+02
5.127102878582479484e+00
6.507201265283912335e+02
8.985298558076890458e+02
9.535592679155192855e+02
9.597985990135071006e+02
1.092269293268321690e+03
6.280151562593413246e+02
-6.788702754849136909e+02
6.154898609908029812e+02
2.127977209561463951e+03
3.503314531173826254e+03
4.254534608795897839e+03
4.026870204396898771e+03
3.380384768284152869e+03
2.610771451685151987e+03
1.661111143346131485e+03
-1.224680551406826453e+03
-4.378591381250372251e+03
-7.154470583100581280e+03
-5.786140670695489462e+03
-6.670024984846176039e+02
5.759746133547135969e+02
1.217797892210400732e+03
1.186699606101807603e+03
-1.074652461638629717e+02
-4.471682444841081633e+03
-5.648933651192160141e+03
-6.283675838618503349e+02
2.150037961383220136e+03
-1.607727567847672390e+03
-5.219811489880487898e+03
-5.309212375468046957e+03
-5.539798207497707153e+03
-6.036554350682021322e+03
-4.955475909073895309e+03
-2.022593495231015822e+03
-6.069882516651085098e+03
-6.944246766953249789e+03
-7.063708461557792361e+03
-4.717243084758741134e+03
-1.132889151073422454e+03
-1.646909128307224250e+02
-2.766625017208204554e+03
4.633588400596006522e+02
1.153233739098515798e+03
1.539972710548907344e+03
2.909640928650845126e+03
2.502377021072160915e+03
-3.148700395038446459e+03
-4.617518317273723369e+03
-3.838087029086360872e+03
5.786053660059083086e+02
2.770638707193380469e+03
3.835034049735632379e+03
3.211871405136568228e+03
2.596313018376052696e+03
1.823199102411451577e+03
-2.610675634627047202e+03
-1.917418332986758742e+03
1.733054468143925533e+03
1.535933067022206615e+03
1.812205147468264613e+03
1.811860220772720822e+03
1.675026043403382801e+03
1.798752899405111293e+03
1.980902074299678588e+03
1.872440734853930735e+03
2.624445439730354337e+03
2.797971958168033325e+03
2.361104201803097112e+03
2.293738459416274509e+03
2.956864169509142357e+03
3.110536965955545838e+03
3.023832106736358583e+03
2.650860753208112328e+03
2.375028855325319455e+03
1.697460206708088208e+03
1.033115837322641482e+03
-1.931280659986447574e+02
-3.736926618733031319e+03
-4.122382840821714126e+03
-3.522622125465063164e+03
-4.152695450122718626e+02
5.176290273013300975e+02
7.781774784830117824e+02
9.362631587841294731e+02
1.673707242291715147e+03
2.050529797214029713e+03
1.760851656581252882e+03
1.328378883526155278e+03
1.320473201853095816e+03
1.446940432783354254e+03
1.526039616670235773e+03
1.305951252236100117e+03
1.391602469144349016e+03
1.691796226135175402e+03
1.534327599595290849e+03
1.332274472742207763e+03
-4.470606503676903003e+02
-2.915714373434394929e+03
-2.976918242172095574e+02
-1.722615943227852142e+02
-7.752194745855922520e+02
-3.449611218534373620e+03
-1.977381661098596624e+03
-1.516356773778186096e+02
1.423560460482871406e+02
2.016165047848000995e+02
5.162876746684120235e+02
7.573820676788908486e+02
4.579042115627000840e+02
2.059039126113343912e+02
6.304224897216794261e+02
1.509297745378536547e+03
2.252489167458005340e+03
1.810087225481021278e+03
1.187035831391278407e+03
5.003421766946076445e+02
-4.087732446003930704e+02
-4.411746874455957936e+02
-7.218646949005457145e+02
-1.183992034013613875e+03
-1.085697947891049353e+03
-4.049687680393979008e+02
-2.496995623013537795e+02
-2.199553837398719907e+02
-1.066664665626237110e+02
-1.197096267978637663e+01
3.141490708718340557e+02
5.977311390136304681e+02
3.316972112129082007e+02
4.250265180169631662e+02
1.327324815137892244e+02
-1.008305961027198805e+01
-3.053399586228917997e+02
-3.140775287685522699e+02
-2.793314769788460694e+02
-2.722584473385237516e+02
-2.690003804206425002e+02
-7.774845934639924963e+02
-8.987028742604154559e+02
-1.152784449494813316e+03
-1.683864474201021494e+03
-2.322835955189755623e+03
-1.900593695564502696e+03
-1.383966762699602896e+03
-8.698876224728774105e+02
-1.107033518206951896e+02
4.107986720014784510e+02
1.150620934317863203e+03
1.526740620345010484e+03
1.381057398966766414e+03
1.260503403060994742e+03
1.146961247872994591e+03
9.004137971738965689e+02
-2.545101929810827187e+03
-1.971599983365474372e+03
-8.900954532355964375e+02
-5.796195699580759992e+02
-6.190817868349953415e+02
-9.025757994440571110e+02
-1.061206188766454716e+03
-1.234882424541464388e+03
-7.995142261357079860e+02
-2.552098391515584979e+02
-3.698413857366939794e+01
-5.072443450214100125e+01
3.487306713137289016e+00
2.944898255251039814e+02
8.654196487798382122e+02
1.014405898176867368e+03
4.934795946570890237e+02
-9.932945251030054123e+01
7.329104532604540054e+02
1.555149674799377181e+03
7.533436218185454436e+02
-4.169982047041474971e+01
-4.661509495729154651e+02
-3.208662217755608594e+02
-4.970334066594937639e+01
-2.406233347212806279e+02
-7.155934928626255669e+02
-1.440667488991206028e+03
-1.481874671402403692e+03
-9.833828070762791640e+02
-6.951556717876520679e+02
-1.168105921796480516e+03
-9.294175341873635716e+02
-4.580639286071472611e+02
-4.908583017482004038e+02
-4.227509735234190202e+02
-1.549148873859637945e+02
5.405748333228483489e+02
1.102731090562371264e+03
1.475724762892699346e+03
1.178780215618504371e+03
6.467817919865088925e+02
3.335430591694041027e+02
3.377360329222906330e+02
1.137502096548761443e+02
-7.373217639968396497e+02
-1.103450800227731179e+03
-1.133381902225699605e+03
-1.242078323939436586e+03
-1.249811368478857503e+03
-1.326808457103526280e+03
-1.582699758165558023e+03
-8.753883898571705231e+02
-4.189754290517405479e+02
-4.057561278282280455e+02
-4.537705659121331223e+02
-3.879086948587340657e+02
4.728898745629858240e+02
1.199566196805915069e+03
1.042123424527741008e+03
3.956203246152070392e+02
-6.128886359247335349e+02
-1.315407406364237204e+03
-1.309039623282825687e+03
-8.329313878533272373e+02
-3.480542897591709561e+02
-4.252470207892578742e+02
2.115068080276055866e+02
4.717327494090338291e+01
-5.062977555479354805e+02
-3.849279260665368270e+02
7.742941927895950585e+02
2.146360589172954406e+03
1.939273866919545071e+03
1.564142639555192545e+03
1.220947313593599802e+03
7.197554220505588773e+02
4.316298070548524493e+02
9.513916032975256343e+00
5.143212071800469687e+01
4.014512189341189696e+02
-6.024905059275897656e+02
-1.942473166709834231e+03
-3.332605197255122221e+03
-3.851945163900208627e+03
-3.680455954581771948e+03
-3.343045321479030463e+03
-2.479675848735533236e+03
-1.173340282938838300e+03
2.349791677619644759e+02
1.167365169419509812e+03
1.561746949801696474e+03
1.696053149400567463e+03
1.303407799635205492e+03
1.098851672077297053e+03
1.386382780332156699e+03
1.442072176838977612e+03
1.764925356464594415e+03
1.889885447232167053e+03
9.909709043803284203e+02
-7.368749194318260152e+02
-1.917684842978956567e+03
-2.313448809833360428e+03
-2.774198656850634961e+03
-3.147003142242147533e+03
-3.388797298076593052e+03
-2.748593859945900476e+03
-1.147449764383268302e+03
1.726764895887701527e+02
5.609298421356012341e+02
7.621273597870861067e+02
6.992117393733133213e+02
5.091942324511006746e+02
1.841269085844307938e+02
7.360840337912228506e+02
1.357064312589500105e+03
6.890160388576560990e+02
2.329080478000945789e+02
6.469965442563268425e+02
1.352467438437628289e+03
2.198417837891885938e+03
2.026549665871641082e+03
9.935692517339457481e+02
-7.063624502082586787e+02
-2.116259523031183107e+03
-5.801043982665487420e+02
9.142184092218521982e+02
1.687002660213426452e+03
1.217004301157585132e+03
1.233712370515321481e+03
1.639388226484069264e+03
1.668805367874668036e+03
2.114602710526094143e+03
2.742139021845940078e+03
2.863971337233717804e+03
2.985979579830627245e+03
2.815701468818510421e+03
2.784977814032782589e+03
3.020653909243528688e+03
2.539464619073441554e+03
2.572316636768330227e+03
2.758019881120374521e+03
2.385367697070595113e+03
2.119527652818610477e+03
1.712805382440374842e+03
6.026777220975405953e+02
-1.287945972861146799e+02
-4.965620436708005627e+02
-9.456112683525042257e+02
-5.067153695160575353e+02
1.495453502552551583e+02
-3.095123892366127052e+02
-3.828437388524070002e+02
3.155642195440213982e+02
1.334597311504828440e+03
2.021132440467898505e+03
3.963251565149487305e+03
4.418935376130016266e+03
3.126140959808084517e+03
2.609157977612938339e+03
2.397571174730159328e+03
2.483138099501997658e+03
1.739142429635599456e+03
-2.004850164641595995e+02
-4.057416250012587398e+02
9.813056151343099600e+02
1.701713630101792432e+03
2.054566333520393528e+03
2.826823409466987414e+03
3.062345047479674577e+03
3.079123823459361574e+03
2.819201992951935154e+03
1.937565372638194731e+03
-3.988389580360671971e+02
-3.365962350851504198e+03
-6.551809851563469238e+03
-6.756338977672477085e+03
-5.356514217463942259e+03
-4.584237685196085295e+03
-4.215577098723480958e+03
-1.564294288413552465e+02
6.424404744616048220e+02
-5.160232258325544535e+03
-7.384538707047513526e+03
-7.423660933553554969e+03
-6.655545661343838219e+03
-6.031137148618627180e+03
-6.780390023238002868e+03
-7.018362247806432606e+03
-5.484021176138423471e+03
-3.915319082757190699e+03
-2.752184909486380548e+03
-6.523603244621203885e+03
-7.995583009294600743e+03
-7.554121991000057278e+03
-4.878262595179479831e+03
-2.711957452361806190e+03
-2.123141663777068516e+03
-2.033743890020358549e+03
-2.226816562805314334e+03
-2.631234601602025577e+03
-3.388826309284508625e+03
-4.306984705841808136e+03
-4.302612304420074906e+03
-2.759594428359040649e+03
-6.436890439257517755e+02
1.742787013847308572e+03
2.361802540299339853e+03
2.719506387953936610e+03
2.992959514352205133e+03
2.865168347404807264e+03
3.144155799557696810e+03
3.688996624884255652e+03
4.109753086847314989e+03
3.852398508969207342e+03
3.403897999704598988e+03
3.332237675857385057e+03
2.581541608509712205e+03
1.793833802031645519e+03
2.619224313242376866e+03
3.631778593984412510e+03
4.213425603244328158e+03
3.455219194741082902e+03
1.720222298032161234e+03
5.713646021158380108e+02
-1.839928854561823002e+01
-1.950146716756045180e+02
1.030603580615285409e+03
2.144511213539768505e+03
2.368818225842020183e+03
2.450449027562474839e+03
1.773384024079767187e+03
1.147746809609822321e+03
1.627620869892846486e+03
2.680960431009017611e+03
3.332744033414768182e+03
3.317053593472014200e+03
3.625139567067593816e+03
3.213023563847591959e+03
2.566809906230022989e+03
2.250448181295032100e+03
1.645023204280203572e+03
1.184536451730123417e+03
6.520401481068116709e+02
5.855197263716437561e+01
-1.086956031287439373e+03
-1.616522137962532497e+03
-1.288074650917596045e+03
-9.249418678653759684e+01
2.702061137625159404e+02
-9.200248255266953379e+01
-7.847237355210940279e+01
9.040629294019737472e+02
2.337778246035157281e+03
2.467664327706792847e+03
1.628777938098165578e+03
1.387423124730312566e+03
1.357640148806214256e+03
9.879315844087436744e+02
7.052103799592107407e+02
9.245453592270559966e+02
6.089776983692223666e+02
-3.364893512160032287e+02
-7.948440471444686182e+02
-1.067066370738677506e+03
-1.686252447552055628e+03
-2.130482002329010811e+03
-1.873714006702369034e+03
-2.188897186297735516e+03
-2.654991336440764826e+03
-1.007005288048806960e+03
6.000300890842104309e+02
