-1.167583921413396183e+03
-5.484061319620310542e+02
2.831179792635512626e+02
9.289033276231176615e+02
1.574917110672178069e+03
1.629196405845446634e+03
1.253767083473929233e+03
1.821570568348719917e+03
2.825548727999407674e+03
2.685595498645815951e+03
1.151612520977976828e+03
-3.293794420465092685e+02
-1.585527750864822281e+02
7.334173817353727145e+02
3.027568432747498832e+02
-5.073902101487049094e+02
-9.504117162112685264e+02
-9.617004900731114958e+02
-9.011396065051845881e+02
-9.926002890897324278e+02
-8.492574564417374177e+02
-9.100109137788828662e+01
5.477849943936835189e+02
1.483118365066972956e+03
2.263227334449597947e+03
2.157080409519783643e+03
2.341779839731374977e+03
3.089264247978953335e+03
3.570143714937341883e+03
3.065363817514147286e+03
2.081151677171210849e+03
2.048737075244139760e+03
2.063831396610005868e+03
1.062991824150693674e+03
-1.332685135060265793e+02
-4.211488154027998121e+02
-6.639150277961178972e+02
-1.028673801633957737e+03
-1.094190932707096636e+03
-1.198634675244174787e+03
-9.489846823992161262e+02
9.904304376799546006e+00
8.900239106758999696e+02
1.420113702532974457e+03
1.910076324001797502e+03
2.691013698924286928e+03
3.357095885479387107e+03
3.267185845393953059e+03
3.567204551668126896e+03
3.845288274764558992e+03
3.113449638329831942e+03
2.390450410843086502e+03
1.998237250624674516e+03
1.642776980585631236e+03
1.165049043906986299e+03
3.930563684360483876e+02
9.082043054528135428e+01
-9.360481784439843977e+01
-3.213425565276684779e+02
5.247227348885279241e+01
6.569415472838385313e+02
7.241017872916294209e+02
1.469729155282321358e+02
-9.093578881225997748e+02
-3.475864697731060915e+03
-3.428548474359460215e+03
-2.975380544274833028e+03
-2.202406156291131992e+03
-1.837595182219065691e+03
-2.659942827856578333e+03
-3.451400860536168238e+03
-4.666917201109967209e+03
-5.319464853686436072e+03
-5.952029732807598521e+03
-6.641788580843998716e+03
-6.773921851253832756e+03
-7.198294855205001113e+03
-7.405740857846111794e+03
-4.346388037352674473e+03
-4.821141262140071376e+03
-6.334996086802603713e+03
-5.235885028114585111e+03
-4.184825558157739579e+03
-2.380835151908978332e+03
-4.999009742464668307e+02
-1.402936971142393759e+03
-1.648870725927654348e+03
-1.944683520886783072e+03
-2.722287921100928997e+03
-3.262661344727665437e+03
-3.428823162770300314e+03
-3.835864243240632732e+03
-3.960662283578403276e+03
-7.592162028568061487e+02
-6.455472206098921788e+02
-1.828678526848048705e+03
1.695451319822134110e+03
1.520812901811159918e+03
3.575443306869305502e+02
6.736111853333012505e+02
1.443977863529319620e+03
2.473751723019553992e+03
3.034130127311146225e+03
2.622086945402475067e+03
3.000652839944963944e+03
4.562888441359295030e+03
5.956849373890101560e+03
6.022600407493375315e+03
5.035119722566098062e+03
4.949478535770042981e+03
4.626620470849893536e+03
4.231607566022635183e+03
3.436492064782483794e+03
2.752327340472704236e+03
1.964074057832088783e+03
1.349710966361876217e+03
1.547392034147936556e+03
2.034132728467041034e+03
1.931909724486720961e+03
1.040712718467236073e+03
2.285966246811905762e+02
2.096412338510565405e+02
1.054774825150549759e+03
1.767079839785416198e+03
2.124650651830344032e+03
2.836610929667725941e+03
3.223054882825088043e+03
2.297949866607750209e+03
1.553329960040544620e+03
1.465234968376720872e+03
1.143715232873123341e+03
1.153834867901224925e+03
1.630649688156775937e+03
1.507240101516992354e+03
9.224713076104692391e+02
5.604447777115908593e+02
-5.477033101801800967e+02
-2.224055969275330881e+03
-3.074516795701910269e+03
-3.011999132207443836e+03
-2.178666088082485203e+03
-1.752383349867211336e+03
-1.259021964731316075e+03
-3.956964944168591103e+01
1.300002727120119062e+03
2.284725349432120311e+03
2.261521736234392392e+03
2.678472729952532063e+03
2.888570996892589392e+03
2.688703188784907525e+03
2.063758067573362041e+03
1.460768737966959407e+03
7.677136834166607287e+02
7.161309368496335992e+01
-2.495892470901496552e+02
-6.818807864536729539e+02
-7.162644932666131581e+02
-7.597577920367540401e+02
-2.127361454018674522e+03
-2.814086944312402920e+03
-2.153975886484457078e+03
-1.792014354843312958e+03
-1.937144331347770731e+03
-1.282362130933654953e+03
4.193822246800216362e+02
1.176186225027464843e+03
1.616021598083848403e+03
1.526908984300661359e+03
1.994847018041441743e+03
2.995814562914652015e+03
2.689831113998271576e+03
1.291867675278659817e+03
5.638606766589965673e+02
-7.982724309073554423e+02
-1.724561754062742921e+03
-1.250007230979054611e+03
-1.329638914285141027e+03
-1.767518820860127335e+03
-1.908667628479397081e+03
-1.768053396435088644e+03
-1.965689866648317093e+03
-1.969648957551229387e+03
-1.525876138573928301e+03
-4.323383654774527258e+02
6.099652322177219048e+02
4.179831200990778370e+02
4.828018241172088096e+02
1.098501270923361972e+03
1.591986521925527086e+03
1.234184874387703303e+03
9.090997867217482735e+02
1.545747198810180180e+03
-6.493129748043728000e+01
-3.374008244770707279e+03
-6.925498051013624718e+03
-8.860448223680252340e+03
-8.818955202976645523e+03
-8.759032567298645517e+03
-9.837675494348601205e+03
-6.207967596397425041e+03
-2.765965253325482081e+03
-4.576041850652027279e+02
1.369092448120083873e+03
2.058107300248113916e+03
3.170469465986959676e+03
3.741162261196482177e+03
3.878162386055631487e+03
3.437488695302160977e+03
3.124192822445532784e+03
2.812392011067598105e+03
2.079771620514693495e+03
1.890313114002883594e+03
1.671035761854295515e+03
1.008916293926218373e+03
-7.101226434518633823e+02
-1.519169671129566723e+03
-1.384253339900637684e+03
-5.424069253154309536e+02
-7.666152400659249224e+02
-4.859231074242338764e+02
3.160763000556018554e+01
7.088892894459859235e+02
9.909870851338127977e+02
1.035982231405682569e+03
1.365899265755251918e+03
1.499726822521161694e+03
1.773476980432330038e+03
1.999086604616532213e+03
2.265600445137347378e+03
2.315969015668209522e+03
1.225153931342566239e+03
7.091240627537671344e+02
6.798664366378606019e+02
3.713354264683403585e+02
-5.805200201618882829e+02
-6.727447922179251236e+02
-1.623365569826487160e+02
1.268017718008653105e+01
-7.078370254980889342e+01
-5.547323904255374600e+02
-1.113109844678310310e+03
-8.378551676574128351e+02
1.339948285138722213e+02
1.244361794372755185e+03
1.743263118569912876e+03
1.914724298948973455e+03
1.763741579400582850e+03
1.522376319491691447e+03
1.721604431003173204e+03
1.952438257553965059e+03
1.665916610052932128e+03
8.420395179059345310e+02
4.677187321598207177e+02
1.200943836497447592e+03
8.996894420203663003e+02
4.289464683469038278e+02
5.663146822288531723e+01
-8.561752111885897421e+02
-1.417470894485284362e+03
-1.213270812656888893e+03
-8.996352350422881727e+02
-2.385619378546759322e+02
3.830286437383059024e+02
9.011859965390593743e+02
9.448562274537354142e+02
9.830391549489349927e+02
6.108056878088589201e+02
-2.827154068786778112e+02
-2.873529860288230338e+03
-2.660686435577864813e+03
-1.337264919445131454e+03
1.430777125714995009e+03
1.897475285242508335e+03
-1.187189726057020152e+03
-2.915249295865472504e+03
-2.247694395018376326e+03
-2.838523962457859398e+03
-9.417437775662940567e+02
-2.879363181240079939e+03
-3.836340854108000713e+03
-2.793687618432278214e+03
-3.512389858456022921e+03
-1.048344035028598000e+03
1.374484847174338938e+03
7.405218235725034504e+01
2.423578195277395366e+02
-4.544991667232347936e+02
5.485648698811427266e+02
2.236498762397970495e+03
3.552702699847977215e+02
2.025975498179019269e+03
2.135641696036408121e+03
8.362153236109296586e+02
-2.133281440704559827e+03
-1.773826930733006975e+03
-3.116449904670766045e+03
-4.098084945617993981e+03
-2.530747614469373730e+03
-1.755504309624901680e+03
-3.466362439980886393e+03
-1.781283954099778157e+03
-3.602571811950857636e+02
-9.233219625093726108e+02
-6.644517380971728926e+01
1.784730547984441387e+02
9.514492494069310169e+02
3.178499291077473117e+03
3.133710035057212281e+03
2.960028982110039124e+03
2.690514560398523372e+03
2.355190177892118299e+03
1.465026311305531408e+03
6.230242215585251415e+02
7.751580461788954608e+02
5.533569334305670964e+02
-2.654776267802686220e+02
-8.233664443642019251e+02
-1.274274297665269842e+03
-1.639130492251920714e+03
-1.158891786781100336e+03
-4.075795821206040159e+02
4.900398693281338325e+01
7.828300985142900572e+02
1.192047257005061056e+03
1.344530609876540893e+03
1.418346964066637156e+03
1.693575124384427227e+03
1.621148398552901654e+03
2.021251202500552608e+03
2.458866787838125219e+03
2.382901635009220627e+03
9.043520678835665194e+02
-1.175907970469540714e+03
-4.489172409303400286e+02
-1.219599890678087831e+03
-1.473087489086007281e+03
-9.503320196414892962e+02
-1.184620445110663809e+02
1.985095675960871802e+02
-6.143179070884566073e+01
-7.040281050831596588e+01
5.645721777067169569e+02
1.490788483640007371e+03
1.887200437107461767e+03
2.064899674265180693e+03
2.264113046656358620e+03
2.643820183398730933e+03
2.545863223022789498e+03
2.615138629492851123e+03
2.284434437475091272e+03
2.015508511264214349e+03
1.423483813843926100e+03
7.763253959520666285e+02
-5.020139782148011420e+01
-1.667234492271970794e+02
-7.710452191460375104e+01
-2.047399311264187816e+02
-1.367674620902509162e+02
2.407686807565801814e+02
1.306978674705111700e+02
-9.092303848747545203e+01
-7.211571037782124449e+01
4.320594497307525899e+02
1.449628539517726267e+03
1.826800808820190468e+03
2.164630653091865497e+03
1.895995118063002110e+03
1.955970536150581211e+03
2.251516716265802643e+03
2.779574149640750875e+03
2.028178802554357389e+03
1.103381937956018646e+03
1.773178403984047236e+03
1.962445720931576489e+03
1.045038274704030073e+03
3.589882034740529662e+02
1.264228912813948966e+02
-5.394983215253510433e-01
-5.349207355553513707e+02
-9.676766771349003875e+02
-9.386829705551912184e+02
-3.760773992802411385e+02
3.940179253725511330e+02
1.054866493988004777e+03
1.792554244945994924e+03
1.916803594801604959e+03
2.251527116976107664e+03
1.940728689591288912e+03
3.673829949478039794e+02
-2.253566215206678407e+03
-4.691223540003837115e+03
-4.699612139696672784e+03
-3.649703405511334040e+03
-4.922316596494374608e+03
-6.164372614187727777e+03
-5.982966480703546949e+03
-7.052107466764009587e+03
-7.519766267972048809e+03
-7.037849653984492761e+03
-6.747464724318181652e+03
-6.257686476213462811e+03
-5.850683864263327450e+03
-6.086565363910743145e+03
-4.429226031679828338e+03
7.644084143496363595e+02
2.645563622621657032e+03
2.063216960382136222e+03
2.588325085820828463e+03
2.876925339640010407e+03
3.126100590023611858e+03
2.458984160658520977e+03
1.743544201465550032e+03
1.554763742894429924e+03
1.391651366928730340e+03
1.139146425561194519e+03
8.982807727379897642e+02
4.951208293516842787e+02
-5.505264170973506843e+00
-9.265666003239813335e+02
-1.461000394998828597e+03
-8.548663842406102731e+02
1.177763859719716066e+01
1.411035981267561965e+02
5.612397413782811100e+02
1.076274359053418266e+03
1.408203704358628556e+03
2.215038937550986702e+03
2.708997885086136193e+03
2.904305113333681220e+03
2.465774236280738478e+03
1.857307159505759273e+03
1.373012927426981605e+03
7.648581586283215756e+02
6.082037287196711617e+01
-5.080402818391445408e+02
-5.517629202524577750e+02
-3.043827545283134555e+02
-8.777776586987129122e+02
-1.339768037092463601e+03
-1.268269049024194373e+03
-1.096235005935529898e+03
-1.714764353081763147e+03
-1.647729834534701467e+03
-5.711284527472588479e+02
-8.303373166400130856e+01
1.873549312634627739e+01
4.842535494636643421e+02
1.094426063907260414e+03
1.370199927275912387e+03
1.243928866032576479e+03
1.285846541651867938e+03
1.088061531093926988e+03
3.064962916153291985e+02
-3.510994152878070622e+02
-4.485842740738397083e+02
-8.396274474143201587e+02
-1.507482842117994323e+03
-1.888312417853708439e+03
-1.991286747807052279e+03
-2.209482689806526651e+03
-1.916729216083413121e+03
-1.855987042514542509e+03
-1.103237097289143776e+03
-4.804024297496716258e+02
1.537102580745819864e+02
4.561174097157692131e+02
8.318501084708042299e+02
1.016941459978412922e+03
1.201393924202384596e+03
1.532221271119452467e+03
1.457508762108070641e+03
7.404300650362864644e+02
-1.441324244782273922e+02
-1.064284029980435662e+03
-1.478051007170909315e+03
-1.460384780864164895e+03
-1.536428250107724807e+03
-2.085231676505600717e+03
-2.513693643821847672e+03
-2.619761723649548003e+03
-2.241394274489421605e+03
-1.619589030092836538e+03
-8.302896322858454141e+02
-7.005010696758453150e+02
-9.624392281082478462e+01
4.905279980804900788e+02
1.260831796551491834e+03
1.808805905039240315e+03
1.973546048914421817e+03
1.690987323456619833e+03
1.303014109241338247e+03
8.455202298951302282e+02
6.224203510469246794e+02
3.787604956884205762e+02
-2.754761719100489472e+02
-8.644492575230774492e+02
-1.218160289543517365e+03
-1.454617055070739525e+03
-1.589872327730936604e+03
-1.552995736517674914e+03
-1.278998411412205996e+03
-1.230796557144420831e+03
-7.973328373969092127e+02
3.363466502692398876e+02
8.882844746373892804e+02
1.374359069628948646e+03
1.776407145322049246e+03
2.662404526943997098e+03
2.759385252994796701e+03
2.531317481893995136e+03
2.298007817126445843e+03
1.667522440443127607e+03
5.248239322948785457e+02
4.008146377256126698e+02
4.964560473430380512e+02
8.156854266542480900e+02
2.893352729348204662e+02
-2.466466767555007209e+02
-4.392804527311618585e+02
-6.106345730299267416e+02
-6.347774421465885553e+02
-5.668172399440420151e+01
4.216411885510687512e+02
9.501301340276348810e+02
1.020639856318851457e+03
1.964545505890344430e+03
2.876799030732004212e+03
3.107105042629308628e+03
3.170947278240907508e+03
3.063766755291016125e+03
2.747774015993962621e+03
2.412584040572465256e+03
1.654935436699705178e+03
6.929767125508130903e+02
-3.472094586005515282e+01
-4.907511192315105291e+02
-8.725173227199542225e+02
-1.307941285238431192e+03
-1.493156871024255452e+03
-1.106393791311020095e+03
-7.107271412632774172e+02
-5.582075010790134684e+02
-2.736750717023635389e+02
3.197485032940400060e+02
1.050073744028409010e+03
1.357018980856763164e+03
1.646914849679937788e+03
1.664387732376917938e+03
1.520360165597111745e+03
1.443781953030912973e+03
1.247915823530015132e+03
6.645833852774031811e+02
6.226598694990024114e+02
5.911326798565048648e+02
3.919822934894311857e+02
3.197889316574289609e+01
-2.469751148982325617e+02
-5.159254692811681480e+02
-1.117763423279247263e+03
-1.518562823823580629e+03
-1.541562417796039199e+03
-1.036859981135846738e+03
-2.632471644703152833e+02
6.289692724715152963e+02
6.498872494461894576e+02
1.616510636251075994e+03
3.033813788154264330e+03
4.079716080015515217e+03
4.856228061953728684e+03
5.806413867103919983e+03
6.017153469674655753e+03
4.688439305054425859e+03
3.330269440849505372e+03
2.457531520584956070e+03
1.808148758738717788e+03
7.411432264037202913e+02
-1.807520413800516280e+03
-4.530933054330874256e+03
-5.916070292778151270e+03
-5.006918415455278591e+03
-5.133419131704555184e+03
-4.615514748555408005e+03
-4.207160956713890300e+03
-4.852403062234016943e+03
-3.717228489562939558e+03
-2.053643148957124140e+03
-1.345787637552232354e+03
-6.237028674099242380e+02
-8.911411990844760567e+02
-2.083796638615416668e+03
-2.203988871386951814e+03
5.536045904330773482e+01
2.091938456320167177e+02
-2.814516528258598100e+03
-3.822807537822041468e+03
-4.910648898889900920e+03
-6.596009758501460965e+03
-8.363809751854867500e+03
-9.228037971523979650e+03
-1.032373141579766161e+04
-1.040377022714216037e+04
-7.719058376957036671e+03
-4.265560122270389911e+03
-1.556205088962911077e+03
3.310635380763660010e+02
1.703205072613359050e+02
9.526603163289826171e+02
1.012225021601289541e+03
-8.177615902816698963e+02
-6.403575025914051366e+02
1.617374221015083776e+03
5.504393565344304079e+03
6.590793594478695923e+03
6.963687183421850023e+03
7.673054515570448530e+03
6.066896317134845958e+03
3.993389574274420738e+03
2.130678602152329859e+03
6.997827578806598012e+02
-3.162615618741878052e+02
3.375704954286132420e+02
8.263173567212371609e+02
7.050634476928321419e+02
1.529002305663383822e+03
2.004206300385950271e+03
1.288732715334418799e+03
9.756211889793044065e+02
1.165084084651928151e+03
1.506277330318218219e+03
1.191172049532509163e+03
-7.701069077773712479e+02
-3.327429926043088471e+03
-5.717724580783691636e+03
-7.153991730073016697e+03
-8.477254667915958635e+03
-8.356359728787865606e+03
-6.209208378577644908e+03
-5.632729267424341742e+03
-6.061888324092493349e+03
-2.876616874949218527e+03
1.020227695353660351e+03
2.028663720480869188e+03
2.770780935477823732e+03
3.555634148340012416e+03
4.627427494636201118e+03
5.889276912746456219e+03
5.425298011624582614e+03
3.899925822375347252e+03
2.488120154216029732e+03
2.263841860139966229e+03
2.080372965625302641e+03
1.011829895779516733e+03
4.118575708553336767e+02
1.071657996514970819e+03
3.008330897651348096e+03
4.131849530358826087e+03
5.542242441676158705e+03
5.349585054338052942e+03
3.349932882388055532e+03
1.157435058575514176e+03
-1.939021958420989620e+02
1.058523766677864614e+03
1.690000652075943208e+03
1.050788579455669833e+03
3.886629576296491564e+02
2.175116438081052195e+02
1.512706297414375058e+03
2.765319090871526441e+03
3.662272966545771396e+03
5.101596518521319922e+03
5.809314018306270555e+03
5.207478819397440020e+03
5.614151367400477284e+03
4.872338472917743275e+03
3.878906167206425835e+03
2.640842414158668817e+03
7.931766686986958348e+02
-1.289120484325922007e+03
-2.593077060219238319e+03
-3.027602668092160911e+03
-3.312662612908678511e+03
-3.525203227241513559e+03
-3.299143338170384141e+03
-1.688469584917420207e+03
1.717814524675871326e+03
3.365680745391230630e+03
2.542124314607399810e+03
2.766072572912152282e+03
3.637541390980462438e+03
3.387579626478346199e+03
2.978212737505306904e+03
1.626399417479270141e+03
-8.429416318853910752e+02
-3.185888456742730341e+03
-3.941379074693377788e+03
-3.649478713788278128e+03
-2.174262661441446198e+03
-2.008752776858946390e+03
-1.770918718821163793e+03
-1.710824088701409664e+03
-2.556561811284246232e+03
-1.526135789772922408e+03
-6.154669356407536043e+02
-1.458567635166190030e+03
-2.757487787241516344e+03
-2.520319338528174285e+03
-2.009117774210202924e+03
-1.576041380134156952e+03
-1.612873152033614360e+03
-3.837573606794795069e+03
-5.067305607129558666e+03
-3.689108784804742754e+03
-2.690573911661762168e+02
2.237749524514734276e+03
2.135212619098989308e+03
5.122394187477433434e+02
-4.382014001397262177e+02
-7.791927931314259013e+02
-1.755788763748971860e+03
-2.728073671989773629e+03
-2.284102297710551738e+03
-1.850930637088070853e+03
-1.318587605634675128e+03
-1.154138041832588215e+03
-7.705805120028501278e+02
-4.929852358685180320e+02
1.816096344053611347e+02
1.780168024018510096e+03
2.553683877454442609e+03
2.788138430096427783e+03
3.492500805041980129e+03
3.841670228058334033e+03
2.635568491142227685e+03
5.871106665184616986e+02
-3.377681123764988342e+02
-1.190153893619826022e+03
-2.009097787437708348e+03
-2.743695999847044277e+03
-3.091057536910594081e+03
-3.444303104118236661e+03
-4.219398320813176724e+03
-4.435416347949956617e+03
-4.654417698368517449e+03
-4.325457153464399198e+03
-1.984580658984448519e+03
7.102268611581614550e+02
2.312978042489283325e+03
2.112652914724067614e+03
1.666190000417532247e+03
2.798527000779893115e+03
4.049627157627777251e+03
3.369479105982443343e+03
2.271044672316513697e+03
8.572760905282070780e+02
-4.549066707896844832e+02
-1.796574895142800870e+03
-2.817777640708010495e+03
-2.940632889690927186e+03
-2.079172966142281439e+03
-1.530384660222229513e+03
1.615924472433402741e+02
1.615759299566348091e+03
1.775091934420948519e+03
1.624607787602400094e+03
1.773264281458612913e+03
2.489062918877367338e+03
2.574038889817966265e+03
3.246219944079746710e+03
3.988596169651948458e+03
4.256186810395776774e+03
4.001913049619581216e+03
3.729790278528036652e+03
2.546722833480688678e+03
1.267719552754062988e+03
6.887261583476587248e+02
-9.027433714030065914e+01
-1.221279771075913231e+03
-1.906302795170021227e+03
-2.109392978284017317e+03
-2.941551770063564618e+03
-6.104869136186588548e+03
-6.287253626385378993e+03
-3.470743207986613015e+03
-1.731315774389401440e+03
-3.887907360094728574e+03
-1.402541071451448715e+03
1.410817248641620381e+03
1.190243140095228682e+03
6.327774906964376669e+02
1.675406939539621362e+03
7.591498056537988077e+02
2.169036892443170473e+03
-2.639512877598781984e+02
1.055166101496247393e+03
-1.746124818019592624e+02
-2.452892740024247473e+02
2.300846761451143436e+02
-3.058455105790009839e+03
-2.519914201284717819e+03
-3.765326018741566259e+03
-2.305636835616364351e+03
-2.462823022744073114e+03
-1.010776211875266199e+03
3.104239105243181029e+02
2.518029264126810460e+02
-1.496562520392903480e+03
-1.594603821418554844e+03
-6.129444834048950952e+01
-1.158597973850436347e+03
-1.865550279388306990e+03
7.858570404255150379e+02
1.107670829431233187e+03
-2.125084096412899271e+03
-2.342425148963357060e+03
-1.083271951152051713e+02
2.742344378507463603e+02
-3.857736409139151874e+02
-2.570339268186802201e+03
-9.454754588679198832e+02
-6.432269273033095942e+02
-5.235700885965223961e+02
3.857839709066394818e+01
7.211694962128600537e+02
7.332018764880809840e+02
5.377312346045904405e+02
1.459774676879319713e+03
2.340363790281203819e+03
3.328611770211993644e+03
4.113644957638440246e+03
3.912540108792000410e+03
2.800276930288988297e+03
1.931842927315410634e+03
1.508201022896726045e+03
3.074675005624476967e+02
-9.032357963292862451e+02
-1.677794748013271828e+03
-1.970336356627432679e+03
-1.693798208919115268e+03
-7.532053610269722412e+02
3.749715386523472915e+01
8.053895624026008591e+02
2.204294727036643962e+03
1.976148343427484406e+03
3.540980573784432295e+02
-1.708793658043301775e+02
2.192233470834317359e+03
3.306557922394518755e+03
3.905171430430083092e+03
3.962827629187087041e+03
4.218432265787396318e+03
4.188502297613073097e+03
3.758922385146254328e+03
2.536702791921197331e+03
1.876854589693229855e+03
1.470324468880431596e+03
3.769712058436061852e+02
-3.171697835367886000e+02
-6.411204174139966199e+02
-1.166106608905999110e+03
-1.262257260102688178e+03
-1.837542808835947199e+03
-2.108930445911041261e+03
-2.410167441499661436e+03
-1.590444184537168439e+03
1.405097111064106230e+03
3.314838091104793421e+03
3.549821583971703603e+03
3.031030291510222014e+03
3.034890860690403770e+03
3.502191332684743884e+03
3.061309509234522920e+03
1.923356553135664626e+03
1.513333650090289666e+03
1.889254714886468264e+03
1.849089637123438024e+03
1.894764545149852438e+03
2.046241871554223735e+03
1.165394035175787394e+03
1.841651473028630051e+02
-8.441357317959352713e+01
-1.974426919414307520e+02
-3.639130318507595234e+02
-8.067275047096459275e+02
-9.649051264243524884e+02
-5.374491416568977229e+02
1.726351356400749921e+02
1.308360164832528426e+03
2.111905823115871954e+03
3.054399589945111984e+03
3.463830724674352950e+03
2.534149725417255468e+03
1.840350701929072102e+03
1.177310491468172359e+03
6.538181774889629878e+02
-5.080118827332568365e+00
-5.933280682258939578e+02
-3.462930452062417430e+02
-6.391779987856696152e+02
-1.452783086543897753e+03
-2.573074502745697828e+03
-2.930016081694131117e+03
-4.588584624990189695e+03
-8.040928058815035911e+03
-7.794880470895808685e+03
-6.744269695319029779e+03
-5.645058221255701937e+03
-3.782408397807203528e+03
-9.693068772810718201e+02
-2.028554845600444878e+03
-2.915125395367404508e+03
-3.032181706441713686e+03
-3.354787970898546519e+03
-4.303917807783764147e+03
-4.905692055841794172e+03
-5.637161632452720369e+03
-5.884056772245695356e+03
-4.475122825586098770e+03
-4.144530915291083147e+03
-2.924613085159438015e+03
-8.322905127426703302e+02
-8.344467818968615802e+02
-3.291930805171286011e+03
-1.580763311383611835e+03
1.297516987802804600e+01
1.422684438578086770e+02
7.029642861340712443e+02
1.308048677207138553e+03
2.299724944522380156e+03
4.049145111530321628e+03
5.817315732379863221e+03
5.606304657909492562e+03
4.205062489353040291e+03
2.819705193766259981e+03
1.709327931144609011e+03
1.968776202930156103e+02
-1.292647870667884035e+03
-2.442251525261427105e+03
-3.013011255227449965e+03
-2.728883222923259837e+03
-1.498848867949631767e+03
-1.309986813745302072e+02
1.012464771597324557e+03
1.723685453119458543e+03
1.316950710320517601e+03
1.130310041684050702e+03
1.468707376334988567e+03
2.183238948897806949e+03
2.712877955957424092e+03
2.997769942881536281e+03
2.899167604761973053e+03
3.042092924917962137e+03
2.612455408846448336e+03
1.899185731421068795e+03
1.227156435865571893e+03
2.714037872598320291e+02
-7.400159573870240592e+02
-1.610004087805877361e+03
-2.742497032092296195e+03
-2.890647776030565183e+03
-2.228332881846903547e+03
-1.214373205895993351e+03
-9.208037485357937157e+02
-1.195679349794631662e+03
-3.098017471275546995e+03
-2.031690798416176449e+03
-2.175797828605547863e+02
3.555660466172838596e+02
1.772706214144965998e+03
2.862657492480650490e+03
3.117263810449799166e+03
2.950752148117717752e+03
2.427379429873601111e+03
1.926029813541530757e+03
1.477551368388943047e+03
7.180844052105594528e+02
2.395776181928817152e+02
-2.970074633992095983e+02
-7.857484377987270818e+02
-1.257671356523279883e+03
-1.814750395221163444e+03
-1.824867955235623867e+03
-1.992981586336214832e+03
-1.700133776013120496e+03
-1.449408911805451453e+03
-1.237906280417105563e+03
-8.345947496393766869e+02
-2.294716579965345602e+02
3.095741264577342235e+02
1.159742612869959203e+03
1.766184143498716139e+03
1.829837110043250050e+03
1.499612608035108451e+03
1.468546717642644808e+03
1.461627732868658768e+03
1.117789355027710826e+03
1.180225443490163428e+02
-4.896440674297962232e+02
-9.202247899621884244e+02
-1.449812657058535478e+03
-1.788356559998916282e+03
-2.242941477421971285e+03
-2.243775975967176691e+03
-1.904909677769841437e+03
-1.306324260281041916e+03
-9.769167490446221791e+02
-6.445985351856352281e+02
-2.024083842313346224e+02
2.335729164755896079e+02
7.514368659637264045e+02
1.467234104865779955e+03
1.871021772637033109e+03
1.998861410446521859e+03
2.202683297256833612e+03
1.601361435598489379e+03
6.607624981852507062e+02
6.527933125128183747e+02
9.841526931286429658e+01
-5.785365149452289870e+02
-1.321087012603902167e+03
-1.610156577741500996e+03
-1.509751097843289244e+03
-1.788892289578695227e+03
-1.723646509572734203e+03
-1.019990907168026297e+03
-5.690086111328421339e+02
-2.987575765775714558e+02
1.128150365937397339e+02
1.358697811715979697e+03
2.105897859495967168e+03
2.408465144752213291e+03
2.012351128585042943e+03
1.695458893908622713e+03
1.428756772937760161e+03
1.157234901595217934e+03
9.478715953367975544e+02
7.745011010901215514e+02
-5.259529989099837621e+02
-1.287080874975279585e+03
-1.694197589033457916e+03
-1.692654631203311737e+03
-1.420416780779215969e+03
-1.639150387495683390e+03
-1.726273957783933156e+03
-1.145761185114690761e+03
-3.273369833044691291e+01
4.349205509664856208e+02
6.811238398876089377e+02
1.329788275284761085e+03
1.875067171327932783e+03
2.110941413795876088e+03
2.052351110423320733e+03
1.970187798863544003e+03
1.618410983247816148e+03
1.621965789536609691e+03
1.138946048191431828e+03
7.301582325267673035e+00
-4.280809455918755475e+02
-5.496051590903715578e+02
2.920556255122018570e+02
-3.423239268652122469e+00
-5.711901861486946927e+02
-6.859614117262448190e+02
-8.456553405521901823e+01
6.038281530312663108e+02
1.168860172155544433e+03
1.600014525933686627e+03
1.985981882890503357e+03
2.654773354514996299e+03
3.328242642605286619e+03
3.654972784569913529e+03
4.095385163439779262e+03
4.237411178139016556e+03
3.729292020429687909e+03
3.339831169553647669e+03
3.039982270696875275e+03
2.203711393807304376e+03
1.554937330774216889e+03
7.707101377686100250e+02
-5.399119933195564158e+01
-5.933239352052346476e+02
-8.622638134358151092e+02
-1.338710599958169041e+03
-1.381736929728255063e+03
-7.904217067610045433e+02
-4.377692943169722071e+02
3.882252618596277784e+02
1.079613994804839876e+03
1.537434591780703386e+03
5.737255465804896630e+02
-1.476493498590737545e+03
-3.595184898025172515e+03
-3.980277913475994410e+03
-4.004810212974948627e+03
-4.388865937735706211e+03
-4.653452370694289129e+03
-4.355582210713538188e+03
-4.202215644134126705e+03
-4.660467616920471301e+03
-5.333459305141044752e+03
-4.923150293718192188e+03
-4.650312641926200740e+03
-5.250712529351676494e+03
-5.656658897986269949e+03
-4.115134072972790818e+03
-2.777074220760986464e+03
-4.569478215620208175e+03
-3.421399443044205782e+03
-1.963791882457373276e+03
-3.225363592478184955e+02
9.065594619954360951e+02
1.169582346897372872e+03
1.584972828433220684e+02
-1.087668353432784443e+03
-1.922933796726689252e+03
-2.650277865915419625e+03
-3.574639292984767508e+03
-4.170044826153072790e+03
-4.634444637645949115e+03
-3.524842039908509378e+03
-3.639223001425142229e+03
-6.521614045073201851e+03
-7.001164301985966631e+03
-4.842822081075758433e+03
6.005742664728655882e+02
2.159201071256887644e+03
-1.287959517091891939e+03
-6.799221500782130079e+02
2.422474041968748224e+03
3.813382938189146444e+03
4.892793875832316189e+03
5.683706376348416597e+03
5.826150922896739758e+03
5.786138508864507457e+03
5.946689788210554070e+03
5.544958973087212144e+03
5.063982564394584188e+03
4.363758882398068636e+03
3.592270107298073071e+03
2.815592750382704253e+03
2.022773375281816925e+03
1.690792661393977824e+03
1.618724497494636353e+03
1.135650608116505964e+03
1.104585925104269108e+03
1.767541544139123062e+03
2.123510367307809702e+03
2.602533891752695126e+03
3.096868521632931788e+03
3.654600342965985419e+03
4.192737137038586297e+03
4.425299109436182334e+03
4.659329633442391241e+03
4.327877730041787800e+03
2.974955691880537870e+03
1.731568041587989455e+03
6.777290893874828726e+02
2.025860157805107917e+02
6.001705277860316983e+02
-4.594461232164463240e+02
-1.237079313560483570e+03
-1.228941276072155688e+03
-9.830756742151788785e+02
-1.954506554872837796e+03
-3.059285835430632687e+03
-2.800593026316617852e+03
-1.815822225933552545e+03
-1.526778608672819018e+03
-2.847252039594455937e+02
1.189575040028200419e+03
1.958887394241053244e+03
4.475009258702182819e+02
-6.169781383617449677e+01
2.067171567263337238e+03
2.634191680529047972e+03
1.335590883419188231e+03
2.511675173269470065e+02
-1.061267492084482683e+03
-9.337529529283693819e+02
-8.177958924177926292e+02
-1.918705671466563274e+02
5.149935479612122435e+02
-1.130060758098048382e+03
-2.764079139162347474e+03
-2.693073931863239977e+03
-2.153066788633813303e+03
-5.361107054768975786e+02
8.877692536721127681e+02
1.146754521171083525e+03
2.272007388252373858e+03
3.677521750939437425e+03
3.569301244404662157e+03
3.499427835247206986e+03
3.824930715148798754e+03
2.877774877544302853e+03
2.007911425526332778e+03
1.350265659450986050e+03
7.047150901607261630e+02
-6.557967897154164802e+02
-1.944242428196020455e+03
-2.509671719943905373e+03
