1.085446981576625831e+03
6.751648731336941864e+02
8.587947829270786997e+02
7.594202418108860684e+02
4.610343574382907832e+02
2.516726262819721853e+02
4.273264902340836215e+02
4.790666215932499767e+02
8.219279909362334138e+02
7.179614353713025139e+02
8.182260052261607370e+02
1.270718822729344765e+03
1.364475122114600026e+03
1.146521102888475070e+03
5.759363125390973437e+02
6.427343756332887779e+02
8.748938707933850765e+02
7.234847324713113039e+02
4.166984190115325077e+02
5.187124636633338923e+02
2.946656156439951246e+02
2.774374969860112401e+02
1.098778711712052285e+02
1.348723916952895081e+02
-7.152654846815883616e+01
-1.876687387395847679e+02
2.043824694111772189e+01
2.502394279578324188e+02
7.181706703491501287e+01
-3.481398548849274903e+03
-1.831667376887296541e+03
3.218996749860915543e+02
5.490042205606490597e+02
7.501491866291390807e+02
7.812359584808621094e+02
5.732138305167599412e+01
-6.709922183695162801e+01
9.208376905007391144e+01
-1.896355493907072400e+02
1.657776360503106901e+02
1.436662800688106856e+01
-6.121591743825794651e+01
-1.759465084937335746e+02
-4.947963865286427563e+02
-7.297944053438937999e+02
-3.949188809874041226e+02
-3.650974200387526025e+02
-1.293284418442758863e+02
5.333841024377687035e+01
3.089242329629326491e+02
4.304477248053819380e+02
3.849117325786086212e+02
5.083640956589213715e+02
5.207735651008410969e+02
3.971711812281606058e+02
5.255315110629399555e+01
-8.008883991166852923e+01
6.922890117435756565e+02
6.766505609489955759e+02
1.809172088971837695e+02
-4.759001005952810033e+02
-6.528142626520550493e+02
-3.458496345445872748e+02
-2.998968185888543871e+02
-1.499772086448286927e+02
-1.611616358733401455e+02
8.521080075267152054e+00
-7.291950545316754528e+01
-3.634728077315197083e+02
-2.701615978956048139e+02
-1.098354998404951921e+01
4.010832583567395773e+02
4.590289038361019607e+02
7.877970156386090821e+02
4.883501725064130596e+02
2.706724507497636409e+02
1.797651484154202137e+02
1.936448341516781966e+02
3.722727929690625501e+02
3.625767041826702552e+02
1.115516097195401954e+02
3.901850567992936476e+02
2.344383626036184864e+02
1.783099515855294328e+02
1.777886205621613556e+02
7.775920220093036050e+01
-1.181780470477054223e+03
-3.762835039724738635e+03
-8.083413082086301074e+03
-1.019055158241465324e+04
-1.019025545025029351e+04
-7.931570128196927726e+03
-1.089502961252496334e+03
6.048914836055031401e+02
1.505658968573210359e+03
1.380585780735402295e+03
1.292493509520078987e+03
1.437490979803686741e+03
1.351882428431479411e+03
1.386688614689482392e+03
1.426568303761488323e+03
1.207498824346508172e+03
1.143311007875376163e+03
9.558159992772770011e+02
1.077077638022608198e+03
1.230296467578438751e+03
1.327588169555657714e+03
1.469126378429659098e+03
1.803026788961683224e+03
2.173476397592352441e+03
2.261365075524570784e+03
1.996497796412863636e+03
2.076261721163316452e+03
1.962835636426225847e+03
1.826377944710373185e+03
1.999475414785764542e+03
2.116063855001017600e+03
2.253847066035361877e+03
2.211303336312905230e+03
1.965209203168684326e+03
1.991184636551380663e+03
1.920682918735773910e+03
1.179609646496841606e+03
1.307482752828883804e+03
1.729191238939827599e+03
1.911187235780665105e+03
2.047509274959811592e+03
1.802129456349636484e+03
1.997153967744181955e+03
2.328734724493865087e+03
2.498396693852276258e+03
2.891039871864908491e+03
3.079622910435935864e+03
3.191078818382971804e+03
2.927190567463474508e+03
2.745197982109358236e+03
2.659419481178092155e+03
2.700432042396143515e+03
2.711193637843873603e+03
3.036608251956317417e+03
2.831281421681243046e+03
2.262558684830417405e+03
2.436126229943306043e+03
2.286715632270563219e+03
1.823993380297256635e+03
2.294910649706275763e+03
2.134431881653008077e+03
2.149556223041880912e+03
2.401270447191692256e+03
2.628570315237092018e+03
2.877373915579704317e+03
2.882693763484293868e+03
3.017524468039040585e+03
3.055901733726151178e+03
3.150828056412309252e+03
2.848257350857650181e+03
1.830176123009607636e+03
-1.169371247779381747e+03
-5.489384445945067455e+03
-8.223910749986800511e+03
-8.455936508678167229e+03
-8.355386854726826641e+03
-8.366335723138226967e+03
-8.038776196814418654e+03
-7.667669171420179737e+03
-7.267069586712104865e+03
-7.462920127737055736e+03
-7.384208509167730881e+03
-5.128884528197417239e+03
2.032054748616622646e+03
3.463680760829689916e+03
-1.161959288365052316e+03
-7.203834278350747809e+03
-6.649989766828704887e+03
-4.359429478287197526e+03
-6.611287960331640079e+02
-3.640051923935127434e+03
-6.696149427000502328e+03
-6.990398992123976313e+03
-6.899786365860015394e+03
-7.098236288998831697e+03
-6.815749742214389698e+03
-6.878261586295843699e+03
-6.489757872062466959e+03
-6.200226572773389307e+03
-6.148693806490797215e+03
-5.733042804973903912e+03
-4.521203315704234228e+03
-5.391868539148126729e+02
-4.328917385964310597e+03
-1.615355109337905105e+03
5.315397288616520655e+02
-4.427205611778945240e+03
-1.939474418167379326e+03
4.190790644870655342e+03
4.143602824363925720e+03
4.310007984405090610e+03
4.782138640681853758e+03
4.310019279326120341e+03
4.030584256478544830e+03
3.763834125178932482e+03
3.722815305359719787e+03
3.807609750936112505e+03
3.573311908177497116e+03
3.613939066360018842e+03
3.674523719622644876e+03
3.874119639240175275e+03
3.724832633307204560e+03
3.726693974447722212e+03
3.858702924155804794e+03
4.064921479346888191e+03
3.699421451573727609e+03
3.582313051656747120e+03
3.201596442862380172e+03
3.013191796921349123e+03
3.183223318727806145e+03
2.899663489265791213e+03
2.683688216045330591e+03
2.198843198683036462e+03
1.895660297090811582e+03
2.035822750938438958e+03
1.375734688386490689e+03
1.608953358647642062e+03
1.754353912020856569e+03
1.174698684064517010e+03
1.335838415217169768e+03
1.755304965056367564e+03
2.031757072220108967e+03
2.019590333896920356e+03
2.072439566403525532e+03
2.231667467118783406e+03
2.269029681995252304e+03
1.889631549334640340e+03
1.892985988077125739e+03
1.822266399798598059e+03
1.403397891385385947e+03
1.330703518323666913e+03
1.144874289437755124e+03
6.475599632956617597e+02
7.543794546569372415e+02
9.867557272370743249e+02
7.749611248347165429e+02
4.134646706050591547e+02
3.355390247805029276e+02
5.544341115684927672e+02
5.366870810393104421e+02
4.604955466917300555e+02
5.491587397947316731e+02
4.373355855666247294e+02
7.429896674569633888e+02
1.257016604254492449e+03
1.197395332253943025e+03
1.264106171189078168e+03
1.245161740989026839e+03
1.076502826997942066e+03
9.421085443079368815e+02
4.850103401914437882e+02
1.072577869587644273e+02
-1.211530796407358253e+02
1.097065084044620278e+02
8.884276329847523357e+01
2.052502349621258873e+02
6.587764056762513576e+01
-2.513091551865191491e+02
-3.543096790362677666e+02
-9.914108083591999332e+01
1.901706252622971363e+02
2.315614731794340742e+02
3.229743454424344122e+02
4.264591498670577607e+02
5.880164701600754142e+02
7.536211540174865604e+02
6.811890123713008052e+02
4.756622232363155263e+02
4.370894734336044394e+02
5.734496073686020736e+02
-1.963533985007145759e+02
-2.883457121386923632e+02
-4.035243655336112738e+02
-3.721936543883605736e+03
-8.700701356589157513e+03
-5.114826357252273738e+03
-2.043424610273314386e+02
-2.303282723016670843e+03
-4.001755555088810524e+03
-2.087475834706276032e+02
4.011342909710464824e+02
-1.723573001312803171e+03
-8.770029770598852338e+03
-9.755154772543775834e+03
-8.705988441257040904e+03
-8.491534079650409694e+03
-8.300778938307303179e+03
-4.760872378633878725e+03
-6.385899569751598392e+03
-6.855827502870305580e+03
-1.143710190670772363e+03
1.288383639692812494e+03
1.821382206986051187e+03
2.154269190117677226e+03
1.952046191241525776e+03
1.434681278385463202e+03
1.553083323475507314e+03
1.873241213342820402e+03
1.684169133059220258e+03
1.526807299977589537e+03
1.633038619466431328e+03
1.710832833741146032e+03
1.893217673257544675e+03
1.868202329213016355e+03
2.336694191503695492e+03
2.370590385898752629e+03
2.493922336956692561e+03
2.741645621005289286e+03
2.762624920720431419e+03
2.544915631748876422e+03
2.372506681562048016e+03
2.093404008709009759e+03
1.645548213776266266e+03
1.533861614716285203e+03
1.740351956314334302e+03
1.526980153049186583e+03
1.221725087198143001e+03
1.237541464512104994e+03
1.360478681979647945e+03
1.293535278322390923e+03
1.091642924650940131e+03
1.554783930880866137e+03
2.097942026070232259e+03
2.293143447959823334e+03
2.054347812656320002e+03
1.845551108304227455e+03
1.982737936042442925e+03
2.088888126999063388e+03
1.931995526593563454e+03
1.387066825834622023e+03
1.175100732139188267e+03
1.276104381416831075e+03
1.387017614555135879e+03
1.475842798356867661e+03
1.594599299928390337e+03
1.175156861948346204e+03
7.905051704201088114e+02
1.008718298441434172e+03
1.142354010101278391e+03
1.082744626012882236e+03
1.178769383490224527e+03
1.475254877577620846e+03
1.468332111878740534e+03
1.330372901657566672e+03
1.172436592655818004e+03
6.814641202260204409e+02
-1.941492204841742023e+03
-4.649375855842412420e+03
-2.432179981136424431e+03
1.175167650054658679e+03
1.442652871248608335e+03
2.146280237078166920e+03
4.250906309383393591e+02
-3.893977888366018306e+03
-7.960885728219297562e+03
-9.563605249379033921e+03
-9.368115319556911345e+03
-5.974366880680241593e+03
2.116547059014214938e+02
-2.912055544064816331e+03
-8.407455160896117377e+03
-2.872496868692192947e+03
-4.384142384581733495e+03
-2.821397775379608447e+03
1.997807275017458323e+03
2.308472410828056127e+03
2.334639574131000700e+03
-1.536614536906887452e+03
1.114731005777460496e+03
2.197713909137113205e+03
-1.604634222591804473e+03
5.216757026560882196e+02
2.448647371192762876e+03
-1.497608569409518850e+03
-7.279097545899178840e+03
-7.693805211259133102e+03
-7.765700778953567351e+03
-7.518744075122553113e+03
-4.739913841302077344e+03
1.243783182991779313e+03
2.475368703018263659e+03
2.707907729193476825e+03
2.855427009818342412e+03
2.374932533862088349e+03
-9.785144246014058353e+02
-1.613861083494383593e+03
3.218881363205808611e+03
3.520770483324117322e+03
3.400818325139157423e+03
2.632048038778822047e+03
-4.320540060919898679e+03
-7.735923725101511081e+03
-2.104005905873551910e+03
1.537180159483763646e+03
2.315558310899610206e+03
2.128307976730883183e+03
1.651710305595422369e+03
1.943517043023322913e+03
2.501688481076893368e+03
3.158300263948937754e+03
2.966361405184525665e+03
2.639874821803730811e+03
2.401820482893632288e+03
2.597236808204165300e+03
2.959178845445446768e+03
2.945665170595946620e+03
2.583606965587314335e+03
2.249917137662739606e+03
2.443197104663016944e+03
2.360671308840441725e+03
2.287334495118469476e+03
2.671934729662132668e+03
2.099127546591971623e+03
1.850398244990931516e+03
1.997250313009898719e+03
1.476977948725335636e+03
1.109493979562995492e+03
9.380947924669866325e+02
8.504595094642083950e+02
3.322079777857667295e+02
2.090927408706122890e+02
9.156140433472133964e+02
2.108992888231603047e+03
2.470237880266071897e+03
2.526108832388443261e+03
2.332752751455874204e+03
1.820822460863631477e+03
1.717534872403613235e+03
1.558390389711162470e+03
1.612756625880769889e+03
1.377724867044277971e+03
1.192362222133980367e+03
1.513501553749141522e+03
1.529583094487569042e+03
1.342083431677712497e+03
9.110575043455892228e+02
7.405083723494452670e+02
9.825826520295009914e+02
9.209529579353898043e+02
9.607350192562527127e+02
4.989908825122050189e+02
1.693525990050819985e+02
-2.882103105805277323e+02
-1.910626816586451469e+02
4.293630475314139971e+02
5.804218725612151957e+02
5.685419511768851635e+02
1.692655494147004219e+03
2.959987178390777899e+03
3.048491863957687201e+03
2.337097440393247780e+03
1.428794510086048831e+03
1.147522027893447330e+03
1.126213677188064366e+03
6.188386413683001592e+02
6.733726066126058640e+02
7.547838921685281548e+02
7.829740997727205922e+02
6.649485384840033930e+02
4.326843884672083504e+02
2.641414760498075793e+02
2.963161677132864611e+02
1.158268189968534671e+03
1.472956050751684415e+03
-1.235567338346526896e+02
-1.219323866984636879e+03
-3.748396883115361106e+03
-4.965772403686353755e+03
4.134474597880038118e+02
-8.474861483878953550e+01
-5.966399497639277797e+03
-8.363484408585663914e+03
-3.398898719761162283e+03
1.323345428110113744e+03
2.151827283483316648e+02
-6.363398992262154025e+03
-3.463391599290709564e+03
-3.793841128554039187e+03
-8.568050143625107467e+02
6.327262050717708917e+02
8.517406202762704197e+02
2.043231145658362948e+03
3.431752822681153816e+02
-5.392385326715007977e+03
-8.356451552657275897e+03
-6.045074597388651455e+03
-6.816223894048238435e+03
-3.553958211656539788e+03
-4.986254077479860825e+03
-7.166019506016790729e+03
-5.723286265397822717e+03
-7.193056363714475083e+03
-7.511319301473944506e+03
-4.715025685758840154e+03
-4.642139448624028773e+03
-8.720757447355701515e+03
-6.536951682496916874e+03
-2.866884268691890725e+02
1.247180943806371033e+03
2.459694753425378167e+03
3.332757066542069879e+03
3.668319224703983764e+03
3.433430663671751518e+03
3.696061555631807096e+03
3.311171328849590282e+03
2.683789064154410426e+03
2.483984364693370935e+03
2.527805452037430769e+03
2.678303124877829305e+03
2.706480181256711148e+03
2.781389138334495328e+03
2.790080862413941304e+03
2.370554623108025226e+03
2.078739941100042870e+03
1.936663142612948150e+03
2.250441343622524982e+03
2.172052761561667921e+03
1.750482738532249414e+03
1.251767313108530061e+03
1.429890946248451201e+03
1.728857973723669147e+03
1.675762415559199781e+03
1.491665209481063812e+03
1.119540214055195520e+03
1.426412078612410141e+03
1.781253390317599496e+03
1.795073384337307061e+03
1.577995372173139458e+03
2.099978286940626276e+03
2.454956847413065589e+03
1.941174934882408479e+03
1.459851045868265828e+03
1.028659301298305536e+03
9.695717012243834461e+02
-1.187634508694828916e+01
-9.476731579400449164e+02
-1.853054433234738667e+02
2.944428731021151862e+02
3.499279684264486718e+02
4.058067819569074572e+02
5.486072336605362807e+02
1.161195286733274088e+03
1.815600352368827771e+03
1.666904662829910649e+03
1.191886181657602719e+03
1.180122685975803961e+03
1.753047239754475868e+03
1.570295298696240707e+03
9.580609760985577168e+02
4.726428726584150013e+02
1.828879484827403985e+02
-4.108017825841416482e+01
-4.042631678577675984e+02
-7.428339985337298685e+02
-1.108231069562293811e+02
4.098821860847216385e+02
7.626427840543550474e+01
-3.466827621556136592e+02
-1.249218882276856277e+02
1.041565668183602838e+03
1.612875091863892294e+03
1.179853171550249044e+03
1.260517829171852327e+03
1.372917926602651733e+03
1.134063932825020856e+03
1.309872976992289523e+03
1.187346835408974357e+03
1.184431949793375679e+03
1.144123052529405641e+03
9.194857698658727259e+02
8.754817504915433801e+02
7.500974722374270414e+02
4.504102805205471896e+02
-5.963812932472135486e+01
2.787452257614436135e+01
1.009628642876950124e+02
-1.433653966841202987e+02
-2.400770796939370939e+02
-1.123063760657123851e+02
3.020375467606082793e+02
7.920534376617708858e+02
8.107311959769800751e+02
7.620523339943357541e+02
6.189697073267097949e+02
5.495718864768313097e+02
8.561599266062709148e+02
1.104647673403215094e+03
1.256834245606229615e+03
1.199909331151570541e+03
6.780331910390013945e+02
3.421471456658348984e+02
-2.021876109079529670e+03
-5.478271430987133499e+03
-1.056918797073787209e+04
-1.122880758555954162e+04
-1.039820980756502104e+04
-9.688363114746094652e+03
-9.368233707871382649e+03
-4.206785459704457026e+03
-2.590370079743149745e+02
9.680564773946015293e+02
9.774780726918273785e+02
4.812165447264732165e+02
4.424156136075085897e+02
5.151280196068205441e+02
1.152916728845701982e+03
1.624644409562172768e+03
2.033662506708988758e+03
2.545951384769229662e+03
2.120609016759568476e+03
1.646840523896529248e+03
1.443883340780270601e+03
1.215544983895412315e+03
1.248575522099839191e+03
1.213713375307237811e+03
9.936677384450110821e+02
1.079008772473079716e+03
1.217711522276234064e+03
1.104814791863369464e+03
8.028115086705068961e+02
7.804027760093476900e+02
2.312679812586854098e+02
4.173902228002137349e+01
4.468448466095516096e+02
8.839375365687319572e+02
1.353459327824833053e+03
1.691502441231074272e+03
1.789490435117851121e+03
1.390979507317458683e+03
1.149879127886185643e+03
1.201658734226077513e+03
1.444523258820906676e+03
1.573136505246798606e+03
1.873461141533202181e+03
1.668394792755547769e+03
1.347653209101647690e+03
1.034946506444989154e+03
1.027579094281752987e+03
1.307578466899872865e+03
1.169916690048287592e+03
1.414608477013201082e+03
1.627978880732846619e+03
1.343873225031258016e+03
1.480740303030664791e+03
1.571916175209595394e+03
1.611436360693560118e+03
1.695337450846654292e+03
1.164201619221349347e+03
1.003906028519723122e+03
7.386781245933556193e+02
-1.456477826513201080e+03
-2.467343105154493060e+03
1.118113190992629598e+03
1.126923682409697221e+03
4.380710497026594226e+02
6.914815367121136660e+02
9.311280246183857798e+02
1.129120085398405536e+03
6.064704879984147965e+02
4.331951278706257540e+02
7.192672370489622153e+02
1.250615050149604031e+03
-4.871972234938333202e+01
-4.241655734343557924e+03
-3.873126917220818996e+03
-2.842148723259929739e+03
-9.016684627574612705e+02
3.043383919029862454e+02
-2.859101231419036594e+03
1.040449128843128364e+02
-2.912310811255807494e+03
-2.288161603323209874e+03
-2.557205231837650899e+03
9.057360510354840244e+02
1.080655835245547905e+03
-1.332573451392442394e+03
-9.520903280481829825e+02
1.745978886772045598e+03
1.170575193248067990e+03
-2.574299094982765382e+03
-4.089541634400173734e+03
-1.278112997377104875e+03
-3.492774131959603778e+01
-2.596940391135888149e+03
6.748404045472925645e+02
-1.504542738844730366e+03
-2.320058429606549453e+03
-2.471664397933853706e+03
-4.304374128292836758e+03
-2.531831051410730140e+02
-1.846055699484743627e+03
-2.807950455458602846e+03
-3.928831752146617873e+03
-2.413711158820154651e+03
-3.800633984464561308e+03
4.074434085225346962e+02
-1.784448617187925265e+03
-2.433237492959112842e+03
-3.324884681811733117e+03
-3.382360224089160511e+03
-1.326664901055276687e+03
-2.359844390799320990e+03
-3.259859342552720136e+03
-4.897662949153382215e+03
-2.986351299878276677e+03
-1.972951874645149928e+03
-1.323408430242360510e+03
-3.866349070852551790e+02
4.494161333375722620e+02
1.019732028645571518e+03
1.229310839583248935e+03
1.743204847633647432e+03
2.296399196683836635e+03
2.071890817261063603e+03
1.768666215275242848e+03
1.484748330327237454e+03
9.791568061401070509e+02
6.818581553659489600e+02
7.658591190519892962e+02
7.381154878195548008e+02
1.524638459285958788e+03
2.151575789248701767e+03
2.876977763511704325e+03
3.591987662246667696e+03
3.268516159120017164e+03
2.507009122281679993e+03
1.259867508731923181e+03
6.444243252308684760e+02
5.934067601548227913e+02
1.506721613721956373e+03
1.877291202265878383e+03
1.461033694630441687e+03
2.002672176775816297e+03
2.577634644077524172e+03
2.571646408647883163e+03
2.551758461362032449e+03
2.558299807302038062e+03
2.730888774679147446e+03
2.613758142329541442e+03
2.633748652025008141e+03
3.109476597962099277e+03
2.944005042159712048e+03
2.758437453352374177e+03
2.010377427298318935e+03
1.234169759099606836e+03
1.127387452472878294e+03
1.148073598645138190e+03
1.321580492402417349e+03
1.161645587030028764e+03
1.379781627731655817e+03
2.404677111082529336e+03
2.609839048812219062e+03
1.495096457737337460e+03
3.644142541512051139e+02
1.169013231571491133e+03
2.430412309083697437e+03
3.039442802442782977e+03
3.343391292866203912e+03
3.733094505012971695e+03
3.787437982609481878e+03
2.993353207515381200e+03
1.996902823703769400e+03
1.513051939228539823e+03
9.107772524366366724e+02
6.060440929232482858e+02
8.282581493716047305e+01
4.501332414701574294e+02
1.158906355266737819e+03
1.975137211619422715e+03
1.421873697747440929e+03
5.290488151539750561e+02
9.846420907638168956e+02
1.388574951341337282e+03
1.510844811433019913e+03
1.651495141353079589e+03
1.357498161926999046e+03
7.467828584727117232e+02
1.105325104594973709e+03
2.181167151003273830e+03
2.588276790239584443e+03
2.939643376871244527e+03
2.796210236538328900e+03
2.606953067857416499e+03
2.686862384832980297e+03
2.473009486311942055e+03
8.042802537516865868e+02
-2.347345810429706944e+03
-6.773789142909578004e+03
-8.098043500950922862e+03
-7.825121572916188597e+03
-7.614087204066687264e+03
-7.701997571127268202e+03
-8.791555517961669466e+03
-1.043978737649389950e+04
-1.113690158570787753e+04
-9.797933199723025609e+03
-9.645865561180457007e+03
-9.410707884259403727e+03
-9.760524056670818027e+03
-9.279290384657433606e+03
-7.819981144915290315e+03
-3.308555362253911881e+03
-5.069037079277198245e+03
-5.097458524189503805e+03
-5.073752033987175309e+03
-2.639887518676507170e+03
-2.099836385366237209e+03
-4.116046576896952729e+02
1.065827780289132079e+03
8.975047413520487680e+02
3.324517462133065919e+02
5.106081312776656205e+02
2.900014613831376096e+02
4.562788640080606939e+01
1.164839259522530028e+02
5.045305064546413973e+02
2.079685842759726256e+03
2.395020187349352909e+03
2.556621190263869721e+03
3.541502912489666414e+03
5.123689207349941171e+03
5.703215831744940260e+03
6.162076853616699736e+03
5.957325732611616331e+03
5.429986347834957087e+03
5.430098186018207343e+03
5.198692578396807221e+03
5.123767209793599250e+03
5.745357817560733565e+03
5.581511825607369246e+03
4.628262114033029320e+03
3.837590228708955237e+03
2.805543357589234347e+03
1.854187840985450748e+03
-4.674295514990380980e+02
-1.809309659685592123e+03
-2.292451981402876299e+03
-3.481838754895289640e+03
-5.239470682731347551e+03
-7.742320522331998291e+03
-9.598335705047218653e+03
-7.770500461404360976e+03
-7.093785170967096747e+03
-8.775157496456831723e+03
-7.659572686598112341e+03
-3.606983075536566957e+03
1.037644592122083850e+03
5.548347097233292516e+03
7.603371470627543204e+03
8.338886502946312248e+03
7.636144719218549653e+03
5.859888352605601540e+03
4.153035657771612932e+03
2.959546543963911063e+03
2.572315457949999654e+03
1.828024538185228948e+03
1.692941790530801882e+03
1.547223176277480206e+03
1.062872045425913939e+03
-8.068872192099119545e+00
-1.155613943188691792e+03
-3.140743460387842788e+03
-4.911477850397628572e+03
-4.937797396359452250e+03
-4.284672054474891411e+03
-4.597096256404116502e+03
-5.529944948897581526e+03
-3.833149465489755585e+03
-2.067716918429023735e+03
-1.149633642005727324e+03
8.750803570513982095e+02
4.346471795662834666e+03
7.517540633245785102e+03
7.727273823401053960e+03
6.988711118834323315e+03
6.310856227180440328e+03
5.019750267159064606e+03
3.751383115091418858e+03
2.997837385575776352e+03
2.539115715344997170e+03
2.446180827169548593e+03
1.760005158960736480e+03
1.340591124751439565e+03
1.356960105973212194e+03
1.714168333518489135e+03
1.546257319870833271e+03
1.509221475356929659e+03
1.217044099101723987e+03
1.436708868661407223e+03
1.837249645053621862e+03
1.575619420795278529e+03
7.208594886933298085e+02
6.169777413954017220e+02
8.420076608894421497e+02
8.109183284910966449e+02
4.936414548274209437e+02
-3.177634926735187264e+02
-3.073408361700231239e+02
8.989204891818300780e+01
-4.800253629316013644e+02
-5.851280937093421244e+02
-5.834317723491750485e+02
-8.659305440751178367e+02
-8.546212439276431496e+02
-7.846748560243706549e+01
3.464796834775693810e+02
1.402136610369483094e+02
4.998659435522927197e+02
3.934404155770946545e+02
2.765170505683630040e+02
6.853211920640572998e+02
5.079079513873693941e+02
9.815295232497120992e+01
1.840137248468009261e+02
1.404717983856048704e+02
2.125814291782683938e+02
2.682735288392552206e+02
-5.965040018961914257e+02
-1.658858159422848985e+03
-2.491765985362166703e+03
-2.881969855140166601e+03
-3.257710110614305449e+03
-3.505727617129408827e+03
-3.729173994161435076e+03
-3.307080932085621498e+03
-3.679039741871662500e+03
-5.494571862605429487e+03
-7.620268798774191964e+03
-7.058402088224764157e+03
-3.965935315209559576e+03
-1.771985051398621351e+02
2.664021332688979783e+03
3.480057811739287445e+03
2.785774906116025250e+03
1.795497971925037973e+03
1.115115751719412856e+03
7.308327462451933343e+02
2.232071659173208502e+02
2.085524981185503179e+02
7.665304549256505595e+01
-1.579172248214288174e+02
-2.505817052591726792e+02
1.102781484343353924e+01
3.068222942158027422e+02
1.787759508502249446e+02
3.780067845580277321e+02
5.609744725016905704e+02
8.530634239196151611e+02
1.093211344662587862e+03
1.157421620780598005e+03
7.744499918341008424e+02
3.185409288918462494e+02
7.489424889054585144e+00
-2.417498260245178017e+02
-2.335984315777997438e+02
-3.056897260470013293e+02
-7.697473781771051904e+01
1.549968301215379718e+01
6.096007808320627674e+01
4.190620443144768501e+02
7.217649011387796918e+02
1.022714582665525995e+03
8.829693716101691052e+02
7.525071800350486910e+02
6.182578916093725638e+02
6.191787424532263913e+02
6.812638673207180773e+02
7.455040867379955216e+02
1.051856686059692947e+03
1.336267151167693328e+03
1.354823026966196494e+03
1.441498496428030421e+03
1.579290140428603081e+03
1.208211063013736066e+03
9.791956033330055789e+02
1.072192023064105342e+03
8.702306611916554857e+02
3.712574589460082279e+02
6.252413330754807248e+02
8.961257337494927242e+02
9.199292794354295211e+02
1.045723688474578012e+03
1.182545210298734446e+03
-8.054597872470545781e+02
-4.580368276394783607e+03
-1.893238612944660417e+03
1.776890959455027996e+03
-6.949600847330452780e+02
-5.447356477859968891e+02
1.717513942059381179e+03
-2.537240865171673249e+03
-2.988927087106704221e+03
4.774593242618557838e+02
-1.673101195366537013e+03
4.964121025275211991e+02
-2.241983704676119032e+03
-2.248265114599596473e+03
8.135357441711269075e+02
-2.185476987639672643e+03
-1.602759457788208692e+02
-1.879822746694252601e+03
-4.490262498136387421e+02
9.810824897118322951e+02
-2.327476832466953056e+03
1.284305333370991093e+03
2.174930426555428653e+02
-1.431904719575118634e+03
1.608050500713090514e+03
-1.958545958253182562e+03
2.054589245937272324e+02
-2.144888386323425493e+03
-1.410717600270303592e+03
-2.564073370150163555e+03
4.371164651643595107e+02
1.840907878601017956e+03
1.686346676828368118e+03
1.399460836345786674e+03
1.538349615450499641e+03
1.119085292717117909e+03
9.436995188111815196e+02
8.062793059507116595e+02
7.288414135652373034e+02
1.014475011493786042e+03
9.041564216014817248e+02
9.108841088651844302e+02
1.401648386754204694e+03
1.416593903779119046e+03
1.565800956867602281e+03
1.469255206557670363e+03
1.201976421213765207e+03
1.331003811190583292e+03
1.159357173368225403e+03
9.091650242147541121e+02
7.214695409600061566e+02
1.007229847337158958e+03
9.804352455217751867e+02
7.431732700990696685e+02
6.134521345123700939e+02
4.742887522623076393e+02
3.462040400732078638e+01
4.264152142469553723e+02
3.410547856934792321e+02
4.898332213839020000e+01
-1.229463098685053168e+01
4.053610822271611625e+01
-1.340708564673779257e+01
-5.400091435528814827e+02
-3.178224483260846682e+03
-2.357975285902558880e+03
3.487865944734684831e+02
7.512132645512134559e+02
4.333025217091127388e+02
3.488654976023543668e+02
2.829972173200581551e+02
-6.027213605497741611e+01
9.634264441903347631e+01
-1.745190215051680980e+02
-4.163219926910365416e+02
-6.680019758655298574e+02
-7.698012421998586206e+02
-7.847901447469474761e+02
-1.063376034339140688e+03
-1.125473919855282929e+03
-1.301188148714229101e+03
-1.360695910680087991e+03
-1.177006881382660822e+03
-7.850064646441996956e+02
-1.656502012582438681e+02
9.300099744948373655e+02
1.168012070104324266e+03
1.020353546926304148e+03
7.600168169075594733e+02
2.889381506817672403e+02
4.998695963805511866e+01
-3.637407063883337059e+02
-4.362641112472060740e+02
-4.046542562923796709e+02
-5.640125573392202796e+02
-7.102817840643501768e+02
-7.764440328075132811e+02
-7.334723991763007689e+02
-4.953448292596814895e+02
-3.351254930287400953e+02
-3.627807112124843343e+02
-3.673353381995469817e+02
-3.228791821352987768e+02
-5.363603555589445477e+02
-8.637182719988901454e+02
-9.929608914751516977e+02
-9.880884586834291667e+02
-5.931059835870901225e+02
-2.518962762601929626e+02
1.844433482397545276e+02
8.078623686545473674e+02
7.063849776079658795e+02
4.510220188044056044e+02
3.088428665183274120e+02
-4.520389131771293734e+01
-5.942513162204220833e+01
-4.680551398168769595e+01
1.138401210176816534e+02
3.322417456427283469e+02
1.504935598713305112e+01
-2.398836963196966678e+02
-1.246596211426656851e+02
-6.220030234759891385e+01
1.665368578550506697e+02
5.066263045339882751e+02
1.133099609629829047e+03
1.107970877752145952e+03
-1.127861271696803897e+03
-2.707440457676295409e+03
-1.210711723528015000e+03
2.851869530133147350e+02
6.531908475846697684e+02
6.992583273996639264e+02
5.904858104255771423e+02
4.788307019055457658e+02
3.993313989413984473e+02
1.769451275694915182e+02
6.515676142434861262e+00
-2.590276517135802692e+02
-2.006351343038691653e+02
3.306733982998999863e+02
7.735942396677775150e+02
1.121091626555897392e+03
1.226162508342483306e+03
1.666618029315612148e+03
1.692233195778258505e+03
1.579967301253708911e+03
1.845972786790243163e+03
1.703220971918145551e+03
1.598669049685362097e+03
1.352387131669160226e+03
1.342366732261030620e+03
1.467498992298613985e+03
1.609768506694123516e+03
1.377132464353667956e+03
1.119623288048130917e+03
9.152019067464924547e+02
1.124783659271651686e+03
1.264275198163705909e+03
1.334680106295182668e+03
1.391984440447625730e+03
1.409204168298322202e+03
1.792273879105429160e+03
1.808132971392375111e+03
1.836803232402787216e+03
1.758323160134259751e+03
2.063596493205146999e+03
2.324560812115007593e+03
2.060216211223698792e+03
2.184543297222467572e+03
2.209614761453957271e+03
2.094324180197902933e+03
2.033648489149212764e+03
2.002683950952133046e+03
1.830353031635387197e+03
1.782615462970591580e+03
1.980484441010247792e+03
2.158944926598814618e+03
2.132897103874492586e+03
2.007328665587094747e+03
1.402253729686826546e+03
1.779660255652908290e+03
1.987658366036032703e+03
2.273261506634961279e+03
2.813388555655577420e+03
2.970994242530186966e+03
2.895181077567646298e+03
2.837980615744996612e+03
2.993389051020188617e+03
2.787404854519586024e+03
2.620958577343885736e+03
1.557097029501331463e+03
-1.389054440551040898e+03
-5.260541252399401856e+03
-8.871393663423743419e+03
-8.447600766144150839e+03
-8.324114290725228784e+03
-8.685889382527659109e+03
-8.117019514798622367e+03
-7.732426003286399464e+03
-7.728945586770357295e+03
-7.551480336374958824e+03
-7.378209146200539180e+03
-6.874347047718562862e+03
-5.920995270617117967e+03
-2.668144190317177163e+03
2.903359015091011770e+03
3.785669046763137885e+03
3.058663999531888749e+02
-5.068010660210003152e+03
-1.595982125525504898e+03
