1.131696102053356071e+03
7.882616990826161327e+02
6.308008682000908038e+02
1.113815184187151459e+02
-3.613494656108897516e+02
-1.044580130262593912e+03
-2.007126105688766074e+03
-2.750908396371444724e+03
-2.960172926121316323e+03
-3.282974992214961276e+03
-3.203377389732662778e+03
-1.997457297657419076e+03
-2.981111599786482884e+02
3.945509362938870481e+02
-1.814454612306658191e+03
-2.746898249292595665e+03
-2.968600191722154250e+03
-4.659692170722673836e+03
-4.840178607483304404e+03
-2.662108750929015059e+03
-1.151725144050757763e+03
-5.386974683530341963e+02
-1.064110442047173137e+03
-1.033983281753977735e+03
-8.621980577002505015e+02
-9.806414028021272316e+02
-4.165388254600245091e+03
-3.143355157620239879e+03
-2.764713443711038508e+03
-1.867799433225617577e+03
-1.543424034422638215e+03
-5.398375557239038471e+02
3.065008182685680822e+03
5.739238321793183786e+03
6.471131089755572248e+03
5.788681178721951255e+03
4.876683387597612636e+03
4.320756602111216125e+03
3.608345192195809886e+03
2.423800179241265596e+03
6.375468639807693307e+02
-1.821516555715968934e+03
-4.467786256718301047e+03
-5.195850219610309068e+03
-5.876384421062941328e+03
-6.553932921833560613e+03
-5.459073681357999703e+03
-1.988560835021665753e+03
2.677386728305014913e+03
6.608471017333744385e+03
8.778729752699175151e+03
8.822244864339480046e+03
7.098110626632212188e+03
3.575434971701379254e+03
-5.817800441447352569e+02
-3.370604930647702531e+03
-5.080012612743274076e+03
-6.174078812989001563e+03
-6.923839164457053812e+03
-5.697313631884780079e+03
-2.323446550246620518e+03
1.965822791972015921e+03
4.573500074910843978e+03
5.141634612729246328e+03
5.091262014645804811e+03
4.743397088471653660e+03
3.442012459589527680e+03
1.899124949875247921e+03
6.298166131224909350e+02
-6.086159321994563953e+01
2.705058526847846068e+01
-8.446029790959673278e+01
1.436473494814147216e+02
1.727360790450351033e+03
2.439659060197066538e+03
7.246426134461518132e+02
-3.320600173130701933e+03
-6.477037951502788019e+03
-7.329774879534302272e+03
-8.239746950403769006e+03
-1.037669830869764701e+04
-1.292856656910994388e+04
-1.278507086093776525e+04
-4.041198308467409333e+03
2.295289947764604221e+02
5.366036953310568606e+03
2.176310569777625005e+03
-8.337142841076689592e+02
-1.977917091208590818e+03
-2.122323181724439110e+03
-2.205748565359216627e+03
5.609716702968524942e+02
4.000775460783972903e+03
2.869615672412230651e+03
-2.792524721255366785e+03
-5.316421008910620913e+03
-4.317924403751208047e+03
-1.857173346060461427e+03
1.147827712912930110e+03
3.134114063370834629e+03
5.097786578364997695e+03
5.604842882699494112e+03
5.725223344573801114e+03
5.400735122214092371e+03
4.708345165894714228e+03
3.776200759885747175e+03
2.964394981017465398e+03
2.677052980876680067e+03
2.886216756679637001e+03
3.432902456902600989e+03
3.792088917919420510e+03
3.749704698855210609e+03
3.701878859170780743e+03
3.612688280774970735e+03
3.092086238142536786e+03
1.512935860767690428e+03
1.012518933491752193e+02
-4.009807228103420584e+02
-4.869284360125693212e+01
2.522162868837609153e+02
4.507860536989659863e+02
1.687067871834496827e+03
3.400012571290518736e+03
3.216403884713140087e+03
1.273209001612190150e+03
1.162241258592028892e+01
-3.084627788023834682e+02
-1.078997554399262299e+03
-1.381947064400043701e+03
-8.612058840999690119e+02
-3.176398484342184361e+02
-2.312292302235760530e+02
-7.430382043316086538e+02
-8.760936044599018260e+02
-8.951808558910631746e+02
-1.624468689548477300e+02
8.908387046364525759e+02
6.166902761272319822e+02
3.832252188141553120e+02
-9.294549941778767561e+02
-2.685318344609073392e+03
-2.316377893800284710e+03
-3.550756496636933662e+03
-6.208449765667050087e+03
-8.570156433305819519e+03
-6.975929449122814731e+03
-7.162712743091286029e+03
-6.638770923092405610e+03
-4.342160165261383554e+03
-8.580985773805746248e+02
2.220780666283415485e+03
7.005284952460594468e+03
6.171285238468415628e+03
4.532777348457075277e+03
3.522223984292838850e+03
2.743499781828493724e+03
3.347470356901206742e+03
2.681048447862001012e+03
1.221478810394581615e+03
-4.743233276472399496e+01
-1.303764707199443592e+03
-1.523501318905062362e+03
-1.271724001013073121e+03
-6.258741871067592655e+01
1.579645798610643510e+02
6.330080832749678166e+02
1.087515289076688305e+03
1.027437899800365358e+03
1.350615790438984504e+03
2.545016095421049613e+03
3.770675532800501514e+03
2.978618959918269411e+03
1.156856051606533356e+03
-1.295509972299691981e+03
-2.973551342495389235e+03
-4.794323716679936297e+03
-6.776801564764032264e+03
-6.372981466856875159e+03
-2.518899873412968191e+03
2.186388188205834467e+03
4.603801057175835922e+03
3.741400554102224305e+03
3.101189289921034742e+03
3.223213208564985962e+03
2.277449205084563800e+03
8.068335834988129136e+02
-1.093706416523993312e+03
-1.862136400627448211e+03
-1.539439042237671401e+03
-1.499568781216838943e+03
-1.644500406076849004e+03
6.576328272476077075e+01
1.343209879982679240e+03
-1.943571117172277241e+02
-1.628037842524813186e+03
-3.232852741744704417e+03
-5.176963159403908321e+03
-5.860457867443380565e+03
-4.184257486873794733e+03
-2.433307307634165539e+01
1.587468868537924436e+03
1.504102333752331106e+03
4.151451364549207938e+03
4.320624329844237764e+03
2.527511975804929079e+03
1.127094115539870927e+03
-1.581736351232068500e+03
-4.842129913709830362e+03
-4.010902758466689647e+03
-4.031997015000412830e+03
-4.490216137907874327e+03
-5.251987350225458613e+03
-6.221224982419355911e+03
-7.239834453847803161e+03
-5.999859877627975038e+03
-2.570234039226504137e+03
3.891146799516154147e+02
2.744153952451406440e+03
3.118812483299669111e+03
1.806093826816163528e+03
1.262002334475061616e+03
2.407483625603852488e+03
3.306380663876486778e+03
3.307557184552992112e+03
3.456040053090427136e+03
3.891760929695757568e+03
4.926713923287856232e+03
4.994952219554928888e+03
4.161549496770497171e+03
2.938570698009598800e+03
2.783045550597599686e+03
3.725923113922303401e+03
3.329217207536874412e+03
2.509917744318882342e+03
2.271025194753760388e+03
2.718600894358225105e+03
2.212625500173445289e+03
2.742060948710550292e+03
4.335916891457336533e+03
5.566098135640098917e+03
5.880595995655904517e+03
4.826512012982702799e+03
2.029876953653578994e+03
-6.083529079656074146e+02
-1.545099249861945509e+03
-8.853875024752763920e+02
1.397240173897442617e+02
7.301800016980679402e+02
1.090078740923097030e+03
-3.635619204307297423e+02
-3.280757844721166748e+03
-3.734466487586907533e+03
-4.851654140302377527e+03
-6.245323068583854365e+03
-6.338387667594399318e+03
-7.944973722078306309e+03
-8.842947829442258808e+03
-6.519345693710984051e+03
-3.828137860415476098e+03
9.246743322515129648e+02
1.759126947816166421e+03
7.882535736769527830e+02
1.883097160312622464e+03
4.962705903673646390e+03
5.369079166885806444e+03
5.333199165161259771e+03
4.767089144011991266e+03
3.027737774733550395e+03
2.378005095155655908e+03
3.408774862322006811e+02
-1.864599250782534000e+03
-3.058070880466049402e+03
-4.305559565406204456e+03
-5.746241040091028481e+03
-4.272873327053168396e+03
-4.045613515872671542e+03
-5.246646935185944130e+03
-5.029916714683777172e+03
-7.960304994172684928e+03
-8.023723907255838640e+03
-9.813267705971582473e+03
-5.282953184933317971e+03
-3.161704738198896393e+03
8.377547026520468307e+02
3.597136905338351880e+03
2.713480819544066435e+03
4.371711525380895182e+03
2.795943825820754682e+03
-1.631864390121233555e+03
-3.467976770452242818e+03
-2.397379647931032650e+03
-1.586966653447734643e+03
-1.315623060892402691e+03
-2.788246932049428324e+03
-3.237864544593880055e+03
1.849555418272546831e+03
3.257072363588239114e+03
8.647975501783795380e+02
3.884863893117227235e+03
4.331360174590605311e+03
4.486199497379484455e+03
8.913844394457511271e+02
1.218850416991879086e+02
2.457631273409990172e+03
4.237391226011094659e+03
3.995982281272702949e+03
2.538347342708832002e+03
1.411580590692872420e+03
9.488362312760815485e+02
1.913326160196169667e+03
3.214254046702777487e+03
3.776729254782694170e+03
4.180721738427443597e+03
4.035244681121795111e+03
3.812276998888483377e+03
2.945778296930883243e+03
2.481596204875568674e+03
2.247540737907734638e+03
1.388474415091706987e+03
1.026432172126136038e+03
1.076574976701886271e+03
1.166935973176258585e+03
1.073544069417260744e+03
5.055106214329762793e+02
4.518381006830574620e+02
9.676471463277391649e+02
1.088939018354510154e+03
9.265560220463316909e+02
6.165532176965288045e+02
-5.801450558686815384e+02
-2.149787503940858642e+03
-3.146116833301210590e+03
-3.476881206140926224e+03
-3.336545432462666213e+03
-4.693179851584632161e+03
-6.018391118140822073e+03
-4.578204768623007112e+03
-2.595190429948408564e+03
1.516027480885466275e+03
5.424244818739712173e+03
5.425333303026390240e+03
3.147265091025421953e+03
1.825879496991485894e+03
2.327131666588456483e+03
1.616119567136472597e+03
-7.702234996200984369e+02
-2.235957355694157741e+03
-1.514127271793410955e+03
-1.052803563212582276e+03
-1.242193338079963951e+03
-2.815245963138052502e+03
-2.598541282543494617e+03
-5.292513283240272131e+02
-4.378579772147315339e+02
-1.724077975902083040e+02
-3.385589003122864824e+02
4.253735985463762290e+02
1.942429522452187030e+03
2.919606848347811592e+03
2.118905658946251606e+03
5.813136643461094764e+02
-6.041296576101033224e+02
-1.444346463838497129e+03
-1.057341934169404112e+03
-2.871882886366893217e+02
6.307894797090696670e+01
-2.456217329998549985e+02
-1.266260437451679991e+03
-1.278829860389941587e+03
-3.243197531150713075e+02
1.116248989628827530e+03
5.368485770947933133e+02
-1.175366601076874304e+03
-3.247382302448223982e+03
-4.742301110498894559e+03
-4.288177774146393858e+03
-2.262999064808180265e+03
2.222044946183897878e+02
2.115326892066052096e+03
1.534286202558118703e+03
5.712237533650740033e+02
1.031251597749494749e+03
-5.276455256089998329e+02
-2.341496666730173274e+03
-3.640291433471493292e+03
-3.744068692193872721e+03
-2.783917510071323704e+03
-9.558539694499169173e+02
-4.428514399233732206e+02
-3.178911700105659293e+02
2.143992137751378777e+03
3.751757312589388221e+03
2.822367944943613566e+03
1.209779074692165523e+03
-3.292385469657771324e+01
2.662356803473582545e+02
1.344331699901343200e+03
2.402451999776654702e+03
1.017351309584714954e+03
-2.349809725441340561e+03
-2.132679208808951898e+03
1.674634942826339056e+03
2.074808221873496677e+03
1.533946821396215910e+03
1.192955768596089911e+03
-2.004337773325523585e+03
-7.891061039692147006e+02
7.566178839828130549e+02
-5.773819572407081750e+02
-3.191713822689680910e+03
-7.773132343689522941e+02
-5.472087372402446590e+02
-1.061359179476901090e+03
-1.835895126595301235e+03
2.252657170578476951e+02
3.641946567281906937e+02
3.529449352502736019e+02
7.065263970522537420e+02
1.145878633344377704e+03
1.107951543667093347e+03
9.156537676977774254e+02
8.670741189153638970e+02
1.112187325765974720e+03
1.491975519031418571e+03
1.446496079747330668e+03
9.687160767400150689e+02
2.135400166923865868e+02
-6.800591590566336890e+02
-8.889190777760842366e+02
2.990827009486283714e+02
1.074034860903938352e+03
1.256877202298617476e+03
1.046700627503443229e+03
5.875658578203173192e+02
-3.937013728338469605e+02
-1.300383660641370398e+03
-2.126638569535623446e+03
-2.395366026665533354e+03
-2.489305254512482406e+03
-1.449441150072469782e+03
3.902078472376824720e+02
1.433714143100143474e+03
1.478140138226954832e+03
1.363597248337276142e+03
1.322996458840658306e+03
1.284293476723465574e+03
1.095501650659156212e+03
1.080629708126878313e+03
9.595334098488921200e+02
6.712763584786029014e+02
1.930643276868867702e+02
-4.711369939926925809e+01
-6.761405431900008125e+02
-5.379202078219277610e+02
1.113892262916118483e+02
6.274817510899242734e+02
8.761513340238658429e+02
1.680988918097608575e+02
-1.185818837235564388e+03
-5.329376494276322092e+02
1.139398506764378567e+02
2.499601800121916426e+02
-8.408540281306177349e+02
-2.948332463014146015e+03
-2.313383807955915017e+03
-2.053467218566694100e+03
-7.883357563378218629e+02
-3.466791936834592320e+02
-8.266653408897417421e+01
1.126529421750166620e+02
1.321889744575755117e+02
-2.481180726327238162e+01
9.120965463540569829e+01
-4.815411570010150299e+00
-5.283709399785701066e+01
5.620746079548098351e+01
3.436161344293694242e+02
2.133443196064488063e+02
-5.676965757994854300e+01
-8.970944763636478569e+01
1.355863295535878592e+02
1.511252007687892842e+02
6.990618100934115375e+01
-1.751217589892946762e+02
-2.649176510166059302e+02
2.862375317438508304e+01
-5.540176956392171803e+01
-3.330936416868973993e+02
-4.005378448205173072e+02
-1.286389124485203865e+02
-1.173472700402301001e+02
-3.406897002839385777e+02
-2.037075942052983635e+02
-4.729215837964586200e+01
2.545641537370988772e+01
-2.215512945950479491e+02
-6.633133420322928941e+02
-8.007765213504136455e+02
-3.358397290272213809e+02
-3.383126676625178106e+02
1.388212689811942901e+01
-9.838867460864494774e+01
-1.892053663553026297e+02
-2.926068720907837815e+02
-3.235863038863078032e+02
-2.711212946936335015e+02
-1.160909418369649586e+02
-1.123307191540664718e+02
-1.589955082295509214e+02
-2.020324753072981991e+02
-1.514213974303454222e+02
-1.241185722630307055e+03
-3.401984216682749889e+02
3.045695051035445644e+01
1.255353757065010001e+02
1.829562007321429746e+02
8.448136732009194816e+01
1.683521256141647200e+02
3.086533185232584060e+02
4.492312602087247910e+02
4.358935851056286879e+02
4.498126808704720361e+02
4.249811533414533642e+02
4.754710230489607170e+02
-2.195998032896922894e+02
-5.133267473186406278e+02
-1.227623774509110490e+03
-7.074103424410808429e+02
4.263782649969541581e+02
-2.513313776409664797e+02
2.732986676891320030e+02
-9.696090428754399682e+01
-4.876899771661067575e+02
-5.617375672167944458e+02
1.646673172651656785e+02
9.028357524756381736e+02
8.266014175972752582e+02
4.650984604862226206e+02
5.767341658592814611e+02
5.866149821115390068e+02
6.575803824816883889e+02
6.115718195221359110e+02
4.088257241572756584e+01
3.242869474399328169e+02
8.541677082883290950e+02
1.130920407210685880e+03
1.349051904249381096e+03
1.240264474898447588e+03
9.174922633963759608e+02
1.243690498727918339e+03
1.219936163715007069e+03
1.039013691872502250e+03
6.157171354637955574e+02
3.424931063559485551e+02
3.263216257005341845e+02
4.429720643280052741e+02
8.459018414662884879e+02
1.108627496182189816e+03
6.761548147376811357e+02
1.059929890055348551e+03
1.433657787362345289e+03
1.689182610474282001e+03
1.465535113016259174e+03
1.265727289736407783e+03
9.547423547523432035e+02
1.173527886041866395e+03
1.400955277981972813e+03
1.245972666068745639e+03
9.825867528174861718e+02
1.287785870691741593e+03
1.574611149014282319e+03
1.404031457983866176e+03
1.222085430533690442e+03
1.288754897231798850e+03
1.485020444499322139e+03
1.269954698242402173e+03
1.388482649208159955e+03
1.277561022983019257e+03
1.038189438094800607e+03
9.133838648266282689e+02
-2.481846849952986034e+01
3.385193679775537134e+02
1.130375266484798658e+03
5.787424773043560435e+02
3.935998022507628775e+02
-6.050165071539612427e+02
-3.808043458567173275e+03
-4.904434736548856563e+03
-5.637203913546452895e+03
-2.287393700276973959e+03
9.649729783877145337e+02
-1.688995868737442379e+03
-5.811299002679292244e+03
-6.645252430637514408e+03
-3.292866102816911734e+03
9.126788503022460191e+02
1.089389709302829715e+03
-2.161434433901307330e+03
-6.312594913921157058e+03
-6.883236686401233783e+03
-6.914496471242675398e+03
-6.397302919569248843e+03
-5.600478217749793657e+03
-5.127054448941712508e+03
-1.776136649338420284e+03
1.340277209205604777e+03
1.339165029207666294e+03
1.424644147282979247e+03
1.513610094085146784e+03
-1.505098526045095014e+03
-3.760293889798662349e+03
-3.899335602189022865e+01
-1.321772316872405213e+02
1.039077932085384418e+03
1.356681462155115241e+03
1.543638045431738192e+03
1.185145079102018144e+03
8.493265007820059509e+02
1.172208824110942487e+03
1.531756588934301817e+03
1.519849346069202966e+03
1.695507740981817733e+03
1.378695196162803313e+03
1.484523292824984765e+03
1.469130646077985148e+03
1.734395106873595068e+03
1.858291512860789908e+03
1.175766054848117392e+03
1.193949908955219826e+03
1.337978049339217250e+03
9.459205357832655636e+02
7.718224756883308828e+02
9.655583495976050017e+02
9.070016269231657589e+02
8.530603326197974638e+02
7.357444973341474679e+02
8.812565552998372596e+02
5.366783213831771491e+02
3.239432859614825588e+02
6.342370863479193304e+02
6.876102609815847018e+02
7.410769405533362715e+02
6.586078611581482392e+02
6.811373756564956921e+02
8.485956867027877024e+02
7.630595485753466392e+02
6.475503527020273395e+02
1.639343445594450657e+02
1.312071001634348875e+02
2.175322298739694702e+02
3.300364770259212719e+02
2.399209733220572502e+02
-1.201300401300608200e+02
-1.232905838480340464e+02
-1.376205384719297399e+03
-2.469492097801421551e+03
-7.724486206857220623e+02
-4.150632299522486619e+02
-1.333518227849180278e+02
1.474807995509765135e+02
1.506749421235966508e+02
2.304198392255108558e+02
1.719842623365842655e+02
2.489949586583018117e+02
3.814315322442668617e+02
5.235262365412089594e+02
3.873816990693319440e+02
1.346073608319397863e+02
4.373137823539488522e+02
4.905897266388046773e+02
3.244781854093138236e+02
-6.026919632829329743e+01
4.550262130331157806e+01
-2.217174394528874259e+01
-1.529771529985828238e+01
-1.838972731022991525e+02
-4.259215078428817947e+02
-3.563273172077372806e+02
-2.611418605439467342e+02
-3.143703454627940346e+02
-1.070000245487595265e+02
1.100273899363858163e+02
1.567287511265051307e+02
1.491645765803956181e+02
1.993461303884060669e+02
4.052105990002510225e+02
5.296576433377533704e+02
-5.305023048357737636e+00
-1.146596305192449563e+02
-1.753637756679447079e+02
-3.724047115214653445e+02
-2.476657512426664596e+02
-2.231467903227432714e+02
-3.888557954348743237e+02
-4.398436009926023189e+02
-4.180988150031308805e+02
-2.771786616979964535e+01
3.219047814014098918e+01
-1.023239041921261361e+02
2.067647623192073354e+02
4.147525877083069901e+01
2.137953179910503252e+02
2.167267529747483650e+02
-3.270943702479240045e+01
-2.805412723278457747e+02
1.181716972630752593e+02
2.184754565276106746e+02
-3.275799192867409033e+02
-1.370353732584605382e+02
4.421466307419511281e+02
-2.380918487572214417e+02
-2.939831497587990270e+03
-5.952163314920599987e+03
-1.779083435661011890e+03
-4.015110749588495764e+02
-2.603988442125115625e+02
1.920940843426058677e+02
2.129213097802999357e+02
3.202427844233117185e+02
6.440283517284609616e+02
6.924155362960282218e+02
-1.868805695354843465e+03
-2.586666768503803723e+03
3.187313170485817295e+02
9.123468134599315817e+02
3.122096796710588933e+02
-2.305695338745096251e+03
4.306073657952553617e+02
5.650836940943365789e+02
-1.312181638283651308e+00
-6.755731250365660401e+01
-1.288699633390948065e+03
-7.627794483123265081e+02
-3.318101185401927751e+02
-3.147882539315426698e+02
-2.137309351103298241e+02
-2.636820794776955950e+02
-2.176980300085074873e+02
5.719995867335104833e+01
3.849820305192426417e+02
2.836424305590314248e+02
3.681732560801851264e+02
9.595256278677268256e+02
1.117701364422250435e+03
1.283669216789318170e+03
1.304366876804298954e+03
1.250789429184998880e+03
1.158937758072841461e+03
1.122779460915043501e+03
1.459245376901241343e+03
1.498345446118049267e+03
1.665054404367973802e+03
1.809379831073008518e+03
1.850308132808147775e+03
1.599778193682109986e+03
1.399746859222061630e+03
1.569226780668745050e+03
1.186152661388791557e+03
1.264549213163346622e+03
1.443429177518368533e+03
1.501742099372067969e+03
1.769503561711428119e+03
1.643682168465010363e+03
1.574187954175508366e+03
1.549044482261317626e+03
1.348260638931095627e+03
7.538127395224154270e+02
9.876716513090466378e+02
1.272966667951322052e+03
9.634939457012345656e+02
9.922541127819959001e+02
1.150260510624451399e+03
1.450538573844561824e+03
1.844102503980371921e+03
1.601877248880228763e+03
1.502829260739463052e+03
1.537005203757842310e+03
1.664374295478247177e+03
1.342975650750172690e+03
1.366815499200269187e+03
1.530850156442120806e+03
1.328112985457710465e+03
4.485761074186599444e+02
-2.127390261955471544e+02
6.840504118906238773e+02
5.060308178698447250e+02
-2.572685451717140950e+03
-6.446253706434743435e+03
-6.295578036945173153e+03
-5.497669400775751456e+03
-6.191581079616487841e+03
-6.341350352549975469e+03
-5.945971468521692259e+03
-5.486365644649131355e+03
-5.729529533389253629e+03
-6.009492153897695971e+03
-5.454265127333511373e+03
-5.815804397988598794e+03
-5.689079394437556402e+03
-5.655041353503872415e+03
-3.483786743977460901e+03
1.213708118086749209e+03
2.333471434456377210e+03
2.914493758091568452e+03
2.985809614876804517e+03
2.256459403265219862e+03
5.444324235577095124e+02
-3.714239416557804816e+03
-4.980515604204958436e+03
-3.047346143680039859e+03
-5.138740961255281945e+03
-4.742702648545936427e+03
3.197709333264078282e+02
-2.613172424557204181e+02
-5.556934925904726697e+03
-3.048006323169897769e+03
-9.556554083202769334e+01
1.673375720052486940e+03
2.583834794891581168e+03
2.535873667805866717e+03
2.466537537426172548e+03
2.381839813866763961e+03
2.344764882473034959e+03
2.508379246739349128e+03
2.488675910679572098e+03
2.478680445892203352e+03
2.697366274313226768e+03
2.587804258675373148e+03
2.318027049807324602e+03
2.164050767134740909e+03
2.037897050856127407e+03
2.263571972404865392e+03
2.034117525165614552e+03
1.717521404741210517e+03
1.554843743498862978e+03
1.547106973740011426e+03
1.615343122004303495e+03
1.438623399882965487e+03
1.770788991165792368e+03
1.901759154926217207e+03
1.572737243286237117e+03
1.577937027086592934e+03
1.401473444842720028e+03
1.141637251359027459e+03
1.008288462631116886e+03
9.024632120210369521e+02
1.068968246603187481e+03
1.101841208145197925e+03
9.181893980087558020e+02
-6.768272130042165600e+02
-1.662568289736313318e+03
-2.193469124377723801e+03
-1.775311188712536705e+03
-7.216893879131673657e+02
6.016819704262012465e+02
7.247519128928051941e+02
8.264514516079201485e+02
5.698702485270653142e+02
4.451987465347080501e+02
2.629404709854910038e+02
8.589363795733596589e+02
1.521912547084028802e+03
1.318125672828780580e+03
8.878387015711991808e+02
5.890745605529422164e+02
2.321240575492596463e+02
5.189765936500383532e+02
7.973860703928762632e+02
8.667697197424538444e+02
8.737027410927684059e+02
6.259251396175072841e+02
-2.154298755600074244e+01
-1.346214480787059813e+02
1.717420225023668081e+02
7.825533347043294725e+02
9.758474416885466098e+02
6.194938960135064008e+02
8.986589561343902233e+02
2.142477588589767379e+02
1.414681966201358954e+01
5.703307841341600124e+02
2.768031490667567596e+02
5.585523597531213227e+02
8.206164046556871199e+02
6.630335211457384048e+02
5.518012208852794629e+02
2.078510618156277587e+02
3.122245863031156432e+02
4.449451719050273937e+02
6.939333351317396819e+02
6.171545408113354370e+02
3.695946998267868935e+02
9.425368667501354025e+01
-3.489271118153262563e+01
6.721926909873941725e+01
1.486168273863676177e+02
-1.057976588091901959e+02
-4.010638056852877185e+02
-3.421520163239371186e+02
-1.670417781350201665e+02
1.592516153603329201e+02
2.597165695412327295e+02
4.733502091757552677e+01
5.580753724349771119e+02
4.629818816818596474e+02
-4.019903185361894771e+02
-1.173823836829423271e+03
4.533924330905060742e+02
-7.923869086827209003e+02
-4.221144188037322238e+03
-3.483924248734061621e+03
-7.556450245531584642e+01
-3.378036797422348627e+03
-4.179647766214726289e+03
-1.028344338731729749e+03
-3.559050357551318029e+03
-4.740846376078333378e+03
-3.717725508912341411e+03
-2.545716852314564221e+03
-2.048942580036559775e+03
-1.175062699771983262e+03
-1.461901974677213332e+02
3.966647218220660989e+02
8.634857639246284862e+02
7.812785523225720681e+02
8.770041562437572793e+02
9.436828930998523219e+02
6.252791079798947749e+02
4.358023200334458238e+02
3.591598327782027127e+02
4.703141833913723531e+02
3.352563243714344026e+02
2.270142146724136865e+02
3.526002614205291366e+02
9.498558852673036768e+01
-8.880817154197225705e+01
-2.075673037106466268e+01
3.700825674020274505e+02
4.427087472683849683e+02
8.341718485826928600e+02
1.028471415871856379e+03
9.186358581870260878e+02
1.005624733116575840e+03
1.019370202390058921e+03
7.319503574503283971e+02
5.033608984975083445e+02
-9.357638860345838694e+00
2.288372566000732888e+02
3.588864011679701207e+02
2.797971268319449223e+02
-4.242215920489769587e+01
-7.580382274478739646e+01
-1.432895319768343967e+01
-9.797415124848741641e+01
1.402712376879297551e+02
-6.255920228824898288e+01
-1.444686931007705653e+02
-2.624219698463826944e+02
-2.794681821629319529e+02
-6.655902508206804669e+01
1.103643949611139874e+02
-5.276911960860329600e+02
-7.687745104006952488e+02
-5.008448331040375479e+02
-4.018290655647095377e+02
-9.078334622013595379e+01
4.883057049013492019e+02
9.935773709088434771e+02
5.731938312343492044e+02
1.382614126584882115e+02
-1.537913007044750771e+02
-6.288168928660101074e+02
-1.126707842057046491e+03
-1.996480495623386787e+03
-9.540889110042622860e+02
-1.312528212760440738e+03
-1.096658016974460679e+03
-6.665681389553190002e+02
-5.309963935263456278e+02
-1.200357502783613768e+02
-5.519894320306776763e+02
-4.296614479178179522e+02
-1.629044279592425539e+02
1.477101363270823642e+00
-1.619735584890598545e+02
-3.900453803114863263e+02
-2.306874586344767977e+02
-3.379451851694692550e+02
-5.206734876547633348e+02
-3.269966419518318617e+02
-1.159429181839117433e+02
5.356652202502268523e+01
2.245465850338107145e+02
3.150225170081113220e+02
2.880216809690772948e+02
6.251941553783370864e+01
-1.835051622481176707e+02
-1.230283244300926953e+02
7.393306546286601133e+01
3.223473994932401183e+02
2.722445631963764185e+02
-1.613583278351412389e+02
-1.737589063167131442e+01
2.823114455841759423e+02
2.437502169019810765e+02
-8.002586191852979880e+01
5.392375928434084642e+01
1.285652849718862001e+02
2.738851640153320091e+02
2.598728975772210106e+02
-7.854737683523757141e+01
-1.004200430168592959e+02
-1.047079826858322775e+02
-3.203989734909324625e+02
-4.494451196855650323e+02
-1.587970931310910885e+02
-3.013925595001297779e+02
6.878266590713268158e+01
4.417130681634119469e+02
-7.633329292784081233e+00
-1.603116705734356628e+02
-6.928003768810761187e+01
-9.750476093310955150e+01
-2.539485357466873552e+02
1.792671832809333807e+02
1.780539132078700675e+02
-5.662766872152566577e+01
-2.526931924697888689e+02
-6.214938878729401317e+00
4.756689107979623259e+02
3.269161190361886042e+02
-1.515170420227598527e+02
5.745597881697549525e+01
-1.981275373555507144e+02
1.526422074780183493e+02
7.197517325988598031e+02
9.581541331648089681e+02
8.518177596909383738e+02
6.487653335402970924e+02
9.007981371733323783e+01
-9.692206000192145439e+02
-1.190917869923824952e+02
6.164733759296433391e+02
6.106346347836795303e+02
9.795513794349254795e+02
1.113089548706909454e+03
7.369622952707982222e+02
6.473312296891306232e+02
7.662455570974169632e+02
1.149351903314392757e+03
1.191843092591224831e+03
1.204436198449388712e+03
8.180894349544071247e+02
9.047113587283247398e+02
1.184283675291178042e+03
1.409631581112745380e+03
1.045020672760173966e+03
1.145132778604145869e+03
1.327518717600608852e+03
1.225336496262523951e+03
1.024602250034372446e+03
8.203433579571178598e+02
9.065275404116027858e+02
8.886907722973303407e+02
9.999488854481002136e+02
1.256017618440442448e+03
1.247564481388958257e+03
1.183829775344883501e+03
1.027514518433954436e+03
9.941073303317675709e+02
1.078030148822021374e+03
1.187488078765037926e+03
1.458187341013586547e+03
1.437086373053410853e+03
1.314194649748516213e+03
1.206531324837862712e+03
1.376844371613573003e+03
1.269432892798982948e+03
1.170208223513536268e+03
1.777126370539650452e+03
1.708095887533899941e+03
1.480004677742286958e+03
1.119798116243958248e+03
1.434432799962908121e+03
1.483802891721903734e+03
1.386132831252400365e+03
1.515374864168193653e+03
1.631524348319526553e+03
1.597458503702601547e+03
1.411276789760853035e+03
1.468370116701623374e+03
1.348457681054521117e+03
1.421666286375651680e+03
1.156847077616240313e+03
-4.421355157731218242e+02
-3.378325642243255970e+03
-6.051663007285448657e+03
-6.417213092775129553e+03
-6.660055127700105004e+03
-6.182067978589749146e+03
-6.162132473224980458e+03
-5.738134914996395310e+03
-3.206095763201269619e+03
1.297834792625919590e+03
1.816542665813495432e+03
1.940075271335730804e+03
-3.593814126409076266e+02
-4.770843540172029861e+03
-5.362500479330819871e+03
-4.341508054734956204e+03
-3.415589716497366680e+03
-5.312913805522520306e+03
-5.557334713245380044e+03
-4.149990720995178890e+03
1.111026696091500753e+03
1.074852894112184913e+03
-1.564002832119710320e+03
-5.241589676627193512e+03
-5.631086136258855731e+03
-5.489484887980691383e+03
-4.974802598565143853e+03
-6.407240721163182684e+01
2.102655674990316129e+03
1.350325334295155926e+03
-1.149067383345213329e+03
2.616813706989697721e+02
-1.332950800553887802e+02
-1.109997124608531749e+03
-1.272397535572482639e+03
-1.361593917334568232e+03
-1.456605039485012639e+03
-2.794407519692757660e+02
-4.909952325243996825e+02
1.371808325821093831e+03
2.707030292563127205e+03
2.264763138343176706e+03
1.860889076588450507e+03
1.357343597769315238e+03
9.912178624974021659e+02
1.076516809572284274e+03
8.503201524071984068e+02
1.344759266881329040e+03
1.274850621726956433e+03
1.279620092890046863e+03
1.942156123937348639e+03
2.211439913164078007e+03
1.943467750549968514e+03
1.539236857923065145e+03
1.078792115208536870e+03
5.953008142752635194e+02
4.838392386361035733e+02
9.833491673836585960e+02
9.878030467088408386e+02
3.493062819661222420e+02
1.529379045120743683e+02
2.217208130050292141e+02
3.817228781920982783e+02
8.029334553646910990e+02
9.973499320328187423e+02
9.120153984292560381e+02
1.137924204510056825e+03
1.410181929440931526e+03
2.373920091925872384e+03
2.584230832830235613e+03
2.164952419686211215e+03
1.706400623764465081e+03
1.001814139445985120e+03
1.057892547516673858e+03
1.577384738767279032e+03
1.226827084884081160e+03
5.200561397202129683e+02
9.187452699030262693e+02
5.064801260501733395e+02
-3.892270603980833243e+01
-9.248290762727259562e+02
-3.906884864984201613e+03
-2.478835637539064464e+03
-2.074906577908464897e+03
-1.528010970439140692e+03
-1.260274510853937500e+03
-9.077345722615571049e+02
-2.653400857122454113e+02
7.500192729023583524e+02
1.385389395860014474e+03
2.128788986096628832e+03
2.356272014075075731e+03
2.005795925927496228e+03
1.582276914580224684e+03
1.296723028722425852e+03
1.030260636654290465e+03
6.468967311147160899e+02
5.696215574718187327e+02
7.015100712194556536e+02
3.756641237079251141e+02
2.703805364499632091e+01
1.595839898856773686e+02
2.613387670739101623e+02
8.722699048026562423e+02
1.266390173875099208e+03
7.006452171165404934e+02
