-1.964008602877426165e+04
-2.025700787050550571e+04
-1.859506417031530509e+04
-1.611555402044928087e+04
-1.571285922308602858e+04
-1.648322474983378561e+04
-1.712690702725138544e+04
-1.710015867145342054e+04
-1.764918352368484921e+04
-1.894528739841234346e+04
-2.017973410494245400e+04
-2.064281869083884885e+04
-1.986679740133027371e+04
-1.971988523544996133e+04
-2.022422246513715436e+04
-2.032315329664462843e+04
-2.063793094405815282e+04
-2.098866077502977350e+04
-2.097452335488800964e+04
-1.996075072478140646e+04
-1.903147722399402846e+04
-1.880091544993082061e+04
-1.757217537464473571e+04
-1.509133820929782451e+04
-1.377755442292470070e+04
-1.375486489511475884e+04
-1.325234251860718177e+04
-1.207408597254271808e+04
-1.094725385135752003e+04
-9.227374213272169072e+03
-8.302438768054505999e+03
-8.902739704189069016e+03
-7.727682543599622477e+03
-5.151986010270332372e+03
-3.930682678547779233e+03
-2.324507364542672349e+03
2.147819678840270896e+01
3.158522481750644147e+03
4.673431293681570423e+03
5.732125336417680955e+03
6.945946823306370788e+03
9.524026561602091533e+03
1.177963488833195333e+04
1.405152549022863059e+04
1.475077520268331136e+04
1.447055533506832580e+04
1.451626037451762568e+04
1.506868873661636098e+04
1.484620647515214841e+04
1.490798864117943776e+04
1.467794814585783024e+04
1.397272166934760389e+04
1.407162485888126685e+04
1.434340061208043153e+04
1.473030774648112310e+04
1.389661343296501218e+04
1.279698542793471825e+04
1.240644578441431804e+04
1.247716481245550676e+04
1.307428442116453880e+04
1.331123705320616500e+04
1.290838603659606270e+04
1.333281211318587884e+04
1.241887032343910505e+04
1.169399072416717354e+04
1.181538635505428829e+04
1.165503218869480224e+04
1.044835691072060217e+04
9.594821824209560873e+03
9.516732208834906487e+03
9.345417218828435580e+03
8.734357236769903466e+03
8.122865080575985303e+03
7.238188246769961552e+03
7.027525395380728696e+03
6.147192637704399203e+03
5.635648715209978036e+03
5.123279697887642214e+03
3.977575024916624443e+03
2.157767967002688238e+03
1.402179231756029594e+03
-1.727712219576954169e+02
-2.734558163106285519e+03
-5.578888639387605508e+03
-6.051537090239402460e+03
-5.875215107478857135e+03
-6.526565239402556472e+03
-8.229324448897557886e+03
-7.975043710435232242e+03
-5.561163010918755390e+03
-2.493463611853203020e+03
-2.280778010425232424e+03
-4.317655369913835784e+03
-4.856577282010711315e+03
-4.461525790997819058e+03
-4.086160416198691109e+03
-3.008070779846489586e+03
-1.162935366371036480e+03
-3.738436672535515299e+03
-3.913282576859740857e+03
-4.174122793187433672e+03
-4.454514071257502110e+03
-4.577921797906030406e+03
-4.695047617590904338e+03
-4.804563134955236819e+03
-4.090183672492226833e+03
-7.567848436810647854e+02
7.456297164865335390e+02
1.236554481376299009e+03
1.535596103580358431e+03
1.991973186454150209e+03
1.986737519998334847e+03
1.913192442720333702e+03
2.236455951482573255e+03
2.527548344394261221e+03
1.946010423384498836e+03
1.682229751417615489e+03
1.599304625317874979e+03
1.680378627772621712e+03
7.977055248799308629e+02
2.593205509213681808e+02
5.464647014386132469e+02
9.485347497742707219e+02
1.170738687910150702e+03
9.681159706181614411e+02
1.290302736549023848e+03
1.280604302796805314e+03
1.404245479382236681e+03
9.734539456826048536e+02
8.874189247657895976e+02
1.605194484517388219e+03
2.431942341484912959e+03
2.157753886203434377e+03
1.713721871304104752e+03
2.678799581714175929e+03
3.673741466108272107e+03
3.252689870264391629e+03
1.619750814878397705e+03
9.829818126686091091e+02
4.164140709719023334e+02
-1.260021967042632411e+02
-1.262259887176296331e+02
-7.220712469421831656e+02
-1.242647151200970711e+03
-1.624932991863902089e+03
-2.086593079849963488e+03
-1.613330621667456853e+03
-9.379502012858098396e+02
-1.125615739435067326e+03
-2.105530530840984284e+03
-2.263762304664252952e+03
-2.618207895392141381e+03
-3.436948343900151031e+03
-3.931376790510589217e+03
-3.613566540624441586e+03
-4.064591797921651050e+03
-4.713643940793969705e+03
-4.117553790652203134e+03
-3.298333354506604792e+03
-2.959628330276286761e+03
-2.658780577505540350e+03
-2.524867862152952966e+03
-3.092872716770095849e+03
-3.051990201165273902e+03
-2.819648959212950103e+03
-3.196213938035445153e+03
-3.725497524207695278e+03
-4.237704885464871040e+03
-4.382062684333683137e+03
-4.151639879974735777e+03
-4.836648980324162949e+03
-4.573328068336555589e+03
-4.437928112424246137e+03
-4.376575192410029558e+03
-4.301271750587165116e+03
-4.355129222406728331e+03
-4.179514003588244123e+03
-3.726575418500168780e+03
-3.594331913186191741e+03
-3.731147038037729089e+03
-3.208314431199855335e+03
-3.340870297294901775e+03
-3.392955566022199037e+03
-3.259800904880136386e+03
-3.995715282472438048e+03
-4.420915366598354922e+03
-4.260484007837791069e+03
-2.960551373996614075e+03
-2.228285143229883033e+03
-2.428009116267239278e+03
-2.216978058975435033e+03
-2.064371147780714637e+03
-1.320420228200289102e+03
-3.334201713439384775e+02
3.002809290616567637e+02
6.213885486102404911e+02
1.243686616589152436e+03
1.463800525249131852e+03
1.558322347768087184e+03
2.354036874948045352e+03
1.828788542262697774e+03
8.633212085943176817e+02
1.024419655575094339e+03
9.918990792346953640e+02
6.356646287761063832e+02
-1.464689307644873679e+02
-9.627942994819937894e+02
-7.235972923619357289e+02
-2.940314866027523522e+02
1.370751576689467811e+03
2.257716478232086047e+03
2.659729958955561415e+03
3.554665958275236335e+03
3.643415695132555356e+03
3.679860483778250455e+03
3.637871500042203024e+03
3.526289484787403580e+03
3.826832498513931114e+03
3.616347917634799614e+03
2.045754897477552504e+03
3.999997283025102206e+02
2.526995315255386686e+03
2.217801835363920873e+03
1.567612141522606635e+03
1.084319217587117464e+03
5.926378544441644181e+02
-5.377042411579552663e+02
-1.504725899505176358e+03
-2.126529673056192678e+03
-2.423155342136712079e+03
-2.152604918429681675e+03
-1.525008414626156082e+03
-9.033558093729086522e+02
-5.086327625649641959e+02
2.470777281962873815e+02
3.507606576295232230e+02
4.272434238149755856e+02
9.814765612673867281e+02
1.005958845627002574e+03
2.845589878301147451e+02
-4.037113229783471411e+02
-8.267955922682532446e+02
-1.721685850310190062e+03
-1.816477225819105797e+03
-1.387182176712246473e+03
-1.273713012458032381e+03
-1.331158920830175703e+03
-1.629594649094644637e+03
-1.859087510956615915e+03
-2.320549798289803221e+03
-3.601748929268338998e+03
-3.746081363139579935e+03
-3.374488215778781978e+03
-3.241644376799643396e+03
-2.291562751473170920e+03
-1.105210989595963611e+03
-3.747370237953651326e+02
1.367887853159087399e+02
1.564454355697621395e+02
2.042023239543059390e+02
-6.442814818177880625e+02
-1.664088777579996986e+03
-2.338263506816673726e+03
-2.424894376528411613e+03
-1.670026175698325005e+03
-1.653645202289220151e+03
-2.066716806912541415e+03
-2.868228401333826696e+03
-2.974244054348121153e+03
-2.555852989490600521e+03
-2.002011929550563309e+03
-1.705774269790978906e+03
-1.365091875884421825e+03
-8.628732658714537820e+02
-2.881956148677995770e+02
4.884521324249611496e+01
1.309490110409524277e+01
-2.594775981300889498e+02
-2.418909293935615779e+02
-2.633301297864593948e+02
-8.769546802575680431e+02
-1.178684794943800853e+03
-1.606532053655084837e+03
-3.003640143389239256e+03
-6.556084850043175720e+03
-7.426938970033000260e+03
-3.952252774320806566e+03
-3.608031075441818757e+03
-4.207301691285423658e+03
-5.209898724211403533e+03
-6.624051023096523750e+03
-4.185793898301069930e+03
-3.847139479294677585e+03
-1.093253907401403467e+03
-1.411323512271250593e+03
-1.747278239398277947e+03
2.086859759652881152e+01
2.433069974634105165e+03
4.552118673775249590e+03
2.467934692743850974e+03
2.238714975996138037e+03
3.201601321833026759e+03
3.900492516371497459e+03
2.026298422061487372e+03
3.942959513618322944e+03
2.128514743792808076e+03
1.356889418556902456e+03
1.170156754592801235e+03
3.886410397791102696e+03
4.077616239051383673e+03
2.128802490004848096e+03
1.850967812037254589e+03
2.556165303481607225e+03
2.598357404591094109e+03
2.991446898140371559e+03
4.113419321185688204e+03
5.568326832714763441e+03
6.370180773933277123e+03
6.404909931905936901e+03
7.133383385319058107e+03
9.322676087664813167e+03
1.121279895332508568e+04
1.040466493048017765e+04
8.964358776443141323e+03
7.788058318606835201e+03
6.853768508626283619e+03
6.606440714349154405e+03
7.679989918606374886e+03
7.901403528200869914e+03
7.525671033623641051e+03
7.073814136461968701e+03
6.204816804672681428e+03
5.445754578842509545e+03
5.272595711766379281e+03
5.577281021370140479e+03
5.703775651086831203e+03
5.631163370328752535e+03
5.758509138251715740e+03
6.628004564964019664e+03
7.252698187240645893e+03
7.694504178866823167e+03
7.932306409043334497e+03
7.380012398560376823e+03
5.963984571884990146e+03
4.040601509380544485e+03
3.680866120299340764e+03
4.052579075448843923e+03
3.033663045543756198e+03
2.277433594980763246e+03
3.633792917647328522e+03
3.384595011902048554e+03
2.141726404208461190e+03
1.291130773771522854e+03
1.702797446479088649e+03
1.421746479226263546e+03
-4.085726673302513632e+02
-1.743339528404223756e+03
-2.721808485724215643e+03
-1.879669818715295605e+03
-1.614881624988383010e+03
-1.151559651126395465e+03
7.183778073726455204e+02
1.762781101342078273e+03
1.235043255548824391e+03
8.101755214036832058e+02
1.382327440313176339e+03
1.821713734004400294e+03
1.107376163394851801e+03
9.923762655688780114e+02
1.461889256857936516e+03
7.630194566719951581e+02
1.726578387604090494e+02
-3.952595249372658373e+02
-6.757233416084058035e+02
-5.970303035293085259e+01
1.061972989363729312e+03
1.215563797062268577e+03
1.396159290995199854e+03
1.135744480022770858e+03
3.864405644641475988e+02
-5.761302182666473470e+01
-3.972645135303761776e+02
-4.925012766206819492e+02
-7.662471939163269781e+02
-1.267438101715149742e+03
-1.675957177457686839e+03
-2.105687024282037783e+03
-2.643545156027148096e+03
-2.617462453107701549e+03
-2.053234135110933039e+03
-1.062665309261008815e+03
-8.677804107252233052e+02
-8.524845271542149021e+02
-1.207439038248267025e+03
-1.473321317272276247e+03
-1.286010918044274376e+03
-1.869247983238515644e+03
-2.684799077161383593e+03
-2.673573374157567741e+03
-2.655409093859522272e+03
-4.199056337556137805e+03
-7.474258350580996193e+03
-1.083075335511138474e+04
-1.176337876086381220e+04
-1.273186152729506648e+04
-1.343992319158154351e+04
-1.438329135084052905e+04
-1.378787768129359756e+04
-1.200348192896155888e+04
-1.135275590347384968e+04
-1.126841210589825278e+04
-9.246210081578014069e+03
-8.486818687599619807e+03
-7.569083286861911802e+03
-4.249576898424626052e+03
-3.592088289940381401e+03
-3.402346020054662858e+03
-2.512043429156238290e+03
-1.941857816015603476e+03
-1.279517710649559149e+03
-9.947962291217301072e+02
-7.053870158140339299e+02
-1.087970171544968935e+03
-1.863258518098802142e+03
-1.292911709597404752e+03
-8.647132021533903981e+02
-6.544057372290236572e+02
-6.806504519243743516e+02
-4.672724358520431451e+02
-8.019813203528041186e+02
-9.825486054468692600e+02
-1.096748022909511519e+03
-1.579275266867045048e+03
-1.376807433439548504e+03
-1.300801600871938604e+02
1.053152923603074214e+03
1.431244326353050383e+03
2.233483969028058709e+03
3.740217631300751691e+03
4.777685975504666203e+03
4.930086534850554926e+03
4.614801485642561602e+03
4.145061110606883631e+03
3.940077126522346589e+03
4.354908077698792113e+03
4.267880782952491245e+03
4.091325583036320495e+03
4.050553825901407890e+03
3.943894986360845905e+03
4.314479701529182421e+03
5.395471377426018080e+03
6.450084767743288467e+03
6.802486876914773347e+03
6.536796272690265141e+03
6.201158805154173024e+03
6.277784394112283735e+03
6.432874140333276955e+03
6.811768300844808437e+03
7.431702373908089612e+03
7.408811564677919705e+03
8.311244129522658113e+03
9.361096768516164957e+03
9.375528178237940665e+03
9.052758477693134409e+03
9.102097802961588968e+03
7.720728494925430823e+03
6.892570122181140505e+03
6.993700193320082690e+03
7.214205301914608754e+03
7.075181054825342471e+03
7.471773315402854678e+03
8.146009393334594279e+03
8.882992681936495501e+03
8.928858199931717536e+03
8.959626384399627568e+03
7.779373688341524030e+03
5.318207535988356540e+03
2.738250499762866184e+03
-4.667655720592360922e+02
-1.439698667726145914e+03
-1.636574921760385450e+03
-8.623180131578066039e+02
1.921840258119312068e+02
8.788667737697816165e+02
7.645391645394043962e+02
2.060714907206072439e+02
-6.166096539586079643e+02
-3.040785286626895413e+03
-5.226742558162580281e+03
-5.834562439294251817e+03
-5.725309505246298613e+03
-4.691118644245262658e+03
-5.010052454138752182e+03
-8.654129097291939615e+03
-9.441402369311390430e+03
-1.023306470324359361e+04
-1.014530418391937019e+04
-8.953306704527883994e+03
-8.653253503881349388e+03
-8.730291723753296537e+03
-8.681745051670919565e+03
-7.694863491587744647e+03
-6.852664347741994789e+03
-7.120472202474120422e+03
-8.100704387082576432e+03
-8.637641307320956912e+03
-6.520554899883803046e+03
-6.572744587090373898e+03
-9.564606068110862907e+03
-1.109662399761359484e+04
-1.055215089254451595e+04
-8.914595305400755024e+03
-8.265214499219566278e+03
-7.848293771050545729e+03
-6.208240339050517832e+03
-1.325466813816607100e+03
1.989548538657482140e+03
3.558517572964532974e+03
3.970125185605127172e+03
3.545020087276446702e+03
3.420713732070192691e+03
3.125676387636527579e+03
2.514593909466204423e+03
1.991117265020753621e+03
1.390822101942113250e+03
1.158211108901869693e+03
1.300826835876416226e+03
2.751769032460148310e+02
4.067681120971103041e+02
2.007148668444780242e+03
3.206910482622051404e+03
4.132568460884682281e+03
4.781634682523987067e+03
5.787707271550763835e+03
6.618362621070607929e+03
6.758123054233207768e+03
7.003555267372123126e+03
8.145312882500441447e+03
8.581875734219549486e+03
8.058731693136621288e+03
7.685362070859198866e+03
6.797966287248666049e+03
6.382935765350951442e+03
5.611663312470537676e+03
2.825657248283107037e+03
4.112128556675172149e+03
4.911730464210455466e+03
4.767948170962982658e+03
5.583943329947018356e+03
5.943558389706652633e+03
5.685220135281289913e+03
5.490733482506845576e+03
5.155602885013411651e+03
4.784357989913248275e+03
3.601406996578791222e+03
1.431313844352505157e+03
2.391782237309399079e+03
4.541555070352570510e+03
4.944484055522155359e+03
4.643202577368664606e+03
4.211272500175501591e+03
3.545252909905204433e+03
2.031240553698167787e+03
9.297612344800536448e+02
3.364839936634903665e+02
3.899415660647486703e+01
4.748215174503923208e+02
1.412014400392054768e+03
2.111550110215906898e+03
2.043940906542861740e+03
1.292902893282915329e+03
7.712256079776718707e+02
1.761577603207566199e+03
3.128653891468104121e+03
3.298384887517354400e+03
2.744641728707693801e+03
1.720196855637214185e+03
7.147733701793580394e+02
-8.068564812912293291e+02
-1.679576587734136410e+03
-1.414396359998143907e+03
-7.114068144021908893e+02
4.383466280029666677e+02
7.417757739538365058e+02
5.347350624212714365e+02
1.302520856026042679e+02
-4.136876764724126474e+02
-5.501409983345396313e+02
-3.501157611410899335e+02
-1.516405173188115043e+02
-7.357981869939802664e+02
-2.817645868449249974e+03
-5.359165918509982475e+03
-6.734192723644632679e+03
-6.857661977706013204e+03
-7.940632737196728158e+03
-1.165310441933728544e+04
-1.589001745554110130e+04
-2.203026333871649331e+04
-2.569868302953556486e+04
-2.648407631732429945e+04
-2.548219169534206958e+04
-2.429606883865147392e+04
-2.239174211617399487e+04
-1.812697244267123460e+04
-1.698559878282156205e+04
-1.642864451789855593e+04
-1.644582348295164047e+04
-1.735390337396323957e+04
-1.784975851242763383e+04
-1.709632027291343911e+04
-1.491635088047015779e+04
-1.264953845910543532e+04
-1.390764998070083311e+04
-1.137852598987864803e+04
-7.672266195944928768e+03
-4.926692533143032051e+03
-5.195971171314419053e+02
3.682156094816213226e+03
3.402776310013346574e+03
1.359665178171378329e+03
-5.069520984658104794e+02
-4.910325694624501125e+02
-2.473292930449073310e+02
-2.324674739943109216e+02
1.483713550288335227e+03
4.908369546883149269e+03
6.920862139175754237e+03
6.601411952109780941e+03
5.547150516176895508e+03
3.693277460082957532e+03
2.837912470289033081e+03
3.085267414859820292e+03
3.613601467197072452e+03
3.623155298862215204e+03
4.227214863452677491e+03
5.457096574360370141e+03
7.247075274182116118e+03
8.755224163426029918e+03
9.813672361706336233e+03
1.054572489883251183e+04
1.070363619779284454e+04
1.105169250725618440e+04
1.175916482041175004e+04
1.199622808564037587e+04
1.200201998122742043e+04
1.236059578549663820e+04
1.186008855773741016e+04
1.054787970417972792e+04
9.816073281672426674e+03
9.356812932055763667e+03
8.696234989654829405e+03
8.860433247743789252e+03
9.600633802502057733e+03
9.595010845102082385e+03
8.274721479078398261e+03
7.160926424439931907e+03
6.446910366611873542e+03
6.013895421693594471e+03
5.706071433732327023e+03
6.455607989692020965e+03
7.271674499126098453e+03
7.857351883171699228e+03
7.224733172472278056e+03
5.519868712674559902e+03
4.130818904217137060e+03
3.079717036362520957e+03
2.448699556139716606e+03
1.836616628456506078e+03
-9.103876245587491667e+02
-6.423310639884443844e+02
-6.413744236782358712e+02
-9.922245628949700631e+02
-8.918242727724375527e+02
-1.812517487109263357e+02
-2.115686081470702504e+02
-3.988641920098417586e+02
1.896929553666240276e+00
3.638550927544773117e+02
5.851565033088033942e+02
1.576828469385908875e+03
2.198901771602295867e+03
3.060288528040080109e+03
3.873845784437310613e+03
4.353609070787736528e+03
4.997649354575469260e+03
4.976085683277852695e+03
4.149971150915986982e+03
3.251251448183839329e+03
2.968871372590939245e+03
2.767744852457520665e+03
1.724687346773418085e+03
1.142550163211070867e+03
1.388354095534951512e+03
2.059259074617313217e+03
2.528150294972098436e+03
2.299001631916621136e+03
2.620942110118224718e+03
2.738977747584696772e+03
2.825069990728724406e+03
1.552130468284829021e+03
6.440493357379831423e+02
-3.350525662254298709e+02
-1.601789633985558226e+02
1.373581407047017365e+03
2.646202173613959530e+03
3.872618573428881518e+03
5.179656056482121130e+03
5.918365551222935210e+03
5.992807608492360487e+03
4.864984618574015258e+03
3.439913311291784339e+03
2.621596375769650422e+03
2.322979270201040890e+03
2.001150240294210562e+03
2.185246938891967147e+03
1.956161997450862373e+03
3.066734525556699964e+02
-2.401296811480726319e+03
-5.091624071177729093e+03
-4.900148076539376234e+03
-3.521889782889928483e+03
-2.932723279774583716e+03
-3.154617319205876356e+03
-4.028627019934301643e+03
-4.363713580053411533e+03
-4.663792529176626886e+03
-5.799863082264615514e+03
-6.811810182774881469e+03
-7.064460394668050867e+03
-7.269685738435064195e+03
-7.512697659880221181e+03
-8.454746815680191503e+03
-8.661173406711341158e+03
-8.536906121230054850e+03
-8.702807727133143999e+03
-9.590849034421689794e+03
-9.182054182185867830e+03
-6.558625959597847213e+03
-4.297581759137252448e+03
-3.344834621220290956e+03
-2.721201959441316831e+03
-1.437512797754043504e+03
-1.781593402106914255e+03
-4.284148806148937183e+03
-6.771922002579892251e+03
-9.150771415199747935e+03
-1.159360674164161355e+04
-1.412328055177432907e+04
-1.534948931799579441e+04
-1.460062477238471365e+04
-1.433864367564145505e+04
-1.492940608619610066e+04
-1.565183967002017562e+04
-1.600692214325847635e+04
-1.610050600652612411e+04
-1.679528902906956137e+04
-1.714895260946052804e+04
-1.439533412704768671e+04
-1.188330756562697024e+04
-1.103950818041677485e+04
-9.857311770581894962e+03
-8.328359405636347219e+03
-7.440919287484022789e+03
-6.364664405332942806e+03
-6.685941087304537177e+03
-7.578859170278794409e+03
-8.631579440669112955e+03
-8.054989102898978672e+03
-6.489711378550679001e+03
-5.156389706059443597e+03
-4.516774144347351466e+03
-5.122957352637432450e+03
-5.639547198155859405e+03
-5.671065350242774912e+03
-4.887207347919742460e+03
-4.558680044412169082e+03
-4.842210673575112196e+03
-4.464453929463098575e+03
-3.491150392578057108e+03
-2.859931869994995395e+03
-2.390424534870918251e+03
-1.492307761021877013e+03
-8.482626336692853783e+02
-9.758558662448732548e+02
-1.146831417660222087e+03
-5.320014538026244963e+02
-7.409891592554822637e+01
-2.258553946685058236e+02
-1.339433516985913855e+02
2.781234217840631473e+01
1.016095032406045249e+02
3.777656752943263996e+02
1.470432296165691923e+03
2.050718274351818309e+03
1.594830126498311529e+03
-1.473067504019576063e+03
8.234989795764483915e+02
3.801524104720861942e+03
1.067507623578393213e+04
1.590043937223886678e+04
1.644894645661743562e+04
1.782442209252872999e+04
1.760700927384030001e+04
1.588788504287485011e+04
1.561012234998721033e+04
1.620982993339961649e+04
1.703816180280600020e+04
1.667124010535914931e+04
1.778516845748154083e+04
1.765805565141619809e+04
1.706710073989997909e+04
1.261650203713766314e+04
1.019710813023114497e+04
1.160673305646927656e+04
1.311749569492677801e+04
1.048354170846244597e+04
9.781892884095257614e+03
1.076552425017894893e+04
1.045259129048890827e+04
1.015709187856034441e+04
1.170100177523339153e+04
8.465250334914926498e+03
6.239674837135811686e+03
8.445182438287818513e+03
9.010647910583833436e+03
8.455004234480184095e+03
8.483250236994330407e+03
7.914340524694789565e+03
6.487032181708778808e+03
6.059190276305052066e+03
5.531811510916398220e+03
4.910837532428045051e+03
4.469222507432406019e+03
2.948840423295659093e+03
1.703602417703418723e+03
6.543183643469866411e+02
-5.392302987526584275e+02
-1.360251448105677582e+03
-1.840921038050593097e+03
-1.859327525319299866e+03
-1.311611142626872379e+03
-7.389501870269410801e+02
-4.185368971424401252e+02
-3.254159623916340252e+02
-4.278295088369130212e+02
-1.091011079484315587e+03
-2.226172175383151171e+03
-3.745599904819111998e+03
-3.818543665951169714e+03
-3.197193711357324901e+03
-2.875816951015728137e+03
-3.272788895336800124e+03
-3.877245150946488138e+03
-4.258401817879047485e+03
-4.567149372824224884e+03
-4.639848845033134239e+03
-3.561019240901035118e+03
-2.854067532615530581e+03
-3.276357987433409562e+03
-3.786495163587218940e+03
-3.948141534086049887e+03
-4.003381162753328681e+03
-3.652735244752243489e+03
-3.361452560431757320e+03
-3.310988856224849314e+03
-3.253726065983782064e+03
-2.937100509101267107e+03
-2.593645842021392582e+03
-1.252746687023691720e+03
2.131023858802503810e+02
-3.782228075775937270e+01
-1.058907687210505401e+03
-1.881590389183778143e+03
-1.945431209603330217e+03
-2.488732159582360509e+03
-2.091489484394867759e+03
-1.418186827650254145e+03
-1.924282316376417612e+03
-2.159468296478676166e+03
-1.555266152214660906e+03
-1.115130594988644361e+03
-8.176031073697370175e+02
2.187605427827626556e+02
1.436618151407879168e+03
1.494659011253068911e+03
1.401507743713304308e+03
8.069246069440883957e+02
6.814516051972088917e+02
9.650892371160396976e+01
-3.552850723761887934e+02
-5.542698364582944350e+02
-1.489757745459670559e+02
1.348108364132080851e+03
1.151439043668935710e+03
-1.794459236333024990e+02
-8.328785444776933673e+02
-1.436173963561752544e+03
-1.111734243214006256e+03
1.290593449879916363e+02
1.083839823441451699e+03
2.021355339963953611e+03
1.914284318612363450e+03
1.668217585429425071e+03
3.511999572498088128e+03
4.604479203157868142e+03
5.073423733579864347e+03
5.179560297725287455e+03
4.754748570246928466e+03
4.206575201548564110e+03
3.266719964361601797e+03
2.947015023222030777e+03
2.746484804820015142e+03
2.572039294144147334e+03
8.954441983073839992e+02
-1.500440927159334706e+03
-1.798596796181775517e+03
-1.741243435860005320e+03
-2.062617366041921741e+03
-3.175729533610324324e+03
-3.625474927635403219e+03
-2.967775748282239874e+03
-2.373721398632010278e+03
-1.335387550763256058e+03
-7.767842392965951603e+02
5.179179737406188977e+00
2.276939680007945128e+02
6.514828167398256937e+02
2.254636206944542209e+03
4.033323182143771191e+03
5.503580814822127650e+03
5.778583745269916108e+03
4.592607764094137565e+03
2.821735700356398411e+03
2.279953898133878738e+03
2.608444913861875648e+03
2.539404904420131970e+03
4.221942460195078638e+03
4.969287105155885001e+03
3.597620430190181651e+03
2.061195523840061014e+03
1.426285692883646107e+03
1.771100754582136688e+03
3.219973500851791869e+03
4.508250202323918529e+03
5.081287806820464539e+03
5.573375959651105404e+03
5.214928370717840153e+03
3.170416018776852979e+03
4.551888057523341899e+02
2.885243315631262817e+02
-1.192837059587894970e+02
-8.388634332262970474e+02
-3.467678097525791259e+02
1.913417090966110266e+02
4.109050227604095653e+02
-1.261349913612942153e+01
-1.048670680423379508e+03
-7.478154314374704654e+02
-1.665495009285911010e+02
-2.154538984944817628e+02
-3.942341679290898355e+02
-6.384969936751048181e+02
-2.170795561949583316e+03
-2.825607269047526643e+03
-3.121372451032572826e+03
-3.949608330117433070e+03
-4.768730355260424403e+03
-5.214180906574927576e+03
-6.372438573118893146e+03
-6.179057131144099912e+03
-3.441482122746920595e+03
-2.128216432450735738e+03
-2.562820943644609997e+03
-3.940661676562832781e+03
-5.114096474176943957e+03
-4.966627432473635054e+03
-5.018918073611007458e+03
-5.455304815491243971e+03
-5.701988339123015066e+03
-6.385498794139924030e+03
-7.094479089609010771e+03
-7.826514010809029969e+03
-8.850123075196130230e+03
-8.817638628292517751e+03
-6.817531520741816166e+03
-3.956508376329783005e+03
-4.395108216898685896e+03
3.469299121624868803e+03
5.530212186627300980e+03
7.202007501623935241e+03
8.596200628514730852e+03
1.151328544230812622e+04
1.435065402576709675e+04
1.485760629920244173e+04
1.437338360181376629e+04
1.327639544541498071e+04
1.201114747905525473e+04
1.047002991880933951e+04
8.605279298834895599e+03
6.188338864192474830e+03
4.306741445670402754e+03
3.142886888168702171e+03
1.417139790082562968e+03
1.908494603694043406e+02
-8.656646219932357553e+02
-2.582128772551416773e+02
1.138313304941784963e+03
2.072196464811830992e+03
2.482665706292086725e+03
1.949890850776297384e+03
-3.189569712463821247e+02
-2.257739877809067366e+03
-3.073221059902248271e+03
-3.719240283758450914e+03
-5.899858670305019587e+03
-7.938029991310027981e+03
-5.838585387511770932e+03
-1.020529225615199380e+03
1.044097061480857519e+03
2.806367301589742510e+03
7.315289868879537607e+03
8.932926562238957558e+03
7.248310244464219068e+03
4.599445203478939220e+03
2.148184030668784089e+03
2.743287325779994603e+02
-6.532261944362256827e+02
-2.473453493744473690e+03
-3.635380629601642340e+03
-3.431134092775436784e+03
-3.819842367308122448e+03
-5.106724845876324252e+03
-6.655981773057186729e+03
-8.010693698580624186e+03
-1.063613801056024749e+04
-1.288557919626614421e+04
-1.475012694408693642e+04
-1.633703837584002213e+04
-1.745166087698680712e+04
-1.813227839470091931e+04
-1.815912125803360323e+04
-1.754451400361178821e+04
-1.686979741552833002e+04
-1.600623157363561768e+04
-1.404911717979352397e+04
-1.211188258104226406e+04
-1.037587655019157501e+04
-7.773433830794672758e+03
-5.580970192362062335e+03
-3.394902768100099365e+03
-1.492544782278285538e+03
-1.029367449621637206e+03
3.397612524315652990e+03
5.202662598590023663e+03
5.935433900564552459e+03
7.645716616513839654e+03
9.215146932238276349e+03
1.053668001858467505e+04
1.166998128724305388e+04
1.244161537085255077e+04
1.352396862402660190e+04
1.411674596794395075e+04
1.452412585102166122e+04
1.505673256498930095e+04
1.537332699313097146e+04
1.572321577200701358e+04
1.658215073736783961e+04
1.778060764243775338e+04
1.948122816167253040e+04
1.990273525972348216e+04
1.984637286935976954e+04
2.054036238326652528e+04
2.107268206983320124e+04
2.068993194689794109e+04
2.107833436473409529e+04
2.169634415338261169e+04
2.271276719481364125e+04
2.361368145966930388e+04
2.383210842402100388e+04
2.427853139022002506e+04
2.388832295520628395e+04
2.265987783915879481e+04
2.134303184198675444e+04
2.039518413825364041e+04
1.890082599423728607e+04
1.741759024352997585e+04
1.610097015126396582e+04
1.458653048312231840e+04
1.326182672488320713e+04
1.164854301416217641e+04
9.672416412332697291e+03
7.238019120309941172e+03
4.764945181472034164e+03
1.967826206859475178e+03
-5.066807240709680968e+02
-2.689003733452861525e+03
-4.946510778648799715e+03
-7.480567915424980129e+03
-1.043552934379413455e+04
-1.095079007616841955e+04
-1.103764746664075028e+04
-1.063540285794726151e+04
-1.014536932827979763e+04
-1.168873485443489517e+04
-1.428967261376971328e+04
-1.527950944710799013e+04
-1.470456456560948209e+04
-1.607105145203121174e+04
-1.876313877172697175e+04
-2.230700145092009916e+04
-2.396588247222183054e+04
-2.486596192099014661e+04
-2.569340883504902013e+04
-2.520547406699548810e+04
-2.381432927706854389e+04
-2.395803498688669424e+04
-2.452756263367821884e+04
-2.346008771768370207e+04
-2.430473096234577315e+04
-2.370451332173844276e+04
-2.480551232192977113e+04
-2.554085025039103493e+04
-2.533160040217549613e+04
-2.467381367905443767e+04
-2.249847477728896774e+04
-2.462364256461741752e+04
-2.726829543058173658e+04
-2.786028949434393871e+04
-2.895450145876441093e+04
-2.943687454053928741e+04
-2.724146317627367171e+04
-2.267114310020329503e+04
-2.002084687513094832e+04
-1.747545114719712728e+04
-1.624273922272071832e+04
-1.578460794808920946e+04
-1.590303341836491563e+04
-1.564989273612699617e+04
-1.464991542134232805e+04
-1.312691256087186594e+04
-1.214584216285126058e+04
-1.151045380893373294e+04
-9.675521531099642743e+03
-7.453745451769642386e+03
-6.147922828284751631e+03
-3.908722023717320553e+03
-8.609179357019775125e+02
1.629682639561660608e+03
4.144196273143260441e+03
5.880818679518240060e+03
6.762984843455748887e+03
8.027099624605962163e+03
9.934513726189657973e+03
1.084145196439993924e+04
1.143716738581204481e+04
1.197194992260834624e+04
1.300811940510714339e+04
1.368094479763033814e+04
1.311378136894795352e+04
1.304298284215075910e+04
1.331768826914815327e+04
1.423826319859238720e+04
1.501608876078512367e+04
1.686643653449407066e+04
1.717565207289810132e+04
1.659216828913973950e+04
1.534935906666688061e+04
1.492046243796780254e+04
1.524580519135294344e+04
1.453776741751333066e+04
1.363485165541842798e+04
1.451835500544512615e+04
1.523577010794931812e+04
1.430753053928245936e+04
1.398191189776004649e+04
1.457936473671026943e+04
1.558826934149217595e+04
1.593978072940443417e+04
1.555620592836242940e+04
1.518176306017652314e+04
1.569867599069843527e+04
1.585436489171841095e+04
1.445626101513742833e+04
1.288981488508921029e+04
1.184199128216822828e+04
1.022581517893784257e+04
1.002053089844372880e+04
1.135452065255954403e+04
1.216323209291480998e+04
1.157004884553272495e+04
1.119614354882372754e+04
1.094469054786939887e+04
1.048292591898531646e+04
1.006600466395856529e+04
9.461262333449509242e+03
9.153113083932095833e+03
8.931798663789551938e+03
8.223364469195925267e+03
7.462865889325057651e+03
