3.068074133081693162e+03
1.879129347981335059e+03
1.026557953042126655e+03
6.413410090270181172e+02
2.924330263640200087e+02
1.079778116963025013e+03
2.202392078761811263e+03
2.901253419852776005e+03
2.184435453350514308e+03
1.187029374577391536e+03
8.969267630941575362e+02
4.692725107343333093e+02
5.530874583727171512e+02
1.156279041484619711e+03
6.598966362361130678e+02
-3.620434307112081456e+02
-7.826816632250934163e+02
1.033015288463885327e+03
2.874216673045410062e+03
2.324807646961367482e+03
1.215578876006109340e+03
5.313080719477942466e+02
-1.239846180133309872e+03
-3.559789052582166278e+03
-2.226563819490450442e+03
-1.405912745109806792e+03
-1.621481677316118919e+02
6.416495086966569943e+02
-7.566076109125489779e+01
-2.569115271821744955e+02
6.729970844848915021e+02
9.327977620647861841e+02
3.570853206182673603e+02
-5.558208561892739681e+02
-8.902951342867690983e+02
-7.383232494400982659e+02
9.083991361210234317e+00
-5.661536929987476015e+02
-1.112034325142104990e+03
-1.192601751547364529e+03
-1.271820234052593150e+03
-1.690550915662633770e+03
-1.913173036984325108e+03
-2.412167741369492433e+03
-2.556768632228414390e+03
-2.656565431530307706e+03
-3.240873581141601335e+03
-3.979487137100125437e+03
-3.602144324416629388e+03
-3.209893717631626259e+03
-3.105720052145758473e+03
-2.923763829170798999e+03
-3.508035545751034533e+03
-4.345693844423200972e+03
-4.539988584945755974e+03
-4.301012127115263866e+03
-4.062839520975086089e+03
-3.946595671734125062e+03
-4.106380570888693910e+03
-4.584272770984151975e+03
-5.175530681309308420e+03
-5.585277496354388859e+03
-5.771559901456405896e+03
-5.243463811808434912e+03
-4.616135508141904211e+03
-4.263615451154449147e+03
-3.152974917255990931e+03
-1.671232365267145951e+03
-8.565305731624273449e+02
-1.080047733378957673e+03
-1.420957980311595293e+03
-1.539460245992964701e+03
-2.685925030059275969e+02
8.455265974013329924e+02
1.045773038995255547e+03
4.120751333739563620e+02
6.072805119982339193e+02
4.232799682297036838e+02
-6.370801426323649821e+02
-2.629859739370298485e+03
-2.978069816087469007e+03
-4.367871534266495246e+02
-3.733109147421582747e+03
-1.270181884006663267e+03
-1.001095324902083576e+03
-2.487790988220707789e+02
5.715686320175537958e+02
1.308775886273825108e+03
1.928192006323901978e+03
1.774664790053256411e+03
6.002720672017973129e+02
-3.439433432129399080e+03
1.615111885703280734e+02
2.869061671072797253e+03
2.361967149274109488e+03
1.952198948467518221e+03
2.931672327007310287e+03
2.232467728559420266e+03
1.385473269617421465e+03
8.175148965482259200e+02
4.967062531435168466e+02
1.355968209299518776e+03
2.069160632093285130e+03
1.474305073262421729e+03
1.124283816875201410e+03
1.343990573050907187e+03
1.406506248983464729e+03
1.388939313113802200e+03
1.714065284978077671e+03
2.237801484223768512e+03
1.990243304156157137e+03
1.737402933524156424e+03
2.276158804255122959e+03
2.503656706185385701e+03
2.223967812765719827e+03
2.173959784617361038e+03
2.512514202523413132e+03
2.139662571321699943e+03
1.714535236858575672e+03
1.317095660279233243e+03
1.308271529755389793e+03
8.489979877108851269e+02
1.196263417439057093e+03
1.033085908641861579e+03
3.944786539380084491e+02
4.954829696411749751e+02
-4.493168511044461866e+01
-4.517082898766449262e+02
7.111111581836646565e+02
1.955535921350634680e+03
2.733687481879664119e+03
3.051587086590908712e+03
3.253123170799151012e+03
3.727320337762932013e+03
3.328294853591650281e+03
1.374024105982344281e+03
1.634928898864005760e+02
1.089798052096969286e+03
1.852004165306900177e+03
2.551133638309851449e+03
2.789272622529252203e+03
2.103493182140257886e+03
1.641820542853763982e+03
1.501223762507898300e+03
1.433790624033959375e+03
3.583793316671259390e+02
-1.079006639873537097e+03
-2.371352053180721668e+03
-1.751557561554566746e+03
-7.145833833233605219e+02
-1.836473018345120636e+03
-7.549809184262313693e+02
4.119513999323433495e+02
6.822529314138931795e+02
-2.859096763156281895e+02
-2.893386684003839946e+03
-3.082200608766618643e+03
1.975789630187784383e+02
2.790943005645751782e+02
3.304467273644132774e+02
-7.855057973948783001e+02
-3.996713266027373720e+03
-7.541759819421776001e+02
6.591015367367617728e+02
1.526125603276639595e+03
1.915948391377217149e+03
1.501616343480654677e+03
5.862180948253118231e+02
4.088918388392520455e+02
6.676564807228994596e+02
4.055658567568830790e+02
1.454680881229484513e+01
2.055767678238012195e+02
4.635519300874067881e+02
2.924773008470345417e+02
-2.625179347230466647e+02
-1.199386765119321581e+03
-3.212166466308901363e+03
-5.079890320959126257e+03
-4.298580439229244803e+03
-4.966072630208842384e+03
-3.763377362142133506e+02
1.353585642435685713e+03
5.616862202665103041e+02
-1.232002927957582415e+03
-3.866307819354052299e+03
-1.835327762353473190e+03
-1.842105153313235860e+03
-1.383565395111634871e+03
-6.906634195078421499e+02
1.027515232685934052e+03
1.495959258527000657e+03
1.393851639284841895e+03
-3.117446780313085242e+02
-2.348894920943282159e+03
-1.004831635732319484e+02
9.864963044038837552e+02
6.219966674905032278e+02
5.100139498940387170e+02
7.026130561460396393e+02
9.389809123862652314e+02
1.702943730082457023e+03
2.323405276288939149e+03
2.135568111453392703e+03
2.494485844668075515e+03
2.409095123997666633e+03
1.643172990152390412e+03
2.686921571109443221e+02
-9.731372681758714407e+02
-3.201224926476846122e+03
-5.222532092929604914e+03
-6.640962988475372185e+03
-5.720620199467593011e+03
-9.135310266556790566e+02
3.582371907565605852e+03
3.907183208489057051e+03
2.545758764690672706e+03
2.431125481939573547e+03
2.699278115326655552e+03
1.846530265131267697e+03
5.515214645426618745e+02
1.476827873296465214e+03
1.548988273511843090e+03
1.645295528558001024e+03
1.060208762018820153e+03
-1.218110855350158999e+03
-2.295152812621555768e+03
-1.264922948427705251e+03
-1.703147389646464035e+03
-1.756915621592883781e+03
-1.113465348637594019e+02
7.376348440513527294e+02
5.970737356357628869e+02
7.959137036195847941e+02
1.261827915220674413e+03
1.727675474729928510e+03
1.346805640183617697e+03
1.155471355119374266e+03
-1.349547658549947187e+02
-1.061853517317215847e+03
-1.360719297862195845e+03
-6.345844132937876338e+02
-1.183353166458632302e+02
1.117504827024768247e+03
2.370885009192015787e+03
2.508739128210075705e+03
1.691105100642681464e+03
9.540171136886266368e+02
3.725817415107843544e+02
-8.266847868932584333e+02
-1.865324934296453876e+03
-2.942923513314210140e+03
-2.762789230662006503e+03
-1.673316278198615692e+03
-1.426321363000925203e+03
-7.766974362338278297e+02
-4.684770754936371873e+02
-3.106254328539972107e+02
1.343970850882098830e+03
2.709400582168599612e+03
3.038640065495425461e+03
2.923629643049864626e+03
2.640333971370679592e+03
1.497852085271247006e+03
1.011069411761001675e+03
1.331933883891979349e+03
4.445260241820410556e+02
1.193901130584337125e+03
2.119127311881641617e+03
1.700171115864409785e+03
2.097958974615076841e+03
2.920517477647375927e+03
2.115003852657693187e+03
1.677507226119147390e+03
3.967863866858641813e+03
5.855015430203680808e+03
5.672068611826596680e+03
3.109023209421819956e+03
6.538780594810932598e+02
-3.541343160902457839e+03
-6.118411425631574275e+03
-6.518594227732288346e+03
-4.308915999524841027e+03
-3.617459658806080824e+03
-5.875199436224805140e+03
-5.116979873206356388e+03
-1.488847346632134531e+03
1.940739305094493545e+02
-2.422154559686675839e+03
-3.544163251394558074e+02
-4.558705223788743751e+03
-8.624060134503293739e+03
-8.031546061407831985e+03
-9.319201154564467288e+03
-9.760947950475252583e+03
-1.037475447656847973e+04
-8.917636110409624962e+03
-2.306551538494581109e+03
2.507493670039244989e+03
2.319462959364704147e+03
-4.626073404996508884e+02
-8.436425390455042361e+02
-3.257032189751859050e+02
2.871167164917065293e+03
2.396952145394071522e+03
9.666284834837545077e+02
1.425205312360998505e+03
1.786671674811700541e+03
2.344927182296700721e+03
2.995968374361772931e+03
3.317867500486097015e+03
3.952613430728948515e+03
3.336170206892426904e+03
2.309545108528433957e+03
2.321787243681212658e+03
1.984873338285495493e+03
7.387182195852719815e+02
1.623236061773959875e+02
-1.483064987837479407e+02
-3.762062033687084295e+02
-1.175499637774043094e+03
-1.287188889574469613e+03
-7.521651642994518170e+02
4.695408873543736377e+02
1.296816619190136407e+03
2.137609431500566643e+03
2.563927220927001144e+03
1.888762817439703895e+03
1.789072481561912355e+03
2.152768793606849613e+03
2.462830547989035495e+03
2.437316297492905051e+03
2.325247804159012048e+03
1.936557670490243254e+03
7.412617540161922989e+02
-2.835528934075703660e+02
-6.248244553389134808e+02
-2.707473386457169227e+02
2.524966104921934686e+02
-2.485718016825017855e+02
-6.496925378768587507e+02
-1.095192686636345201e+02
-5.568304232659672834e+02
-3.691161495695998838e+03
-3.125415070011374610e+03
-2.339339507455802050e+03
-1.779525197929217029e+03
-1.803340157927254268e+03
-9.858046340812312565e+02
-1.528517532205136753e+01
7.386270121020842225e+02
1.053764845687276875e+03
4.989408266058998720e+02
1.720345301786932623e+03
1.775028130642926499e+03
7.229210196482639503e+02
1.069924812783565585e+03
9.650255287816844429e+02
4.501400819936031326e+02
1.352447599117156756e+02
-3.235695670861027224e+02
-8.323464460820763406e+02
-7.261507804535733612e+02
1.870536736448601403e+02
-7.470033109687800277e+01
-5.995415015165007162e+02
-6.974924315514662112e+02
-2.584059604169095223e+02
-9.942428144841803714e+02
-9.240842690187428161e+02
3.997190146106348152e+01
9.939525508434156791e+02
5.379344249368166402e+02
-1.185276985093717261e+00
4.765610763094644540e+02
1.104144530662400939e+03
1.526611374177041853e+03
1.540866047873449816e+03
3.440148206295703517e+02
-2.259500705736006125e+02
-8.512669680027249797e+01
2.115454943728005048e+02
-2.279624879522942820e+02
-4.986309750009155550e+02
-9.284838116573456546e+02
-9.696614183760582364e+02
5.327763216794826349e+02
1.737881451297773538e+03
1.152687284840711754e+03
8.142226936484394173e+02
3.794190626666661501e+02
-5.236823228442386835e+02
-1.696900403193224975e+03
-2.927267994686704697e+03
-3.711977463844286831e+03
-3.949058718615367980e+03
-3.378512219911185639e+03
-1.950302106083734998e+03
-4.883859535101152005e+02
-9.327620260591078249e+02
1.015198365666314118e+02
-5.735628602976091770e+02
-5.439045852414895990e+02
-1.584965817356823266e+02
6.377884202220715224e+02
1.186778654783898673e+03
5.574325876714514152e+02
7.108501089739854706e+02
1.131857234419876931e+03
-1.705419336447513103e+02
-2.063269979007830443e+03
-1.322652546529426161e+02
3.196478294885960167e+02
-7.887207134964423858e+02
-3.886341263524901706e+02
-2.328650456510162314e+02
-2.264416410917274050e+02
8.837315443610747252e+02
1.841842726638756403e+03
1.699365492747230974e+03
7.173678351710542529e+02
-2.191099282269979938e+02
-8.179922617308003510e+02
-7.902381691420250718e+02
-2.238038036105652111e+02
-5.468210085273956622e+01
6.111373128034861111e+02
7.386662569272918972e+02
1.080978782534737093e+03
1.143079890997541042e+03
1.272803863018388256e+03
1.644138877764946074e+03
2.000121088482855384e+03
1.471829735850093584e+03
6.284092761342573112e+02
-2.371320882368026446e+02
4.201697857502837508e+01
9.469634345854057074e+02
8.972295329109330169e+02
-1.320231359520229546e+02
-5.935513158867291850e+02
9.157750748939841969e+02
1.036137232553254307e+03
2.901596557600803976e+02
-1.140558426931045375e+02
1.064871634637198383e+02
-4.921742505446966476e+01
-8.843182201472753832e+02
-1.518739713700592802e+03
-1.456448871018873660e+03
-1.249229924018864949e+03
-4.019571659898769553e+02
2.719831407284745524e+02
9.926040884391369445e+02
1.181995393286747912e+03
7.961284601425153369e+02
2.356975705717777601e+03
2.082549666981763949e+03
8.778009443525836275e+01
-2.034171699625811414e+01
5.262122541022536097e+02
1.156454976361475474e+03
9.804740140466121829e+02
1.353317079943101078e+02
4.091162734915179158e+02
4.248416747387063879e+02
8.246175813330959272e+02
1.739456733485942777e+03
1.821365367523601890e+03
1.389162253581007008e+03
8.634129993623581640e+02
6.551058621410815022e+02
-3.372753844860632739e+02
-2.069659343288335094e+03
-3.085182286780144750e+03
-9.708850704331822499e+02
-4.376639937902424208e+03
-3.240343849996298104e+03
-4.371655392956122341e+02
1.961938824849173670e+03
1.127977374242833548e+03
-1.966024516968439002e+03
6.101220812764388484e+02
-4.952962729637824424e+01
-1.996213526366714859e+03
-1.659860879927081442e+03
-2.151409443443842065e+03
-1.269910595394990480e+02
4.735797035381083475e+01
1.947542037702442599e+02
-3.288198977132355481e+02
-3.278391687144855950e+03
-3.061926266172013129e+03
-1.119342967578237904e+03
7.437503313947534878e+01
5.574192675630681606e+02
6.066917547871038323e+02
-3.229431483976937898e+02
-3.726576212030614897e+03
-1.673192283765590446e+03
-2.707967318349516859e+02
4.695803178880663609e+02
1.476056926244482383e+03
1.834754819904511123e+03
2.936695810193320426e+02
-2.910213722109400351e+03
-1.848792440628257282e+03
-8.093740247913570940e+00
9.298964780146689009e+02
1.060116201847029743e+03
5.994224151254200024e+02
9.349333392115607921e+02
6.916861794757486450e+02
-1.793224610727562833e+02
-6.741754190221497538e+02
-1.150519527473925194e+02
4.411839969932153167e+02
5.359239198951045324e+01
2.471647543257138580e+02
2.495927196019661096e+03
3.382822284232397578e+03
2.001834368422694752e+03
6.770142000256723804e+02
2.574619050254483454e+02
3.270407968528582501e+02
3.426168377501564350e+02
-1.356449813810337730e+02
-1.729827600095444723e+03
-2.431115223021030488e+03
-1.657264113668748223e+03
-3.760557886732763677e+02
9.303466642756835654e+02
1.574970580336558896e+03
1.444910275230705793e+03
1.418246202462822794e+03
6.303498226428802553e+01
4.025442351705482338e+02
9.307280809811890094e+02
9.904910396346532480e+02
6.355924997024179675e+02
3.480883511863170838e+02
5.251602283461094203e+02
5.466338289615787289e+02
1.313928500965469368e+02
-8.886612418747530739e+01
3.442304662185946427e+02
4.015316008955988423e+02
4.075304900187063595e+02
2.425010782426873845e+01
-1.766738693535274649e+02
-7.470571947939777147e+02
-1.107876576465107291e+03
-1.312199148960251705e+03
-9.291355836956491885e+02
-9.099207066595713513e+02
-1.219976793037448942e+03
-1.428288467590340360e+03
-1.854588909926997076e+02
6.657334359715308665e+02
5.971259920251786752e+02
2.119014291963437557e+01
3.019454699341704895e+02
1.090897835930580641e+03
1.862784563082389468e+03
1.685435274696377746e+03
6.318104034018749644e+02
-5.176875290859141998e+00
-2.355088399276199596e+02
-3.761641248686313475e+02
-1.900261039766718056e+02
8.899800363178840144e+02
1.836775166457947762e+03
1.565403200388627965e+03
1.169950936114043316e+03
1.002250275238646736e+03
6.822746484351514482e+02
-4.608672727177331012e+02
-1.462184163585472561e+03
-1.100782405939747377e+03
2.372012792081628447e+02
1.363772688124603519e+03
1.862913285221298565e+03
1.751498938917681471e+03
1.506562883914320992e+03
9.541964634637269000e+02
9.403098916339722564e+02
1.007885025780067167e+03
1.320991714848504898e+03
1.234606834250077554e+03
1.223716562803823990e+03
1.221320452038196663e+03
1.523530454491491128e+03
1.519308309760134307e+03
4.076201138254833722e+02
1.573663334646046223e+02
9.285576755327105047e+02
-2.291632253331161792e+03
-3.268280951884450587e+03
-3.544254720073172393e+02
-3.976020583163353422e+03
-6.948036505147132630e+03
-6.885694843403479354e+03
-1.412713435925761132e+03
-9.322269890968420896e+02
-4.511224279657762054e+03
-5.686846503913898232e+03
-1.063060210212599259e+03
-7.038946482063194026e+02
-2.866356557166876428e+03
-1.011308832369154061e+03
4.280463610473030940e+02
1.073830320831336621e+03
7.491439362426747266e+02
4.658687255980416353e+02
5.030369242760787074e+02
4.607586280327939221e+02
4.460339861868641833e+02
1.028016175010421733e+02
-4.889373367646251722e+02
-6.871987873011864849e+02
-3.750284412551028481e+02
-1.264314438111646496e+03
-2.242007848165020278e+03
-2.035121397883241343e+03
-1.116687480430505275e+03
-1.166744696783582391e+01
-1.031127038165937790e+02
-2.620258328899153071e+02
1.037618481194984497e+03
1.862934186054428437e+03
1.798933435645312557e+03
1.267530410525568186e+03
1.327697794481844767e+03
5.354951721611751054e+02
6.409227189625440815e+02
1.731063413781374038e+03
1.296940978297387346e+03
1.112523967029239884e+03
1.366823628173755878e+03
1.337975983907319687e+03
1.110960219148716533e+03
8.087851690198460801e+02
1.255268707864480717e+02
-1.039197588267853831e+02
-1.655882596562747153e+02
2.276681784238185173e+02
2.378696605626988116e+02
-4.097523220698252544e+01
2.181119346342352117e+02
5.461964772081681758e+02
6.514022332727107596e+02
5.157984327514228653e+02
5.733728988527855108e+02
8.741022522396694967e+02
8.408777220840306654e+02
9.857005545084664391e+02
7.936717403933693049e+02
3.377166609285953882e+02
4.204297262101354704e+01
-9.424544337161793237e+02
-5.148529093975729438e+02
-3.201586985969991019e+02
1.297858055230300351e+02
-2.308483424334357039e+02
-6.771580341333739170e+02
-7.002835953502767552e+02
-3.520084938177575395e+02
-4.761117934393144537e+02
-4.239814141794096258e+02
-7.525782686660207901e+02
-5.607666008731545162e+02
-8.060816602716171531e+01
1.409113965909944000e+02
3.638585466733664475e+02
4.052410266744109890e+02
1.450359931989173390e+02
-5.605930129881340918e+02
-1.164482701428640894e+03
-1.206727894667574674e+03
-1.609427131276174350e+03
-2.294599449643513253e+03
-2.432244188897690492e+03
-1.978175844356966081e+03
-1.848472504114516369e+03
-8.661143319456724612e+02
1.100870909349449903e+03
1.335480688637976982e+03
9.616699331997137961e+02
4.274109904293708837e+02
2.047321487226481622e+02
3.367335826029582222e+02
1.894082516548717763e+02
7.974096116426932213e+01
-1.432870429393258007e+02
-8.816998503074147493e+02
-1.841507965409129156e+03
-2.336659328698447098e+03
-2.692143215338478512e+03
-2.193139262279488321e+03
-1.887512514663275397e+03
-2.091133865826582223e+03
-1.883071604445036883e+03
-1.339471526648221015e+03
-1.373306871551009408e+03
-1.508511469505319383e+03
-1.910039374613433438e+03
-1.474982020183326313e+03
-9.831696485564143018e+01
8.599165322685093997e+02
1.384727421767965780e+03
1.740164150751706302e+03
1.902165473156546568e+03
1.970611878695057158e+03
2.260339878437376683e+03
2.252531923331915095e+03
2.045350509999160522e+03
1.200602391772750025e+03
8.133399498413654101e+02
9.945209839441117765e+02
1.099132228184877476e+03
1.379222219785490779e+03
1.579542628024983287e+03
1.687137718294249908e+03
1.510122908486748202e+03
1.460440515699955995e+03
1.256030482852698242e+03
-1.831198691810477044e+02
-1.307128248800283245e+03
1.528378365439554329e+02
8.428967721644600033e+02
7.758238677219294459e+02
3.882741428850686702e+02
2.317625097336540705e+02
5.594552140644193514e+02
8.383156107790620126e+02
8.684071293608870974e+02
9.281107345751131561e+02
3.696943404193031029e+02
-9.541582447025601255e+01
8.232389940018726975e+02
8.547858118721063647e+02
1.893476130983436008e+02
4.876465806148042361e+02
1.001818683857781821e+03
4.688365285607281976e+02
3.329322385614386235e+02
1.588831095578069608e+02
-2.020397408489281190e+02
-1.548280208231612107e+02
-2.569685063256298641e+00
4.394367865366018009e+02
2.236261762108875246e+03
3.106435185584750343e+03
2.683105535423359015e+03
1.949525211400545459e+03
1.074716632501348613e+03
8.506707961756544591e+02
4.021385178073283555e+02
3.747682440006312277e+02
8.215767640256282220e+02
1.089722902319685545e+03
1.103480470173921503e+03
1.578172850391172915e+03
1.572433296197166555e+03
1.352876011007902207e+03
1.417518938719938433e+03
5.844557491070339665e+02
4.364794791025420864e+02
1.349525663067958021e+03
2.203713290058344683e+03
1.956093861137167323e+03
9.437985078865539208e+02
1.720761666629072806e+03
2.638792401587187669e+03
3.189805276212833633e+03
4.008640675589389957e+03
2.996088835986430240e+03
1.933261700029916938e+03
2.188216258302617007e+03
2.515032371392251207e+03
2.779671847431666265e+03
1.594875296680559131e+03
1.012420182935701519e+03
-5.061601134035048233e+01
-3.513938385738239958e+03
-6.339389309978490928e+03
-6.610100137463488863e+03
-6.009302611420326684e+03
-4.706141002683520128e+03
-3.789600681701050689e+03
-4.604386830519364594e+03
-5.490328508668449103e+03
-5.695722167138655095e+03
-5.771672324581732937e+03
-5.160066501580311524e+03
-4.557046128490761475e+03
-4.159585867515018435e+03
-4.488605267396719682e+03
-4.138102645490465875e+03
-1.304149314342933394e+03
-3.413685076097426190e+03
-5.618789169353694888e+03
-5.311539524958491711e+03
-5.039944580097681865e+03
-5.295007019044669505e+03
-6.003529036418072792e+03
-6.274511965661544309e+03
-5.360853056252346505e+03
-5.292503427296870541e+03
-4.083633755679261412e+03
1.433784792992491703e+03
2.290008403041989823e+03
-1.204000085526584826e+03
-3.123282876378970741e+03
1.490769510001999265e+02
3.305098798282046118e+03
3.497826116710975384e+03
4.653971368132151838e+02
2.843814130677288631e+03
4.332063943490453312e+03
4.022173597302283724e+03
3.655277244542980952e+03
2.428464820798955770e+03
1.091763490018925040e+03
3.881633207597470232e+02
-3.327013598741398681e+01
9.568856414880514194e+00
1.476564228180926932e+02
7.421165220719575473e+02
1.738055781709827897e+03
1.275392674236123639e+03
6.862293692622848766e+02
1.777707607390942258e+03
2.501742181162457200e+03
2.775451580505545280e+03
2.167958524444111845e+03
2.762276154166426295e+03
3.353424345429963523e+03
2.778378359225172971e+03
2.445317734802895302e+03
2.255402083053455954e+03
1.414605730796074795e+03
8.049564192782672762e+02
1.255499316713193139e+03
1.320235857406178866e+03
1.236373292312140620e+03
8.759542100403854192e+02
1.040230120059714636e+03
6.932783503724584762e+02
4.642156112997591890e+02
-3.666489418572177215e+02
-8.384369259656253917e+02
5.374525334910998708e+01
1.592404102814411431e+02
9.631344206120736544e+02
1.662914245196832326e+03
-5.198023703012675014e+02
-2.679851980321107931e+03
-7.763222623799100575e+02
-2.718735359193016166e+02
2.900950854672389667e+01
-5.221287176561357910e+02
-2.553451344403581516e+02
-3.040702477394414132e+02
-8.029394344315862782e+02
-4.680118014840892329e+02
-8.956069304074843558e+02
-8.406727422757854811e+02
-7.472112535767595318e+02
-9.269248957360653094e+02
-1.229766136446369956e+03
-6.327990041163832302e+02
1.770534660837753052e+02
-3.709776756756311755e+01
-5.891647090123780117e+02
-9.930485995120452571e+02
-1.221785745649646287e+03
-1.243714720361265108e+03
-1.105756912346181480e+03
-8.576622152842105606e+02
-4.904314214370496643e+02
-9.939541560977515928e+02
-1.751273056973461962e+03
-1.770384976424955539e+03
-1.336580141133711322e+03
-8.399869664017121522e+02
-4.714278679044336400e+02
-3.147384345553938942e+02
-3.987689148735652225e+02
6.039628370616075870e+01
1.071288923092762069e+01
-6.559352212058647638e+02
-9.817556097623491951e+02
-1.385620935795275500e+03
-1.776535824537713324e+03
-1.427590008184763974e+03
-1.483725672027540895e+03
-2.008908280330447269e+03
-1.488187390148087843e+03
-6.644229168121057683e+02
-3.256738466156232903e+02
4.961438884502729074e+00
5.593321356570526177e+02
8.653483029808769516e+02
-1.129827058712843950e+02
-1.366688770468222401e+03
-1.918907342314454581e+03
-1.722694241713556266e+03
-1.481001846005389780e+03
-8.359077822884945590e+02
-6.194574014283925862e+02
-1.536432511736353206e+02
-4.125900512679311873e+02
-3.864054681414662014e+02
4.838315143555381042e+02
4.560875621790884793e+02
-5.716674236181240758e+02
-1.679656539858909809e+03
-1.207994962280391292e+03
2.367173968577615710e+02
1.194325949442723186e+03
4.475373457836757325e+02
2.492353853483307660e+02
1.798320793905724713e+03
2.205750309627933802e+03
1.698556733777526006e+03
8.717312648926113070e+02
2.329617617922190220e+02
-8.609165974413298272e+02
-1.729954345910073471e+03
-1.587289694134019328e+03
-1.880943327738895960e+03
-1.263956770415829169e+03
5.576157463812119204e+02
1.051527009681667096e+03
1.737455121048672027e+02
-8.266730384059862899e+02
-1.616838346574512343e+03
-4.468243283869546190e+02
4.341484399740140248e+02
1.204745721656238629e+03
1.959829015918435289e+03
2.503380349709950679e+03
2.523493209247207233e+03
2.377054586094934621e+03
2.588880003892309105e+03
3.206863273907086750e+03
3.257977303971477795e+03
2.754150988573079758e+03
3.005319389954154758e+03
3.847528177428219351e+03
3.803651249456888308e+03
3.220685237131102895e+03
3.057375829583751056e+03
2.636582621368590480e+03
2.762139476738504527e+03
3.785946853601721159e+03
4.392998336329167614e+03
3.801229549064403272e+03
3.096481887237172486e+03
2.327607081611898593e+03
2.130751475772813137e+03
1.367913562468522969e+03
1.055837617012664623e+03
1.116387323029802246e+03
1.520498874315032708e+03
3.205125026445664844e+03
4.214167861868207183e+03
3.276674794376480804e+03
2.269763465898436607e+03
1.955204528816976335e+03
1.849908361259316962e+03
9.488985059942853013e+02
1.629246986785575473e+03
2.437891390802292335e+03
2.720708354139056610e+03
3.182607121850796375e+03
1.623610921570467781e+03
3.097066777028987872e+02
1.130894933614365073e+03
2.472252012469823512e+03
2.868702324041732027e+03
2.909530740839649297e+03
1.332771726179111511e+03
-2.586733734596677095e+03
-6.684265154425500441e+03
-1.460803286588027959e+03
1.045746056729864449e+03
1.334471281664515800e+03
-1.945596489672429470e+03
-1.437487351167787665e+03
3.137813092135402712e+03
7.193941755467153598e+02
-1.513751022161814490e+03
-8.785990891425828977e+02
-1.162060802986923363e+03
-2.638252699908590785e+03
-4.177057101904289084e+03
-7.471293434731824163e+03
-1.030384568269872216e+04
-1.086072772395928405e+04
-9.541805338978578220e+03
-1.069600326606008093e+04
-8.603273721645899059e+03
-8.642602244620038618e+03
-6.305843347682874992e+03
-4.883885157775335756e+03
-1.886739080452995040e+03
-5.018372544095637750e+03
-6.854722593553873594e+03
-6.317612996458704401e+03
-8.333748735529932674e+03
-4.540115948828665751e+03
-3.020767526893801914e+03
-6.203471301345318352e+03
-9.083194030594791911e+03
-1.060695769287908843e+04
-1.050470585804436450e+04
-7.803249887082300120e+03
-4.675536676924401036e+03
-4.508445385450640060e+03
-4.189843854400457531e+03
-2.712507853586847887e+03
-4.144282810019676617e+03
-5.644104151642618490e+03
-6.085023885846903795e+03
-6.395757851023551666e+03
-4.239064771979115903e+03
-7.677197344555634118e+02
1.515204177798727187e+03
2.586568701428948316e+03
2.677522957446110922e+03
2.831233645150786742e+03
3.977062509634579783e+03
3.990224689444469277e+03
5.200693600488098127e+03
7.351549703741894518e+03
7.183993749251427289e+03
3.957312075107895453e+03
5.535466744250391002e+02
-8.601571448685801897e+02
5.516365919927279720e+02
2.393952367011754632e+03
2.484688051568839910e+03
1.082853444974222157e+03
-8.415208817818172520e+02
3.186242364576632440e+02
4.565556424840613545e+03
4.080641833845239034e+03
3.793334768586921200e+03
5.507219954159772897e+03
5.250552935642994271e+03
4.797052885890252583e+03
5.382100404573206106e+03
6.675005989855327243e+03
7.124502185082637880e+03
7.988525466878962106e+03
8.000524439695250294e+03
7.552858176596570956e+03
6.358080605898945578e+03
4.544397098862970779e+03
4.399835641529540226e+03
4.081520592171229055e+03
4.389750005915230759e+03
5.340191181817704091e+03
3.850195541773726291e+03
2.709689063959498071e+03
4.299244849779771357e+03
5.021188919489943146e+03
4.982021230863280834e+03
5.111034169191564615e+03
4.982755787771194264e+03
4.033046560870980102e+03
3.644048979754697939e+03
3.572078325799984668e+03
3.463689005581079982e+03
3.342943940228552037e+03
3.544076878265496816e+03
3.295090075159940625e+03
2.932054997905024720e+03
1.965081669691831166e+03
1.014143043995994731e+03
9.911636641723005141e+02
1.075215052852403460e+03
2.399314141371932692e+03
3.613384573986834766e+03
2.942338630630222724e+03
2.940319524901164186e+03
3.958378596919611027e+03
2.013294103645258019e+03
2.120294568956176988e+02
2.796521372434469299e+02
1.059205394445557658e+03
1.600597915107566905e+03
5.468160543814661878e+02
2.518618964241820493e+02
1.078714346010362533e+03
3.543480370291898112e+02
-5.980631841338287131e+02
-2.033524930552076739e+03
-4.525395541183635032e+03
-6.132599697835360530e+03
-8.543184405103420431e+03
-8.983237137738369711e+03
-9.046794227576550838e+03
-8.735890878972430073e+03
-6.208611573435938226e+03
-4.910961464170822182e+03
-4.497816337175167064e+03
-4.795302913007489224e+03
-2.877507602413267250e+03
-4.085636695431873704e+03
-5.030766032200557675e+03
-4.953657210386760198e+03
-3.914219580576797853e+03
-6.063870134005062937e+03
-6.897558840630545092e+03
-5.878323559308995755e+03
-4.108412025576747510e+03
-1.688944349569418819e+03
2.020044361311518742e+03
2.147468909769097991e+03
1.542334290702600356e+03
9.416105219060441414e+02
-1.068899306558712624e+03
-9.422532806882429668e+02
-6.815408943891433182e+02
-1.491879412669642079e+03
-2.009386199886310806e+03
-1.498122067669698026e+03
-4.050684212276673861e+02
1.655704796712790767e+03
3.792093620533553349e+03
1.866085013656326055e+03
-1.234451994407805614e+03
-2.220587916057275379e+03
-2.500443098951257070e+03
-4.310685874937736344e+02
2.012492226227022229e+03
3.924170393506817163e+03
1.948820204508291908e+03
-7.056647514265297332e+02
-1.778356818900803319e+03
-1.646338350031762275e+03
1.603206218069119871e+02
1.975570129915015968e+03
2.747365835275458721e+03
3.166664513732063369e+03
2.197435081796809754e+03
1.433591111978585104e+03
8.650627229828256759e+02
-3.531178325856246261e+02
-1.011097833847784273e+03
-1.224954759541473777e+03
-1.967662552464887085e+03
-9.723060280354983433e+02
3.639863250219871134e+02
1.378182775488210609e+03
1.667166185519981809e+03
9.948274180714234944e+02
5.491264481538457858e+02
9.031614113741862866e+02
2.639634638967883689e+02
-7.925835707043177081e+02
-9.246175921622589158e+02
-1.181148138137503793e+03
-9.651825934214147082e+02
5.174723513392816443e+00
6.060513016644022173e+02
3.953975895804310312e+02
-4.258854224573375973e+02
-8.668637863887601043e+02
-1.794177998499691739e+03
-3.660048495184319563e+03
-6.856401418148697303e+03
-3.576410386257335176e+03
-1.339234493148176625e+03
-1.776871343982176541e+03
-2.414227863900040120e+03
-2.982383950303770234e+03
-3.603474520975807536e+03
-2.445410870898099347e+03
-2.271241063686435098e+02
-2.853383071978795371e+01
-4.077228488200528318e+02
-4.636515780891750182e+02
-1.128294231416535467e+03
-1.077747623937780418e+03
-6.049645228857643815e+02
-3.500508913846448422e+01
-1.606969838161118787e+03
-2.143776292393900349e+03
-1.066261455680486506e+03
-3.294220354339063306e+02
1.504700665553952376e+03
2.835004117583969219e+03
8.105688101761529651e+02
-1.272636724056676712e+03
-1.242655221767354533e+03
-6.952162087251639377e+01
