-4.075386259730020811e+03
7.922986827697550325e+02
-1.573056991994218095e+02
4.707424631999265898e+02
-2.470570266634841573e+03
-2.547182531869856575e+03
3.773862162439720123e+03
2.423667276146799395e+03
1.772311136756781934e+03
3.525786357628204314e+03
3.690163018726561404e+03
5.376487311896602478e+03
5.518761324162524943e+03
5.494999991757761563e+03
4.824138968914312500e+03
1.925151074876579287e+03
-1.862021719531302097e+03
-5.294425440484372302e+03
-6.456058840842372774e+03
-3.879849132968366575e+03
-1.532703371216264941e+03
-2.923526195718550298e+03
-1.557203667553537343e+03
1.488446241279895730e+03
1.652418039038888310e+03
1.873818678052100267e+03
2.983727546674396308e+03
3.417825583353485399e+03
3.036668164753147266e+03
2.449418714827767872e+03
2.641302123876570931e+03
1.817282589297629329e+03
-8.566317317646852416e+02
-3.009593154332837003e+03
-6.099432375245477488e+03
-6.241145913218269925e+03
-4.090660531920187623e+03
-3.659997077663424079e+03
-1.009378871494236819e+03
3.336073196232007376e+03
4.989078882381401854e+03
4.697942536782567913e+03
4.470204132768595628e+03
6.718441583706584424e+03
7.565144643551689114e+03
5.275735379334581012e+03
5.414969817181389772e+03
6.224464107021727614e+03
6.183521621987825711e+03
5.839965744919121789e+03
4.193168467957140820e+03
2.333139962451535666e+03
1.982865613083815333e+03
2.059372978867434995e+03
8.467414297195863071e+01
-2.792283361183457600e+03
-3.761508838581961754e+03
-1.244227118593736122e+03
1.500617600369646425e+03
8.621962927056297303e+02
-7.579735351397420118e+02
-7.808483108821076257e+02
1.057481557911856271e+03
3.412887368749697544e+03
3.908425200154877984e+03
4.401129396745376653e+03
5.585007211400319648e+03
5.645063333093930851e+03
5.650279043771991383e+03
2.928646097248826209e+03
6.791418795853826396e+02
2.567705576005723600e+01
-1.825797055641858378e+03
-1.265383179698196273e+03
3.658796488492619687e+02
7.200149593989668801e+02
-1.397020891909868823e+01
-6.991640601178517045e+02
-1.316614912655785702e+03
-1.251417316449726741e+03
-1.388504514810128512e+03
-1.866883497808572656e+03
-1.922532819014186771e+03
-1.520458734317922108e+03
-3.306477576009692143e+02
1.574914502094432237e+03
6.871943858492331856e+02
-1.754864966696874717e+03
-3.154314627030788870e+03
-3.128156948591604305e+03
-3.783393438664113546e+03
-4.401964755071676336e+03
-5.224974381709379486e+03
-5.574455036035415105e+03
-5.471488657366989173e+03
-5.542198519597636732e+03
-5.577588412894326211e+03
-5.939647967988908931e+03
-3.271224575157853451e+03
-3.206381392061248334e+03
-6.028267284532692429e+03
-7.191873137689368377e+03
-9.637182052887201280e+03
-1.003709383044278002e+04
-5.115608350263578359e+03
-3.292734920594711639e+03
-2.176428020862047561e+03
-2.857686278530144136e+03
-5.158503636278877821e+03
-6.061953046958060440e+03
-3.211067607054090331e+03
-6.928055035435503441e+02
1.998596529343950010e+02
4.890892230049490536e+03
5.080253732363430572e+03
3.837911132766468654e+03
5.028885212061603852e+03
4.039181101976503669e+03
2.892779439260401887e+03
1.635625034434520103e+03
-3.142386835815113386e+02
-9.167052450056730777e+02
1.963728805466259928e+02
1.892948670673592460e+03
1.998834326050975505e+03
2.192012054128049840e+03
3.054620699055050864e+03
3.313672917284145115e+03
2.811164903065842282e+03
5.411304699489052155e+02
-6.623521986418902543e+02
5.327454204708241150e+02
1.228384582283427108e+03
2.522568571411640278e+03
3.309372890544548682e+03
2.763798417458111544e+03
2.127820818595510900e+03
9.914306949329677536e+02
-1.644214487222880905e+02
-2.014801291171625280e+03
-1.889659747420713757e+03
-2.668780958635107368e+02
5.596382572281958119e+02
6.469486401985171824e+02
1.335982013858598293e+03
2.346814311235666537e+03
3.087440082529208212e+03
3.897946431043324537e+03
4.130388726047748605e+03
2.845751598005217147e+03
2.110034533058665602e+03
2.406254003404395917e+03
1.748567924326931461e+03
1.761113203326710618e+03
6.661817613315835160e+02
2.436454225123178219e+02
4.015056766629149365e+02
-5.003452928889502687e+02
-1.985053640461767600e+03
-2.791615642721731547e+03
-2.152948724666721773e+03
-8.509505591622372549e+02
5.593218624758881106e+02
1.216776170873268939e+03
1.105796797232427025e+03
7.182752267316407142e+02
9.242302124197394733e+02
9.814942582934727398e+02
1.748976436812637530e+03
1.784691095941386948e+03
1.008752390620126334e+03
1.627269153604794738e+01
-6.569577504693040737e+01
-9.920400315991524565e+01
-1.762215435120274606e+03
-2.165705292330217162e+03
-3.356769338031781899e+03
-4.372472278084193022e+03
-2.759847291744541963e+03
-1.628877524138197714e+03
-1.665617461216000720e+03
-1.919977283822108802e+03
-1.427882759137329685e+03
4.095447826776915008e+02
1.864376990098314764e+02
-1.131073606063180932e+03
-1.639038573822355147e+03
-5.415382643665760725e+02
3.455779172744213383e+02
6.713405916309061467e+02
2.556687217854464961e+03
2.872690582136438479e+03
2.090301919623650065e+03
1.819662308258607709e+03
9.018556086257771085e+02
-1.772989543584438650e+02
-6.960180309434460924e+02
-2.569229348728689729e+03
-3.572861897215303088e+03
-2.592999187107781836e+03
-2.595633109029577554e+03
-2.647838732405600695e+03
-1.569518809381451774e+03
-5.205801572113083466e+02
5.679657162923499527e+02
2.137136959809424297e+03
3.025891051082808644e+03
2.762117851635388433e+03
2.445529867131577248e+03
2.003070935038076186e+03
1.588030350271264524e+03
4.655241167235735702e+02
-6.314609984531475675e+02
-9.790442152327015535e+00
4.714130243943041592e+02
1.749913298563722037e+02
-6.599189410930436850e+01
-8.146596883048151767e+02
-1.269236502660857013e+03
-1.464769767478655012e+03
-1.442272503407571776e+03
-6.560329054067063907e+02
3.109603169825174405e+02
7.800901484942270372e+02
8.674730323244750707e+02
1.192071638263525301e+03
4.429207432465437364e+02
1.902984285490130105e+02
8.099332734255319792e+02
1.011875421768583806e+03
1.164895735029889693e+03
3.177065951596245554e+02
-3.337155375870660237e+02
1.594969495169780060e+01
1.916101635118267552e+02
-1.237592897625881051e+03
-1.571482109702133812e+03
-2.281831666928162576e+03
-2.999670250773244334e+03
-3.260632159274468904e+03
-3.237417435213053977e+03
-1.204336316917038403e+03
5.665950664722045076e+02
1.477136461649901548e+03
2.032440923545140095e+03
1.837260448999702248e+03
1.151616129702456419e+03
6.704349061097700542e+02
1.369360717716481986e+03
2.016997205711363677e+03
2.365620236013432987e+03
2.076055433848396660e+03
1.365068813333176649e+03
1.039340518517199371e+03
1.488678480892474681e+03
1.724218427916753853e+03
5.376749848030366365e+02
-1.176214237034026127e+02
-5.515096693336309386e+01
-4.254245353676975583e+02
-5.065274088766167324e+02
2.485425740707244984e+02
5.508966014952337673e+02
7.437780070708099629e+02
1.227772043584587209e+03
1.687986027870269936e+03
2.427096743051820340e+03
3.146333697028996085e+03
3.746481502134745369e+03
3.937529565370537512e+03
3.772445650056167779e+03
3.477197658890599541e+03
2.810031392188283007e+03
2.446072880001673184e+03
1.831318081636926991e+03
9.686414397332812314e+02
-3.823498566561954704e+01
-4.073957105223741451e+02
-4.615747913963733708e+02
-2.939707137043425291e+02
-6.578183517351469618e+02
-8.308777443304048802e+02
1.278859704923857635e+03
1.891324924806861645e+03
-1.254428804838960559e+03
-3.478297274685577122e+03
-3.045235954605421739e+03
-3.365246319430572839e+03
-3.219294240500814340e+03
-2.499279505222959415e+03
-2.360175526503290257e+03
-3.098844496404685287e+03
-3.793485331767325533e+03
-3.874301398027858795e+03
-4.130183514021502560e+03
-4.505348367927062100e+03
-5.326979255593480957e+03
-6.245925215431879224e+03
-4.430013500930998816e+03
-3.904293832347109401e+03
-5.861930874549208966e+03
-5.632783584320296541e+03
-1.263552941227502743e+03
2.220643017678760771e+03
8.097952294297122080e+02
-2.514000772828092067e+03
-2.564679860716468738e+03
-2.500069458391956687e+03
-2.575137438290528280e+03
-2.645971301454825607e+03
-2.398592321845728748e+03
-2.171825490825624001e+03
-2.401520073090899132e+03
-3.087767801951908041e+03
-3.149818876603616900e+03
-1.250733697727701610e+03
5.773936346295958089e+01
2.727483188573541497e+02
3.002179530308152948e+02
-2.840060380738545405e+02
-3.479813179838059796e+02
2.048549199749202643e+01
7.434355361655616434e+02
1.566845982493267002e+03
1.855830092841503756e+03
2.323441716758629809e+03
3.394969764779766592e+03
4.256469237006889671e+03
4.573904527824366596e+03
3.949392289362875545e+03
3.299746127144678667e+03
2.872861069441140899e+03
2.983835687220727323e+03
2.783812456540353651e+03
2.476799037165887967e+03
1.746910340121714171e+03
1.145105892355208880e+03
6.504079811375880809e+02
4.878886543893310659e+02
2.575173289165439883e+02
3.942774972732814263e+02
8.201260032889068725e+02
1.526941662924560887e+03
2.097988285010719665e+03
2.526612835081306002e+03
2.515953068240511584e+03
2.648935953053361118e+03
3.026679703123890704e+03
2.709281195283070247e+03
2.594707138944935650e+03
2.382878444023531756e+03
2.010771177967789527e+03
1.794444716555483865e+03
8.829787602886182185e+02
6.083469337345399026e+02
6.526671341778860835e+01
-1.103124705588027382e+03
-1.456327671201398289e+03
-1.687431353177785923e+03
-1.601686873939967199e+03
-1.253019706110784682e+03
-8.687754020220388611e+02
-1.757478210563146774e+02
4.541310208014577938e+02
8.830098888176501077e+02
1.223108526125702838e+03
1.400366162152072548e+03
1.188669875032844175e+03
1.001850633838464546e+03
1.403816581734913825e+03
1.738323776406514980e+03
1.516536692820507596e+03
1.435527274072419914e+03
1.222124942426187772e+03
1.165509447158279499e+03
4.326976246254711782e+02
-3.852584383973304512e+02
-1.187261324875453283e+03
-1.413408010677349694e+03
-1.466847935593776128e+03
-1.201638998651355678e+03
-9.746793703933826691e+02
-4.809552031387848956e+02
2.150312183424534496e+01
3.967679282544103216e+02
7.239259133392513377e+02
1.154107043526653342e+03
1.612274629507397322e+03
1.332264953719821960e+03
1.316053703485014012e+03
1.462520308996065523e+03
1.360644932701643484e+03
1.136522628680275602e+03
1.447188382596185420e+03
1.334677004352723998e+03
8.109931964571275103e+02
-3.157907098402035899e+02
-8.258221573646414981e+02
-1.096257452927259919e+03
-1.069043976615341307e+03
-1.291210379161033643e+03
-1.053812284550560889e+03
-7.128507414923681154e+02
-2.528332821009267661e+01
7.338631217708640406e+02
1.502618500969646902e+03
1.298082960816358991e+03
-1.697603570293069879e+02
-1.632965637365798329e+03
-3.864495080364248679e+03
-4.238459401980198891e+03
-4.768814351620783782e+03
-5.087623872462676445e+03
-5.113901353699471656e+03
-5.336589253434385682e+03
-5.739655339933265168e+03
-6.420139540504727847e+03
-6.653183104263718633e+03
-7.342857934980053869e+03
-6.187209014886721889e+03
-2.115245727906690263e+03
-1.032914513571296538e+03
4.118543257980871886e+02
1.185044878375487770e+03
1.917641203651201522e+03
2.324550111011805711e+03
2.370816120197026066e+03
2.565520085992688564e+03
2.440655400425311655e+03
2.228113824636068330e+03
2.314858658954629391e+03
2.032020605486537306e+03
1.955504746216679223e+03
1.710361090937544077e+03
1.504585284596710835e+03
9.209419887033848227e+02
7.842800975005651765e+01
-3.938935680353658881e+02
-4.050115062219163633e+02
-4.179890264729227169e+02
-2.950009518095785666e+02
-7.088555566801235841e+01
1.984819014523939416e+02
6.210255880788294007e+02
1.223622125286256050e+03
1.808302669187389483e+03
1.999139380463014732e+03
1.966013175151526411e+03
1.911971104064592282e+03
2.047038990356580598e+03
1.943127484271663434e+03
1.614267739696995477e+03
1.439494516391007437e+03
1.545784401685021294e+03
1.473281577681141925e+03
5.849531421367713619e+02
-4.938547726335224297e+01
-5.366866588512735916e+02
-5.499646148208051954e+02
-9.143432478326525370e+02
-6.558356197195358845e+02
-3.524358207185042602e+02
-2.511826604247062562e+02
2.339925705130548010e+02
1.085191668236070200e+03
1.519432203111587114e+03
1.832755132362278118e+03
1.732171710752961872e+03
1.846765222427616209e+03
1.927501264777844881e+03
1.838232970193169649e+03
1.591971872296638821e+03
1.721789504796849087e+03
1.730637014596407425e+03
1.466587209844317840e+03
9.246375033989986605e+02
-1.625385569102357408e+01
-7.191156598320428657e+02
-1.179030366081508419e+03
-1.271033461387766010e+03
-1.117135436551096291e+03
-1.887220985858516087e+03
-3.856290230748857994e+03
-2.884245915119282472e+03
-1.786120110600456201e+03
-1.316915642071029652e+03
-1.833608636432154071e+03
6.468453008630782506e+02
1.139570349549444018e+03
1.621532219201744056e+03
4.565952338872191376e+02
-5.042044673152270207e+02
1.335287278766627878e+03
-7.360290166316347040e+02
-1.187133627108070186e+03
-1.487018974141123408e+03
-2.674769856349648478e+01
-2.346354424373607344e+03
-3.366986847617413332e+03
-3.741638163718683700e+03
-3.485312628595487240e+03
-2.348005127096459091e+03
-2.712585212497691828e+03
-2.129494255495212940e+02
-1.300114214582540853e+03
8.278149002042111988e+02
1.610839764792413689e+03
1.775019138403613397e+03
1.183422334756364762e+03
-5.409000727439056391e+02
-4.729873306400802448e+02
-3.039951400952525546e+03
-1.661800376459388872e+03
6.886054776629341632e+02
-4.477462128711613900e+02
-4.269496379841381213e+02
4.520244015507155382e+02
-2.496773890636579836e+03
-1.526412701949211396e+03
-2.838904502406650408e+03
-3.700262507846105109e+03
-2.492552806881998094e+03
-2.531760630950689119e+03
-5.018605939981146093e+02
1.202175399482708372e+03
1.968337013348336541e+03
2.505632935318284126e+03
2.056129582140058119e+03
2.167802872057948207e+03
2.312647102655405888e+03
1.939670712532062680e+03
1.707883579350778291e+03
2.000334135119996745e+03
1.777033826827640723e+03
1.394881365563547888e+03
1.240849662969328847e+03
2.498974745308196646e+02
-2.769846762578075641e+02
-6.989226693203994500e+02
-1.057148305657796527e+03
-1.315441851389882231e+03
-1.097331758765796849e+03
-6.087694860216691950e+02
7.651409903867363482e+02
1.711506691571963984e+03
1.679892341537950188e+03
1.815169228549833861e+03
2.079678159504932864e+03
2.313517680944191852e+03
2.473576798478283763e+03
2.607807131107840178e+03
2.471263534372477352e+03
2.429907643106116666e+03
2.211709674943293521e+03
2.207636665875852941e+03
1.192637476223148724e+03
2.976683350602705218e+02
-2.501783615284671214e+02
-7.199005516914048712e+02
-9.729296694864141273e+02
-8.962777377734510083e+02
-6.354561424005082699e+02
-1.405661613627218287e+02
8.499407186644406238e+02
1.438267847114880624e+03
1.919482102963714624e+03
2.287529470141366801e+03
2.309367800630647707e+03
2.400032779725785531e+03
2.390520264760758891e+03
2.541773268729545634e+03
2.502812186897312586e+03
2.171573865453099188e+03
2.017797938085137048e+03
1.854618403240664747e+03
1.329970557170748407e+03
5.558589432823239349e+02
2.052485379743245630e+02
-8.994857822161394623e+00
-1.010028149538263307e+02
-1.868643905895827970e+02
-9.959908471732511259e+01
1.958105974403211178e+02
6.573824721567156075e+02
1.624119065248527249e+03
2.363990208417442773e+03
2.678038154844282872e+03
2.629327207577958234e+03
2.376854594068724509e+03
2.362577530205999665e+03
1.817471011494769527e+03
2.214614550338292247e+03
2.370101579911950466e+03
2.198842263689778065e+03
2.099798913627252205e+03
1.471903436313600650e+03
5.372172445951393911e+02
-6.292238049683367080e+02
-3.124561378513996715e+03
-6.032976722602217706e+03
-7.491553461774189600e+03
-7.230074271829700592e+03
-7.009467158485977052e+03
-6.305874273383378750e+03
-4.536244795398396491e+03
-3.578420084242473877e+03
-3.510398924108947540e+03
-3.652255060015065737e+03
-3.499996440331422036e+03
-2.427673663858305190e+03
-2.168333160065483753e+03
-2.471717954508272214e+03
-3.720869735904509980e+03
-1.986823564246440810e+03
4.376873274446907658e+00
-3.363152903532871733e+03
-4.933490957672155673e+03
-5.487748010911377605e+03
-5.923866369150664468e+03
-6.084766940910191806e+03
-6.323467766651170678e+03
-5.908048085532808727e+03
-5.320498897858125019e+03
-1.750731521405376270e+03
7.112999719934331324e+02
1.096657400269698201e+03
3.105363070919401252e+03
3.609620385536996764e+03
3.422524274884740862e+03
3.359944114685667046e+03
3.379780843614065816e+03
3.083980186891387802e+03
2.929610113950014693e+03
2.859716486195452035e+03
2.493413080104452092e+03
1.866653917859519197e+03
1.301401408353216084e+03
5.196420850958447772e+02
-1.425791798027614448e+02
-5.152383391266108674e+02
-4.423369596256512750e+02
4.420587879204371973e+01
1.864038112424391898e+02
5.963100027501097884e+02
1.558968873898327502e+03
2.270455192903857096e+03
2.515742829975530640e+03
2.386897229633088045e+03
2.244029431876061608e+03
2.417137974850621504e+03
2.452240241021208021e+03
2.353389506032401641e+03
2.213559923794755377e+03
2.053917260897095275e+03
1.721575541596424955e+03
1.718570360592554835e+03
7.697803378589076146e+02
-2.917357257304981886e+02
-8.809608540303559039e+02
-8.908798648630862544e+02
-8.125051176157594455e+02
-6.028774943873505663e+02
-5.769790414932035674e+02
-2.786506471598514736e+02
6.323906272643320108e+02
1.440102074368235208e+03
1.752484890233262604e+03
1.607580833170410642e+03
1.255663329669285531e+03
1.471681252673631661e+03
1.520624686910162154e+03
1.284574928986269015e+03
1.085573196920622195e+03
6.456665714225606507e+02
3.327715477855004451e+02
4.990753518977609815e+01
-7.709313223628495280e+02
-1.623754603214343433e+03
-1.878273407259992155e+03
-1.571910346001198150e+03
-1.321678735832385883e+03
-1.215675382868709676e+03
-9.269870081579711041e+02
-1.884921821595917493e+02
3.779612991072395971e+02
6.264074503768213162e+02
6.738494438851492987e+02
7.652118791147407819e+02
8.495203506212741331e+02
7.888097776374494288e+02
7.541145067724622777e+02
5.845318568229780567e+02
4.080589215555482383e+02
1.476865460497092215e+02
-1.156100766777762630e+02
-3.018212176093242078e+02
-1.045853098988847933e+03
-1.585759291010695051e+03
-1.785561325435423669e+03
-2.364208967175337875e+03
-2.863870765904979635e+03
-2.866584197499890251e+03
-2.148343757438099146e+03
-7.341252420566581804e+02
4.350876154885655183e+02
1.104337393616195641e+03
1.181653069419558051e+03
9.130324844523419188e+02
6.804868084494032701e+02
5.240169756303245094e+02
6.215670467110335267e+02
9.211085762703901310e+02
9.566582313187777800e+02
8.131679314162937544e+02
4.276459193357267168e+02
-3.869346588858192604e+02
-1.308477133720900156e+03
-2.031184792621084398e+03
-2.593163744148803289e+03
-2.743407640571518186e+03
-2.705007175168723279e+03
-2.590978318720992320e+03
-2.145356911834039238e+03
-1.545035601586251460e+03
-6.218222708065750339e+02
-2.717139527750313732e+02
-1.147701305699836070e+02
2.298520807604365359e+02
8.290538515419043506e+02
8.257934080836886324e+02
1.121044918041191067e+03
1.582724994424478382e+03
1.727811900967501288e+03
1.676337750855888089e+03
1.346422772301846635e+03
8.089487334505761282e+02
-4.762477637297968158e+02
-8.891829193874584689e+02
-1.192723034724289619e+03
-1.554632080579998956e+03
-2.190109120517744941e+03
-2.111366882036066272e+03
-2.127543252728473362e+03
-1.611352235141030405e+03
-4.701547993480601804e+02
4.067887844894434011e+02
5.574965919120821809e+02
1.081239402346961924e+03
1.925909026920406859e+03
2.478100944181257546e+03
2.841124321906426303e+03
3.153949825553438586e+03
2.972624443940468154e+03
2.477760274401698553e+03
2.232551919754706887e+03
2.237140291106116365e+03
1.529534310897485966e+03
4.155491620794709320e+02
-4.848969834325489892e+00
1.903295049433281747e+02
1.767204246317130014e+02
-8.757825699614046755e+01
-3.378233180794147188e+02
-6.779281782604570594e+01
5.075812022768071188e+02
1.303245736789563352e+03
1.995038476911368434e+03
2.112032714428603867e+03
1.968658068599818762e+03
2.037558394290597107e+03
2.257560458371512141e+03
1.879907983997712336e+03
1.272324569956917458e+03
1.490531319433795488e+03
1.840779416859804087e+03
1.765693494560702220e+03
1.438672538341498694e+03
4.887910279783840224e+02
-4.023098593263229645e+02
-6.755663469853845982e+02
-4.090862801786847740e+02
-1.410138490433838001e+02
6.415628408334402843e-01
7.848820958537738761e+02
1.265995886605573787e+03
1.282079442466044384e+03
1.680890537538691206e+03
1.983394451119022051e+03
2.674676789429750443e+03
3.404898185836264474e+03
3.510992619395441579e+03
3.687791185465475792e+03
3.730336689302263494e+03
3.159711351936186020e+03
8.458160039396323100e+02
-2.538302123840984677e+03
-4.893755402592058999e+03
-5.594655456670563581e+03
-5.423878280820448708e+03
-3.803065559381789171e+03
-7.781972876452199444e+02
-2.572320174588746340e+03
-5.831347493594335901e+03
-5.391239085860013802e+03
-4.273248183602764584e+03
-4.421572201532311738e+03
-4.523261587428224630e+03
-3.866127806928596783e+03
-3.566966276218980056e+03
-4.057985987205879155e+03
-5.298076303094256218e+03
-4.114079991097218226e+03
-4.073892638442106090e+03
-5.454445155274956051e+03
-4.681899822050578223e+03
-4.306482088490844035e+03
-3.548171361521417566e+03
-3.827821414292773170e+02
-3.921941011535360531e+02
-3.528447043450836645e+03
-4.172846704051677989e+03
-3.891512219007215208e+03
-4.045028965498357593e+03
-4.176961808763027875e+03
-3.472444749290809796e+03
-2.837719313424169741e+03
-3.209709079852614650e+03
-2.472215315392688808e+03
4.156901964456559995e+02
4.578779023887310586e+02
1.789429605009440365e+03
2.709531363805357614e+03
3.513339560424917181e+03
4.875750302523847495e+03
5.545706142601968168e+03
5.377199622275431466e+03
4.507466391730174109e+03
2.934580042180579312e+03
1.736422498559003316e+03
1.619052401601950351e+03
1.788334253945120508e+03
1.331251846076492029e+03
4.301230853202206958e+02
1.741125144753327163e+02
7.409849877065452972e+01
5.630430548210983943e+01
-5.452394470712551993e+02
-1.996744683804197678e+02
1.138795399601008512e+03
1.650040577959081020e+03
1.866352296349763037e+03
1.567985721794259007e+03
2.086941940541737495e+03
3.835091942977674989e+03
4.564594488552714211e+03
3.444639688451090933e+03
8.722169848733472008e+02
7.804372196611599293e+02
1.320302630876590683e+03
1.237082298416743811e+02
-3.242078744126104652e+02
6.324074275155289797e+02
2.042541399060279900e+03
2.601313166799210194e+03
2.905831445567965602e+03
2.600092999330003749e+03
4.811270068955834063e+02
2.000909083780872379e+03
2.851523924197403630e+03
2.377405004833809016e+03
1.726330402917607898e+03
2.534745170081021570e+03
2.661944867300350779e+03
1.427984757886787747e+03
6.736292011083423859e+02
1.207020907893352160e+03
1.573342165779847846e+03
5.977163434286237589e+02
-7.609538084429406126e+02
-1.588684584113929759e+03
-2.724598486132772905e+03
-3.625466160239370765e+03
-4.080194547503441754e+03
-1.960488388044480871e+03
1.254903829350465003e+03
3.309955105748499136e+03
4.011630773792489435e+03
3.943911033510926245e+03
3.634727035590462947e+03
3.238960590512263025e+03
3.836773962735231180e+03
4.097323948843149992e+03
3.685552539332504693e+03
2.984462846965283916e+03
2.385037852769061828e+03
1.979267456524390582e+03
1.174205559782414412e+03
8.778100856042043461e+02
2.968746455208352586e+02
9.837332829711488102e+01
1.903677883780557920e+02
1.106951800355965503e+02
-6.127366288123870390e+02
-8.798151480108698479e+02
-3.693145528557941475e+02
-4.242179212472895529e+02
-1.196457024156587465e+02
9.645253653511957737e+01
-1.090900011109629304e+03
-1.649732183720394005e+03
-7.441369152146953638e+02
6.167964703942361666e+02
4.052539991360760609e+02
1.913082637089888181e+02
2.037123029141870063e+02
1.603572478777054187e+02
-1.679188354565920349e+01
-1.049547734504415075e+03
-2.396976337129118747e+03
-3.354265869523748734e+03
-2.641438099017732839e+03
-3.288500074758252595e+03
-6.052496796661880580e+03
-7.780418793318768621e+03
-6.780176523003397051e+03
-6.579725844028856045e+03
-6.625138928229314843e+03
-6.174455388207758006e+03
-5.691640041618302348e+03
-5.240754504285670919e+03
-5.884741411472193249e+03
-7.462554104484200252e+03
-7.761383205277901652e+03
-4.481141450149336379e+03
1.091362508946257321e+03
2.609064383949189960e+03
3.683803535321553227e+03
3.574538920915000290e+03
1.690213937851255423e+03
4.267301436766127836e+02
9.870198944510448200e+02
1.625007386022115725e+03
2.132654206890473688e+03
1.803015900546164175e+03
1.109132966598977191e+03
7.290103114050326667e+02
3.367344605005334870e+02
1.098417268762794265e+03
1.371053612643671158e+03
9.765366241918939068e+02
2.418722565489710234e+02
-1.769855773318452350e+02
6.149680732619665378e+02
1.004872951341360704e+03
1.361742218819144910e+03
2.717394301580668980e+03
2.310815626012471967e+03
1.641977466549124074e+03
1.071890350890041418e+03
4.195012748652242749e+02
-3.462522914441636317e+02
-6.613907490407107161e+02
-3.069431754502184049e+02
-2.189946764136075430e+01
3.368230072072470875e+02
1.089402560787918446e+03
1.749784722846232171e+03
2.204951294464108742e+03
2.196955146013321610e+03
1.794785929213148847e+03
1.670486416875616214e+03
1.879094446021128078e+03
3.441565535964655737e+03
3.514806226744368814e+03
2.535829214673411570e+03
1.547636953363247812e+03
-1.848135942764459401e+02
-1.690454107800997690e+03
-4.111238311968145354e+03
-5.352195628719492561e+03
-4.213361032035791141e+03
-2.056761188395065346e+03
2.726591264988178409e+02
1.221877505610487788e+03
1.219871737730916720e+03
1.483689962314140757e+03
1.808500226964538570e+03
1.135246871220330831e+03
-1.007318857771696763e+01
-1.211338754639771651e+03
-4.616177956412135472e+02
-6.049494043072693330e+02
-2.336241700827505156e+03
-4.008435105416896022e+03
-4.838550476071663979e+03
-3.684617513236523337e+03
-1.327564226049402350e+03
-3.613449611574831124e+02
-1.043014593165055203e+03
1.752441450319197202e+03
4.411925970902230802e+03
2.799399247239111901e+03
1.697867674414780367e+03
2.861407405940939043e+03
3.288058257612952275e+03
1.814808773203438022e+03
5.196681652734405361e+02
4.616713638751968460e+02
1.728858339619605204e+03
4.262713140710384891e+02
-2.306021980724332479e+03
-2.234115897869785385e+03
-9.120710573032656612e+02
-6.467899067675741662e+02
9.938159589704882819e+02
1.932674758369164692e+03
1.947783362533013815e+03
4.014314713853851657e+01
-1.876225465387130271e+03
-1.713256842581354022e+03
-6.009689010273183385e+02
-4.164400238428821126e+02
-3.793662278838653947e+03
-4.876627119272564414e+03
-2.928315104390924262e+03
-8.756415031905922888e+02
1.345433943767342043e+03
4.436878671178514196e+03
5.961759707432442156e+03
5.364120786589392083e+03
3.979881764298829239e+03
1.208010939355012624e+03
1.171518035817871350e+03
2.754396940532167264e+03
2.272714114492675435e+03
1.640509662689129073e+03
2.188736762969370830e+03
1.212279869279537706e+03
-6.938364007416372488e+02
-3.045595315127869526e+03
-2.837046638399849598e+03
-4.252339519239807260e+02
-6.831152369628783845e+02
-2.077687851635489551e+03
-2.495930080564191940e+03
-3.862131680133464862e+00
1.724502468121872653e+03
1.234215888075605562e+03
1.426297717835617050e+03
1.756701992648321720e+03
1.009465067724810865e+03
6.807039372734545850e+02
-1.510458859637059732e+03
-6.089074381091325449e+03
-9.819241892684965933e+03
-9.137137906244934129e+03
-6.845985626049370694e+03
-4.895900619407542763e+03
-2.265337041880369270e+03
1.764770471045613704e+03
3.284223662831124784e+03
2.178949896665485539e+03
-2.649609175586776360e+02
-9.075852537517305336e+02
6.890890396041014583e+02
-5.359323043913401534e+02
-1.050609186080685959e+03
4.931779820817585573e+02
2.405181983223107636e+03
5.452482986895346585e+03
6.900184614167755171e+03
5.080258607698874584e+03
2.827508640261294659e+03
2.641628849403863569e+03
4.082225790088161830e+03
5.389560420192252423e+03
2.985088570080756199e+03
-2.555363914214399301e+03
-4.065874049311312319e+03
-7.738637058661093704e+01
2.325134868334772818e+03
1.509490447029969346e+03
9.976006981020574358e+02
2.996557706071930625e+03
3.857261846479043015e+03
2.184525279290956860e+03
8.496287201434500957e+02
1.298650613904728971e+03
3.174307986702236576e+03
3.101422710442820971e+03
1.979947258824961864e+03
-2.214702032317949332e+01
4.421506761923697013e+02
1.610884600630007981e+03
1.085063425064538251e+03
1.064677953636266238e+03
-1.170359164444843145e+03
-4.053092050973110872e+03
-3.652450431553381804e+03
-1.570413118823503282e+03
-1.570032036060786595e+03
9.346152883912499192e+02
4.391496018992203062e+03
5.636705149748998338e+03
4.853160650003908813e+03
1.260794711735876490e+03
3.769295477310259912e+01
1.790852567100554324e+03
2.918326950102756200e+03
1.449012976023729379e+03
8.697795515791052594e+02
4.296566290602614231e+02
-1.989258550997425118e+03
-2.866827020257245294e+03
-2.531234184173939866e+03
-3.962542473194970171e+03
-3.419590294705226825e+03
-3.608442271592350608e+03
-4.889212443782522314e+03
-5.991987525828347316e+03
-6.395710774245263565e+03
-6.941365869866360299e+03
-6.273902692485819898e+03
-6.786098060220120715e+03
-7.131205382063159959e+03
-2.736158448660630256e+03
3.022173669139021968e+03
3.018809010146495439e+03
8.646676494334870995e+02
6.578630809427899351e+01
-3.730709035553206832e+03
-6.696755662048298291e+03
-7.754483524879313336e+03
-7.561901989636112376e+03
-8.057933141245359366e+03
-8.669511410385044655e+03
-7.279631942125231944e+03
-2.483244063965564692e+03
3.169617648261364138e+03
2.353008745563548928e+03
3.687715439384885030e+03
4.317617506136653901e+03
4.786772983651459072e+03
5.266272276992379375e+03
4.552245490221010186e+03
2.055753921342347439e+03
1.355844431405247860e+03
2.454472702926294005e+03
2.692704065472778439e+03
3.074612149367057100e+03
3.020260526083618515e+03
2.888651652548605853e+03
3.879778910302276927e+03
5.225711455975189892e+03
4.710449531292225402e+03
3.582049140907730362e+03
3.644504109465988222e+03
2.387817413046662750e+03
-4.329920190357700562e+02
-2.637812297651007157e+03
-2.391638180568414555e+03
-1.680488366544840119e+03
-1.960316467204713945e+03
-1.490110369958259071e+03
-4.718093023947901656e+02
5.857691776883510784e+02
7.736491435213815748e+02
-3.182315060645591984e+02
1.607090109088564759e+03
4.243765069745090841e+03
3.897840675858431496e+03
2.446280331157278852e+03
9.270787340124903722e+02
2.145316660226487329e+03
3.270038801786733984e+03
2.097329443589651873e+03
9.251418829375035102e+02
4.863379952535762527e+02
-3.179774051665752950e+02
-1.348351736373251242e+03
-1.599699135359009460e+03
-1.324235985041563026e+03
-1.135918583157552348e+03
-1.366703390548824473e+03
-1.244498379931953195e+03
-1.765195649780241411e+03
-1.716943773493138224e+03
-6.776036656225561501e+02
-1.947051634538120197e+03
-2.850326377734928883e+03
-1.239706900865371153e+03
6.867244948640683333e+02
1.743099739670552708e+03
2.805265079002265338e+03
3.512275152842211355e+03
3.515278427344682314e+03
3.450256834649624579e+03
2.485048777051557408e+03
6.346664197349595042e+02
-9.478794770273946142e+02
