-7.660238246474985999e+02
-8.924302840844163711e+02
-9.535411255201057656e+02
-3.815778962380954908e+02
-2.287751490182120619e+02
-1.004301250544569825e+03
-3.840122245617590124e+02
3.804342347657926666e+02
5.258269425500704983e+02
5.419053623781013584e+02
1.083284426410009019e+03
1.255986977365037319e+03
1.294649958453576119e+03
1.038041970618159894e+03
1.019280711301273413e+03
1.248601751318558854e+03
5.240309867462627835e+02
-1.495822084166296975e+02
-5.459145821045350431e+02
-5.885323601442676136e+02
-5.541989638746615583e+02
-5.003262369783993222e+02
-1.859157739399251170e+02
-2.722926393815424717e+02
3.583656359249915226e+02
9.834710854784585763e+02
1.700012719837653094e+03
2.637935650836541754e+03
3.070407788463222005e+03
3.258507948451328957e+03
3.435055419428738332e+03
3.456968963652483126e+03
2.952418398419044934e+03
2.511471214783407959e+03
2.093844760119242437e+03
1.591133290163097854e+03
1.131465374188251644e+03
3.029610469518313494e+02
-5.907177781486922186e+02
-1.026257472492099168e+03
-1.104653586005657417e+03
-8.613157294084484192e+02
1.666780145702419702e+01
1.422641484870649720e+03
2.113779970804319873e+03
2.381142558644479777e+03
2.754517507485326405e+03
3.111858361618168146e+03
3.280286423467118766e+03
3.237820591025546946e+03
3.344483111226862547e+03
3.213511930845162169e+03
2.919848832251767362e+03
2.536404930970571513e+03
2.478067377311154814e+03
1.869616518225329173e+03
5.190649728147059250e+02
-1.593373515131771910e+03
-4.459923115359419171e+03
-6.191507526927969593e+03
-6.515801931497606347e+03
-6.097082966649119953e+03
-5.753651513775211242e+03
-5.328476769605714253e+03
-4.938606490721254886e+03
-4.372758233442255005e+03
-3.885704963155757468e+03
-2.989407924044429365e+03
-2.231952272245222048e+03
-1.774427916465312137e+03
-1.610712216891864273e+03
-1.406945540286579217e+03
3.277654717447838095e+01
2.612710707924291455e+03
2.867951174513112619e+03
2.263370340248276534e+03
7.908350942408221727e+02
-2.564676571537373547e+03
-5.417014183658620823e+03
-6.091195692079986657e+03
-6.335208687820629166e+03
-6.092159406889662932e+03
-5.518247366749279536e+03
-5.105309689309248824e+03
-4.936123011559111546e+03
-4.411712081887985732e+03
-3.987056782954794926e+03
-3.215924739764325295e+03
-9.023535037181459302e+02
2.518397862175746923e+03
3.645225874112204565e+03
3.595586253362343086e+03
3.747790850234012851e+03
3.653563904556300713e+03
3.230688876168650950e+03
2.822240553176595313e+03
2.123370219710147012e+03
1.333061058758029503e+03
7.552562114138245306e+02
3.639365833912640937e+02
6.227188011839273685e+01
1.643330205538024700e+02
3.300314377544586364e+02
6.345313784485285851e+02
1.112909996289599576e+03
1.544905213509853638e+03
2.200723944743285301e+03
2.353486526622725250e+03
2.618140880347651091e+03
2.650827804745350477e+03
2.790588977823938421e+03
2.881471768137464096e+03
2.885557891021777777e+03
2.922711331781408262e+03
2.251986128578890657e+03
1.472467898382304384e+03
6.729609719853359593e+02
1.985235067478843973e+02
-5.227958206312683842e+02
-7.308721985484418155e+02
-7.496345238149734769e+02
-7.242165379865394925e+02
-4.284634752567870919e+02
-2.301568061096487554e+02
1.746572891675524204e+02
6.287538324171998738e+02
1.199410790920669342e+03
1.673352622404381464e+03
2.225206634278207730e+03
2.298442190480443060e+03
2.416666266694207025e+03
2.046307430975693478e+03
1.528812023973241139e+03
1.523152596124535648e+03
1.517685438246555350e+03
7.482976778809371581e+02
-4.951966975871901582e+02
-1.126895418982487172e+03
-1.353495839370367321e+03
-1.574177286282159912e+03
-1.665265718322487601e+03
-1.268558592375517946e+03
-8.709245942767685165e+02
-2.394715098564414006e+02
-3.770637281407330761e+02
-3.625393739594634326e+02
7.089540198608082164e+02
9.041796390617184898e+02
8.823437473297816496e+02
1.100501988933898474e+03
1.024516318068410555e+03
8.863087735731977546e+02
9.380360176621064738e+02
6.199022536611753367e+02
3.199573147681826413e+02
-1.394024412838781757e+01
-3.907931646785226576e+02
-1.189485155079090191e+03
-1.744987549387521767e+03
-2.103525365910309119e+03
-2.413160957005842647e+03
-2.359854260506374885e+03
-1.849630399870181236e+03
-1.388366276771937919e+03
-1.087074230642867406e+03
-4.929068669710906079e+02
1.751978689520879584e+02
6.432222974975725265e+02
1.351060938665842059e+03
1.638761250694452656e+03
1.434379964355922539e+03
1.665052371489586903e+03
2.015759885510441563e+03
1.574487134648724123e+03
1.392307653067462979e+03
1.118327168687288577e+03
2.254086671531080412e+02
-3.516135300026773507e+02
-8.748278868530210275e+02
-1.573125719419415873e+03
-1.603478244363432623e+03
-1.633937532756624933e+03
-1.303485977540939757e+03
-1.057060332948857194e+03
-6.228798463049099610e+02
-2.940379135785211702e+02
4.586283552600104940e+02
8.230888967313869671e+02
2.844715244965061629e+02
-1.197262425113430481e+03
-3.322391806359870316e+03
-8.287002058236396351e+01
8.065402216805933904e+02
1.175821438551406800e+03
7.718259968453418196e+02
-3.148986034119677768e+01
-5.571450219139074989e+02
-5.871009304646207738e+02
-1.290490840585691785e+03
-1.670436630620476080e+03
-1.500001000180705432e+03
-1.365143644052905756e+03
-1.267757763257633087e+03
-1.456933654260937146e+03
-1.122711417986120978e+03
-7.010732855193438127e+02
-5.080263520329522748e+02
-5.616045398178131336e+02
-2.027511651811326203e+02
5.705135700654814173e+02
9.292740933090675526e+02
1.601405136111612819e+03
1.931866249206802422e+03
2.022691932335975935e+03
1.767916650026040998e+03
1.145523809369995661e+03
4.504934151890998351e+02
-1.353075438818700604e+02
-7.709489361363704347e+02
-1.209445315162360430e+03
-1.304857041363163034e+03
-1.193180964106404417e+03
-1.422479411177732118e+03
-8.378071336702167855e+02
-4.370489673928610728e+02
-2.130954190350536237e+02
2.839924477833080232e+02
7.931711889967668867e+02
1.380426587565857517e+03
2.025753676640825915e+03
2.499117266234038198e+03
2.565596608239608940e+03
2.416091763555863054e+03
2.121563252428542000e+03
1.729979504469316453e+03
1.308381038693044957e+03
7.646999914460157015e+02
5.208328866634658425e+02
1.877091725172444114e+01
-4.864801002845739504e+02
-7.778895484959310807e+02
-1.024450081845903242e+03
-9.992731923215255847e+02
-7.843508491652388557e+02
-3.886389033141017535e+02
1.169616113703810356e+02
5.923596849702030340e+02
9.684989290967685065e+02
1.316482647570594509e+03
1.475419114174693959e+03
1.635236657809470444e+03
1.717865467239657846e+03
1.750305164927443684e+03
1.349436403518355519e+03
1.284262473839727136e+03
9.457920055463457629e+02
4.101038648847388686e+02
-3.840782850069659915e+00
-4.041400489892305359e+02
-1.191815900615348710e+03
-1.833827833219680087e+03
-4.386218176425444653e+03
-4.978901872937498410e+03
-3.794886631654487246e+03
-2.121144463729297968e+03
-3.670663025749917324e+03
-7.544809197342038942e+02
-8.206212906144401131e+02
9.469424433475278420e+02
9.271900223484883554e+02
-5.438198297324073565e+02
1.759109668357931753e+02
1.047393572896868363e+03
2.123741601416179492e+03
-1.591403757865664659e+02
-4.212881961485715578e+02
-1.934713406038217272e+03
-2.398417556280543977e+03
-7.384107634558926065e+02
-6.277851334514875816e+02
-1.579467466630276476e+03
-3.241566055146968210e+03
-7.570359571697922547e+02
-1.157869730233174778e+03
-1.823108903607021830e+03
-3.863080208510051250e+01
-1.231361938245647934e+03
-1.439287962150412341e+03
1.156656026213231030e+02
1.857438352424850336e+03
4.189256872301826320e+02
2.474203207062691035e+03
1.934043956479678528e+01
-1.422775345771443881e+03
7.458927685278332547e+02
6.693616384694066710e+02
-2.683115394463533221e+02
-1.123145475690743069e+03
-1.757174947725092579e+03
-2.138454770261474096e+03
-2.120041789134929331e+03
-2.487906776197140971e+03
-2.574090298874780729e+03
-1.845601874200690872e+03
-7.093400761141858766e+02
3.584910198850418794e+01
6.321478916644380206e+02
1.274456039274982459e+03
1.739609115852773357e+03
2.306658857241251098e+03
2.532791697618705257e+03
2.420991134710399820e+03
2.283158609057907142e+03
2.998250946040715007e+03
2.732382328995310218e+03
1.549622393273957641e+03
4.162206971319700415e+02
-5.578505816860952109e+02
-1.240630172930556455e+03
-1.737176708004913280e+03
-1.726675746714216984e+03
-1.157032151571081386e+03
-4.242204181184256413e+02
3.528245577780871827e+02
6.750688571186765330e+02
1.086383122349535370e+03
1.801796308344236650e+03
2.234366992889099947e+03
2.620195021464837737e+03
2.906249544105674886e+03
3.019137058254574640e+03
3.193147960516081184e+03
3.012066969845058338e+03
2.599670885047893080e+03
2.305359941906036966e+03
1.698244819208419358e+03
8.772702653110153506e+02
1.473115893341320373e+02
-3.686458798323873225e+02
-5.116031536284589265e+02
-5.345977128022162788e+02
-3.196266644854107994e+02
-4.316659136082452051e+02
-2.596932492961247476e+02
-2.268657741296744135e+01
1.094712760722769644e+02
5.620247953332871020e+02
1.004812271763430317e+03
1.619506050667999261e+03
1.966099824935165771e+03
1.974600938802151177e+03
2.203740500788754161e+03
2.732311985914591332e+03
2.492397773516048346e+03
2.151139864727796066e+03
1.541583375486094837e+03
9.827666553481305982e+02
3.866345224638936884e+02
1.610171913802975325e+02
-1.511664227536295471e+02
-5.228714192324201804e+02
-6.839927492363012789e+02
-7.066690699987456128e+02
-3.899996937319128278e+02
1.931441139276438435e+02
6.937844630385055780e+02
8.319692592952189898e+02
1.124694835582945871e+03
1.666944789672246998e+03
2.188704233299895350e+03
2.063090928656052256e+03
2.297044198575683822e+03
2.103491633362302764e+03
1.947589717287592066e+03
1.929351474655289167e+03
1.264780731839409555e+03
-1.613281556553101268e+02
-2.966148982462058484e+03
-6.344548214784344964e+03
-7.104300217934367538e+03
-6.928163378814121643e+03
-6.768354653723881711e+03
-5.720041982260868281e+03
-1.105465508425489816e+03
-5.635373809680287422e+02
-4.579080086352553735e+03
-4.943167487965621149e+03
-3.994933217350420819e+03
-3.617267474078873420e+03
-3.201142670395754067e+03
-3.301618901350395845e+03
-3.039541640542608548e+03
-2.787600240333851616e+03
-2.308857165091938896e+03
-7.724189446316821659e+02
-3.000179160415013484e+03
-4.849412962038692058e+03
-2.697188884330125802e+03
-6.164640800614100726e+02
-2.661251554825650487e+02
-2.812795612785784556e+02
-4.169263189829247267e+02
-2.710325730539518645e+02
6.524714071860682907e+01
5.159298015064421179e+02
9.161640149150179013e+02
1.073042164624125917e+03
1.383562430851852696e+03
1.854912781007293916e+03
1.666171867035372770e+03
1.786184081787778496e+03
1.740887597419576650e+03
1.941239602007587109e+03
2.348338437586331111e+03
2.448297597233487977e+03
2.305160129674993641e+03
2.084007547045429419e+03
1.809859497629821362e+03
1.181663714312912816e+03
1.802841791208931568e+02
-6.637388735629728842e+01
-7.032212307986597466e+01
-1.554502991510514676e+02
2.344729909036609001e+02
2.345008888206409949e+02
9.435124371117906605e+01
8.289395487851366795e+01
3.462910517226138154e+02
1.363709381731257736e+03
2.203202245566008969e+03
2.109940927032143009e+03
2.277835110819831698e+03
2.359767313140043370e+03
2.029963282003201357e+03
1.525283953981084778e+03
1.203681911415626701e+03
9.153048344445057865e+02
4.680397005295902773e+02
-3.531108550550650307e+02
-9.601889071880613074e+02
-1.478140952479076304e+03
-2.012832805150951344e+03
-2.450247862214770521e+03
-2.483468879124053274e+03
-2.570664253233358522e+03
-2.027634750706934256e+03
-1.482973696919593294e+03
-1.168306092204436709e+03
1.349350430533855558e+02
1.871840662386318172e+03
2.535074524508099785e+03
2.836571303258083844e+03
2.481541543265317159e+03
2.287359801703164976e+03
2.050949356426940540e+03
1.469211102742664707e+03
6.470944545531447147e+02
-4.460415501940477867e+01
-1.278438280353372249e+02
-5.824930638538501171e+02
-1.157603607129387910e+03
-1.417132904610690730e+03
-1.433958637315273791e+03
-1.261118322604041623e+03
-8.627353689754597781e+02
-1.117807633038598851e+03
-1.025387594267436725e+03
-6.124896915166813187e+02
-2.200640242482693623e+02
-9.313848217992487832e+01
-3.136988165415886556e+02
6.405912093755742944e+02
2.156765281815751678e+03
2.279519004966500233e+03
1.282790107224980147e+03
2.716516919823506555e+02
-5.488448645417064427e+02
-7.827305333223090429e+02
-1.356795347638733347e+03
-2.592036368042605318e+03
-3.234646384963651144e+03
-3.070782720077207159e+03
-2.353468386138758888e+03
-1.813513325021322316e+03
-1.553984849615555504e+03
-4.801233537481009535e+02
4.162103823061121375e+02
1.123212610510443255e+03
1.294984224852271609e+03
1.480304509244631618e+03
1.446008228876183011e+03
2.010255959488950793e+03
2.150234993469887286e+03
1.478935681939519100e+03
4.360259259235974127e+02
-4.497675373797137013e+02
-8.682232418863892462e+02
-1.421124008851076724e+03
-2.246519365143306004e+03
-2.813521133337594620e+03
-2.717058346699561298e+03
-1.757427752126118548e+03
-1.851629584934582454e+03
-2.624577764363792539e+03
-2.290414862899639047e+03
-4.120786905661927904e+02
7.104884072381902342e+02
8.613118102424297149e+02
1.415608518826505588e+03
1.438226835774221172e+03
1.490763951967458524e+03
1.495286559113250178e+03
2.052831229356088897e+03
2.668360434890167198e+03
1.986807469434845643e+03
8.683840617411733547e+02
8.524592004518066233e+02
-1.463620326054246163e+02
-1.346046294597420911e+03
-1.444468927541367520e+03
-7.961907778664397028e+02
-3.641411167585450812e+02
-5.233133697683748551e+02
-4.181581113659854054e+02
-2.451689720142159103e+02
-4.906220024715706245e+02
-3.685974455212117959e+02
-6.275334188054655726e+01
7.604488728067237844e+02
2.287211324257392334e+03
2.664699002141671826e+03
2.743335221794883182e+03
2.976093686665883524e+03
3.302902259340280580e+03
3.572199120400417087e+03
2.867418684173112979e+03
2.550501679894315657e+03
1.377287742202884147e+03
6.172762146262442684e+02
-4.977990617287338182e+01
-1.138659885017169245e+03
-1.241033074961328794e+03
-6.063999721946826185e+02
3.445781567971206982e+02
2.415705128107479140e+03
3.430040961563030578e+03
3.029710817659419263e+03
3.423545907558033832e+03
4.634188025042981280e+03
4.361961346969300394e+03
3.851831479205598043e+03
3.018716580903304020e+03
3.028188799459011079e+03
3.022959276760780540e+03
2.824714129435913947e+03
2.581409536768200269e+03
2.295319404281591233e+03
1.757016147919365039e+03
5.164698971888380008e+00
-2.323586857291174056e+03
-3.906382252770336891e+03
-3.978802056657599678e+03
-1.745438524804760846e+03
-2.676197029242982808e+02
-1.173824576055672878e+03
-1.961511371397052017e+03
-5.495397265296456908e+02
1.255231525454709072e+03
1.331762919035070581e+03
-4.338949202798249871e+02
-2.519694463122667912e+03
-5.900297340038010589e+03
-6.061389071964032155e+03
-5.414225797375951515e+03
-4.293830484682704082e+03
-3.677282771613684872e+03
-5.409794297444223957e+03
-6.179351145927157631e+03
-6.462026723882473561e+03
-5.798788172809534444e+03
-4.747438586842314180e+03
-5.187048689548687435e+03
-5.478235950010250235e+03
-5.217495750864180081e+03
-3.267875196805735413e+03
5.415220540741304376e+02
1.673197629796728506e+03
5.278934777712422147e+03
5.842739485696051815e+03
2.058870043202469788e+03
2.482132396049377974e+02
-7.273359300565025478e+02
-7.135101126058033287e+02
-2.042983253311892895e+03
-3.289782971803389046e+03
-4.287133176437903785e+03
-6.048178918804008390e+03
-8.375702503823922598e+03
-1.043456174373960312e+04
-1.267114827903719743e+04
-1.460430932872553058e+04
-1.307770670605480154e+04
-5.241624329549282265e+03
7.429559116039023365e+02
2.650144278590082649e+03
5.462986358266139177e+03
9.160480556240574515e+03
9.761752972927295559e+03
7.601891481800891597e+03
5.715803976053162842e+03
5.231802512283446958e+03
5.509914937599924997e+03
6.719127813267496094e+03
7.697569540338369734e+03
7.119279906855636909e+03
5.496431102642446604e+03
4.478969563730262962e+03
5.217768844188523872e+03
4.395705252532998202e+03
2.444049586913208714e+03
1.496093324915109861e+03
9.107215138087099149e+02
7.547678768199380102e+02
7.591397846458846743e+02
6.068303188687420970e+02
2.010132732009464576e+02
1.554458195771902865e+03
1.604112430520736552e+03
3.442112971529016363e+02
8.462057838092274551e+02
1.968116938336581597e+03
3.122730462193153016e+03
2.137018640816131665e+03
-1.448763239336901052e+03
-4.033797927853639067e+03
-3.665432222671548971e+03
3.916404417587370403e+02
2.850510726042926308e+03
3.819310348825039000e+03
1.870128878625412653e+03
7.064972481971187790e+02
2.075402124235016345e+03
2.315350262869612379e+03
7.233053210007799407e+02
-3.537070054526404306e+02
-1.696476324253586654e+03
-3.888087613547410911e+03
-4.540470795679156254e+03
-1.876372231813122653e+03
-2.547483512474860277e+02
6.410565403591431277e+02
3.671751475678608131e+03
3.447719869901082347e+03
2.197030073828371769e+03
1.747529927220871741e+03
2.888284779243407684e+03
3.128258130496464673e+03
2.551533325976429751e+03
2.335858141890845673e+03
1.025848454551710347e+03
-1.396395096976568766e+03
-2.754306252435566876e+03
-3.047023075076526766e+03
-3.983268023886551873e+03
-2.743862367424501372e+03
2.656248313084811841e+01
6.607686650440165295e+02
2.930956220853671539e+02
-1.170221672833499269e+03
-2.007328334282909736e+03
-2.320520240523685516e+03
-2.257967387830130065e+03
-1.119632855174047791e+03
3.794800514335112211e+02
1.717438153114080706e+03
1.841271680316260472e+03
4.629294591597081308e+02
-1.822747503733001167e+03
-2.967664196166251713e+03
-1.039453435591139851e+03
1.925639490654985821e+03
1.797431432965599925e+03
-9.110790646076563917e+02
-2.902848436407170084e+03
-2.845982486462559336e+03
-2.082823454862030758e+03
2.018033386395733828e+02
1.741321994066388925e+03
1.538654922204362492e+03
3.439770775641902219e+03
3.725676426449393148e+03
3.024321754504625005e+03
3.645473120731339350e+03
3.180937692962536858e+03
2.344853091666599084e+03
8.254558003539031006e+02
-6.523316548284907412e+02
-5.616691124520356198e+02
-4.946714445703482852e+02
-1.274430287219388447e+03
-5.371015799537880412e+03
-9.164394112941336061e+03
-9.832756287147891271e+03
-6.774221173129941235e+03
-3.146571024076454705e+03
5.801653940298434691e+02
-2.033013729050954339e+02
-3.344894585446963902e+03
-5.233594731277764367e+03
-2.291331875403225695e+03
6.660825061587751179e+02
1.970576447691440535e+03
2.958982821313480599e+03
1.679155541697242370e+03
4.670898646445894542e+02
6.727763755756295723e+02
-3.167552954792300852e+02
-4.935663589461640299e+02
1.171162305015608354e+03
2.502422337694318230e+03
2.050337176039904989e+03
1.925866886113981536e+03
1.552990636231023018e+03
4.655761140455837221e+02
2.225245122067267687e+02
-8.292885005411826569e+02
-2.282740514246926068e+03
3.062541733922023468e+02
3.582532809079892559e+03
3.054899669207291026e+03
1.384534604274424510e+03
6.055715947516993225e+01
-8.198224020331418842e+02
-2.083585319865424935e+03
-3.411324719104263181e+02
1.627315057619616255e+03
2.421007146734636535e+03
1.168097977070086699e+03
-8.115152063892987826e+02
-4.993445994827649059e+01
2.267288278876301888e+02
-2.598659211542828871e+03
-3.857285653611170346e+03
-2.509987125175031906e+03
4.842215754840182171e+02
1.016239087508235798e+03
-7.978499798509531047e+02
-8.209416419054999778e+02
1.962912056312107097e+03
5.396881971229276132e+03
5.451058151548473688e+03
1.342437915318292426e+03
-6.229809753589598813e+02
4.257958857179263532e+02
1.316722544948946961e+03
1.406710067093231373e+03
3.150772986055288584e+03
1.663862348849133014e+03
3.157001523456232803e+02
2.734383363883173956e+02
-1.553684172400207444e+03
-2.619756100312019953e+03
-2.982994323524483207e+03
-2.714370971787616782e+03
1.130156550302720007e+03
4.219570618057051433e+03
2.111939651996551675e+03
1.051299388161990464e+03
2.136121403346745069e+02
-1.417088272735510145e+03
-4.164699226281735719e+03
-4.356121366291926279e+03
6.107322285054654003e+02
1.601830784368554760e+03
1.138115158412248547e+03
4.619718297182651440e+03
3.471635955324209135e+03
4.498745645478162260e+03
2.709972324394102543e+03
-4.905871926080599223e+02
2.590999610228288930e+02
-6.806246366955566884e+01
-3.081014887201838519e+03
-3.467689501798889978e+03
-8.034039341081313069e+03
-1.024612577718733519e+04
-9.848953887213594498e+03
-6.808407358873896555e+03
-9.513861773205871941e+02
4.296113419357832754e+03
4.153058644445437494e+03
-1.363482974067364694e+03
4.251588778734791049e+03
8.254303867301723585e+03
5.269764886970767293e+03
3.031955931952147239e+03
7.488817759955172733e+02
2.552581271306614781e+03
8.260412809638215776e+02
5.722816039398791190e+02
-1.439672465033629123e+03
-6.539666627114443145e+02
3.213419317599081751e+03
2.407726306132967238e+03
4.229265531923861090e+02
-2.401143139334259104e+03
-5.827368041760381857e+03
-7.072672701007087198e+03
-2.345927212570888969e+03
-1.455174462242943036e+03
-4.971379857155377977e+03
-1.006146631847950084e+04
-1.243040533730184143e+04
-6.575192821744035427e+03
-4.320815085354024632e+03
-6.252093282535800427e+03
-9.802870546984891917e+03
-7.439208457593046660e+03
1.550806822087453384e+03
8.520993691697589384e+03
1.086135670503733309e+04
7.186098842392602819e+03
4.800260297966787221e+03
3.518648486019922075e+03
8.662293286685453495e+02
-1.972841973233605586e+03
-4.001339720848772231e+03
-2.827145945961069629e+03
1.953870464544744209e+03
3.988483500270383956e+03
6.068675299752878345e+03
7.597501958200451554e+03
6.400940361800368919e+03
5.448161900707474160e+03
3.715180806887945892e+03
2.158894954662161126e+03
3.127090752571130452e+03
2.765668235662364168e+03
-6.897047992571504437e+03
-1.183701240308780507e+04
-4.692354808094291911e+03
2.809897272149936271e+03
4.883247620896391709e+03
3.926061641657388918e+03
2.548268637842439603e+03
3.814882748128512503e+03
3.071225061604203347e+03
1.942409796805799829e+02
-5.009331183458115788e+02
2.544515095655072855e+03
5.577903420165204807e+03
5.890888925431971074e+03
4.092748846637226507e+03
4.682613698713942540e+03
7.454331177262964047e+03
4.497164200891495057e+03
2.806876769027009232e+03
5.298513266781156744e+03
3.822975345513787033e+03
2.152350628784370656e+03
1.236931488693107212e+03
5.637117595003097676e+02
-1.032306440791694513e+03
-2.132222571930470622e+03
-2.538900728014081324e+03
-4.550174554754589735e+03
-3.983034301921086808e+03
-3.627463706414475382e+03
-4.404481609776141340e+03
-4.221273173584998403e+03
-4.191833944708057061e+03
-1.869032710939891331e+03
-3.627800215680873634e+02
-9.771450523486579414e+02
-3.983292335394563452e+03
-4.305114758394645833e+03
-5.085012155667743627e+02
2.674429747882226820e+03
3.947616152589102967e+03
3.442049998548895474e+03
2.450755360198882045e+03
3.673795059440451041e+03
1.522150259838590500e+03
-3.236351016043538039e+03
-6.037564405482750772e+03
-4.016423367218108979e+03
-1.577236274617525396e+03
-1.911110429739622077e+03
-4.068007205633448848e+03
-4.751716729931253212e+03
3.811037071595921134e+03
7.904237465190293733e+03
5.085610092201057341e+03
3.481808722406273773e+03
3.114846662444253070e+03
4.922671173282619748e+03
5.064498451932040552e+03
8.893763748152990729e+02
-3.103916873872854922e+03
-5.582322313736530305e+03
-7.101695007610110224e+03
-6.688085117760438152e+03
-7.496420993287668352e+03
-8.302302051795384614e+03
-5.378005816232805046e+03
-1.037967514561931239e+03
-2.482100269307150029e+02
-2.126715181812739047e+03
-3.460711137318345664e+03
-4.475982844932156695e+03
-3.477385773441838410e+03
-7.069849036997558187e+02
7.011085033797047572e+02
3.389949793319383389e+03
3.017586750324859167e+03
-2.806059562804091456e+03
-8.615900600379647585e+03
-7.570852372424104033e+03
-8.188956956987673948e+03
-5.065319939562713444e+03
1.964107527399046376e+03
2.197115600157355402e+03
-1.607431212298070022e+03
-1.063399312894943705e+03
3.102268827826285360e+03
6.891714593280038571e+03
8.021885558105193013e+03
6.961788226189995839e+03
6.107406464230584788e+03
5.072661584765504813e+03
4.858501999452930249e+03
4.776892929527839442e+03
3.544899955352696452e+03
5.807169770033890472e+02
-1.321592780087749361e+03
1.850900484831092172e+03
3.297946448185379722e+03
2.452359406369666431e+03
1.523354792747227293e+03
1.467197496102734021e+03
5.738676790611826846e+02
-4.211787021676922450e+03
-7.429841198039700430e+03
-5.962459227378108153e+03
-4.527583412674265674e+03
-2.800102347708237176e+03
-5.511412691209700370e+02
1.747436015569605615e+03
1.832740312249452245e+03
-4.943324940421684914e+02
-1.315685854996259422e+03
9.707552350788936337e+02
3.340086994992534073e+03
4.528348007911424247e+03
4.750525834440016297e+03
4.210577243964615263e+03
3.427458292022750811e+03
3.393415453537344547e+03
1.877502019938824333e+03
-1.145288179227818318e+03
-1.470146821183534030e+03
-4.160232764050290371e+02
-1.856182053135075193e+03
-2.978614439479326393e+03
-3.949778024661231029e+03
-4.482675971409050362e+03
-1.820880535405240835e+03
9.507741768406100391e+02
2.067331737347804847e+03
1.377732059847415258e+03
8.361546949648568443e+02
1.078669721723625344e+03
1.828227561807410211e+03
2.109916032604400243e+03
5.376973738435589212e+02
-9.105964019666016611e+02
-2.549575520381100375e+02
8.237093036834017994e+02
1.657435913250087651e+03
1.624224922286067340e+03
1.017108599082768819e+03
-1.083929197275178694e+03
-1.829801374534469687e+03
-1.557417024430823858e+03
-1.770073387756661305e+03
-3.567922738132669110e+03
-4.279636598161655456e+03
-4.555073314093063345e+03
-1.819219746152714379e+03
2.287910258642105418e+03
2.560404658340618425e+03
-5.439502867381578426e+02
-1.623195840721891273e+03
-5.625426004334457986e+01
1.617031147561239777e+03
3.354789423154084488e+03
4.246796666221356645e+03
3.500081391329620146e+03
1.143947039303883230e+03
7.972809166538687577e+02
3.318515892726934453e+02
-2.109537754929972834e+03
-3.854747796179474335e+03
-4.735553163704275903e+03
-5.826090473068270512e+03
-5.063548085042264574e+03
-3.725987960933007344e+03
-2.685184038248263278e+03
-1.444774742814067849e+03
4.621701167334225602e+02
2.001420255713709594e+03
2.203992149918534324e+03
2.800940668638012085e+03
3.572143832309230675e+03
1.624856237844309589e+03
2.321100779738179369e+02
9.957231545569904938e+02
1.832847549181118438e+03
1.761515276831665233e+03
1.574632519640656028e+03
9.160909503306783108e+02
2.235904388820563611e+02
-3.588034176873061369e+02
-7.307782624749156639e+02
-2.028408952583466544e+03
-2.727608785122015433e+03
-2.125338959101214186e+03
-1.636463018747283058e+03
-7.561821559311123337e+02
7.679672677893362334e+02
3.284862525033641987e+02
8.914761463951439282e+02
2.368637973549158232e+03
3.161111104992181936e+03
2.725627188638407915e+03
2.665769111019651518e+03
3.074655764828828978e+03
1.994736941946951902e+03
6.510730215866027493e+02
-3.411506430830908698e+01
-3.120262068979224068e+02
-1.186269666811459501e+03
-1.624029308612735122e+03
-1.917596442201635455e+03
-1.517971730046469247e+03
-1.145742246350986079e+03
-1.386838967434863207e+03
-1.116837347375766058e+03
-9.112696119303009255e+02
-3.498953669730530009e+02
2.533280441569031893e+02
5.617614964025668769e+02
5.082115637459851314e+02
-1.510891606514563819e+02
-6.603180723495096345e+02
-5.113285029706250953e+02
2.507631549954848538e+02
4.201726931000630429e+02
-2.346068000419924715e+02
5.052929267038554144e+02
1.542079538086193224e+03
1.235892454425571714e+03
5.389099138359945300e+02
-7.995554971870463135e+01
3.036640449640185224e+01
-3.870161271020535310e+01
-4.885118860121872331e+01
4.171559786408908508e+02
9.295523926186069730e+02
1.141155465766819361e+03
8.252935675306463281e+02
9.501628722109220462e+02
1.809051703598120184e+03
1.970132920269459191e+03
2.103914953276103915e+03
2.294741203428134668e+03
2.023636265105551502e+03
1.733801414402890714e+03
1.557668883731199458e+03
8.421391379453671107e+02
8.016581904650435320e+01
-5.931308238611774186e+02
-7.766630398047407198e+02
-4.714654071364674337e+02
-6.717737003877754205e+02
-1.296926017729964769e+03
-1.541776235122003300e+03
-3.773761624122717535e+02
3.333133275694577264e+02
7.905154970570608839e+02
2.221279199048092778e+03
2.899635357937336721e+03
1.709535053134343116e+03
-6.763029279450551030e+02
-6.715291805912805785e+02
1.370353212988547220e+01
-4.239657045997247451e+02
8.473153935302215132e+02
-1.863387909868460383e+03
-2.380825925471073788e+03
-6.048122767649130083e+02
-1.026318080839612776e+03
-2.392562655104197802e+03
-3.614374905615072294e+03
-2.679576472473215290e+03
-3.256286709397528284e+03
-1.039839367775776509e+03
-3.492256754355406883e+03
-2.588351979240984747e+03
-6.988903509421413673e+02
-1.654022163897238215e+03
7.820571451343041645e+02
-2.102300132776534554e+02
-9.189294892862983488e+02
8.586529950361740475e+02
-1.411203039659446404e+03
1.165299905923858859e+02
-1.331201039105251311e+03
-1.302406673566619929e+03
-6.229821928585197384e+02
-5.479375789056873600e+02
-1.318303168875676874e+03
-2.381958105621873074e+03
-2.164042955086447364e+03
-1.190547061675707937e+03
-1.235389379822115188e+03
-1.033610167658197042e+03
-4.321394459762584574e+02
2.778246660474473515e+02
6.333368004720855424e+02
8.135888826257834125e+02
1.002820506209478026e+03
1.360846380895005723e+03
9.923377414301488670e+02
-6.757227579979818266e+00
-8.293525738199963371e+02
-1.167286932536420863e+03
-6.615341881126533963e+02
-4.322490794919773407e+02
-2.781663459519008370e+02
1.004959211967306373e+03
2.213111019390523325e+03
1.388919602657191717e+03
-6.667419879656195292e+01
-7.784783163453732868e+02
-8.193072476610510648e+02
-2.472035387052560793e+02
7.190702967553378357e+02
1.261748946029147646e+03
2.049417067897838479e+03
2.690039349222194687e+03
1.793563215064791166e+03
5.448205940230621991e+02
2.849222233409195155e+02
-1.617849466865116312e+02
-7.092817135673101347e+02
-1.384558408777199247e+03
-2.613587408023479838e+03
-3.623483794353382564e+03
-3.061029563130888391e+02
1.496605449280987386e+03
1.788321686144770865e+03
1.526913715138767202e+03
1.227589053934238564e+03
7.195748150521461639e+02
9.788998750167041862e+01
1.855690513511807467e+02
1.664701169664772067e+02
5.926302215210777149e+02
1.294121354218392071e+03
2.073612284124791131e+03
2.366272783603835251e+03
2.717588832928875945e+03
2.726677473969029506e+03
2.931069010559895560e+03
2.779875035449548250e+03
2.544744315123820343e+03
1.841230357672988475e+03
1.429822792001865992e+03
1.039865943005052941e+03
3.590343776840500141e+02
1.029779767203894068e+02
-5.603236157489762945e+02
-8.287095933153398164e+02
-9.580308381225554513e+02
-8.152226773064375038e+02
-5.362163400027706075e+02
-4.200745384504504045e+02
-4.697697479834633327e+02
4.118491345199028615e+02
8.979840418574345904e+02
1.298614608154218331e+03
1.788323208390351510e+03
1.613226080214051535e+03
1.414497136838908773e+03
1.634109258953092649e+03
1.705004514531577570e+03
1.581260364970983119e+03
1.222189522379570235e+03
4.847732890287840632e+02
