4.658023603145533343e+03
4.404461180566670919e+03
4.408351393438837476e+03
4.567824797489378398e+03
4.562926920966607213e+03
4.722699435550588532e+03
4.600206649645706420e+03
4.162599980479673832e+03
3.978938244286280224e+03
3.921242804803809122e+03
3.707644826965134598e+03
3.164181150875215280e+03
2.791900410595128506e+03
2.356878827934337096e+03
2.092155893094443854e+03
1.554834268216981627e+03
1.802974960478118874e+03
2.358660005344645924e+03
2.868960266268101350e+03
2.751860978832024557e+03
2.754371223505432226e+03
2.535478319269553594e+03
2.408723228359157019e+03
2.596490217335376201e+03
2.933941889991224343e+03
2.649339584869212104e+03
2.387439806445998784e+03
2.098384996900800161e+03
1.745182727433268838e+03
7.748547336239015522e+02
-2.961545375577780760e+03
-7.040460919154695603e+02
4.384727991201777968e+02
1.850391975454708415e+02
-1.354863824890629758e+02
-1.146803238881761899e+02
-2.005227609318852799e+01
3.194674139856038551e+02
8.061531487504721554e+02
9.845801385709943361e+02
5.560596081418188987e+02
-7.827650372541715740e+01
-2.762074215411411515e+01
3.200740884727590583e+02
5.280817643228502902e+02
7.221240931256614886e+02
6.861775357005562910e+02
6.763444281668173517e+02
5.786168092826653719e+02
7.800096708747632874e+02
7.265018811322821648e+02
-4.549045931094318007e+02
-9.222093468378197940e+02
-8.333802387355544852e+02
-1.329470466345675959e+03
-1.435479473411676736e+03
-1.202322749610064648e+03
-1.067995223893091634e+03
-6.315283847082894226e+02
-6.109094900310387857e+02
-6.071126326657233676e+02
-6.541600168908481692e+02
-4.271545034484694838e+02
-3.259662338881922778e+02
-1.560315980100339495e+01
3.128418803277680809e+02
2.763588365472227224e+02
1.659636721110654491e+02
-1.133795856519763134e+02
1.382643484856354519e+02
2.748005840097563919e+02
-1.108010435883682590e+02
-6.745755332785104201e+02
-1.274577094469588246e+03
-1.351873257619866081e+03
-1.235492881874583873e+03
-1.446433451692119661e+03
-1.334698202975398999e+03
-5.454039970516737412e+02
-5.859963681063415208e+01
-1.893079887491631723e+02
-1.945856473416224333e+02
6.295192069687582261e+02
5.050296286474318208e+02
-6.081759561997145056e+02
-3.345151610616130256e+03
-7.960903198529599649e+03
-1.037745670991576480e+04
-9.820921142672947099e+03
-9.560306326181329496e+03
-5.698659103832598703e+03
-3.890811711399064734e+02
-4.106445481975902680e+02
-1.622429010269192304e+03
-9.466394833234860471e+02
-2.341326099921776347e+02
-1.268560989948154401e+02
-7.996053976559437615e+01
2.913452101014018467e+02
8.800082884602827562e+02
1.152016464433642341e+03
1.577262329013997942e+03
1.876730383289462907e+03
2.276441716153201014e+03
2.198357340132390163e+03
2.562356973047300016e+03
2.801397542460892510e+03
2.166506155371126169e+03
1.950593109442296281e+03
1.808485329747713422e+03
1.859096233213075493e+03
1.246389359669591386e+03
7.713048215979770248e+02
9.817620103202574455e+02
6.408158423475654217e+02
6.223011453890858320e+02
4.481473873899913656e+02
7.883091433717064547e+02
1.123760892324220777e+03
1.500439995391566072e+03
1.828341481989280510e+03
1.656500091406820729e+03
1.912879620337783308e+03
2.041400344165225306e+03
2.256939960134786816e+03
2.226486457043560222e+03
2.416196537985925261e+03
2.438932272106935216e+03
2.832551671271417945e+03
2.915911906492546223e+03
2.908941756419510057e+03
2.335610911143634894e+03
1.756920307714843375e+03
1.495822195557226905e+03
1.354265638432334526e+03
1.154286153430907234e+03
1.470846991112773139e+03
1.471885815154895909e+03
1.756371566412583434e+03
1.805330232545308945e+03
1.892799043466129888e+03
2.173765471134823201e+03
2.682206450982448587e+03
3.165074125198105321e+03
2.625428662951280330e+03
2.755238769630566367e+03
3.520381092878116760e+03
3.524853067457514044e+03
3.624685651166845219e+03
3.792899993368988362e+03
3.505431032914691514e+03
2.725362363498484228e+03
2.084698161411400633e+03
1.886522324768752242e+03
1.814808536431731000e+03
1.602411778481750844e+03
1.141299999318257733e+03
1.247443876775907256e+03
1.013969767382352529e+03
-1.200021777758830012e+03
-6.297560007610904904e+03
-9.376677318852913231e+03
-8.069480172033659073e+03
-8.042841817264692509e+03
-7.666661848213094345e+03
-6.819944069284784746e+03
-6.602708826707290427e+03
-6.224990111587104366e+03
-6.169742716133532667e+03
-6.189941820128791733e+03
-6.257443573041371565e+03
-6.530171886756711501e+03
-7.366204900950085175e+03
-6.112560142461811665e+03
-1.727129963409912534e+03
-3.709940360272270027e+03
-7.399041655911509224e+03
-7.792337895276120435e+03
-7.261673715986205934e+03
-6.776059784716451759e+03
-6.571484852406656501e+03
-5.772801522777434911e+03
-5.305008323101178576e+03
-5.327149584593802501e+03
-5.002117741481064513e+03
-5.284799689659728756e+03
-5.015192769151735774e+03
-4.575259160962777059e+03
-2.960062292536670611e+03
9.004214222535372301e+02
-1.974707290131619402e+03
-5.061333529961721069e+03
-5.469457831462026661e+03
-1.856091869228700489e+03
3.050764253296309562e+03
4.291181291866095307e+03
3.926177647338744464e+03
4.270835090886488615e+03
4.571241571227403256e+03
4.713456717359476897e+03
4.931511748915490898e+03
5.072446782806906413e+03
4.986298089542297021e+03
4.770071698138809552e+03
4.984870390637812307e+03
5.580778271501133531e+03
5.393778825735535065e+03
5.037935634171811216e+03
4.694319570048231071e+03
4.818981802306040663e+03
4.649034664685987991e+03
3.964624085858316448e+03
3.345055491768474440e+03
2.716200859790941195e+03
2.795891389861412790e+03
2.908154714995570885e+03
2.938050536010734959e+03
2.566565851683771143e+03
3.010724842108679695e+03
3.341552374817052169e+03
3.465105831494935501e+03
2.772348189930063654e+03
2.936144125044456359e+03
3.244814454406303867e+03
3.155490221981760442e+03
3.298328652414666522e+03
3.355656543931916076e+03
3.391669717952432165e+03
3.144010541825081873e+03
3.092591343537714693e+03
3.195883052779132868e+03
2.748186720147208689e+03
2.446738925748800284e+03
2.098109691676111197e+03
1.649519282196788254e+03
1.362717756741832545e+03
1.286075922781619511e+03
1.534295289715452327e+03
1.978341699501178255e+03
2.144528878057924430e+03
1.922260483968760809e+03
1.664808655728002577e+03
1.464308490181430898e+03
1.623952772010454282e+03
1.709746101255421763e+03
1.911851480335682027e+03
1.863662155861336714e+03
1.780044597991990486e+03
2.070129589712869347e+03
2.281289929748626037e+03
2.368374357069378220e+03
1.986209304475271210e+03
1.191787663002638965e+03
8.901802917448767403e+02
7.721959424071254716e+02
4.797681071066331810e+02
3.068776894405705775e+02
6.551555274878427326e+01
2.537828645027771302e+02
9.176208315378602265e+02
1.067994632278740255e+03
8.628781603930672190e+02
8.052655516355372356e+02
1.020209430285842132e+03
1.465705712617107565e+03
1.536691446670575942e+03
1.856095812162066068e+03
2.054926360561736146e+03
1.792197261721137693e+03
1.419881016502502462e+03
1.308976662372865803e+03
1.088456508520646821e+03
3.703257890890322983e+02
-2.750241011279939585e+01
-5.230840973175191948e+02
-2.416450776379805575e+03
-5.756624033389996839e+03
-1.097460414237052100e+04
-1.185336089195717250e+04
-1.069392493262619791e+04
-9.976330434594583494e+03
-9.639613208315813608e+03
-1.008971868739945057e+04
-9.588700789473095938e+03
-8.746584228180621722e+03
-8.472428911864071779e+03
-7.392386322863754685e+03
-7.315783999483973275e+03
-7.760072301676849747e+03
-6.960391659598175465e+03
-6.223727803305990165e+03
-2.867030903285132354e+03
-5.851392231502168215e+03
-8.790854908176181198e+03
-8.942491158272057874e+03
-8.206351018357283465e+03
-4.064454478597975140e+03
-1.263794552818390457e+03
-9.483470899612103722e+02
-5.881566658109275068e+02
3.101758990912174340e+03
3.396382785691489062e+03
3.099683739032781432e+03
3.679713621442419480e+03
3.772451431649707956e+03
3.760877315721179912e+03
3.690904104679069860e+03
3.392531753288921209e+03
3.040872554586012939e+03
3.003853203574146846e+03
2.481360979242784651e+03
1.629432892876697451e+03
1.275053091155003131e+03
7.651915472747862168e+02
5.848475540374855655e+02
5.859728196654847352e+02
7.095653133296415263e+02
9.796013557929211402e+02
5.610768105955197598e+02
1.255992807144240942e+03
2.477375476565241570e+03
2.811196567960747871e+03
2.990457558785427864e+03
3.678181433333530549e+03
4.031363094211747466e+03
4.273014819512671238e+03
4.197019329388449478e+03
4.159372962188341262e+03
4.058156939213116402e+03
3.850371482020066651e+03
3.319030602977474700e+03
3.093112067463271615e+03
3.142620508539274397e+03
3.659524053097221440e+03
3.487789017217285163e+03
3.053400137729214748e+03
2.854375249835108207e+03
2.215720754813765325e+03
1.876453662163531817e+03
2.182567266819024553e+03
2.104149852340280177e+03
1.905155102875344937e+03
1.775754757460939118e+03
1.943138212640434858e+03
1.635606523564565123e+03
1.587016000301377517e+03
1.702344397660808227e+03
1.828302807545648193e+03
2.183911078860622638e+03
1.874443078765255223e+03
-1.230995259701569466e+03
-6.737393390533329693e+02
1.118051350896585063e+03
1.336383326732262958e+03
6.743024442984994948e+02
-6.820430407957387331e+01
-3.031765928706893760e+02
-1.317628159768128626e+03
-2.065502364347870298e+03
-1.766722393173695536e+03
-8.913233780638198596e+02
-9.262570529971892483e+02
-6.735274975086873610e+02
6.079288034639398575e+02
1.556181802025735351e+03
1.386185341807805344e+03
9.659561349925514833e+02
1.464896636428568115e+02
-6.611185458828548462e+02
-1.027867957323695691e+03
-3.367897584720107602e+02
-8.688324498037850390e+02
-1.930980824408152330e+03
-2.832191954050169443e+03
-3.131439467698731733e+03
-4.100762479988760788e+03
-4.594200432014730723e+03
-4.286763268757415062e+03
-3.408338074589401003e+03
-2.627952065589128779e+03
-2.859545724407077159e+03
-2.720108323116272459e+03
-1.065984691225715153e+02
1.826022879881535346e+03
2.718798421124763991e+03
2.247696368152590821e+03
1.450701479311441062e+03
5.328293158266581031e+02
3.431901446987730537e+02
7.976869741982641759e-01
-7.723470700945113094e+02
-6.762465112617004479e+02
-8.938900199828218547e+02
-1.470290682847280323e+03
-2.407402478316967972e+03
-3.113261233274449296e+03
-2.754825938092256365e+03
-1.860108780604377216e+03
-1.476119920744421279e+03
-1.481899914565201016e+03
-4.494362302383952965e+02
9.104111511995550927e+02
6.356820976514990207e+02
2.232103980269135590e+01
-2.366212907671008452e+02
-5.221697285530942736e+02
-1.912296869254004150e+03
-2.113983376810160280e+03
-1.998139838783017467e+03
-5.867763542845108304e+02
8.280527570049821406e+02
9.753455829109311708e+02
2.871329179772224052e+02
-1.420554809860886962e+03
-1.789763763457146524e+03
-5.085045455394131295e+02
6.392399604490049114e+02
1.033738705064838086e+03
-1.209080315361819231e+02
2.831274958633009575e+01
1.026445790514451119e+03
1.894487389474218844e+03
2.351413855632253672e+03
1.654310425659187331e+03
5.141175210213554010e+02
-4.941177151565970576e+02
-2.213956254773689523e+02
8.242555566549424384e+02
1.132813345006401732e+03
4.163171139257329969e+02
4.806061421579780699e+02
3.606151618507148555e+02
-7.466025957430601920e+02
-1.341075749551941954e+03
-1.011714372581816747e+03
-1.064593391866457523e+03
-1.170723017317733820e+03
-3.401359084586359245e+02
2.300922218687492204e+02
2.493722804406120019e+01
2.294982520298978557e+02
1.267785043608687602e+03
2.426820825455294198e+03
3.499495791402928717e+03
3.073787937869280540e+03
2.366638615964046039e+03
2.266043917203206092e+03
2.785904643852845311e+03
2.800224526939088719e+03
2.720176159802355414e+03
2.589409853832904901e+03
2.393644697062914020e+03
1.591267402681382919e+03
5.475088314380710699e+02
5.478475038902541883e+02
9.541531311588597646e+02
6.934450580416755656e+02
9.217002166569418478e+02
1.297866092747103949e+03
1.135946137376715114e+03
1.308949198975606805e+03
1.893870847944734805e+03
1.648621311166904206e+03
1.645264267492497765e+03
1.904826476925838961e+03
2.236295022754062302e+03
2.446623760223605132e+03
2.142784644418784410e+03
2.099765311339259824e+03
2.026596520711862468e+03
1.950266902328353808e+03
1.806683227630710917e+03
1.595770518053192973e+03
1.340576795701811079e+03
6.631495664106123513e+02
-2.826370881197223639e+02
-3.248156949414158703e+02
-1.623434851560828065e+03
-5.512551476871935847e+03
-5.327708584652568788e+03
-4.143125552772716219e+03
5.510313704288221004e+01
-3.980513471947587618e+02
-3.558542539909988136e+03
-2.828424912459535335e+03
1.983433146100167050e+02
-2.708281060260178947e+03
-2.594323240252121650e+03
4.713056499694048398e+02
-1.171405284154919855e+03
4.053900505527618492e+01
-2.274879625993623904e+03
3.492494455262229280e+02
-9.090658529135591834e+02
-2.800840240815295601e+03
9.590908579714731275e+01
-3.748811036845062517e+03
-8.139711841937607915e+02
-2.247601620138350427e+03
-2.257682098251239950e+03
3.407863773142328796e+02
-3.205222927954615443e+03
1.573234866538842311e+02
-1.019545642103834325e+03
-2.410798387001705578e+03
-3.090465894972779097e+03
-2.117518955631485824e+03
-3.106935333557540616e+03
-2.368483412101740981e+01
1.792268091840640864e+03
1.847903994358493492e+03
1.600225945373590548e+03
1.089201139673257330e+03
3.758553933420344606e+02
6.902055533602118658e+02
7.182561141339059532e+02
6.839673671700631985e+02
3.353449227254219522e+02
2.623920028950292931e+02
8.911178199873127141e+02
1.479567850661899229e+03
1.804822969074503590e+03
1.591887487595252651e+03
1.515724986588605361e+03
1.449354709922948587e+03
1.340862281700460471e+03
1.326275641841944662e+03
1.331615654327048560e+03
1.332909983926057521e+03
1.268270966337035588e+03
1.193674953886828689e+03
1.101108136947534831e+03
3.566818091158373818e+02
-1.415366024797608588e+02
-2.763466036199168343e+02
-4.969408246603471753e+02
-5.631502945573112129e+02
-5.728602495405376658e+02
-1.320602375244535551e+02
-5.574475457338549944e+01
-7.793887157926235432e+01
-8.065650963336651103e+02
-4.562592837600995153e+03
-3.058102045443640691e+03
-7.200449942511062318e+02
-1.432924631344633042e+02
-2.839248185056919738e+02
4.730214852487418398e+02
8.244460178103304315e+02
1.115831080639653464e+03
1.138738547571052777e+03
1.079328647713915643e+03
7.986170988377983804e+02
1.342583783945653124e+02
-4.465188914270199803e+02
-8.443542966992361016e+02
-9.136974043856059780e+02
-1.035932934921235301e+03
-1.321857865617763082e+03
-8.914642429278002282e+02
-3.467969450147369344e+02
2.192216649422489070e+02
2.886202817156103606e+02
3.603988757025400673e+02
8.765830368647940531e+02
1.282229110157448304e+03
9.673654443651397514e+02
6.010200576641012731e+02
4.672103576147250124e+02
4.679046795344747238e+02
5.981266747772502868e+02
6.728823396052589487e+02
5.021126355134297796e+02
6.986488637832296433e+01
-4.789062874272354406e+02
-7.091395173325929591e+02
-6.069112892275629747e+02
-4.912714522664487617e+02
-1.161954938300716975e+02
4.103268713547903985e+02
9.782804423192654895e+02
1.704675245110979631e+03
1.572538181372064855e+03
1.308902709045524489e+03
1.550767047353531098e+03
1.532130432270330630e+03
1.501033437875860272e+03
1.626425761956031920e+03
2.074267971087047954e+03
1.770564769195500048e+03
1.194310909501416745e+03
1.079522410287791445e+03
9.661980443810354018e+02
1.643495485407237595e+02
-6.150048985085414870e+02
-7.779346619962285558e+02
-8.134973905017335483e+02
-3.032660708935201001e+03
-6.015449615269634705e+03
-1.057185933456785460e+04
-1.078092592841008991e+04
-1.022059653841220643e+04
-1.021589818021664905e+04
-9.903873193085250023e+03
-6.352537063668032715e+03
-3.228936343951377239e+03
6.419289223795950647e+02
2.628397804379759236e+03
2.930168635926921525e+03
2.659075768351487568e+03
2.740182478268185150e+03
2.884532014721078667e+03
2.666139624183067554e+03
1.714942913920432829e+03
1.351914300381328758e+03
1.726011099539379984e+03
1.652166943229260141e+03
1.498269654372405057e+03
1.512358551933861690e+03
2.136382962676632360e+03
2.635235603633528171e+03
2.673908578199799194e+03
2.721426832660841228e+03
2.641817478248980024e+03
2.819126822555559556e+03
2.769391427984872735e+03
2.711495789856310694e+03
2.461336306304641766e+03
2.393980879561452639e+03
2.450438424293084154e+03
3.251685099668400198e+03
3.536629147607436153e+03
3.201315904567383768e+03
2.383695444243019665e+03
2.147688062112304578e+03
1.650166004828400901e+03
1.499082974205239452e+03
1.317491279795098762e+03
1.142336896982049439e+03
1.475347585231099856e+03
2.092523749497619065e+03
2.634928464131022338e+03
2.554666062867792789e+03
2.313743033039744660e+03
2.622170411375964704e+03
2.785890788539700225e+03
3.002892585322397736e+03
3.087231535661181169e+03
3.002762561569538320e+03
3.085477020144337075e+03
3.339416378127690223e+03
3.295617100059159384e+03
3.416030671966994305e+03
3.253525462737689850e+03
2.970062653484007114e+03
2.182660081691209598e+03
1.260296336573401504e+03
7.398528322989579920e+02
1.161265159228504217e+03
1.565659372028429061e+03
1.902083156711529227e+03
1.923516253997440572e+03
2.309951963906728452e+03
2.399489153649560649e+03
2.965076711277704817e+03
3.368685959932853166e+03
3.359169776261635889e+03
3.320520557518273563e+03
3.427760093700136622e+03
3.546945891227939683e+03
3.547295072122493821e+03
2.916679749464141423e+03
-3.670862927412786689e+02
-5.159014181771757649e+03
-8.891035273687552035e+03
-8.820060616482529440e+03
-9.368119218379624726e+03
-9.697314162824375671e+03
-9.764702419082428605e+03
-9.159257594253942443e+03
-8.968836558962033450e+03
-8.305305578994692041e+03
-7.486669044984747416e+03
-6.845999615406498378e+03
-6.554342459675775899e+03
-6.312634305274459621e+03
-5.793748047255323399e+03
-1.492767348780660313e+03
-1.930667006076242615e+03
-5.605350301139137628e+03
-5.726752685835398552e+03
-5.733892815228281506e+03
-5.607815477933084367e+03
-5.955498057706757209e+03
-6.499020656241357756e+03
-7.560319155624672021e+03
-7.779310253524214204e+03
-7.275032480996391314e+03
-6.756567231312420517e+03
-6.849912356602637374e+03
-6.763023962400498931e+03
-5.615742631201675067e+03
-5.130432969909724079e+02
-2.682889606229918172e+03
-6.347324729128398758e+03
-5.747269349147356479e+03
-4.747640344460918641e+03
-4.555436642353839488e+03
-1.622620932499232822e+03
4.161910609648099125e+03
5.086236821495419463e+03
4.710277126016834700e+03
4.688997307615163663e+03
4.755522175632786457e+03
4.319783984967170909e+03
3.832783150679960727e+03
3.410624038714207472e+03
3.564320046733543222e+03
3.265824294656624261e+03
3.241204536601388554e+03
3.586494493465926553e+03
4.012736531133943117e+03
4.652935994863010819e+03
4.988168013616756070e+03
4.780509980451466618e+03
5.101976357706772433e+03
5.414516447337341560e+03
5.437093242105392164e+03
4.679620615899018048e+03
4.576458962174565386e+03
4.870806054554089314e+03
4.574711214109367575e+03
3.917286660595057128e+03
2.376538391056129058e+03
-1.320556033970953195e+03
1.698295404029958490e+03
2.792877783125692531e+03
2.564121132720269543e+03
2.273715375485610821e+03
2.665949020176822614e+03
2.503197208449549180e+03
2.684216625302902230e+03
2.586990237785691079e+03
2.390572074925856668e+03
2.871682527985701654e+03
3.496353543698621252e+03
4.188001721733110571e+03
4.686360939282166328e+03
4.184727478431817872e+03
3.921667122507192289e+03
3.836463721187558349e+03
3.864265741261173844e+03
3.822723835000630515e+03
3.785304010439514968e+03
3.199487942635254058e+03
2.743563503127152671e+03
2.541520201100867325e+03
1.818397211107572730e+03
1.518334391467891237e+03
1.240539652630516002e+03
1.231270275326125102e+03
1.149588320127503948e+03
1.378539507157417120e+03
1.815936114933739645e+03
2.147913277368595118e+03
2.348111203559577461e+03
2.613601890938593897e+03
3.040478452628980449e+03
2.728726863998896079e+03
2.643309066445044209e+03
2.502225789814008294e+03
2.725406994475649299e+03
2.949861294546749377e+03
2.689580941496628839e+03
1.797568934735681069e+03
7.027644413418237264e+02
7.207985694887683792e+01
5.855141235982652006e+02
7.290285988933669614e+02
4.766068987067969260e+02
1.152004596599983728e+02
1.028141635589642959e+02
3.497065779044035594e+00
1.322153873199197278e+02
2.509555403459866056e+02
1.070672783444949346e+03
1.710361889737788943e+03
1.817044179435412161e+03
1.358663420484411063e+03
-9.707745474830513785e+02
-4.765251652240774092e+03
-8.753807100252843156e+03
-9.331461326762309909e+03
-8.888255034654765041e+03
-8.715241240982879390e+03
-9.612470266228710898e+03
-1.033192854832817466e+04
-9.808701878551588379e+03
-9.439964724115499848e+03
-9.287037826690808288e+03
-9.640221873458815026e+03
-9.118773010611033897e+03
-8.407691495356442829e+03
-8.117912261084388774e+03
-5.842551488900131517e+03
-3.225574194685480052e+03
-7.371941433128797144e+03
-7.873666415216588575e+03
-7.386779164526205932e+03
-7.407256436384982408e+03
-4.751068304738003462e+03
1.458779974174126892e+03
2.884287837401827346e+03
3.343391225867233061e+03
3.481112643863894391e+03
2.930444671294364525e+03
2.435352415381952142e+03
2.314821390912810784e+03
2.311831522011239940e+03
2.070373491957246642e+03
1.663435698135679786e+03
1.662031350669313497e+03
2.249201484014707603e+03
2.664999788771514886e+03
2.771424787076263328e+03
2.741496458615642496e+03
2.666262910256776649e+03
2.868711452237650064e+03
2.388838622235929506e+03
2.581676532729603878e+03
2.356290484992989150e+03
2.130708036091471058e+03
2.012936024017052887e+03
2.008953795225723525e+03
1.572776442319443731e+03
1.051325008907865822e+03
8.636446647238182095e+02
5.447630100947418441e+02
4.996431924929608499e+02
6.153565074358560878e+02
7.989375109234621277e+02
9.783993016101254625e+02
1.704838813045046209e+03
1.500297324267216482e+03
9.788040235811098455e+02
7.623459595784100884e+02
1.141031097119952165e+03
1.256918398567608619e+03
1.133992959646090412e+03
1.476271567592661540e+03
1.728866665297436384e+03
1.414816458231563729e+03
1.090120681784395401e+03
9.467996243279485498e+02
4.270377582936666840e+02
7.779950417124264561e+01
-3.277045242136487673e+02
-3.976174429727098527e+02
-3.886291045241030133e+02
-5.376514504718195440e+02
-6.356913505634327066e+02
-8.310715950682324547e+02
-1.555748102174220094e+03
-9.156888042014662688e+02
-3.854803655120621215e+02
-2.138480667499479893e+01
2.324911094099501554e+02
4.781432107310910169e+02
1.088574260492625626e+03
1.784783504762256598e+03
1.599897013420330040e+03
1.181968790890977743e+03
1.216909858398458027e+03
8.727570429896105679e+02
5.125865407357000549e+02
8.338360006809482172e+01
-2.229061067986694695e+02
-3.672123200525103357e+02
-9.455162706545793299e+02
-1.267826850017571132e+03
-1.239152695578324938e+03
-4.734517676146291478e+02
-4.246173329461836943e+02
-1.906397092853823096e+02
1.724702054592877687e+02
3.667668582544391143e+02
6.042491527777325473e+02
5.228831988756620603e+02
5.836801386284093951e+02
7.136395954717820587e+02
1.063850644593956758e+03
9.293226668814627374e+02
6.590841552431822947e+02
4.381090977696276809e+02
1.933873825154918791e+02
-4.731000926411059595e+02
-1.041407830612039334e+03
-1.257585656055050094e+03
-1.160647137487240570e+03
-1.173547095255621116e+03
-1.097270255413431642e+03
-8.508932198322938802e+02
-6.363885158916216369e+02
1.202184376564307655e+02
1.709753785035985629e+02
3.487934156611145653e+01
2.328867309671200019e+02
6.749662879017902242e+02
8.361135543022641059e+02
5.492641747516491932e+02
6.724125506156784695e+02
9.485958706748070881e+02
8.288237568859692601e+02
4.790731276387611501e+02
-4.712618307478344981e+00
-3.286820401798652824e+02
-4.307936405230203150e+02
-4.621168336829853160e+02
-6.027049989719840823e+02
-7.486509599873504612e+02
-4.769649121170454009e+02
-1.127248690015483845e+02
-2.594006574488398797e+01
4.513851582590565386e+02
1.922471491883599697e+02
-3.414061023455031432e+02
6.253670821129338719e+02
1.202423559712420683e+03
1.212662684747291905e+03
1.230436921756542915e+03
1.566168449175464502e+03
1.331822488186781811e+03
1.844140664358067625e+03
2.022084785288677949e+03
1.405615705218843914e+03
5.536779789144760571e+02
4.025311626494430861e+00
2.706988162087469050e+02
1.645482705120450362e+02
9.144822470903280021e+01
1.803733317814424595e+02
3.333538430374239852e+02
9.015754824266039122e+02
9.245453722991861696e+02
8.165994233299768439e+02
4.833766482026131257e+02
1.030175213163642411e+03
2.181707124874439614e+03
2.307907798093663132e+03
2.399666595417333156e+03
2.188951194744332952e+03
2.428758332546884503e+03
2.777059704045226681e+03
2.763741034464233508e+03
2.309677142982234272e+03
1.822787870275255955e+03
1.657087278007992381e+03
1.737778929986278627e+03
1.273316499881349273e+03
1.332898379822198194e+03
1.096381979676077890e+03
9.999932658438701765e+02
1.519409369852202417e+03
1.654581810132857299e+03
1.791451742507412973e+03
2.190746546600439615e+03
2.861509683151743957e+03
3.138747795840844901e+03
3.078204519573306698e+03
3.656773811793287678e+03
3.524402678936881784e+03
3.178066939450367954e+03
3.240779647411568021e+03
3.466504329078731189e+03
3.216138351744873034e+03
2.546711019592694811e+03
1.971174382843123794e+03
1.747462952856431457e+03
1.265573491860879130e+03
1.251409089769776301e+03
1.335949362423396678e+03
1.480256635369616561e+03
4.442864443528135325e+02
-1.902972908520929423e+03
-6.785464359514841817e+03
-8.399142050805789040e+03
-8.150055467021597906e+03
-8.162182723785774215e+03
-7.489480729325564425e+03
-6.022958481457042581e+03
-6.457432921634115701e+03
-6.806760996722960044e+03
-6.615450034940163277e+03
-6.317296133145068779e+03
-6.499202128759926381e+03
-7.527188924676443094e+03
-7.243319156615445536e+03
-6.593537814272861397e+03
-2.981823373203368192e+03
-4.467124103118357198e+03
-7.651427936958767532e+03
-7.605729966140218494e+03
-6.737985805695618183e+03
-6.456196804363044066e+03
-6.038306509399464630e+03
-6.268149171687991839e+03
-6.696688797879933190e+03
-6.311893304296339920e+03
-5.331710036693735674e+03
-5.056123390050151102e+03
-4.666087759821274631e+03
-4.643483764577302281e+03
-3.271289981743297176e+03
2.611545897375086497e+03
5.293107916901692079e+03
5.193434307000327863e+03
4.191585731982761899e+03
3.389589429550098430e+03
3.768520670819088991e+03
3.692395651814672874e+03
3.605248864201193555e+03
3.456152849440368755e+03
3.893202968640450308e+03
4.377471612999606805e+03
4.711035570678032855e+03
4.465041279539294919e+03
4.048535226031833190e+03
3.913637752022833865e+03
3.916381636328457262e+03
4.067750785367244589e+03
4.232876111703140850e+03
4.152896810274832205e+03
4.000963127210483435e+03
4.283088907561776978e+03
4.271249148849911762e+03
3.766542440927447387e+03
2.857030626734946054e+03
2.082798407246638817e+03
2.070948759459857229e+03
1.990521794914132670e+03
2.051536443952471018e+03
1.809079501161285407e+03
1.671216429308862644e+03
2.113922797780885958e+03
2.151220640686303341e+03
1.745190070171178149e+03
1.914419969210571480e+03
2.213307439366099970e+03
2.482952389374698669e+03
2.698252136142915788e+03
2.574138705960829611e+03
2.569681197460634394e+03
2.731039800079949600e+03
1.861268843557151058e+03
-2.511715315757355711e+03
-2.070907440131895328e+03
2.781542746525099830e+01
7.745680975644685304e+02
3.973524554565751146e+02
3.273107822547425485e+02
-1.560126774999846759e+02
-3.856594323654288132e+02
8.254938393148802334e+01
3.852422571744717175e+02
3.701830863990550711e+02
5.093150493816827975e+02
6.577165190378800617e+02
7.792473496829638862e+02
1.079625476876743733e+03
9.071759562313405922e+02
9.880215859353365886e+02
7.788981498331301054e+02
8.657696047223860205e+02
1.054655391515252177e+03
1.186544129919375337e+03
7.124341466653983161e+02
-1.096771512905112473e+02
-4.657576283284037117e+02
-4.148263015182939171e+02
-4.959689665229281559e+02
-9.312087018428585452e+02
-1.173538903358481775e+03
-8.218897317211484506e+02
-5.772601247703961462e+02
-5.536839064939086938e+02
-5.731246947530378293e+02
-2.676050345553574630e+02
8.761781306343734421e-01
4.363258748947768595e+02
7.866853323738928339e+02
1.227887348071598126e+03
7.039948085002596372e+02
6.780044462171889563e+02
9.238536877903994764e+02
7.155020737581232879e+02
2.179084812898898349e+02
-5.329795146660501359e+02
-1.159208432164391525e+03
-1.243829739869823243e+03
-1.215973909555382761e+03
-1.014653984539291059e+03
-9.578607184545845712e+02
-6.116077094292860465e+02
-2.230058959060391146e+02
-1.077178248959027362e+00
9.167504323806067390e+00
2.566515271596129537e+02
4.323406612322216915e+02
7.281950645607054184e+02
1.035176966805028087e+03
8.152398150693998105e+02
-2.157661159121159017e+03
-6.360601607553919166e+03
-1.016664633677293023e+04
-1.009587141752119896e+04
-9.754392241146259039e+03
-9.502225902117523219e+03
-1.012843434008068107e+04
-1.028111744453437859e+04
-8.611174121723359349e+03
-2.121854120628826877e+03
3.637734011074146565e+02
8.896674256256645776e+02
1.425768584282582879e+03
1.819029295055615648e+03
1.446356876234444371e+03
1.369692678402203228e+03
2.127077306995161507e+03
2.244479008055961913e+03
2.080769837780635044e+03
2.488902058302189289e+03
2.609803210787683383e+03
2.410396765448998849e+03
2.875614100550776129e+03
2.982419647523813637e+03
2.697820301019852195e+03
1.743730806094759828e+03
1.139030327569530073e+03
1.407567808547469895e+03
1.612320386207281899e+03
1.206143707285251139e+03
1.421015941404498790e+03
1.622922591411478606e+03
2.190814859672284001e+03
2.504672206552854277e+03
2.043414044146605647e+03
1.909012113601156443e+03
2.287456107567935305e+03
2.723702575146148774e+03
3.170717280363107875e+03
3.509443102036838354e+03
3.639846286097568282e+03
3.655937715780768940e+03
3.475682142282607401e+03
3.212031605331047558e+03
2.989909739853134397e+03
2.813284852542542467e+03
2.234106470864419407e+03
1.952317992150631426e+03
1.507921683315618793e+03
1.728849358085017684e+03
2.003065803065359205e+03
2.157574198991196226e+03
2.419408462213516941e+03
2.682578657524641585e+03
2.596067935527497866e+03
2.412858407685960174e+03
2.885924872843104822e+03
3.298251914492543619e+03
3.505864415861728503e+03
3.639792681315101618e+03
3.167020387411473166e+03
3.772528582891847691e+03
4.089409714868272658e+03
3.943643093311200573e+03
3.417183272330533782e+03
2.877998507178480850e+03
2.246067113044272446e+03
1.833374290108633431e+03
1.411941807276915824e+03
1.376706278986275265e+03
1.362724862161374631e+03
1.166111465021077493e+03
-6.842318567941039191e+02
-4.769165380616546827e+03
-7.892715510755257128e+03
-8.025841712778819783e+03
-8.091475630911313601e+03
-7.436572236703675117e+03
-7.163189081099477335e+03
-6.475288378919236493e+03
-5.342737207984594534e+03
-5.823404633873997227e+03
-5.356299417925410125e+03
-5.447449183404929499e+03
-6.167820184743777645e+03
-6.616411554164946210e+03
-6.165232588199698512e+03
-1.941225247347033019e+03
-2.416398235667218160e+03
