4.785461261343310980e+03
5.033863852175843931e+03
4.933361461363348099e+03
4.225954048068158954e+03
3.536698059155343799e+03
2.979560488092296509e+03
2.214519841008701860e+03
2.003679778683036147e+03
1.515064967772815180e+03
1.317639053386780915e+03
1.800458088969218579e+03
1.944504398463933285e+03
1.930833020182643168e+03
2.278422580470076355e+03
2.525292501048707436e+03
2.535496240383582062e+03
2.604076419653465109e+03
2.608015867462615915e+03
2.686244492601313596e+03
2.603740398960193033e+03
2.759551083324747651e+03
2.590371807431451998e+03
1.841985124388306303e+03
9.695981892952324870e+02
3.010412575609165629e+02
-4.358051862141961692e+02
-1.482874172805130229e+03
-1.847118508061833609e+03
-1.340560168834746264e+03
-8.272246785642378200e+02
-3.670615294263045030e+02
-5.005877559230295333e+02
-3.362495136280625957e+03
-1.623622182808515618e+03
4.963377922929817032e+02
1.770502819808757067e+03
2.192439346462250342e+03
1.699204749712968805e+03
1.007750014410196286e+03
1.096798794665890455e+03
1.672623544445960079e+03
2.046243965804418622e+03
2.104363626392373590e+03
1.570939854044779850e+03
-3.419851475681931561e+02
-1.791537457924323462e+03
-1.921751624517823302e+03
-1.176685361236427752e+03
-6.634319917823377182e+02
-9.570843525622065044e+02
-1.555621117465391762e+03
-1.986032440253698951e+03
-1.780353572228143776e+03
-1.277626485002274876e+03
-1.033692160269272790e+03
-1.084697894639720971e+03
-6.306822697275183600e+02
-1.329592412766030066e+03
-2.460461489159106350e+03
-2.071367997751399798e+03
-1.173368495825181753e+03
-4.724458129684759342e+02
-5.195943850127991936e+02
-1.118790134688026228e+03
-1.115198922180551790e+03
-9.499066625092905269e+02
2.830486936617496667e+02
1.175651538838307715e+03
1.933866762256204083e+03
3.301691864926354810e+03
5.081133139409906107e+03
6.235160275589555567e+03
5.620766454683568554e+03
4.838918128694882398e+03
4.106600362120764657e+03
3.218697167208844803e+03
2.733173040671130821e+03
3.464126812801346205e+03
4.063444991651083910e+03
4.148012231616696226e+03
4.214897111787773611e+03
4.172093863437139589e+03
3.297554427129918167e+03
3.407242915905276732e+03
1.265184905683928719e+03
-2.342709644679453504e+03
-6.394549858298650179e+03
-6.453365309362975495e+03
-6.424045031626443233e+03
-6.593706111233934280e+03
-6.422478309724212522e+03
-5.279294979146982769e+03
-1.225099230656477857e+03
2.235148339481826497e+03
4.807388840950706253e+03
4.468490749034545843e+03
3.214540940462274193e+03
9.855456779725842580e+02
-3.185292782261872730e+02
-1.311718590446952021e+03
-2.303031374554364447e+03
-2.821471629768976072e+03
-2.985033274094579610e+03
-3.027749050068546694e+03
-3.354650066141520711e+03
-2.363756554270246852e+03
-8.650557715590542784e+02
-1.065411651847027059e+02
-2.724181236329858891e+01
-1.459183290693676327e+03
-3.317355347204987538e+03
-4.558702753152500918e+03
-4.440227044284752083e+03
-3.463897465048491085e+03
-3.815740698003912257e+03
-4.793739325723106958e+03
-4.246816945032741387e+03
-2.893897768856600123e+03
-2.430991533907586472e+03
-1.703181969970594082e+03
-2.621395734172015182e+03
-4.320573959645755167e+03
-3.355724807368643269e+03
-2.189896109447122853e+03
-1.942038448316447329e+03
-1.523128538961927688e+03
-1.195217704769242800e+03
-2.558240067166099834e+03
-2.597198193460259063e+03
-7.720404358484443037e+02
1.430250889082181629e+03
4.161752026081489930e+03
5.961473484400673442e+03
5.249456816382425131e+03
4.112818893838492841e+03
3.048536545116442085e+03
9.495687066264532632e+02
-4.479519056639840642e+02
-2.311985497852964727e+03
-2.316525191372363224e+03
-2.389472550180893904e+03
-4.327752743006140008e+03
-6.186324260372401113e+03
-6.460200577339099254e+03
-4.907383490501058077e+03
-3.075841304565892187e+03
-1.633459247411662773e+03
9.317721689264022871e+02
2.169920461846786566e+03
2.295996916885870178e+03
2.050032427499579626e+03
2.356062359307108181e+03
4.823149119270286974e+03
7.360374202075871835e+03
7.976796093804092379e+03
7.443473142453482069e+03
4.336428477206975003e+03
-2.662572580750623388e+02
-2.586538057962882704e+03
-1.669438586328032216e+03
3.077077476071614910e+03
1.097122455389244578e+03
3.565702222716037340e+03
4.401911133221985438e+03
3.869788763189627389e+03
3.729290506970135539e+03
1.947488415299665576e+03
2.290398763840617903e+03
-1.344950552770689228e+03
-1.563514310235339735e+03
-1.401212696436258284e+03
-3.163979433751673241e+03
-4.852772851396160149e+03
-2.778668301904124291e+03
8.053878890357143518e+02
7.355472461806898536e+02
-1.082205332958525105e+03
-5.368908873052024546e+02
2.226578719028226260e+03
3.707187563459675403e+03
5.507946494903328130e+03
2.442975069161756892e+03
2.042301999360109903e+03
-5.250628563705793113e+02
9.218794611949888349e+02
-2.218849736368927552e+03
-2.104256559984673459e+03
-2.679415077994615785e+03
-2.247258391574708185e+03
-1.801790749879877694e+03
8.150495645325024725e+02
3.132163166944005752e+02
1.104685414396638635e+03
-1.421452780799053471e+03
-6.071667764122910285e+02
-2.986457060972629733e+03
-1.240290876500405602e+03
-4.786742107061996876e+02
1.916402195701798291e+03
3.338907104338939462e+03
4.086898718461113276e+03
3.932422728420877320e+03
2.495408207462214250e+03
4.988207941097364824e+02
-1.818303805369329666e+03
-3.387000473560697628e+03
-3.764326729714036446e+03
-4.327418851138897480e+03
-3.683504986252108210e+03
-1.877995816416290609e+03
-1.895040587086914456e+03
-2.266470571085466418e+03
-2.479185470082708434e+03
-1.913330671282233880e+03
-1.093177892168871949e+03
1.204537587895902789e+03
3.087510748872849490e+03
3.215642981903202781e+03
3.549107703320709788e+03
3.419935764035232296e+03
2.927994655227537351e+03
2.764903420497891602e+03
2.930858721350127325e+03
3.401064800460323568e+03
2.263525572014872523e+03
1.330850295087090444e+03
-1.428685799303580666e+02
-1.717611830650986121e+03
-1.652696653329847550e+03
-8.923107065341794168e+02
-5.149433851295383420e+02
2.954855406318884548e+02
1.654384644664904499e+03
2.673817292206991169e+03
2.320831830569549766e+03
2.090434727503238264e+03
1.858759727384596090e+03
2.220611930754086188e+03
2.398690406638537297e+03
2.591321457634175658e+03
2.952183946587254013e+03
2.786363012204637471e+03
2.353714022260456204e+03
1.898075617217189347e+03
2.421668501386992887e+02
-7.923036729711886892e+02
-7.865468941033999499e+02
-6.442900469756255006e+02
1.444967688922708646e+02
6.751517471864698337e+02
4.177210592013342989e+02
7.556831315437776766e+02
1.212121117748711640e+03
9.761371979350609536e+02
5.897276270117608874e+02
7.335306363843352528e+02
4.537081940155364350e+02
1.001248403006467925e+03
1.374038563601903206e+03
1.159006424871157606e+03
1.087209459519136317e+03
1.077620049808352633e+03
1.236210866958545012e+03
1.917991339805953430e+03
2.538863781119459418e+03
2.382762718733564725e+03
2.197663402169986057e+03
1.556528592296004035e+03
1.285446551935539901e+03
8.923164475581868373e+02
6.630363025977861753e+02
9.815904561600799525e+02
1.300003152726711960e+03
1.252240786002755840e+03
-3.047073000433979928e+02
-2.661827103505590458e+03
-5.778106091118582299e+03
-2.930551956254125344e+03
-5.410194151093075561e+03
-6.023996534481533672e+03
-6.033910732922899115e+03
-7.102896976123439345e+03
-7.127891446171407551e+03
-7.111922596448584045e+03
-7.511143759926061648e+03
-8.178585528122873257e+03
-8.271275664619161034e+03
-8.890225178010583477e+03
-9.465284480579857700e+03
-1.030830049397806033e+04
-8.587620976827387494e+03
-6.527068935352598601e+03
-7.131868882704446150e+03
-6.306924993793196336e+03
-5.794185374616690751e+03
-5.547565756945439716e+03
-4.902982507766495473e+03
-3.263510968990758556e+02
2.476381576893493730e+03
3.322168638665806611e+03
3.817909906643308659e+03
4.392661130755008344e+03
5.006479715717830004e+03
5.203373657415923844e+03
5.309372828723549901e+03
4.642481666840688376e+03
4.350762547891378745e+03
4.350262584391554810e+03
3.746945245887820874e+03
2.434809328436908800e+03
1.586898964518919911e+03
7.932408425390860884e+02
4.678505724657854330e+02
-2.392819194694741896e+02
2.990705964669735408e+02
2.231089387008249560e+03
2.784716514549435942e+03
3.080920041025187402e+03
3.353741570115730156e+03
3.617212158825292590e+03
3.372379661049767947e+03
3.208190815886067867e+03
2.953663992600118036e+03
2.202762403320853082e+03
1.191533037406591802e+03
3.910658798918300363e+02
3.813512328913224678e+02
3.923793087547325626e+02
3.832304909296981350e+02
1.120985772337089657e+03
2.154756035797062850e+03
1.940574546599094447e+03
1.739459370908778055e+03
2.308453299509467797e+03
2.242521895278123338e+03
1.711703408059368940e+03
1.749091519468072647e+03
1.858748020634700879e+03
2.163696333083089030e+03
2.328043441384099424e+03
2.407863602302506933e+03
2.236370454256915764e+03
1.808672489608916749e+03
1.680835851321541668e+03
2.028959228138893877e+03
1.504169819571436847e+03
3.946474631652659468e+02
-5.827184727337772756e+02
-1.401870040381614899e+03
-1.527120284868650970e+03
-1.718504810892288106e+03
-1.613085284285964690e+03
-8.708223545217731498e+02
-1.986780428048012084e+02
5.804610195182586949e+02
9.486004662802361054e+02
8.888510643203698010e+02
1.030359056748063495e+03
1.493153558488857925e+03
1.638175084230594393e+03
1.180384660632885698e+03
8.438383243918029848e+02
9.455061134314581750e+02
8.453061913249108557e+02
4.432509156481870036e+02
-3.876476815988108342e+02
-9.952465022959729595e+02
-1.252476297399793566e+03
-1.297345085269987976e+03
-1.246933957665252592e+03
-1.560336798921078298e+03
-1.898459603388123924e+03
-1.644173412129923463e+03
-6.476204226425411434e+02
-2.649256073620840084e+02
-4.100111028938495110e+02
-4.088124009759743416e+01
2.116440402824028411e+02
5.496516569471605180e+02
8.638570885551935135e+02
1.000141382635335503e+03
9.535667811478876956e+02
6.881855603680204467e+02
7.719940180903921600e+02
3.261555961507504549e+02
-2.043761875404504167e+02
-9.408820898002612694e+02
-1.250520880249582660e+03
-1.741353131458995676e+03
-2.417325856797970573e+03
-2.760276577114119846e+03
-2.358148083902764938e+03
-2.089926326653868728e+03
-1.675503568106340708e+03
-7.749961319763526717e+02
-7.003960966629248333e+02
-1.080855992845344645e+03
-5.132512403075116936e+02
6.746473018305094627e+01
4.002443553823165416e+02
1.493670429570269498e+01
-6.886349655893100135e+02
-4.165693953067612370e+02
-5.018690861674907069e+02
-2.987435266505522122e+02
-3.511472689285054116e+02
-7.620317018742096025e+02
-1.382469706476109877e+03
-1.531594264149726996e+03
-1.246623594989156572e+03
-1.098603372603297885e+03
-1.150431805851380659e+03
-1.152083573020559925e+03
-4.014103360166253083e+02
1.370107103697300488e+02
2.212878662367738229e+02
3.168665314308626648e+02
6.764793838825545436e+02
7.965290053232339460e+02
9.357556318301176361e+02
1.091935606403067140e+03
9.173256164790559524e+02
9.618423118016424951e+02
5.694709037391683069e+02
5.107199807968053307e+01
-2.809449442023321240e+02
-4.320926764056271736e+02
-3.294174979311124503e+02
-2.125669100439088197e+02
-4.417745500169881439e+02
-2.854853159059182985e+02
1.730224507015024074e+02
1.241595043456290597e+02
3.053082864689326925e+02
9.389756544050818547e+02
1.172920818179118214e+03
1.015573137780626212e+03
1.399833375982308780e+03
1.472119438747140975e+03
1.764669714761950672e+03
1.894714083453657850e+03
1.985195700783912571e+03
2.035258077235404016e+03
1.932818395279155538e+03
1.742618983371284685e+03
1.162898870353030588e+03
9.895127748480912260e+02
6.382470430498436826e+02
4.528720727419231196e+01
3.229794173854084960e+01
7.667396911508727442e+01
2.551944579738742220e+02
4.572274882559181606e+02
6.290273219126289632e+02
8.710404591143427524e+02
8.371072127963814182e+02
1.061096017255992592e+03
1.517964518158635883e+03
1.731810210425557898e+03
1.705734543000398617e+03
1.955701430944034200e+03
2.029800469732253077e+03
2.095995698796590659e+03
1.009167959769935123e+03
-3.828673384605272531e+03
-1.546615401735873320e+03
-2.570786285976642830e+03
-2.900105463137222159e+03
-3.122520299632309161e+03
-1.565020838589843834e+03
-2.920733043715890290e+03
-3.927567160444861543e+02
-1.273209077355646968e+03
-3.775061485187404287e+03
-3.362174644289078515e+03
-2.070595688940697073e+03
-2.062282804782636049e+03
-1.794334538910806714e+03
1.012627869769698577e+03
1.936583931482248772e+03
7.413330634575802378e+02
-1.772051971497888417e+03
1.650608636625386907e+03
2.178447936127327466e+03
-7.966427437803982912e+02
-2.409823181000565000e+03
-2.464198882262845018e+03
5.251743784533385906e+02
-1.782609104292914253e+03
-3.360505397280895522e+03
-4.262550919206628350e+03
-4.257658358317466082e+03
-1.647843080034111608e+03
-2.550013529235040153e+02
-2.229159615988563928e+03
2.896811273531171196e+02
-1.312436946787408488e+03
-1.012503466466166628e+03
-1.914476578712987020e+03
-1.038320522704904761e+03
-4.047049677948009958e+03
-3.099454317249681026e+03
1.175534134438992851e+03
4.768035423963665949e+02
-1.318689254379963813e+03
3.170646687789226235e+02
8.970808525352990728e+02
8.533778012432927653e+02
9.749524851396314489e+02
9.558227356676823092e+02
6.930877945562905325e+02
7.207776253166661036e+02
1.182941861415964240e+03
2.211773572774759032e+03
2.621200424777036005e+03
2.263180155549420306e+03
2.366707201529099621e+03
2.429823820947743116e+03
2.587710230028213118e+03
2.999408277788792475e+03
3.074850665073829077e+03
2.255957673558822080e+03
1.509763105641470474e+03
1.245383141703978708e+03
2.323919333834570807e+03
2.468327630270296595e+03
1.985644605440547593e+03
1.443950061304443807e+03
1.180141857577962355e+03
7.082095936655064179e+02
1.353069766935612108e+02
-6.949567476258849297e+01
-1.251709114932406521e+02
1.623818499579899424e+02
-1.112131749924483017e+02
-5.981936689716345654e+02
-7.863543163156750779e+02
-3.401921718435421553e+02
9.844721769760885763e+02
1.743719460845607045e+03
1.104635790553415291e+03
8.902523469936720630e+02
3.805333959261297423e+02
-3.745471774789028814e+02
1.791831009497456080e+02
-4.922934272344640476e+02
-1.467883574913708571e+03
7.991970106045329203e+02
-1.679829511449413530e+02
-9.105701319867773691e+02
-2.387843645626674970e+03
-3.717506811342791025e+03
-3.673463957631364792e+03
-1.989732411948206845e+03
6.053682480320508148e+02
2.695036283994812948e+03
2.873578909141943313e+03
1.647752483237868319e+03
5.834755064282801413e+02
2.396290811647555472e+02
9.642131462596602205e+02
1.510221728887036534e+03
1.844761278166143939e+03
2.073792971453866812e+03
1.438247874450930794e+03
8.431611965351170284e+02
7.037016633012337934e+02
2.448773993467190166e+02
-9.413867735976466520e+02
-2.527112829595312178e+03
-3.151268008752091191e+03
-2.623924755449110762e+03
-1.724189242994954611e+03
-8.129134946185812396e+02
4.299710078433881790e+02
1.165427148935091964e+03
1.513369562478870193e+03
1.193790530871013061e+03
6.647391054099904295e+02
2.633355977153070739e+02
-2.594243151467948110e+02
-1.545997722755222696e+02
2.098131806653528315e+02
8.268260486044501931e+02
1.870395573634214088e+03
1.792470738101778579e+03
2.245958616893052294e+03
2.481792270072355677e+03
1.963007948898747145e+03
1.510625052959989262e+03
1.185626904845188392e+03
7.110851991026733003e+02
3.180360776298097107e+02
4.937603103979825647e+01
-7.499028170674545208e+02
-1.977793692794488834e+03
-2.130250450820195510e+03
-2.727289989501189666e+03
-5.103945944842965218e+03
-9.523238358739319665e+03
-1.045811065207577485e+04
-1.029055093577382104e+04
-8.231674889107958734e+03
-7.334402639275149340e+03
-4.498660370444911678e+03
-1.779469109095713748e+03
1.225103668591446649e+03
3.661985319804465689e+03
3.959211260275020322e+03
3.179702659232730639e+03
1.775382462204697504e+03
1.621732429769583348e+02
-6.668626049127000215e+02
-2.336856526473786460e+02
7.556640963161820537e+02
1.179174894774969516e+03
9.968851452093456373e+02
9.618710580690060397e+02
1.870113209419389932e+03
2.604517360630761686e+03
3.050081742683158609e+03
2.984820313612572591e+03
2.923769915696702355e+03
2.758898655950652937e+03
2.578193614091141626e+03
2.480588974168594632e+03
2.081065435481920758e+03
1.494647880188002773e+03
1.713312776067381492e+03
1.605970936455531273e+03
8.715208686386904446e+02
3.650032685964281427e+02
1.845021498596583740e+02
7.659901795051314366e+02
1.619468650890120443e+03
1.614932833042821358e+03
5.584067053626954475e+02
-5.801536843520668754e+02
-8.247984655948199588e+02
-1.009450378756653322e+03
-7.361134761159647724e+02
4.712279336890035211e+02
5.585781607081386255e+02
-3.739720953482306527e+02
-8.765052967326849966e+02
-8.890613983631368455e+02
-9.836484918179681927e+02
-7.702770414016614495e+02
-2.499523846386660466e+02
6.672555529934047627e+02
7.673642691227927344e+02
3.622955042441121236e+02
-1.629633302395495491e+02
1.329657348324066788e+03
1.959151497681435785e+03
2.069552955583381390e+03
1.986954960452943851e+03
2.083395507354294296e+03
2.107806241369429699e+03
2.675164618812614208e+03
2.735528580002565377e+03
3.049828825164089267e+03
3.617026884128868915e+03
3.347164789385517906e+03
2.190283699659198646e+03
8.713361552448033081e+02
-1.957202741583993770e+02
-1.349838616458444676e+03
-3.345077564683706896e+03
-6.831476283821217294e+03
-7.568040087376275551e+03
-4.870753581141982067e+03
-5.539477762137307764e+03
-4.585262361450073513e+03
-4.207167849550704886e+03
-1.857156857556844443e+03
-2.976173248131663968e+03
-1.663227356089315663e+03
-3.282802789476496059e+02
-4.693392614406743633e+02
4.061189249812786528e+01
2.229602929549292185e+03
1.406564937681415586e+03
6.486230267779917540e+02
2.990828444591329117e+03
2.732031968982790659e+03
7.882171355301362610e+02
-2.713618462158636703e+03
-4.365503504340320433e+03
-2.669410714576001737e+03
-4.743356660232604554e+03
-7.488378341426916450e+03
-5.107429753335344685e+03
-2.180502699434768601e+03
2.465382655744035674e+03
2.463325305881437828e+02
-1.733684859792131419e+03
-2.556469495243964900e+02
-1.301529749763613154e+03
-1.563546836526844288e+02
-2.903173903988380971e+03
-1.380925922486215086e+03
-9.815006328645545182e+02
-2.529370083356742498e+02
5.607204111814056660e+02
-1.440491992530724701e+03
-1.939598662868311067e+03
-1.932630772685066631e+03
-5.162507838060538745e+01
-3.655576729064247047e+03
-2.190463550231132103e+03
2.666027860798157789e+00
6.448113620677142990e+02
6.569826037993074124e+02
1.397170880340747090e+03
2.366387046407702655e+03
2.149650359060913615e+03
2.390988023511697520e+03
2.670442480320857612e+03
2.572000870517777912e+03
2.441741269218161506e+03
2.588967852901729202e+03
2.776047748109216627e+03
2.544221565223803736e+03
2.692375402802020744e+03
3.252717572178657520e+03
3.181256810738098011e+03
2.205139553344215983e+03
1.431015904527975863e+03
1.024161696853562489e+03
8.267495817565878724e+02
1.375080368033871707e+02
-7.086702061490681217e+02
-3.876722183911784668e+03
-2.236646487688155958e+03
-1.466114366243644440e+02
-7.346771942292980384e+01
-9.968386197076283679e+02
2.302723144590700599e+02
2.662001638001453102e+03
3.506358546369798660e+03
3.768922001430911223e+03
3.333385313072679310e+03
1.504856570128436488e+03
1.001134482822371183e+03
1.738755666661088753e+03
1.893202868911815813e+03
1.650668470643679939e+03
8.861462919764500157e+02
1.066393876772978047e+03
1.315366536545139752e+03
1.186268244723773932e+03
1.392817700853081988e+03
1.760342822154491159e+03
1.938665397724911600e+03
1.950954856869726655e+03
1.233173462499440120e+03
1.334227935680843757e+03
2.425801488915104983e+03
2.874724132096825088e+03
2.644606072314508310e+03
2.998635882262405175e+03
3.218137094863220682e+03
2.526020156226910331e+03
1.880290582473189033e+03
1.149921803731906721e+03
4.799458759970598294e+02
-6.516548717881553330e+02
-1.260973886587673405e+03
-1.520641235523745252e+02
7.729640611760127058e+02
8.500999975556118216e+02
-2.315791442133074440e+02
-1.350111016679031536e+03
-5.404886133032347288e+02
8.962918093536362676e+02
2.057186284158874059e+03
2.075228762847330017e+03
1.328492954540450683e+03
1.540954157030277884e+03
2.226560686991563671e+03
2.320195690812147404e+03
2.313903538264089093e+03
3.160761723984528089e+03
2.983775708021176342e+03
2.282927654124984201e+03
2.851256258035916744e+03
2.243754827068788018e+03
-5.763582581966343810e+01
-3.668971920705175762e+03
-7.514322673311134167e+03
-7.736659642109580091e+03
-3.705955989506109745e+03
-5.577181614561188326e+03
-7.102342224392451499e+03
-7.211480074906808113e+03
-6.371557477063319311e+03
-5.671459804479853119e+03
-6.060223925458828489e+03
-6.693812120630806930e+03
-5.952241193311732786e+03
-5.629634565081235451e+03
-4.580837844916435643e+03
-3.523752564814725247e+03
-3.476845283167219804e+02
-1.399576186698613583e+03
-5.396169544941242748e+03
-6.555339190653869991e+03
-7.031141911498513764e+03
-7.499658316398984425e+03
-7.707051597579186819e+03
-6.162484051435121728e+03
-1.492943337878203465e+03
6.228139899500692991e+02
2.289018748833424979e+03
2.803685835607104764e+03
3.003723855944504066e+03
3.012054285004664962e+03
3.528717127939739839e+03
3.833763994385513342e+03
3.434229649431484631e+03
2.588210356627101191e+03
2.825771245167142297e+03
3.430913503315587604e+03
2.907703747283926987e+03
2.270207149222415410e+03
1.336576376960257903e+03
4.697748440722648411e+02
-2.392856028138733109e+02
-1.756344149192608484e+02
7.647137648732464186e+02
1.522724992463857006e+03
1.350447248509892233e+03
4.670052781798185606e+02
1.145123059191738548e+02
1.321039581139826396e+03
2.175606747511307731e+03
1.935311736320808450e+03
1.752135687623923332e+03
2.590094797325794389e+03
3.199232364801475796e+03
3.359472579699295693e+03
3.314951088663626706e+03
3.027648516523437138e+03
2.024640368994699429e+03
1.101031175949120325e+03
7.368518097336096844e+02
8.131555873415400129e+02
9.710469604247982716e+02
3.795779473180310788e+02
-2.452957233983595700e+02
-5.155641906662400515e+02
-1.180982100492023505e+02
2.511910125362902022e+02
9.739646211870231696e+01
-6.173756532164288728e+02
-2.788522326903259341e+02
1.098825873230109892e+03
3.346089357731215728e+02
-2.136406106926234258e+02
1.941075058514767591e+02
5.295063510895676018e+02
8.408831328293359775e+02
2.694278049231031105e+02
6.010148291475542237e+02
9.526676854359573099e+02
6.254711118156376415e+02
-3.924755884704107416e+02
-8.961204976821345554e+02
-1.225475273926138243e+03
-1.819619567715812991e+03
-2.129662216172033368e+03
-2.068533316383065994e+03
-1.433159244324245719e+03
-6.994704678524899464e+02
-4.904834739372382728e+02
-2.971773891108089742e+02
-8.350817714383185830e+01
2.406356601984228121e+02
4.152135179421791236e+02
9.131886923612540841e+02
9.776558083853061589e+02
1.075604581701885309e+03
1.299051452685806680e+03
1.298958129636371950e+03
8.282659049359465371e+02
-7.394595728411367475e+01
-9.936408880445873137e+02
-1.384864587598207891e+03
-1.547587532327203235e+03
-1.663881923429786866e+03
-1.589803946710607988e+03
-9.653278654972230015e+02
-8.423602602775936248e+02
-1.532772770481839643e+03
-1.508604328786380847e+03
-1.087909186670277222e+03
-9.007317428245588644e+02
-7.691613649767931520e+02
3.878718360365062949e+02
1.086405577460606310e+03
1.156389820360944896e+03
8.167813368678814641e+02
5.235930909805047122e+02
1.000731747852222497e+03
5.991907376582843199e+02
6.608934273039196796e+02
3.848439487905569081e+02
-9.379487622877384183e+02
-2.193502271129522342e+03
-2.804980534675192303e+03
-2.930357435511791209e+03
-1.887664394713129923e+03
-8.289786500443268551e+02
-1.018340370101895587e+03
-5.657631728285963391e+02
4.737076253475528915e+02
1.129078664665889391e+03
1.117293314781324398e+03
1.212275268545841755e+03
1.518024524884721359e+03
1.611595151890117904e+03
1.595961283301549884e+03
2.145112687871161597e+03
1.738067431064631819e+03
6.308946573542500573e+02
3.066170512147298410e+01
-6.458736722142641611e+02
1.802893496946146712e+01
1.015409231796954117e+02
-4.016067947268201692e+02
-8.054350541089622766e+02
-5.431735865402916943e+02
-3.956257979703235605e+02
-1.179888502713009331e+02
2.636480747014713302e+02
3.412894797478143118e+02
4.988283117043999368e+02
-3.298936862557053473e+02
4.802935452191123886e+02
2.492311274380097984e+03
2.877818730004509234e+03
2.647953733214291333e+03
2.673815681933650467e+03
2.652501345619114545e+03
2.431880712465820579e+03
2.106636620507509633e+03
1.700058160623006643e+03
1.438108423945381219e+03
6.893288131021688514e+02
-2.045267470463167214e+01
2.405099063104225650e+02
3.257497542181428685e+02
5.572818830505672167e+02
1.115804152967671826e+03
1.421476333174323145e+03
7.880153578245549397e+02
6.537411871423748835e+02
1.476397396107058057e+03
2.272057925984322537e+03
2.324621319613494506e+03
2.478991602784552470e+03
2.874325111506271696e+03
2.987456013833855650e+03
2.773208129145999010e+03
2.647344875115375544e+03
2.835296304423842685e+03
2.511764329688773159e+03
1.800659099453292583e+03
1.357022249633017736e+03
1.026855149585568142e+03
5.870538344019241777e+02
5.950944758804182300e+01
1.382517402540431419e+02
7.342715587102912878e+02
1.361630456585062575e+03
1.894391969509619457e+03
1.937553432431093370e+03
5.260841713631659786e+02
-1.277029107538799735e+03
-4.638707767087682441e+03
-5.824039831162113842e+03
-4.913112116628958574e+03
-4.799941118259117502e+03
-5.090493602295091478e+03
-4.966761324895504004e+03
-4.523773898076405203e+03
-4.796538629704538835e+03
-5.328910889028133170e+03
-6.232781627138967451e+03
-6.911065445508271296e+03
-6.759346369790141580e+03
-5.819344194651708676e+03
-1.349037416249152329e+03
2.539688541959043505e+03
2.032768673934052231e+03
-1.000831635505916665e+03
-5.769677561703242645e+02
-3.470569239154382558e+03
-3.868650519146208353e+03
-3.183090546396068476e+03
-1.008728223132263651e+02
-3.232071031399720141e+03
-3.794707762898015517e+03
-3.434786142398980701e+03
-2.875159937075129619e+03
-3.324822844907082526e+03
-4.589719917703604551e+03
-4.879866265959149132e+03
-4.746252831080061696e+03
-4.949878166199152474e+03
-3.904808426111630979e+03
-7.619417308262093229e+02
-2.532115970779824238e+03
-4.971358439452894345e+03
-5.744817521069815484e+03
-2.623484637137184563e+03
2.898791661980907065e+03
4.352134729033928124e+03
4.393573388174721913e+03
4.237172049411313310e+03
4.180950485929272872e+03
4.771057783231459325e+03
5.289584296687161441e+03
5.213539466265006922e+03
5.231882335479672292e+03
4.815625356871689291e+03
3.916837493074539452e+03
3.290614658442032123e+03
2.675129268166064776e+03
2.207388125533387665e+03
2.034318397421348891e+03
1.762034911730094109e+03
1.808598902267233370e+03
2.020055567328716734e+03
1.973603636312181152e+03
1.741373798220949311e+03
1.559311695181600953e+03
1.251444044123624508e+03
1.370915740800947560e+03
1.521769665000205805e+03
1.783048693548321125e+03
2.469617220167389405e+03
3.110298765713394459e+03
3.490342553507912271e+03
3.391812996128988743e+03
2.759705210311507017e+03
1.783177879827745983e+03
5.945111663147872605e+02
-2.403110512874518747e+02
-6.353131860750072519e+02
-5.084216761148803698e+02
-1.555356656711542769e+02
3.552302767184724530e+02
7.698461647432509380e+02
1.345699300380021441e+03
1.291055285027971877e+03
7.736418188592598426e+02
8.424072064916524596e+02
1.664144087674384082e+03
2.003822109715821398e+03
-3.895429157502366593e+02
1.245005072322478128e+02
1.276912080580173324e+03
1.491630746582668962e+03
1.771669158632867948e+03
1.664110006399824897e+03
5.830891265215660724e+02
-7.954969366627944964e+02
-1.167714211607828247e+03
-3.564883314403657550e+02
4.110421725954147973e+02
3.226999970973339487e+02
-3.055103102702861051e+01
-2.957672404274186420e+02
-3.927428000115674536e+02
-4.640192609441194804e+02
-6.284941108273261534e+02
-4.695743271767390183e+02
-2.906495566918254667e+02
3.191213049203088126e+00
-2.100133358219629827e+02
4.169712210324186117e+02
9.941594211909514343e+02
1.282381587269021793e+03
1.387760248277375013e+03
1.100216947575454014e+03
4.146479725623532318e+02
-5.938456281930243676e+02
-9.061983826081548159e+02
-9.785020506400204567e+02
-9.718779591549050565e+02
-1.254430649337316027e+03
-1.043200767190416400e+03
-9.791385584451580826e+02
-8.802642462871036741e+02
-2.696272778590489452e+02
-4.581807773841125595e+02
-4.548391646012762521e+02
-6.886520780445656555e+02
-6.466286233086208313e+02
-5.836705529631170748e+02
-7.407450076103339143e+02
-7.488622984637564741e+02
-1.219803848406612303e+02
8.229596349311426593e+02
8.488870862669393773e+02
-3.323656192531408351e+02
-1.345029058322848186e+03
-8.981643455871901551e+02
-1.278274841947830112e+02
-5.980293201083761687e+02
-1.071726684977332070e+03
-1.059954201901130318e+03
-1.087698165776121186e+03
-1.093795243040783362e+03
-1.993243144327709160e+03
-5.969084658708602547e+03
-6.089326079159184701e+03
-2.736109127059863113e+03
-5.423837610832276823e+02
1.346307814538579635e+02
4.908721937126980492e+02
9.284294238239222068e+02
1.150332938005398773e+03
1.409552815982145376e+03
1.596122647167215973e+03
7.320237856635186517e+02
-1.447576201021550446e+02
-1.202205738880731360e+03
-1.748384564140454586e+03
-1.806489936178696325e+03
-1.832627612302329680e+03
-1.663847758348284060e+03
-6.001508480024408527e+02
-8.054919186009306031e+01
-3.280447636205910271e+02
4.753491690783502577e+02
1.246660144804492802e+03
1.923936176580854635e+03
1.754078956389237192e+03
1.438069259430028524e+03
1.765991189317110411e+03
1.833896046327901786e+03
1.294822789291343270e+03
1.299703082936463488e+03
1.197396659063273773e+03
8.028853276196347224e+02
-1.368473104462565857e+02
-1.283823569304723378e+03
-1.215050580294911697e+03
-7.594831678217361741e+02
-8.121514901610794368e+02
-8.190617307174239841e+02
-6.511539083320354848e+02
-2.724860023425607665e+02
-2.821559567207884811e+02
-4.891559756400420724e+02
-6.174421894531164980e+02
-3.839668425693872109e+02
-7.467246691961745455e+02
-4.898613822130034805e+02
-2.333090398614815513e+02
-2.261100950289213642e+02
-2.951910626170282512e+02
-4.854681069425545274e+02
-2.299270627727801184e+02
2.934131817739718144e+02
5.155089953189387870e+02
-4.986917861051584566e+01
-6.527891396097492134e+02
-1.172073615873136987e+03
-1.259265639902199382e+03
-1.205578417232431093e+03
-1.053266062523781102e+03
-9.742294457010737005e+02
-1.193472354093266176e+03
-1.306004428450403111e+03
-1.767832021248582123e+03
-1.941952217379591048e+03
-1.665344464681674253e+03
-1.027945503514571101e+03
-1.016741453614825332e+03
-1.295715665456341640e+03
-4.627789180034899914e+02
3.859501714196357511e+02
2.234605881087804846e+02
4.982974925542625755e+01
-8.689957006337031942e+01
-3.627496601660479882e+02
-9.713788954540603982e+00
3.591298755929437903e+02
1.847676834875567806e+02
-2.780193312477423007e+01
4.844782032801800824e+02
1.190757254672500949e+03
1.564844589604256953e+03
1.603575942232216676e+03
1.790079139081577296e+03
1.999420035578255010e+03
