4.959830257741931746e+03
3.845968947679739813e+03
2.988746806003550773e+03
1.705181834815083448e+03
4.513405648944793143e+02
6.861519114661469985e+02
1.234568207290001965e+03
1.291620418712966284e+03
1.297295262289020229e+03
1.456725284001673117e+03
1.281062730372942269e+03
1.972861968793108076e+02
2.483537846269977933e+02
2.307309403155661130e+03
3.594206723844537009e+03
3.207999699488877468e+03
3.078763367784930324e+03
3.556698411860282249e+03
3.808766903323918541e+03
3.691917478996530463e+03
3.349138772259883808e+03
2.372583399888382701e+03
2.405421789526626071e+03
2.746028409740804364e+03
2.877371794218081504e+03
2.565388090107300286e+03
2.757150290979864167e+03
1.284800394592677776e+03
2.692219142228042301e+02
9.329122239128145111e+01
-5.978678535445100124e+02
-2.065389684486972328e+03
-1.342270290485999567e+03
2.626975132140537994e+02
7.545448394386658038e+02
1.325251301261004528e+03
1.153707532901150898e+03
7.706497722833629496e+02
8.633142029959225283e+02
1.568397190808106870e+03
1.670272080238985836e+03
1.111017029605146718e+03
1.207300151864398686e+03
1.355627185327998404e+03
7.237715786591350025e+02
-3.242444897338406662e+01
-1.296967321862595099e+03
-2.786854896962075600e+03
-3.428077404982513599e+03
-2.851601216134376500e+03
-1.629474843648215256e+03
-1.417664269742411761e+03
-1.228190398483429362e+03
-1.810787017728801231e+02
6.086937953542977766e+02
-4.058511194349882771e+02
-4.716577604966041690e+02
6.042537753364631499e+02
2.727855960292959935e+03
3.513170183583444214e+03
2.067179117950828640e+03
2.044929404820029959e+03
2.071363119212639958e+03
1.385526956364287344e+03
1.507485887769868441e+03
1.524125996538408344e+03
1.109423727144331679e+03
1.081424127442078316e+03
1.435061858165212698e+03
1.400227322087734137e+03
7.378691959844882149e+02
4.910627683402723846e+02
5.138206654579491897e+02
2.950392050822298984e+02
9.287033396821406086e+02
1.232843789442722255e+03
1.890539912429280093e+03
2.403762949882658631e+03
2.148418033397596446e+03
1.564504054063934063e+03
1.521048699748686658e+03
7.040583701883347203e+02
3.545765980813021656e+02
3.625266873808313903e+02
-2.267110430788421581e+03
-6.247318161162595970e+03
-9.315090191078861608e+03
-9.167473689930571709e+03
-8.442522148715492222e+03
-9.000298160218091652e+03
-8.204801950391731225e+03
-7.325121214418890304e+03
-6.869145407045338288e+03
-4.790826537169588846e+03
-2.371262861436865023e+03
-3.584520236402193518e+02
9.795065394450731446e+02
8.344621620904011934e+02
7.643728273488864033e+02
1.402459154998359736e+03
6.687979850015527745e+02
-9.167378537735102100e+02
-9.351315484662525250e+02
-3.953260404529742118e+02
2.385927724445872968e+02
6.895376880850843690e+02
5.414610804925475804e+02
2.823606342382820458e+02
8.921893363578984690e+02
1.234943449713854307e+03
2.197237159639538504e+02
1.944339601209126727e+02
2.101341826906022803e+01
-6.674247703417423736e+02
-1.769047277623027412e+02
7.995859573261160449e+02
2.970071037537081793e+02
-3.486899388198058887e+02
-4.605353773048731796e+02
-5.465149724808927658e+02
7.593749868377889243e+02
2.662036083106844217e+03
4.150537813631398421e+03
4.333003979577443715e+03
2.954458831566769732e+03
1.847846851889148866e+03
1.283063870754563823e+03
9.541761604981934397e+02
3.580214326381419596e+02
2.305844042835026926e+02
2.809384285742308975e+02
1.671636390892945485e+02
1.322670056555638141e+01
6.813299228325682577e+01
1.019157854139929640e+02
1.044208057272219037e+02
6.314723685854198720e+02
6.481412513789888408e+02
3.035713970992502482e+02
8.957805200944892476e+02
1.305847398606512570e+03
2.166846169652350000e+03
3.421762063656001374e+03
3.155546243050382600e+03
2.361220804385557130e+03
1.573836481724662008e+03
1.251244853893838354e+03
1.172213790393556337e+03
7.408080125593177172e+02
2.441494756489801148e+02
-8.778880144773478378e+01
-1.029071750812977371e+03
-1.147653910746867496e+03
-1.494378585292508319e+02
1.197663788464160461e+03
1.184716664638274551e+03
5.625890439008069279e+02
3.882335104534808465e+02
-3.973463238796432506e+02
-4.555818958797684900e+03
-5.923064148933135584e+03
-7.632906473045488838e+02
9.115324497928629626e+02
5.982316059716536074e+02
3.836746393204302876e+02
-2.249184107340547143e+03
-2.273269829854579257e+03
-2.383442125079647667e+03
-9.015526139099000602e+02
-2.682620270711646754e+03
1.223481690752486344e+02
-2.610791596377403039e+03
-7.422019780894921723e+02
-2.793737863424687930e+03
-1.807357265109033278e+03
-2.357074805421869314e+03
-3.907825531336032782e+03
-2.761588810570365240e+03
-7.183755329788652944e+02
-6.011401227329145058e+02
-2.380705692298708982e+03
-5.590912084606736698e+02
1.648550779995457788e+03
2.902394191132630112e+02
-1.219888687526845388e+03
1.701220319436725504e+03
1.890417114421437418e+03
1.593552628505158509e+03
-1.413294243871013578e+03
-8.609869370990451216e+02
-1.995163723772403443e+02
-3.848838084455213902e+03
-2.557018266589936502e+03
4.079560051480836478e+02
5.131148333703703202e+02
5.554862497773629002e+02
6.550727407062594239e+02
7.408603366926439548e+02
6.278942647469336862e+02
2.933277278861407353e+02
-2.509891985673761155e+03
-1.907447334447461742e+02
6.808315597459039736e+02
3.056655356128226231e+02
3.686558363216341832e+02
5.419017057630115914e+02
2.794847300064524802e+02
2.233478449838056861e+02
2.304358734803767277e+02
1.017742245014919149e+03
1.232182120864154058e+03
7.337908046135335098e+02
2.825508678353955361e+02
3.575867953263514778e+02
6.039203034272823061e+02
8.935182735558050808e+02
8.784445519820476420e+02
1.058578113061490967e+03
1.149347305887284165e+03
8.954250695989860560e+02
1.248723736179561456e+03
1.063344960261659025e+03
1.157305734757811706e+03
1.492802567907485582e+03
1.486849466818808878e+03
1.866518602430557394e+03
2.162639261316185184e+03
1.640065850982037318e+03
1.077940618346483234e+03
9.463312305387057677e+02
1.155111718638929460e+03
1.620047948401321264e+03
1.443211539746493827e+03
1.091785816257092165e+03
6.535907480484310099e+02
8.103896079298991708e+02
1.553392367230364471e+03
1.473584460054324154e+03
1.276045380223719803e+03
1.670810671789272192e+03
2.003763569973634048e+03
2.099472378660100276e+03
2.534084639322254134e+03
2.325161261108567032e+03
1.948301478391376577e+03
1.065116654177639475e+03
9.579856905054377876e+02
8.240321811402302501e+02
5.681658890375739475e+02
-1.522085851384311752e+02
-7.726158080418015572e+01
7.970803081843775999e+02
7.909187799311047229e+02
6.612309629160823761e+02
5.789991920301766868e+02
7.881598339820541241e+02
9.966681997124314876e+02
1.074570342293091244e+03
1.177921588661134365e+03
1.650710330039690007e+03
1.915937422910830492e+03
1.415656789562780205e+03
1.328746542677152320e+03
1.359139139625651296e+03
9.128158986085363722e+02
9.227653160313082026e+02
1.327921078183893769e+03
1.208273623635803233e+03
9.159138961527133915e+02
7.587713361306233537e+02
7.316561901961800913e+02
2.006152670887599925e+02
-8.527915011233150722e+01
7.389420366193006657e+02
1.034228982651081424e+03
5.615884928030167202e+02
-1.165939720393114840e+03
-4.009297167226958663e+03
-7.926443505927778460e+03
-8.734450735290916782e+03
-8.069419979700790464e+03
-8.776317502435693314e+03
-8.336058866886891337e+03
-6.103704319696939820e+03
-5.139152761585971348e+03
-5.482382505044022764e+03
-4.687459910977886466e+03
-5.782381660740745247e+03
-6.410024211419552557e+03
-6.228517358554411658e+03
-5.446980008529581028e+03
-3.916350518151304186e+03
1.506359078856581846e+03
2.582193994807168110e+03
1.101209598873389041e+03
-2.609617057107890105e+03
-5.273308320181555246e+03
-5.560862176558983265e+03
-4.843165453634190271e+03
2.487511817560107090e+02
2.799888037813453138e+03
2.963358390790886915e+03
3.157165405970535630e+03
3.120392366379554005e+03
2.868120491201662389e+03
2.973316231821349902e+03
2.949882765294702494e+03
2.978742228172721298e+03
2.634022809530049017e+03
1.941741824113873008e+03
1.553865094327781435e+03
1.429395549744079517e+03
1.316497000878771132e+03
1.459113041757437259e+03
1.595153233043830824e+03
1.887568105249732298e+03
1.725490828914473013e+03
1.865147718469198708e+03
1.968460670381304226e+03
2.169462516350570695e+03
2.524225883510438052e+03
2.474754642534640880e+03
2.379052302802256236e+03
2.414204567316619432e+03
2.455226577014909708e+03
1.874079432128306962e+03
1.484862320653838424e+03
1.170673103554373029e+03
9.704851591269029996e+02
5.133166284824110335e+02
3.142107802329012998e+02
-1.685580471243260448e+01
-1.681699706600134903e+01
-1.246813608734496341e+02
4.760437134085859157e+01
1.951411695731796385e+02
5.849863760364987684e+02
8.211895216607022121e+02
8.388551979083388233e+02
7.169725524533998851e+02
7.215495435350030675e+02
9.837994716036033651e+02
9.008777877926486326e+02
7.067537702081533553e+02
5.125051940799622798e+02
-1.177902479405223772e+02
-1.359974702348992253e+02
-3.542105568971044818e+02
-3.894631439702276907e+02
-3.557018371711822056e+02
-5.288631735735650636e+02
-5.589172919071723982e+02
-5.311605616374305328e+02
-8.286515199273076178e+02
-1.571384217604932928e+03
-1.349980595743745880e+03
-9.386282268687907617e+02
-9.942765368148627658e+02
-3.638028047827323803e+02
-1.673150780448137027e+02
-2.628326903769602723e+02
2.639594511364214746e+00
3.301130716247834584e+02
2.106762861864213789e+02
-1.806826489307186989e+02
-6.210082357878161474e+02
-3.982572208990467288e+02
-4.132933979059985177e+02
-9.831524188429056039e+02
-1.048830171466505362e+03
-1.165312492315812733e+03
-7.946754316966798797e+02
-7.798915997691127586e+02
-1.111845301884204218e+03
-1.459538518251066989e+03
-1.049020234948697180e+03
-4.120671360429801666e+01
-1.119232917077104794e+01
-4.160824918414160720e+02
-4.968733103422194404e+02
-2.805714578692565624e+02
-1.400022029633366571e+02
5.987438164143279806e+01
2.619936854760082952e+02
-3.676847010111428062e+02
-4.961137723267192996e+02
-6.303220642111190273e+02
-7.943387945226027114e+02
-1.373175521354816738e+03
-1.972884902584155043e+03
-2.097533163765972859e+03
-2.128140769141614783e+03
-2.145687595551502909e+03
-1.419226362271593189e+03
-9.207551922834070410e+02
-4.482262147400167578e+02
4.082610336164845535e+02
1.183682180713075468e+03
1.502985384459474744e+03
1.301123964084089039e+03
1.186162525645565438e+03
1.160082240953337532e+03
9.758877321377588032e+02
3.975661029982189234e+02
4.541056728928825805e+02
6.934758410026142883e+02
8.456452374341533869e+02
4.475776935335977100e+02
2.042788779118160676e+02
3.066140013185254531e+01
-7.293928059292013586e+02
-8.069668530297324196e+02
-4.210144182542692306e+02
-8.251744677472244405e+01
-1.365810315404008577e+02
1.025992408349720506e+02
-1.974123288165105805e+02
3.455837971704026472e+02
1.282796805775894882e+03
1.541210114595533923e+03
1.424817324185723010e+03
1.254611883243331704e+03
1.232960301303116012e+03
1.372477037172876180e+03
1.121234763942249401e+03
1.265027655632124834e+03
1.425991888323662351e+03
9.729045179667060665e+02
5.320093586081533203e+02
2.728563030852788529e+02
1.668491333130347414e+02
1.365728030248550908e+02
2.323919334922399855e+02
6.651394386340674600e+02
7.604107297417529026e+02
6.661620038997676829e+02
7.976677393504999145e+02
1.100751412511529907e+03
1.313492624317988202e+03
1.353412036247101014e+03
1.835075289740517064e+03
1.935266381801445732e+03
1.794875809601595847e+03
1.344796414684365345e+03
1.240985714735058536e+03
1.779613014406733100e+03
1.826366733027439523e+03
1.761357563285208471e+03
1.443952120753840063e+03
1.314713256953831205e+03
1.355275903750922225e+03
1.349129964144723999e+03
1.396022889342635835e+03
1.409870564879682433e+03
1.252697110618616762e+03
1.462387570561650818e+03
1.632046280618773153e+03
1.589082690240463990e+03
1.605912261025120642e+03
2.127572397112582621e+03
2.239096266892487165e+03
2.099460229920945494e+03
2.162646674307068679e+03
2.197647885267081620e+03
1.608443093850712103e+03
1.148015702552290577e+03
9.912991263355199862e+02
8.673213919857563496e+02
7.760991262498390597e+02
6.936467866076998234e+02
-4.690956712010931824e+02
-2.810143847670403375e+03
-6.358526341367669374e+03
-5.786208778705953591e+03
1.008101298776076504e+02
1.326502149181289951e+03
1.411921348905320201e+03
-1.645976144102808348e+03
-6.102157166168589356e+03
-6.697619724298344408e+03
-6.541370801485703851e+03
-6.000436544928088551e+03
-5.870757451172808942e+03
-5.947325540295273640e+03
-5.963144186903397895e+03
-6.147139723792518453e+03
-5.668337723948788152e+03
-5.291743978119656276e+03
-5.638362885686418849e+03
-4.836149366609251047e+03
-1.389083732750782019e+03
-3.303121128688488170e+03
-5.739282205557667112e+03
-5.718596995564739700e+03
-5.541956875679524273e+03
-5.382321135886953925e+03
-5.386708823846075575e+03
-5.371103779562948148e+03
-1.304438325137649827e+03
2.651270365956485875e+03
-1.075900097735434656e+03
-5.208916541285668245e+03
-4.896703009471559199e+03
-4.177275974658713494e+03
6.474113582359057091e+02
3.179416758386525089e+03
3.544773793468818440e+03
3.059487538571240748e+03
2.961497326418412285e+03
3.012899984183026845e+03
2.800742444465780864e+03
2.482038936226182159e+03
2.598836530962058077e+03
2.689165558927824350e+03
2.674016954159885699e+03
2.786434937410774182e+03
2.438432366070712305e+03
2.743125173357730546e+03
3.209596204163555740e+03
3.608842956418952781e+03
3.680878326755753733e+03
3.847749346308892655e+03
3.568493321810016369e+03
2.944154573426437310e+03
2.496776333179514950e+03
2.267395515210697340e+03
2.026061522132787786e+03
2.233770256300777874e+03
1.972596117245158212e+03
1.564558329388390121e+03
1.203621068091272946e+03
8.228333139430161509e+02
6.302935599260473509e+02
1.022160220277828330e+03
1.298609605009901770e+03
1.704801857487513416e+03
1.228534628908093055e+03
9.996638370853510196e+02
1.459294555139993463e+03
1.762409480164656770e+03
1.566146181360696119e+03
1.795641955948785380e+03
1.908976464273351894e+03
1.380095148208990167e+03
1.286145780279259498e+03
1.632154073948349833e+03
1.656016907677978907e+03
1.575651845235284100e+03
1.461024273905026575e+03
1.081856620679128582e+03
9.577145330402497621e+02
8.225986882412358909e+02
9.882080211500764335e+02
4.876112245599113066e+02
4.872182402049025995e+02
5.109197521306194290e+02
4.211548503863302244e+02
7.732396151798261599e+02
6.791232277740381278e+02
6.437269734663716463e+02
8.650574189369891656e+02
1.052160975989790131e+03
9.899963861645293264e+02
4.905467934432305697e+02
4.868269015564388837e+02
4.508880070852355288e+02
7.357663781079163527e+02
7.774198238366615215e+02
7.728212852009136213e+02
4.779888740535077432e+02
-1.731597367197977064e+02
-4.816094230485522303e+02
-4.583513409474792866e+02
-2.113278573997741319e+02
-9.758162934941822186e+01
1.198690618372182541e+02
7.701123678210792889e+01
4.368252049127038958e+02
3.652997957478793296e+02
4.844363760649046071e+02
7.382741365131923885e+02
4.727805024874537025e+02
6.789820683120516378e+02
1.046842009542192727e+03
9.513647223816186624e+02
8.485306528869592739e+02
5.193755726243546178e+02
2.547969680245968220e+02
1.108071712397407822e+02
-1.996210590963381435e+02
-3.615167247418988268e+02
-4.869007470473561057e+02
-8.717922740200272074e+02
-6.752171429285181148e+02
-4.492301807218329373e+02
-5.038261582089605781e+02
-6.409853540258966405e+02
-1.635732895910907928e+03
-3.715089327033847439e+03
-7.409081731183592638e+03
-8.311728129396760778e+03
-8.032048365362763434e+03
-7.601003937134751141e+03
-7.304666326875908453e+03
-7.522024127220678565e+03
-7.752144966750583990e+03
-5.301084116886567244e+03
-1.009788288038933160e+03
-3.367801522504440204e+00
-2.258518875097381624e+02
-2.358164719538710870e+03
1.156665185542736083e+02
1.088541095746542624e+03
1.153438361509680362e+03
1.383335141541756684e+03
1.329180405849054068e+03
1.395940057565779398e+03
1.411635003148595388e+03
1.275255122272637891e+03
1.497780969656918160e+03
1.170206200331396076e+03
9.005328606081482121e+02
7.997379439043896809e+02
8.057562565425695311e+02
1.075608043267477569e+03
1.116335928923524534e+03
5.018890970640355249e+02
-2.347577487214237806e+02
-1.326631492194477175e+02
-3.079826252286314414e+01
-3.601468732727872180e+02
-1.088710881267218610e+03
-8.545587576915164618e+02
-1.947896839195336440e+02
2.576810857948501052e+02
9.308964092661032055e+02
4.558118363591871685e+02
4.554092062548392050e+02
1.019624045180804046e+03
1.237449982764310789e+03
1.153867771540788226e+03
1.410976903373975119e+03
1.896740297122493530e+03
2.458167487590313158e+03
3.011249726466195170e+03
3.079000630153572729e+03
2.644421232167812377e+03
2.010491203811968944e+03
1.711222015095940378e+03
1.498583478704845220e+03
1.029523252186173295e+03
9.600270695349234984e+02
8.270845662654202215e+02
5.626472768753488936e+02
4.997326082324014465e+02
8.473423438772117606e+02
1.010526433089374336e+03
5.443215219458774072e+02
1.587418028616314416e+02
2.358310996103204786e+02
8.056216393278315309e+02
1.053100770284595910e+03
1.154204717211003526e+03
1.290967544602135149e+03
1.151475553030733636e+03
9.717019202616177154e+02
9.296939409912623660e+02
9.265047787171278060e+02
7.690871083981459151e+02
5.633834779464810936e+02
-3.276099537727548068e+02
-4.699903624905131437e+03
-6.150398984869967535e+03
-2.152982905350299461e+03
3.820259415885124099e+01
2.700933514704570939e+02
-1.021202064897161222e+03
-2.189632591059235892e+03
-9.191670009769093213e+02
-1.767810635011680688e+03
-1.305569912132472382e+03
-1.094369220168813399e+03
-1.994251210402555671e+03
-4.172101144719805461e+02
-5.031710881248337159e+02
-1.493093078138275132e+03
-7.319594311995259659e+02
-1.931756166510497678e+03
8.185269091869638487e+02
1.086904735571195715e+03
-8.766934453410138985e+02
-1.955226371623504065e+03
-5.966184223170545238e+02
-3.296882516038967424e+03
-9.100401761111284031e+02
-3.279088233753844634e+03
-1.432001790420728639e+03
-2.297749807572726240e+03
8.086792515866392250e+02
1.129320697529641393e+03
8.612508883215117521e+02
-9.458034744373026115e+01
-1.725211502068309755e+03
-1.415590176248796297e+03
-5.256942428297788865e+02
-2.248381294992918811e+01
-1.730963379416158432e+03
9.048482981904053304e+02
9.749599339397879021e+02
3.183846260261662451e+02
2.220878266050631282e+02
-1.470868280424397426e+03
-2.113515451151323759e+03
1.241433663598465102e+02
5.481689269121126244e+02
7.915354608036043373e+02
5.332281425434392759e+02
5.782850298512940981e+02
7.957369716027317281e+02
6.875674991626112842e+02
6.477879097829586499e+02
6.164775765096023861e+02
7.896224469908826222e+02
1.081135103950469329e+03
9.809316389647960932e+02
1.095233690404465733e+03
1.008102030702440743e+03
9.934383722448818617e+02
7.430570837525021943e+02
6.543611137798317259e+02
8.243018741148682693e+02
5.603827485860030038e+02
5.688380689473100347e+02
5.987523920810584741e+02
4.675522031000672314e+02
5.473253441982760705e+02
7.846591583931970035e+02
2.356177268985250066e+02
7.521532625494941158e+02
1.382250753327783741e+03
9.909138011030889857e+02
1.159152262473040082e+03
1.174075262934328066e+03
1.279453731310182320e+03
1.499026018512880455e+03
1.489049604982031497e+03
1.200428887558918177e+03
9.668860374820084189e+02
6.828492855734449449e+02
3.443426773651243025e+02
3.082873334345154603e+02
3.138142745251514043e+02
3.644255395755329232e+02
3.067749079973134485e+02
6.091885555551104972e+02
7.904370589578717272e+02
1.026457646055799160e+03
1.091828829146669250e+03
1.069615385280483906e+03
1.076685232665005287e+03
1.240840057379240989e+03
1.633551473239981988e+03
1.479011936975979552e+03
1.687178193955059669e+03
1.634989220096932058e+03
1.617413106665109353e+03
1.617372710669770868e+03
1.335868058066644153e+03
1.500894342279133980e+03
1.703383197648086252e+03
1.196298993655522054e+03
7.096052115293534825e+02
2.332894965194733743e+02
6.504128101035038299e+02
9.508834816825336702e+02
1.143661367852229432e+03
1.166726830584227855e+03
7.360844284204359838e+02
6.427386058429528930e+02
1.154668334017859479e+03
1.363859431920011957e+03
1.389301877231024719e+03
1.715975158713290057e+03
1.684912119469725212e+03
1.569056098745362306e+03
1.356393848597968599e+03
1.410966271243113397e+03
1.272715142491424558e+03
1.147631929589716719e+03
1.069707902206333529e+03
1.139940359785669216e+03
9.123340595936025466e+02
8.977865534317764684e+01
-1.818668627036800672e+03
-4.719023107011396860e+03
-7.866323643757033096e+03
-7.860592842995067258e+03
-7.193789124373492996e+03
-6.945947668477714615e+03
-6.422982591139772012e+03
-6.128867959306768171e+03
-5.417679618958186438e+03
-5.457404959937135573e+03
-6.181025524941797812e+03
-6.705564401304342027e+03
-6.246004384187049254e+03
-1.577313362709252488e+03
1.254488466242572713e+03
-3.092566633891442052e+03
-7.714505681327187631e+03
-5.574246186487252999e+03
-3.339839406545844213e+03
-2.950261126038161365e+03
3.355364845373327398e+02
1.401523342388482661e+03
1.605742058565781235e+03
1.634177296002778576e+03
1.988824623921778539e+03
2.169731071885245456e+03
1.975934876121688831e+03
1.971467493622229540e+03
2.231350020673855852e+03
2.552618118371402488e+03
2.557266308817085701e+03
2.430315652256770136e+03
2.567777124188181460e+03
1.897745457196693906e+03
1.363256996966006227e+03
1.131314998630885157e+03
1.277958154488467471e+03
1.294172555024215399e+03
1.164946202282055310e+03
1.099325994916142918e+03
1.130350125669347563e+03
7.420217856087224391e+02
3.453934847993185713e+02
7.255147509391953236e+02
9.453996049354492470e+02
1.029134817106270702e+03
8.827366177948059658e+02
9.662086615892026202e+02
1.081606467909708954e+03
1.622967392744794552e+03
1.279388308793850456e+03
1.062892074425677265e+03
9.984665720208479343e+02
6.421702022239447842e+02
5.040204914412677226e+02
3.690507823873724078e+02
4.843716072372890835e+02
5.697120905558905690e+01
-3.191496165378032401e+02
-3.750025327663759640e+02
-3.683451096102219253e+02
1.861574103610759590e+00
4.557337775529913415e+01
1.923105970282914301e+00
-6.785523096805809473e+01
1.282493160941515669e+02
2.822797642324084677e+02
7.412985693325815646e+02
8.703200737406540384e+02
6.604182878836344344e+02
1.277338842929934572e+03
9.441548613291606671e+02
5.029757645077156667e+02
9.916872735705300101e+02
9.134688266257494433e+02
7.089601286395043189e+02
8.052170548295588333e+02
4.503228833300912584e+02
4.482798551087159353e+02
-1.048231861791421267e+02
-5.200013158210166466e+02
-4.612294436414376264e+02
-2.104909315784014723e+02
-1.678088430418455630e+02
-1.860837729817690729e+02
-4.523049013935792573e+02
-7.604547612840398187e+02
-8.414734639042688968e+02
-7.894020926300622705e+02
-7.412265310208123310e+02
-8.978865358657503748e+02
-1.138340894093067163e+03
-1.157648487704545005e+03
-1.182836771550531694e+03
-1.165827310194914617e+03
-1.083535632158758517e+03
-1.364081558009598211e+03
-1.283470435221839125e+03
-9.537396337663118402e+02
-7.419520862038696123e+02
-2.389567262720042606e+02
-4.487941622432844611e+02
-5.885307940165341734e+02
-8.991526057991468406e+02
-7.745954663769825856e+02
-6.289000151878343559e+02
-2.821226689840807467e+02
1.475163417881208083e+01
5.867769120546442707e+01
-3.333600488714724008e+01
1.374032158556638272e+01
3.519476559154821871e+02
3.662345649857410308e+02
5.755743380304907078e+02
5.469635743394829888e+02
4.433550953176946905e+02
1.866865688283646989e+02
1.969804152840901565e+02
-2.087540212740300092e+02
-6.846143795770967699e+02
-8.286434414259630330e+02
-8.547649129145045208e+02
-5.930118583946116360e+02
-4.904916088531522291e+02
-4.324253192018068148e+01
-3.072726912243535935e+02
-3.576358482936853420e+02
4.616731116371299848e+00
-2.349392634978641325e+01
4.690534421346874865e+02
8.911857730935693098e+02
1.209857901594332816e+03
1.162030191396012697e+03
8.956725666184422607e+02
-2.301408215466270235e+02
-9.915413777912390003e+01
8.843937360776504875e+02
8.380318253010282206e+02
2.658216267539064006e+02
2.738063032870458642e+02
3.690958854947655823e+02
5.866482288139027332e+02
6.681895516911504274e+02
6.168128630882630432e+02
9.344223060883189191e+02
8.879869247316337351e+02
7.095595256885402478e+02
5.619047669704060581e+02
5.851114864697691473e+02
6.992329837868765026e+02
9.140793029225370674e+02
1.154812493205428837e+03
1.592047737003327939e+03
1.332857181194728810e+03
1.047430836321417473e+03
1.327669960457081288e+03
1.522320842308864030e+03
1.480671459709565852e+03
1.208282016495293419e+03
8.234819224982131800e+02
1.132890084102805304e+03
1.123677574544813979e+03
1.123469031175287910e+03
1.588435422636323437e+03
1.558586625247157826e+03
1.555947888064642711e+03
1.656588288900687303e+03
1.796334278743849381e+03
2.042094424448006748e+03
2.278836838292641460e+03
2.337718779475694646e+03
2.349377619250298721e+03
2.489960878650849736e+03
2.005499516962247071e+03
1.955915357786912182e+03
1.740325968212187263e+03
1.322654125980788194e+03
1.353603312472489733e+03
9.882664548575323806e+02
8.746357326823708718e+02
8.397676999308148424e+02
8.926284404428450898e+02
8.862026195371347512e+02
9.855081110953688039e+02
1.458508567271485390e+03
1.845206484044194212e+03
1.316570448678949560e+03
-6.074183389376286186e+02
1.893014980887400895e+02
2.147687927588712682e+03
1.871776282501315791e+03
-3.055482921673729379e+03
-5.724052203305308467e+03
-5.538951144714877955e+03
-5.451183729777150802e+03
-6.074739987150926027e+03
-6.679644318568189192e+03
-5.139935827245133623e+03
-4.456649386824034991e+03
-5.824416051593557313e+03
-5.664493129440640587e+03
-5.405828450434807564e+03
-5.441533595914134821e+03
-5.430536803595765377e+03
-4.965748007609098750e+03
-2.698180577223248747e+03
-2.030819919944991625e+03
-4.718615191959226649e+03
-4.936588455822710785e+03
-4.936740858510284852e+03
-5.049967814280625134e+03
-4.493251645082827054e+03
-4.351566660827229498e+03
-2.518858335877782338e+03
2.407861698581757992e+03
1.906604747073969747e+03
-3.623617520349875576e+03
-5.587789175730683382e+03
-5.886905392463387216e+03
-5.765907777884412099e+03
-5.522788427379906352e+03
-5.554497128655367305e+03
-2.619012320450856350e+03
-6.802947251739223020e+02
2.271978476577207573e+01
2.681051884597131448e+03
3.857751891338864880e+03
3.897848578190989883e+03
4.244387373723156998e+03
4.127366745498375167e+03
4.051829165614390149e+03
4.079833240291543461e+03
3.972390825287741336e+03
3.696578371528135449e+03
3.067494583251082076e+03
2.596132680302046992e+03
2.678499374197075667e+03
2.526559632582284394e+03
2.380366188809815867e+03
2.282978735495463297e+03
2.235434662251938789e+03
2.691810297410640032e+03
2.743133828525596073e+03
2.355399659321991749e+03
2.023633912392073626e+03
1.706917779686625863e+03
1.956238097819227278e+03
2.206713295519612075e+03
2.030391137816399350e+03
2.366284641680606455e+03
2.101453291199062278e+03
1.704932048026214716e+03
1.385728374078793649e+03
1.816853414188855140e+03
2.589335809080473609e+03
2.373166184429170698e+03
2.052367725562592113e+03
1.710016099967138871e+03
1.625468037425658849e+03
1.206011957120238321e+03
7.845107203539390639e+02
2.579450304835963266e+02
7.912169440809550451e+02
1.083324586254650740e+03
7.503398996032858577e+02
1.035206076147694830e+03
1.336064259447992526e+03
1.212977839638818978e+03
1.176972574035301477e+03
1.148953850121717096e+03
9.376544646451189919e+02
9.793943455594591114e+02
8.602643792090115085e+02
9.671404945661000738e+02
6.908470111965882552e+02
5.471657218698420593e+02
7.384507163737472411e+02
8.867393789500611092e+02
1.015897910781407063e+03
7.687979324681119806e+02
4.514442256484204563e+02
4.848254241576365757e+02
5.378757399219554145e+02
1.806233101501998135e+02
2.051214578700745506e+02
3.923402393323179922e+02
6.202796197205977933e+02
6.429490138683069063e+02
4.173517673333256539e+02
7.634860602987268976e+02
8.074130600218992413e+02
7.630932190079194015e+02
1.210531763837516110e+03
1.471701784510262087e+03
1.109568964121560157e+03
1.062125445953316330e+03
8.403499695900850384e+02
6.461838557798429292e+02
2.406691609629810387e+02
1.837895518118665450e+02
3.045523725496492773e+01
7.710014629314295931e+00
2.385489027525400445e+02
3.469696632929551470e+02
2.909425077620969660e+02
1.994249774112012119e+02
6.523762773654948433e+02
1.030876556310025535e+03
8.878707345410711014e+02
7.703810067506734640e+02
4.393802981041463909e+02
-3.920853975648272893e+01
5.665399086056748246e+01
1.099333805720327177e+02
-2.493647443748314174e+02
-1.731273405655453644e+03
-7.438138088782021669e+02
-5.780229751406059222e+02
-3.261976939799159936e+03
-8.061658013328283232e+03
-8.864097183062323893e+03
-8.997307849504084516e+03
-8.758320424203900984e+03
-8.062160071417185463e+03
-8.003854001179329316e+03
-7.380452232746134541e+03
-7.360875887469692316e+03
-3.555171704325578048e+03
-3.883545169133436161e+02
3.346167024260794847e+02
9.826216624181012094e+02
1.478688221378689832e+03
1.383798230080688654e+03
1.242920326713029681e+03
9.731012513255703880e+02
1.293264613750041917e+03
1.299432879759435991e+03
1.317610790758092890e+03
1.092739054035868094e+03
5.957895014065696841e+02
4.937597400311414049e+02
2.356483224465274589e+02
5.147196036808267650e+01
5.802358138155894949e+02
7.999046208532053015e+02
8.894860088812323511e+02
8.859974232206492388e+02
9.974017238471731162e+02
1.015687151128917208e+03
5.578719491590875350e+02
5.019409679281243370e+02
9.919018589456456994e+02
8.477236114052009270e+02
1.184404782091373590e+03
9.939197055494909137e+02
2.452072112944790661e+02
2.322740653558243480e+02
1.260949597695620952e+02
-2.032779643460679324e+02
-6.348439045555900293e+02
-4.885933932122695751e+02
-3.755736070912811329e+02
-5.637708499095006118e+02
-2.001729694577921350e+02
-7.978099573637139486e+01
-8.957615623481497380e+01
-1.055472920230303657e+02
3.012983933109596819e+02
5.519392909752303922e+02
7.674305219444723889e+02
8.837753591208351054e+02
1.021954392075780447e+03
5.010056574631450417e+02
2.839573444052272748e+02
6.817818056232821391e+02
6.495126043028392360e+02
2.321952945372482020e+02
4.538095252257162429e+02
6.423566703678703789e+02
2.288306450823452849e+02
2.442199779667435280e+02
3.655043162010529159e+02
9.077417338363505905e+01
-4.609919002224416431e+02
-6.906924428043346325e+02
-2.613596344501096951e+02
-1.350213180874897887e+02
-6.468509461981479092e+01
-2.143104915893346742e+02
-4.078573648817375670e+02
5.173267209727062266e+01
2.224943573355083402e+02
1.538024224460832379e+01
7.838810098773593893e+01
5.665714273222475867e+02
5.779209445545174049e+02
9.334245602247650595e+02
1.181103100807672945e+03
9.259043912223053212e+02
2.438718865619864573e+02
3.501386948972559310e+01
-2.356751954432214120e+02
-5.461372477933277878e+02
-8.363731511590311811e+02
-9.523511073932760382e+02
-8.870532598801286213e+02
-9.994686528689830993e+02
