5.323172223400086295e+03
5.337915967397193526e+03
5.287379098905689716e+03
4.992648442758062629e+03
4.862805083955319787e+03
4.969874390257695268e+03
4.585958968096223543e+03
4.421118409006645379e+03
3.891357640344363972e+03
3.205733325209847408e+03
2.752254244774574090e+03
2.447975094021659970e+03
2.156913193941040845e+03
2.007146836934432031e+03
2.078713228058472851e+03
2.259712948248711655e+03
2.604301659569302046e+03
2.757540385132306255e+03
2.888494622996216549e+03
3.046206644121993122e+03
2.859793299386243689e+03
2.802279996794831277e+03
3.076681013149727733e+03
3.086066613868593777e+03
2.853548390526143066e+03
2.985325903768349690e+03
2.918440924295451168e+03
2.361245271532731294e+03
1.862666736259233630e+03
9.008693611818478075e+02
3.207549485858735920e+02
-6.434749337424485702e+02
-6.769743247486226210e+02
-4.808275697222721305e+02
-6.948707210075891680e+02
3.860285922915647348e+02
3.628676468888791078e+02
4.196294458901540452e+02
6.103184257504290144e+02
7.629734351989685592e+02
1.214340286763783979e+03
1.453792983099093590e+03
1.349106091499514378e+03
1.231835673218013653e+03
1.333455824498570792e+03
1.288879135291346074e+03
9.759978644010665221e+02
7.148130862949705033e+02
4.623482541190596748e+02
5.662402638835781232e+01
-6.714366460459235668e+02
-9.838293805686295173e+02
-1.378519160940669281e+03
-1.718520215382043261e+03
-1.557848360155401906e+03
-9.904451621698734698e+02
-3.393052005771440349e+02
-2.515228722026215848e+02
-3.100261082137720337e+02
-1.037471722222935853e+02
1.572470617656457534e+02
6.029398049611637589e+02
4.073201055368909351e+02
3.913793631153446881e+02
5.041056065754768269e+02
5.484414215283368321e+02
6.073915655600029595e+02
-4.802805809376361168e+01
-5.858803509172947770e+02
-1.308223127473403792e+03
-1.260027756331715864e+03
-1.242435911994396292e+03
-1.751502084063994971e+03
-2.059252025037094427e+03
-2.014712024455531491e+03
-1.503890186846449524e+03
-1.566837475749751775e+03
-1.518515598224906398e+03
-1.068966562800618249e+03
-1.011246542023747452e+03
-7.033908849060641160e+02
-1.074691170336432862e+02
7.785108614298688963e+02
1.706499400335753762e+03
1.249456226959059904e+03
-1.701610804995723811e+03
-6.365620950074306165e+03
-1.124750881930685318e+04
-1.168383225288570611e+04
-1.168950822967826753e+04
-1.180933356381925842e+04
-7.615474132033262322e+03
-2.145124979051197897e+03
-5.286129162501835708e+03
-1.471597540157323692e+03
-1.632581679168323944e+03
-1.240821551444869613e+02
8.557286099776730453e+02
1.263634192335330908e+03
1.668730321147918403e+03
1.724246194685857517e+03
1.853291314910812162e+03
2.066678628913129160e+03
2.194235393785741053e+03
2.395096510607749678e+03
2.532109620960415214e+03
2.344149968064023142e+03
1.942082465457668832e+03
1.999879092062322570e+03
1.226515836589711853e+03
4.338861870081280472e+02
2.999313439073266068e+02
1.946398609734759759e+02
-8.997979525754143992e+01
2.550707576823162412e+02
5.617488892219965919e+02
6.570163604553398500e+02
8.908435216247212338e+02
1.427116495733787133e+03
1.828708689645234472e+03
1.996667707942963489e+03
2.056062301432417371e+03
2.251797694192697691e+03
2.748796169378782906e+03
2.810085228486643700e+03
2.853711727007173067e+03
2.374664709889108963e+03
1.573872114440600626e+03
1.029235008972407513e+03
5.386763218027887206e+02
8.316915005372592873e+01
-1.183078834448973566e+02
-4.787942588835231845e+02
-3.962984391799918171e+02
4.714531032839391145e+01
5.395329204966707266e+02
9.019360165932110931e+02
1.161379843917435437e+03
1.180780976890928059e+03
1.357241434137858050e+03
1.482756690634459801e+03
1.655341752894395768e+03
2.226052167945088513e+03
2.417838590969992765e+03
2.222687753477968727e+03
2.243620726601140177e+03
2.209516123100136610e+03
2.351308279852049509e+03
2.317127508620817025e+03
1.548959800623244291e+03
-1.582476029863610165e+02
-1.520475261755060274e+03
-5.192676163187465136e+03
-2.475897002370918017e+03
-3.680988797211203973e+02
4.475420686881954424e+01
3.905687181579174307e+02
9.014489472757851445e+02
8.573686240703169688e+02
-2.068827494857774951e+01
-4.408200075036616909e+03
-4.831252990134762513e+03
-3.454401883410488608e+03
-3.124606025796321774e+03
9.672638316734845603e+02
-1.263707092408530343e+03
-2.424139235972723725e+02
-3.308853282449093740e+02
2.604875377789616323e+03
-2.324093185958986851e+03
-7.577936987318697675e+02
-5.631633991732221602e+02
-5.282206233683933533e+03
-5.261959966452509434e+03
-6.814334875250836376e+03
-7.229257799498716849e+03
-1.767541466989038668e+02
-1.428803248501400276e+03
-1.335324816253781364e+03
-1.431307761501886489e+03
-1.209680073720259543e+03
-3.773937530260779454e+02
-1.605379087101846835e+03
-3.535768125364531443e+03
-2.937542234172150074e+03
1.553416867526287206e+03
-1.582873969880173945e+03
-4.661379832265667574e+03
-3.434062537107266962e+03
-3.655936682620844749e+03
-2.779945720785208778e+03
-7.759065624516963908e+03
-2.755277385239762225e+03
-4.722666741212487068e+03
-1.321272139968041756e+03
-1.092973978337406606e+03
-3.216767467750698415e+03
1.051347383929907210e+03
3.299413673348074099e+03
3.104490278722585572e+03
3.601625595100385453e+03
3.885859434336352479e+03
3.867240179387832086e+03
3.283825720629958596e+03
2.914489427040837654e+03
2.957027882412389772e+03
3.253966438274776920e+03
3.113473524512613039e+03
2.551433043315522355e+03
2.048814812643500318e+03
1.561521923451202156e+03
1.230465959053432243e+03
8.446231764053022744e+02
4.180782033884875659e+02
8.940884349710435117e+02
1.744797714601772668e+03
1.802863936537801237e+03
1.454358192737897980e+03
2.044386325003212960e+03
2.495942042836047221e+03
2.774950640277982075e+03
2.846368062327316238e+03
2.360179326569976183e+03
-8.480686536391530694e+01
-2.435811063964340519e+03
-1.710142431355775670e+03
-1.419622401490178845e+03
8.874025346237236818e+02
2.896900761817960301e+03
2.293405937075392103e+03
1.034291332894709967e+03
4.589987337006266443e+02
1.419857462044854628e+03
1.800633898026624820e+03
1.523980429057806987e+03
1.871333547798549489e+03
2.017121306404629649e+03
2.048529735605470250e+03
2.030776971515580044e+03
1.856227618981612977e+03
1.895773202083152228e+03
1.677741747590521527e+03
1.283555251358560099e+03
7.711973693307562598e+02
3.260354169097961829e+01
1.258031039316812638e+01
5.570240695921480665e+02
2.044612184843533669e+02
-1.275026106790145803e+02
7.794513204567592766e+02
1.619372118051158395e+03
1.866912394526553044e+03
1.898870690013614194e+03
1.853403052864234496e+03
1.457499030591884321e+03
1.103146222657126145e+03
1.197275858771694175e+03
1.170832019931782270e+03
1.572813096063217245e+03
2.275220445458147879e+03
2.305078478701350832e+03
2.053350359651336476e+03
2.623014579948591745e+03
3.619045274968752437e+03
4.030399108494053053e+03
3.658120880950211358e+03
3.423201859268619046e+03
2.953640020170008938e+03
2.366442385770344572e+03
1.574540948260034611e+03
6.588882537191808808e+01
-1.006505147742293161e+03
-1.124680195922226176e+03
-9.926906376354099848e+02
-6.285246811428027058e+02
-6.161369774275461850e+02
-1.215359320870083906e+02
1.832639525043255730e+02
4.124436847852312127e+01
-2.165420738774663789e+01
1.055460033694891138e+02
-8.970706685178030284e+02
-4.111532918367666753e+03
-7.958834807056912723e+03
-9.358971056632828549e+03
-8.446888884784697439e+03
-8.895533048670635253e+03
-7.506009787917384529e+03
-7.641265108600025087e+03
-8.790250890549155883e+03
-1.006820601430578427e+04
-9.701895664342020609e+03
-9.148466576757373332e+03
-8.376893178511862061e+03
-8.717229136071293397e+03
-9.040470278080312710e+03
-6.175563084573731430e+03
1.169449577912551604e+03
-3.539270474045731163e+01
-1.804070190586503259e+03
1.455447378460738491e+03
2.883177669870716272e+03
2.847182555069408409e+03
2.538460734726527789e+03
2.703026877221920131e+03
3.001925507241526248e+03
2.504181695860218042e+03
2.128828433335326281e+03
1.857847215582336275e+03
1.416320028147260700e+03
6.492829633177431106e+02
5.786895095493646295e+02
6.344945922387481687e+02
-2.033081832167708285e+02
-2.196743610495338714e+02
6.924177115299227125e+02
1.014975363482871444e+03
1.407084262606237189e+03
1.810778279350256071e+03
1.975118232724724294e+03
2.211131882226254220e+03
2.263866397290155874e+03
2.139327038463247845e+03
2.457553990032911770e+03
2.664657622610634007e+03
2.280671972229150015e+03
2.885654186829861374e+03
2.937596695823408481e+03
2.497522566927181742e+03
2.069503348801729317e+03
1.500559600356804367e+03
8.927077037924378828e+02
1.199214441018626047e+02
3.552702740093121179e+02
8.548148451632559954e+02
1.412572423320951657e+03
1.698576993621123847e+03
1.660843770883496745e+03
1.905415332734260801e+03
2.197305085428055463e+03
2.078519112083296022e+03
2.053039644042466080e+03
1.640146806184626712e+03
4.111286170328945673e+02
-8.334903061738996257e+02
-1.004909004930835295e+03
5.858218355478682042e+02
8.257472747640988473e+02
-7.604520656874101405e+02
2.025039038409709065e+02
4.948460804891198563e+02
2.665827268480749126e+02
1.425948589514905791e+02
-1.030319057293650985e+03
-4.225235590808227244e+03
-7.359268702846858105e+03
-6.161375645487911243e+03
-3.294443232895604979e+03
-1.852473731926715118e+03
-1.489436379216031810e+03
9.847299748927343899e+02
2.088044615339654229e+03
2.561574524113710140e+03
2.272362413504222332e+03
1.924401473826627125e+03
1.859653934990003108e+03
7.982556686284019634e+02
-4.207296415580342455e+02
-1.164324800164335329e+03
-1.416503714016239201e+03
-1.157261960697113182e+03
-5.976044481797663366e+02
-9.509531872439778155e+00
1.031033432234532029e+03
1.057030689670011043e+03
1.734229754567326438e+02
1.024066197059660510e+01
1.205558571151512297e+03
1.402428646359632467e+03
9.208223012398884748e+02
6.667052574142226149e+02
1.170146588763881027e+03
2.375164022862081765e+03
3.012790444649691381e+03
2.846064068030541875e+03
2.342982026486652558e+03
1.907583385416543024e+03
1.522917268926011957e+03
9.778945414852092881e+02
5.285412894638959642e+02
-5.121444974250584892e+02
-1.940251287338632210e+03
-2.363805215385241809e+03
-2.340823233365343185e+03
-3.171311034348803332e+03
-3.100268348638564021e+03
-2.756705116246440866e+03
-2.260623223031217094e+03
-8.240133216257323738e+02
2.390675278486526736e+02
1.132648274623745920e+03
2.000808232296910091e+03
1.379481341850844501e+03
8.864604686073494122e+01
2.282259424193229904e+02
1.491855580675541546e+02
-3.393328614285575782e+02
-5.772906957645145667e+02
-1.168027220391163894e+02
-2.944132909887517258e+02
-5.077380074621565313e+02
-1.119183018453071554e+02
-4.178476856826295034e+02
-1.755685557476706151e+02
-2.651582414628128390e+02
-1.217714741953450812e+03
1.666680847823464319e+03
2.749814927625825021e+03
2.526460064476692423e+03
2.040983445367111699e+03
1.443941484744650097e+03
1.036015806245328804e+03
1.584693701714119697e+03
1.617194454237544960e+03
1.211816347206088494e+03
9.221878394131538244e+02
3.291129041522876832e+02
4.696296658719579113e+02
2.312334094337862780e+02
-4.901273715555537933e+02
-7.044349927942594149e+02
-3.128376676035522337e+02
-7.567794907338864050e+02
-1.131365518353360130e+03
-1.007918518235705051e+03
-1.318942834080171451e+03
-7.505733939336564617e+02
1.024261566956189853e+02
1.625834244124766883e+03
1.341600627703632654e+03
9.184310080714392370e+02
1.124422251239422621e+03
8.264951929128718575e+02
4.630010910542365536e+02
8.242699801143317018e+02
1.003361804103666145e+03
1.050861598122010491e+03
1.799776557332580069e+03
2.736979176951570935e+03
2.313928907702449123e+03
1.137226186912255571e+03
6.150097235178892561e+02
-5.997868585078473558e+01
-8.329961725459764921e+02
-1.405839062844544287e+03
-1.542946959240672641e+03
-1.360165433281551714e+03
-1.117760329435225458e+03
-5.157880166782083506e+02
3.937087714763389386e+02
-8.132032591202840877e+02
-6.259561407615250573e+03
-5.521447085361623976e+03
-2.481854738764990543e+03
-5.347143068775192205e+02
1.637900767926470962e+03
2.942969210676624698e+03
3.562449758486724932e+03
3.685367219503911201e+03
2.544700464922809715e+03
1.823425440546693153e+03
9.714640183923401082e+02
-6.042558138800131928e+02
-1.330701684267831524e+03
-8.098601957767563135e+02
2.871551065847161794e+02
1.293339446409306674e+03
1.509726553989915374e+03
1.703292706755819154e+03
-1.064986484000776045e+03
-6.894691141521572717e+03
-5.990869311577837834e+03
-2.481924587573872031e+03
-2.094903884768042644e+03
5.584928722525269222e+02
1.891853662759208135e+02
-3.180841387251449760e+03
1.351453132719992482e+03
-1.000973246902055394e+03
-5.987262414476653248e+03
-2.772372925735736771e+03
-6.400264977197713961e+03
-4.712970317285831698e+03
4.875138888276020452e+02
-3.352841697353327618e+03
-2.854009193342296385e+03
-3.900947135678023642e+03
-4.556644403057159138e+02
-3.896137694794133495e+03
-3.386317614662603773e+03
-4.969143560073918707e+03
-1.376548595510437735e+03
-9.595601107276656876e+02
-1.303229941344784947e+03
-3.985484680739244141e+03
-1.094311981065408645e+03
3.031193366063859230e+03
3.580040032281505773e+03
1.534260083747282806e+03
1.595852347397404174e+03
2.063830782358037595e+03
2.520267255360905438e+03
2.440200216286149043e+03
2.190611461992290060e+03
1.894502713086533049e+03
1.767849387099640126e+03
1.945634124733088811e+03
2.069945644959456786e+03
2.492836925012660686e+03
2.359274914342138800e+03
2.012212873770130273e+03
1.990739727444204391e+03
1.757963243395629434e+03
1.803891043555026727e+03
2.306544734969539604e+03
2.157952922298626163e+03
1.636164185239127391e+03
1.589301929929108155e+03
1.359347988147668730e+03
7.562556210823444189e+02
2.150126752358947329e+02
3.976228440412282339e+02
7.731010174468921150e+02
8.234262049307244524e+02
8.946528259311273814e+02
6.736724818331223332e+02
-7.054406497848957258e+01
1.292870245154551334e+01
2.056732111681153015e+02
4.180067807036756449e+02
1.920538410277178230e+02
6.536924462758044001e+02
1.378806618902993250e+03
1.011618416743975786e+03
6.997236229434166717e+02
1.962205783337328739e+03
3.843286670122830628e+02
1.334068164771454803e+03
2.013341569208309465e+03
2.141147625959534253e+03
1.565541795901876640e+03
1.002765855738090067e+03
9.811951800048960877e+02
6.445755188510697735e+02
5.211338135131063609e+02
1.243495372273518740e+02
-1.654617916949432583e+02
-2.231958623524953111e+02
2.502025970252964555e+02
2.626596127196229986e+02
2.321778625552228732e+02
5.337279398734698361e+02
7.593040528644741016e+02
7.249605175555002461e+02
4.417056653778492432e+02
7.864998839284273799e+02
1.414344358075932178e+03
1.777309819962434403e+03
1.832298924090393712e+03
1.742275368502752826e+03
1.377301217034970477e+03
6.683430703237928583e+02
-2.306986685996852202e+02
-4.317902065398114360e+02
-3.220009637467133530e+02
-4.443667070704705111e+02
-4.968917636087940082e+02
-1.945754755862462275e+02
-2.794039339497841183e+02
-2.763668568611701630e+02
-7.550381498895896470e+01
1.151823418367974909e+02
2.737294267319034589e+02
6.180909680701128082e+02
8.432562117896286509e+02
9.692321862038862719e+02
9.960081463167914535e+02
1.085595129428125347e+03
8.749913884076845534e+02
4.651822788595998759e+02
3.750840927665805111e+02
4.646605303440570651e+02
1.168366421249910587e+02
-3.693904088859754893e+02
-5.139950411562971340e+02
-5.640406382772612233e+02
-8.445533228802554504e+02
-3.641521723313869188e+03
-7.191936868111441072e+03
-1.135375922984996214e+04
-1.136391722855603075e+04
-1.062637234834330593e+04
-1.057520109548725486e+04
-1.056858309205506339e+04
-1.027345462179574679e+04
-3.373685222120769595e+03
-1.079474419044674505e+03
-5.200882876105091782e+03
-2.101908719177726653e+03
5.437773226492565755e+02
2.110975795971801745e+03
1.510659531866472662e+03
9.753109879370417730e+02
1.116616581517451323e+03
8.821432056211559711e+02
6.909024918886601654e+02
8.180259439423665526e+02
9.312592517305679394e+02
1.588690011225195803e+03
2.252396156191999125e+03
2.254397644290041626e+03
1.763709692483712843e+03
1.671308191657914676e+03
1.853284882580620888e+03
2.011630324350154297e+03
2.261344690665006055e+03
2.064380276591453367e+03
2.163693709849242623e+03
2.378255329536539193e+03
2.358010798905504089e+03
2.373893693502254337e+03
1.735974691549965428e+03
1.104319098545886845e+03
9.788720227708292896e+02
1.281515384864515454e+03
1.254318771726187833e+03
9.853451480521050598e+02
1.076595645925370945e+03
1.307021751287249344e+03
1.299564354316526988e+03
1.186254622739093065e+03
1.006186064349251296e+03
1.198395052646258364e+03
2.042924784491614901e+03
2.013752214495158114e+03
2.113891698860210454e+03
2.726345419868344379e+03
2.776203286809989550e+03
2.735494563267235662e+03
2.508163118061203022e+03
2.213204318713529574e+03
1.721705871930335434e+03
1.280580974272442518e+03
8.138110823648588621e+02
6.053937566721479016e+02
2.352300551919266525e+02
4.729655328672679815e+01
7.326373517051430326e+02
1.093287082671093458e+03
1.422374448583305821e+03
1.200011967481683541e+03
4.721439443426240814e+02
9.497849300046358394e+02
9.969654152955564541e+02
-3.752741155226874525e+02
1.521962762758017789e+03
2.497745225137878606e+03
2.125113878449923504e+03
2.061013829827303198e+03
1.805528006427541413e+03
1.070612248125396036e+03
-1.485797935146190639e+03
-6.712352829264666980e+03
-6.320474804119605324e+03
-4.906089147583683371e+03
-9.760145602096346920e+03
-8.350544221352152817e+03
-5.771272014804494574e+03
-1.723265554356767780e+03
-3.949568667609855311e+03
-3.069157860268698187e+03
-3.002896082858942009e+03
1.422066156209264705e+02
-2.487802952655453282e+03
6.580144393058166088e+02
-1.785290423559872806e+03
6.273341772257372213e+02
1.489274098016226446e+02
-5.424566249241406695e+03
-4.046101423283434087e+03
-3.336493288890029589e+02
-1.009260717731560931e+03
-3.527916737109679161e+03
-2.357644367481104837e+03
-2.682430635543907556e+03
-5.726414654005624470e+03
2.855550965645880623e+01
-2.545465593890065975e+03
-1.237490715871164184e+03
-2.352457865090085306e+03
7.706464817460357608e+02
-3.816202314209252108e+03
-2.079917620854653251e+03
2.226483929504538537e+03
-8.290639774749868138e+02
-7.296006262360986057e+02
1.293984170475541760e+03
-1.863240892165670402e+03
2.437699325541625058e+03
1.773825633342159790e+03
-2.676847092953968058e+03
-1.045314970815262768e+03
1.313390273399427315e+03
1.738201265342522674e+03
1.764078697643325540e+03
1.273036090377477876e+03
1.279128655600581169e+03
1.225455941690740701e+03
7.514336099458682838e+02
9.196409106437745322e+02
2.041814257421558295e+03
2.162010445086753407e+03
2.238237915823812273e+03
1.910499510510656819e+03
2.210780300018379876e+03
2.411097617577992878e+03
2.428523165773689925e+03
2.611053173299351783e+03
2.667723988948986062e+03
2.677576765510396854e+03
2.589557868026639426e+03
2.106542095411886748e+03
1.577441177409575857e+03
1.448243099264358989e+03
8.699707734182759395e+02
-8.465456750976171634e+02
5.208896294039284385e+02
1.067820517900566756e+03
-8.028052903184957358e+02
-4.216451877777188201e+03
-1.471096556263093134e+03
1.252254149901628807e+03
1.795324157027693673e+03
2.068933948330911790e+03
2.308025624236597196e+03
2.337281225169540903e+03
2.499010887191208894e+03
2.513201483693685532e+03
2.734680825359944265e+03
2.837042160188862454e+03
2.343803806278453067e+03
1.956706040055017183e+03
1.737622491290137987e+03
1.413251626992524734e+03
8.653925748066224060e+02
4.244365408488502567e+02
3.021490321021926775e+02
5.059636191881758691e+02
8.962864603591804098e+02
1.181534747967683643e+03
1.441479329574088752e+03
1.683233888588610398e+03
1.903162240623256366e+03
2.290327109623162869e+03
2.526074062597217562e+03
2.374650553917024808e+03
2.047687667017727563e+03
1.962104311599458470e+03
2.096840969406324803e+03
2.220944772845773969e+03
2.016406259027020951e+03
1.666197489878250735e+03
1.186302450509611390e+03
9.196967596319179847e+02
7.003331609799263333e+02
6.172026407910710759e+02
2.362991255749892332e+02
2.776554659518102994e+02
7.072598925584835570e+02
1.126173515294583012e+03
1.300333648276068743e+03
1.345693232709696986e+03
1.376319466485696921e+03
1.776282726303706795e+03
1.861507928820191410e+03
1.934020550012940930e+03
1.880850675882192263e+03
1.954002118692875229e+03
1.668418487714363891e+03
1.365056040374809982e+03
1.425928493531683898e+03
-8.449758141452382461e+02
-4.446645979886010537e+03
-1.031102989166793122e+04
-1.108518356377399323e+04
-1.089511398056830694e+04
-1.088283008520409567e+04
-1.088629207957624567e+04
-1.022451464667084474e+04
-7.752575422260645610e+03
-8.414444398903206093e+03
-9.757732800694906473e+03
-9.109608464241773618e+03
-9.258944343418004792e+03
-9.018980350445444856e+03
-8.446680874806992506e+03
-6.485035248121295808e+03
-1.587941512001186084e+03
-4.526353364341042834e+03
-8.058301471798583407e+03
-2.602737860617161459e+03
2.689319163884788395e+03
-1.629117526994171612e+03
3.329743155880616428e+02
2.345629828349535273e+03
2.441825793533111209e+03
2.292609350702358370e+03
2.248024513870895134e+03
2.400115176987270388e+03
2.534886119087884254e+03
2.935376310021374593e+03
3.000695083687170609e+03
2.918818732508359972e+03
3.434733624404745569e+03
3.490480718305489063e+03
3.330105294448718723e+03
3.061644010023948795e+03
3.214150414484010980e+03
3.333679987342769891e+03
3.693271043386955171e+03
3.521895947507830897e+03
3.104580263807719348e+03
2.508354326059903087e+03
2.085242263623676990e+03
1.774296685613041291e+03
1.510534585020616760e+03
1.327994630092493026e+03
1.209693986212784239e+03
1.120691584249435891e+03
1.708035269836453836e+03
2.001754126241775566e+03
2.092856569826245504e+03
2.171434022519255450e+03
2.368551988614215134e+03
2.630225524489034797e+03
2.618479282399847307e+03
2.714369353717126160e+03
2.991885082413690725e+03
2.744089367876373672e+03
2.462008982870198906e+03
2.401693830987293040e+03
2.002137279995090012e+03
1.486245909164773366e+03
7.840488582949748206e+02
3.296974356649372453e+02
4.876327092328628510e+01
-2.084838053047072037e+02
-1.243437475379766113e+02
1.241862203114477268e+02
2.851936480372640403e+02
4.037252374232124907e+02
4.207660601625302661e+02
5.699564260727335068e+02
-4.822023809783685806e+02
-2.198003552917291017e+03
7.183775245777301279e+02
3.808561584967553131e+02
-3.234504007552627172e+03
-1.469647477918388404e+03
1.133430549718759494e+03
9.106863204470428172e+02
4.016297583905193846e+01
9.383763921043453138e+01
-5.483366825379863485e+02
-9.582987803855417042e+02
-6.810873258361141325e+02
-7.437410942684392694e+02
-6.412101612884805490e+02
-4.833824065247775366e+02
-1.252872687252453829e+02
-2.139363530935785604e+02
3.567312645866919496e+01
1.815463083683968364e+02
4.267245306396133628e+02
8.762327731076316013e+02
9.520315701819531569e+02
9.081111553086008144e+02
9.464564943850574537e+02
8.291062947088053079e+02
5.700808950953587555e+02
2.293570329317641949e+02
-1.181639776768413270e+02
-4.754529669354072325e+02
-7.975131756055151300e+02
-1.060392450055518566e+03
-1.262115169781689247e+03
-1.508660636886699876e+03
-1.389061672974331714e+03
-1.282317317164994392e+03
-6.714562882887906881e+02
-3.885330768200416856e+02
-2.424772258142306214e+02
-1.742964150572995550e+02
2.219476363974242190e+02
2.352541958464049401e+02
1.836134617072714832e+02
3.850180827753122799e+02
7.204311935039008858e+02
6.728628582541886090e+02
5.842467491425909429e+02
5.965711826992777560e+02
3.717540578397865829e+02
-4.911899424589547607e+02
-1.056145231974287981e+03
-1.256358906734342554e+03
-1.518907101894356174e+03
-1.490795199797630175e+03
-1.037993930269425618e+03
-7.064698208273903219e+02
-6.143195340173059549e+02
5.047081685173606047e+01
-1.101670769575302700e+01
2.922243408365806872e+00
2.813333014168525779e+02
3.192836424846606178e+02
5.577234075882371371e+02
5.905802928126279312e+02
-9.322913037067086179e+02
8.541472206787867663e+02
1.393699445338207624e+03
1.472849946973422220e+03
6.734319630856308549e+02
4.237985834975587522e+02
-2.823519977410148840e+02
-4.787287334717308340e+02
-5.400685060590748208e+02
-1.059114415089888553e+03
-5.491905216088803172e+02
-2.802278330564863040e+02
1.258287698580278935e+01
1.272604713616790129e+01
5.962512714515475665e+01
-6.356502483442557150e+01
5.591028010590067652e+02
1.045929207995061006e+03
1.162815434936906058e+03
1.486715458797767496e+03
1.490695143843077858e+03
1.051504574855839337e+03
9.415857353973349291e+02
1.345958422369006030e+03
7.582155230472004632e+02
1.542148634045855431e+02
-2.877935626726194300e+02
-5.478849218164143622e+02
-7.449192599875087808e+02
-1.151235091234895890e+03
-1.378621198201336256e+03
-6.771548889051553033e+02
-2.734281462318218701e+02
6.306643615584629714e+01
2.642935903600798611e+02
5.466190749982184798e+02
7.101550144244753255e+02
9.602649084767290333e+02
1.162469211081181356e+03
1.256786318885212040e+03
1.425519155622396738e+03
1.546980873334430271e+03
1.072444681393922792e+03
1.347635684587090987e-01
-6.590411059840837424e+02
-1.182062351199200663e+02
-4.154467064622211865e+02
-5.127226260156559192e+02
-3.950563530729390322e+02
-8.375019069062786912e+02
-1.001146633857765664e+03
-1.389290083392697852e+02
6.201857643162837803e+02
9.582679431590603372e+02
1.269261782989480025e+03
1.209162515248770660e+03
1.372997695280543667e+03
1.850727536908991169e+03
2.015406181442032221e+03
2.220034629262637736e+03
2.209578376088522418e+03
1.975068829520558666e+03
1.881539092216145264e+03
1.547963838950532136e+03
-1.198823047118095474e+03
-5.527581001612544242e+03
-7.796257041950295388e+03
-4.333841634363024241e+03
-2.803989989152429644e+03
-3.259861871285695088e+03
-6.618785652122910506e+02
-4.285003252752885601e+03
-6.671134714530238625e+02
-2.099144899628825897e+03
-1.230096847104877497e+03
6.010725271151462721e+02
-2.552643688825895879e+03
-2.069178998273790967e+03
-1.343540957171881018e+03
-2.147730746327548331e+03
-2.172696828015737083e+03
6.945900547176926239e+02
-1.597849080063402425e+03
-1.730966438568379772e+03
-3.766738375608403658e+03
-5.519165488486628419e+03
-3.685268914664839485e+03
-3.543068989748179774e+03
4.847520953433098612e+01
7.563927279033024433e+02
5.036890068833594114e+02
-2.502630811440767957e+03
-2.744483355576325721e+03
-1.123819611529130952e+03
1.665386824603083141e+03
2.211196444487246026e+03
2.521658052983207199e+03
2.414778444263936308e+03
2.644572877601718574e+03
2.783017433051544685e+03
2.631189987440100595e+03
2.537151265156139289e+03
2.612943159224129886e+03
2.185566920653692705e+03
2.097025956972067888e+03
1.454342106288898322e+03
9.285536530989278390e+02
5.186272760216974120e+02
7.255651125392579388e+02
4.674174962751771432e+02
1.372103976395671907e+02
8.295803022198956000e+01
5.887380509111964102e+02
6.555402699042607537e+02
9.164117694498287392e+02
1.186407138786360747e+03
1.526556280603852656e+03
1.941846493052784808e+03
2.159343594053538254e+03
2.339059825015597653e+03
2.431968241425903670e+03
2.330336231180560389e+03
2.182168299043280058e+03
1.962679527815185793e+03
1.674537502154705408e+03
1.165106176996550857e+03
4.774804619264497774e+02
6.568349898219813099e+01
-1.286340945872232624e+03
-3.989797911367038978e+03
-2.000498248409705184e+03
-1.423726037519437568e+02
6.304916004647132013e+02
6.851833924917439163e+02
9.897033253070499086e+02
7.830322078807879507e+02
8.800035957602572125e+02
1.258506014476718519e+03
1.551101109298343772e+03
1.935324647507792633e+03
2.040809362290611944e+03
1.664022856542016825e+03
1.198059949624560659e+03
9.882853709708488168e+02
6.950034635180936675e+02
1.861684275527503303e+02
-2.613672205528433210e+02
-1.686139914032463309e+02
-3.945974668411080302e+02
-8.063232061207611423e+02
-4.938686069602807152e+02
-1.462112338989453235e+02
1.296985584821157147e+02
4.818187819897386817e+02
8.522199933142300097e+02
1.231888853231122084e+03
1.656822496710357882e+03
1.994984702451842850e+03
2.063363085265208611e+03
1.903932926754305981e+03
1.939711928368649978e+03
1.681729751998587062e+03
1.266002464072559860e+03
1.453488484701796096e+03
1.035132809981635091e+03
6.439053040464500555e+02
1.338142929811190527e+02
-1.301683808022171718e+02
-2.740847655838084620e+02
-2.679935452058795704e+02
-7.169166544518278670e+02
-5.428409862248582840e+02
3.122127456088575315e+01
5.662473486809897167e+02
7.442529998223362782e+02
9.692547389088417731e+02
8.902501664032487270e+02
1.425194660820572381e+03
1.483140203596492938e+03
1.527037249556734196e+03
1.307842396508993033e+03
-7.554219640514764933e+02
-3.811790248711924050e+03
-9.420236942653920778e+03
-1.060081278384219877e+04
-1.049253854664335813e+04
-1.107743538244194133e+04
-1.123755622696580394e+04
-1.121894352262829307e+04
-1.092761862465134618e+04
-1.075358969618494484e+04
-7.500870098670367952e+03
-7.956029889466370264e+01
-2.719558963968899661e+03
-8.754331264461224009e+02
3.593082589627038601e+02
2.048824848751208719e+03
2.475377622731520660e+03
2.774541859010130338e+03
3.026137790305555427e+03
3.354347754589622127e+03
3.254262574968264744e+03
2.624807019813275019e+03
2.583004409112594658e+03
2.563809326172461624e+03
2.046198123398012058e+03
1.330139328585579278e+03
1.306608626263844371e+03
1.118562630614800355e+03
9.560269776259649461e+02
7.490284383016912670e+02
6.754959293902845729e+02
6.534669551370725458e+02
1.307918954588701354e+03
1.764860435883988657e+03
2.002335695795569109e+03
2.176344854498886889e+03
2.193881529091187531e+03
2.418943181787816684e+03
2.946535025620219130e+03
2.824635643100848938e+03
2.907275358065760429e+03
2.807488995918412002e+03
2.537262360948870992e+03
2.227585352723433061e+03
2.097433363966904381e+03
1.521851952338633282e+03
8.968002625500827207e+02
3.312642983566630619e+02
-5.081828564066087495e+01
-1.263873588285739373e+02
9.555031306970600724e+01
4.589986482813729367e+02
6.780027558664512526e+02
1.033598105918438478e+03
1.467807904870454877e+03
1.683626969675826786e+03
2.139121306802789150e+03
2.056323112893553116e+03
2.013199937103928733e+03
1.354760312783225345e+03
8.680737906686897531e+02
2.513230580792113415e+03
2.541195020791276875e+03
1.702944215885748008e+03
1.066455647053902112e+03
5.197906006113526018e+02
4.989567915477492477e+01
-1.622107344205032007e+02
-1.624903319341357246e+02
-2.900334251134552801e+02
-4.857811358649673821e+02
-1.886722567116238736e+02
2.323480646397833027e+02
8.402830425322974861e+02
8.101089835956867091e+02
-1.570096412625512357e+03
-6.192278104579132560e+03
-4.063573438516233637e+03
-2.629685471373583823e+03
-1.197750282217662743e+03
-1.252662789945014765e+03
1.518557683550632646e+03
-2.788061641968129607e+03
-1.214546825542774059e+03
-1.737900831446693246e+03
-3.279064923389129490e+03
-4.506099543198838546e+03
-4.358985061654885612e+03
-3.040703787144230319e+03
-2.598250356079996891e+03
-5.540588642027651986e+03
-4.064656722863865980e+03
