-7.383465216238772655e+02
6.768188305003078540e+02
1.359731614400691797e+03
1.529549936180242867e+03
2.041322264166112291e+03
1.009022356054853276e+03
-2.120404099658463565e+03
-4.331918286058616104e+03
-3.199385045686143258e+03
-7.697593093273633258e+02
9.429921491086787455e+02
3.462006626972723097e+03
4.929388837734293702e+03
4.214107352705364065e+03
2.405053645350496026e+03
2.182716965924542762e+02
-9.362085627384409463e+02
-7.139590491386351232e+02
-5.051548225843569639e+02
-1.794884740956730866e+03
-2.672998534504747568e+03
-2.362268873774971325e+03
-9.526543372961573368e+02
-2.264222827277872511e+03
-3.169999507665253532e+03
-3.249037144995089875e+03
-1.210465341745357364e+03
1.440854512892493631e+03
2.080189608559156568e+03
9.376191378908538354e+02
1.523231300102431533e+03
3.587050970584949937e+03
5.179136679080792419e+03
4.571292964525116986e+03
2.898012062619922290e+03
2.970771208437241512e+03
1.833598513644187506e+03
6.284895952431114665e+02
1.585359594610731335e+02
-2.592949303065337517e+03
-5.083429866119035069e+03
-4.233193617493798229e+03
-2.627088343561656529e+03
-3.173109474801842225e+03
-4.768220102808982119e+03
-6.193377877754748624e+03
-5.016831517778520720e+03
-2.089675244419494902e+03
-2.186532033265758059e+02
-4.557710578466036964e+02
2.689796716347679961e+01
1.156289781684870150e+03
3.648487134273539596e+03
5.467653659299842730e+03
6.415728383686173402e+03
6.505617340801280989e+03
6.173366374598165748e+03
5.128981935544413318e+03
3.515513225891943875e+03
2.014926361747527380e+03
1.313187262616452244e+03
2.373175710601226456e+02
-1.004888823499505861e+03
-1.807648109941454777e+03
-2.434922014384375416e+03
-1.960616783438458697e+03
-1.137827424337224102e+03
3.846833772363714843e+01
1.297332475824864105e+03
2.454792888278266673e+03
2.552667891726564903e+03
2.169856887157945494e+03
2.432402463506967706e+03
1.667347524490440946e+03
1.549689947890654366e+03
1.971459988640898018e+03
1.880715959568720336e+03
2.186393234871703498e+03
1.760364547609178771e+03
2.766365726307959676e+02
-6.798407135845969833e+02
-2.139027451320418095e+03
-5.576888305095531905e+03
-8.619439933767484035e+03
-9.692725466143190715e+03
-9.807794204286272361e+03
-6.362688546793441674e+03
-2.574525077844335101e+03
-7.324196199002500407e+02
-8.783836103833931475e+02
-4.225573240882339633e+03
-6.473048422176904751e+03
-5.989716624159303137e+03
-1.944763586992164619e+03
9.630717433047955183e+02
-2.020130215394426614e+03
-4.050532897866379244e+03
-1.859196206474960263e+03
3.859234531782549382e+00
-7.413331996704075664e+02
-4.647979810533898899e+02
2.811794252833241785e+02
8.355366494897363054e+02
1.201369713108967289e+03
1.095518327118656543e+03
4.666170930506886521e+02
1.095707418301885525e+02
-7.435799213793548006e+02
-1.114771597462556656e+03
1.310459393934450532e+02
8.588358938853530162e+02
1.061568822188630293e+03
2.338152965143799975e+03
3.067487252814999010e+03
2.382408699503433581e+03
2.027105087093260863e+03
1.671602212736456295e+03
1.016845117623068518e+03
3.047145602366230150e+02
4.491351864189019807e+02
8.680408471093807066e+02
3.084736360632026049e+02
-5.861143154850903159e+01
-9.775104759807537675e+02
-1.450392577137427224e+03
-1.329280721465161378e+03
-9.810780042993386587e+02
8.183111066933228983e+00
5.584672674689488758e+02
3.196067630714447887e+02
2.534086051505518071e+02
5.239067681281613886e+02
5.711208507610432434e+02
7.291165082434592932e+02
1.122791413560397132e+03
1.198072592193292166e+03
7.459691488996309090e+02
-7.560811399604236094e+00
-7.675956774129230098e+02
-8.471205040345505495e+02
-4.812703025846546439e+02
-3.232130677075912786e+02
-5.290503553879062792e+02
-1.101770790659748627e+03
-1.198431086319394353e+03
-9.762383463993492114e+02
-4.360148532350596042e+02
1.753099890740849673e+02
-4.834718216267857116e+01
-4.583676034580043392e+02
1.996229775322212276e+02
8.474287315781132293e+02
2.770674428641682425e+02
5.505305153418840973e+02
2.767551304114367667e+02
2.985392258044665255e+02
-1.532649304799618619e+02
-4.384812944727312356e+02
-2.870929749379740201e+02
-1.812482577217130029e+02
4.228769606812991242e+02
1.064337324960689784e+03
1.292142200701869569e+03
5.470812880034949330e+02
-7.212118930410283610e+02
-1.470875339869485515e+03
-1.465653580882668848e+03
-1.399387703619756394e+03
-1.408152222039424032e+03
-7.790359519894739151e+02
5.549866397715964013e+02
1.702848399158564462e+03
2.516222226711946405e+03
2.235166061791710945e+03
2.103830507962030879e+03
2.333352915522997137e+03
2.582571007538086178e+03
2.061340937419800866e+03
1.392666300472457124e+03
6.794570849656927294e+02
-1.091224423789889215e+02
-4.161662636618619331e+02
-6.629321433158792161e+02
-6.134910829228601870e+02
-5.386789470886590152e+02
-6.365052003718853939e+02
-1.579802123391565942e+02
3.520025760303957441e+02
5.246112391584986199e+02
3.739402401280712525e+02
7.388483508780809643e+02
1.197301271035508535e+03
1.659962738057600518e+03
1.401611890831022038e+03
2.059548890429452513e+03
2.161865231372988092e+03
1.710537389031506109e+03
1.231583019346110177e+03
4.889960219629410858e+02
-4.973400505822507398e+02
-1.542530515991032416e+03
-1.606675390791788459e+03
-1.876770908874517090e+03
-2.392829759254304918e+03
-2.442784899827286154e+03
-2.228466442343503331e+03
-1.416746766194778957e+03
-8.556444213736116353e+02
-6.341237289555235748e+02
-4.942336920716930990e+02
1.580654062924660650e+02
5.218786254940370100e+02
1.120346560768334939e+03
1.321471574213451959e+03
1.296258128606399396e+03
1.069690758607917587e+03
3.548417827960315662e+02
1.307647580847875872e+02
-3.925419470180809753e+02
-1.766767316446238738e+03
-1.639012901949991146e+03
-1.207365281640958983e+03
-1.772860856665376332e+03
-2.534496320362809456e+03
-2.696187905791820867e+03
-2.978170065515565966e+03
-3.219885410254461476e+03
-3.115928846056554903e+03
-2.082544238144276733e+03
-6.475714246765750204e+02
3.342813995030949172e+02
1.006495421650313119e+03
1.244063817314011658e+03
1.159571801202321240e+03
8.730680552348204628e+02
5.915523618504729484e+02
1.041880135461904956e+03
8.489553529989678964e+02
2.580502426511406497e+02
-4.839108447356279612e+02
-8.474479684945195004e+02
-1.027686253721581807e+03
-1.515925520816959988e+03
-2.241056082416820118e+03
-2.309340357565821250e+03
-2.062794982511259605e+03
-1.773179156692840934e+03
-1.406833193893673069e+03
-1.344738366976705493e+03
-9.320647398856416430e+02
1.022797108128157646e+02
7.405733296331828797e+02
1.680116786051649342e+03
2.366694005564375857e+03
3.029504658778870635e+03
2.962758773484352332e+03
2.584371410630316404e+03
2.001303709848936933e+03
1.072532083624339748e+03
6.021367346743974167e+02
5.712716704825674015e+02
5.149607760134388172e+02
1.853841951189681936e+02
6.081185213145930391e+01
1.903552259768748343e+02
2.588884309465594811e+02
2.643787957327754157e+02
1.181904795392681081e+03
2.188494438449105928e+03
2.873303878703550254e+03
2.165561709258382507e+03
1.334710236822716922e+02
-1.093791439055856472e+03
3.349790638364800998e+03
4.431169455375421421e+03
1.754493588651326945e+03
-2.277044211357562290e+03
-2.932417881664891411e+03
-3.225711675205892789e+03
-4.160942448466152200e+03
-4.324866217317538030e+03
-3.735494701222053664e+03
-4.551709326053346558e+03
-5.782524574795113949e+03
-6.613057574636120989e+03
-6.612072354777227702e+03
-5.070329249381540649e+03
-3.338861046387236911e+03
-1.035756949567651418e+03
6.540657783365303430e+02
-1.599120234370953767e+03
-1.739136374696863186e+03
-1.852028004275339754e+03
-1.716651762323225739e+03
1.152061050534611923e+03
6.154163505236871970e+03
5.574924523073840646e+03
2.444038318741837941e+02
-1.920630611324105530e+03
-2.214240369429021030e+03
-2.852246974030516412e+03
-3.112492127329167033e+03
-3.125878919925578430e+03
-1.516579814595581183e+03
1.260233082893052142e+03
1.959626813852853502e+03
1.482842704114498929e+03
1.258909738907475003e+03
1.506827447580604257e+03
2.814514230884036806e+03
3.752008675634447627e+03
3.978381264449864375e+03
3.470741937333315491e+03
3.237245539675770033e+03
3.406913589557343585e+03
3.440827151649396455e+03
3.139042824659495636e+03
3.771465561555711247e+03
4.143185984079707850e+03
3.746232962009750736e+03
2.575570427854271657e+03
1.865201718796601881e+03
8.180835377884875470e+02
3.352209844182684151e+02
1.954902323199429190e+02
-1.531110727904158750e+02
-4.285393964587096889e+02
-6.466988929632171903e+02
-3.145148755004817076e+02
1.273960967481968964e+03
1.491789316736541195e+03
1.622959911027533963e+03
1.977441177617387666e+03
1.815272852698677298e+03
1.560368504510757930e+03
1.415757562949911517e+03
1.235550786402934136e+03
1.500570824184110734e+03
1.401784536485503168e+03
1.014504462588641104e+03
4.718959036103885296e+02
-6.716911444695392674e+01
-8.828547104379745178e+02
-1.319551140261878800e+03
-1.812297802223478129e+03
-1.763939875196459752e+03
-1.495388033818607028e+03
-1.720335903427435369e+03
-1.653881833684654566e+03
-1.241549663765174955e+03
-7.615016961486319360e+02
-5.867601301543146519e+01
1.882628457005282883e+02
6.823795095943994511e+02
1.079449501309371499e+03
9.262721654293133042e+02
6.637962040317587480e+02
2.448349614627586277e+02
-3.527276338126740143e+02
-1.929906620970481868e+02
1.569892605832681909e+02
-9.308157066170790586e+02
-1.916405342462275939e+03
-2.143860273451162357e+03
-2.587208390087776934e+03
-2.814467884261579457e+03
-2.777819647744940994e+03
-2.252309938564121239e+03
-1.624963023712394715e+03
-8.458824731072614895e+02
-7.120692988532797472e+02
-5.346285621725689197e+01
8.178466113257752568e+02
1.513810081004389076e+03
1.812440590404334898e+03
1.627669176933772405e+03
1.269330833899478421e+03
7.343320276061832601e+02
4.746153422703951605e+02
-1.348785644006117366e+02
-1.041142910714681648e+03
-1.923271613299806404e+03
-2.378380248135596048e+03
-2.160590240630283915e+03
-2.168991268297287661e+03
-2.196619995755086620e+03
-2.322439363026917363e+03
-1.975529085483116660e+03
-1.476969433245262508e+03
-8.727624223103147187e+02
-3.949514607683408371e+02
1.243894515161200616e+02
5.012485274714766206e+02
9.106304040249582386e+02
1.207513877804814683e+03
1.572842401707490126e+03
1.685514807335196565e+03
1.385418221409869602e+03
9.134747860892942981e+02
3.916569847298659397e+02
-5.240888146791213558e+02
-2.614862239752955702e+03
-2.564720773855882726e+03
-2.209741670054851966e+03
-4.459012855849586231e+03
-6.761543013532136683e+03
-2.733258225425063756e+03
-1.455272941174072912e+03
-9.626700338727353028e+02
-9.473528604337180923e+02
-3.094011122290914386e+02
7.902552364346978493e+02
1.451526436570495434e+03
2.063417349998299869e+03
2.259910783208105840e+03
2.120930365111436004e+03
1.723455412241624117e+03
1.285363898637124976e+03
1.092561841302095218e+03
1.053010245861446720e+03
6.317279450867332571e+02
2.075298539263874176e+01
-5.519595758481179928e+02
-5.185132152737563729e+02
-4.399039840733169058e+02
-9.831280756658200062e+02
-8.862462063138150370e+02
-7.393348015888490181e+02
-6.243968203435233590e+02
1.726127784168978678e+02
1.047745232894720402e+03
1.788987157377247513e+03
2.997305963736954254e+03
3.351668310202598605e+03
3.305151106549859378e+03
3.032767728611249822e+03
2.748536607028311664e+03
2.573481317566024245e+03
1.950530189849155249e+03
1.243647682099023314e+03
4.917718997416188245e+02
1.538735828342562115e+02
-5.611484873670528373e+01
-3.052055756050907007e+02
-5.173186336003094539e+02
-6.964831127090720884e+02
-6.796660695186161547e+02
-3.548172131567308725e+02
2.590584663311058762e+02
6.249323208378629033e+02
9.968812988160281066e+02
1.549837606975261679e+03
2.115899704672006919e+03
2.855135177592024320e+03
3.638580186523524389e+03
3.750269249189691436e+03
3.152227295061214591e+03
3.041476177633177485e+03
2.491916931544875297e+03
1.766574427467927762e+03
6.174352805193468612e+02
-4.234990872658087824e+02
-7.542581421907652839e+02
-1.285921292264773683e+03
-7.134519798855446879e+02
-9.257901380446093071e+02
-1.040863137995215084e+03
-6.627130234125680772e+02
-1.812985198007101246e+02
8.339498860124759005e+01
8.474380570831664272e+02
1.541857432217751011e+03
1.834695376002820467e+03
1.615927273048432880e+03
-2.283981011859212913e+02
3.990809657372197989e+02
-4.077843552716598765e+02
-2.351130985030990814e+02
1.724077518219660988e+03
1.423852122331697956e+03
6.762045429377479877e+02
-2.399935186760541910e+03
-1.843525022064872473e+03
-5.525553368721786683e+03
-5.009019220615155064e+03
-6.096977969946740814e+03
-3.339451692292875123e+03
-1.554394689573696269e+03
-3.111799633065290436e+03
-6.645867248939408682e+02
-1.339681973471311721e+03
-6.290370537061397727e+02
9.644036038024094069e+02
9.175859327454513732e+02
1.098555335167721523e+03
1.852353799831525748e+03
8.840371576555319280e+02
4.175826026531282764e+02
1.551953352840420393e+03
-2.088250023214345958e+02
2.302529939762402194e+02
1.691223736630590793e+02
-1.405260702880864983e+03
-3.026857167725354884e+03
-1.582647178859855330e+03
-2.897635183661745486e+03
-4.062812139028653746e+03
-2.874239501177894454e+03
-6.448298582851390393e+02
-1.375620181580838789e+03
-7.596052726419362671e+02
1.401242819668643506e+03
2.241011870650301262e+03
2.625773992286452085e+03
2.846554706574401280e+03
2.565344789396482156e+03
2.774096117397555645e+03
2.646756039215083092e+03
2.034313228516141862e+03
9.297856793841208400e+02
1.431584394296594667e+02
-2.915767818879580773e+02
-5.454785970440382243e+02
-1.166517064223555280e+03
-1.263756843409162229e+03
-9.731968057948473643e+02
-9.048477946431102055e+02
-7.385707252389690893e+02
-2.122360039179944806e+02
1.581289025829968296e+02
1.580733586323096347e+02
1.202868579844262285e+03
2.341802343390103943e+03
3.196042340915971181e+03
3.206360253094098425e+03
3.369731153744245603e+03
2.955193679084127325e+03
1.261586394210996559e+03
5.127259345420220598e+02
9.690227814891132994e+02
1.585881030759394434e+02
-3.178332529313284454e+02
-6.111309754818103102e+02
-6.487133761689140101e+02
-9.765336393162510831e+02
-1.227652543627791829e+03
-9.571493572214944834e+02
-5.645010748051123528e+02
4.389773314618448552e+01
4.352273815538703161e+02
5.904156473717283689e+02
1.266339797072343799e+03
2.144679121398261941e+03
2.859795892903666754e+03
3.182982766070731941e+03
3.190873501764539924e+03
2.796876314727845511e+03
2.388023968576394964e+03
2.354894767486243381e+03
2.078432934818467857e+03
1.187802960533604846e+03
-9.041134332347864699e+01
-9.832070895239857009e+02
-1.455396314737143030e+03
-1.671845509884769626e+03
-1.610622797904250319e+03
-1.637948346544691049e+03
-1.759831362095808799e+03
-1.650140922413157114e+03
-2.368505973587632525e+02
4.340383330687470220e+02
1.031530957617793092e+03
1.933611050388695276e+03
1.961283050478858286e+03
2.351501891141804663e+03
2.497283906235841641e+03
2.141671690870758084e+03
1.539702320742248048e+03
1.216344508670742243e+03
1.351602184941731821e+03
3.084208884397413613e+02
-7.052085068893255766e+02
-1.204276106855093076e+03
-1.521832413918792099e+03
-1.458872940582067940e+03
-1.419424700240550692e+03
-1.702590288884942311e+03
-1.554225585212621809e+03
-1.071320874192923839e+03
-2.728770296846499832e+02
1.301635829654881604e+02
4.138454217038860747e+02
1.133184716591560345e+03
-6.380670709663758089e+01
-2.780173964545002036e+03
-4.411881606366468986e+03
-4.274914676780076661e+03
-3.951269306239575599e+03
-4.597925509271385636e+03
-6.154893777453702569e+03
-6.819231681195325109e+03
-6.329892761074639566e+03
-5.941929809208750157e+03
-4.625343124236174845e+03
-3.403116844701047285e+03
-6.101256519494080749e+03
-6.634736086576850539e+03
-6.076551905612037444e+03
-6.583717781510964414e+03
-5.324197362807970421e+03
-1.442975392405832054e+03
1.597979578143217168e+03
2.710712522802578405e+03
3.271259136824888174e+03
3.767678394299797674e+03
3.724986661890152845e+03
3.562123363330116263e+03
3.250079250842123656e+03
2.958961649809438313e+03
2.386777658871130825e+03
1.319470140127139757e+03
8.830346097812872586e+02
4.924548254070843996e+02
-1.382473518224334157e+02
-9.270734230563211895e+02
-1.174065677610336479e+03
-9.862167100356967921e+02
-6.134275462134838790e+02
-3.807474906771546443e+02
-4.019313511721807686e+01
9.812958741644090424e+02
1.915746163138625889e+03
2.502217168534918528e+03
3.201762120454223805e+03
3.035436024578676097e+03
2.942246509700022216e+03
3.014266990564092794e+03
2.947528549384705002e+03
2.707998019134636252e+03
1.851659687545406314e+03
1.256476403289157133e+03
5.564435119278718958e+02
2.065542391387842258e+02
-4.121748397591810544e+02
-1.134763959042909619e+03
-1.475205410988307904e+03
-1.574497616865321788e+03
-1.626604217723956708e+03
-1.357487990170499870e+03
-8.030709434606827699e+02
-1.273559404743350143e+02
4.766629961045919686e+02
1.219957423221150748e+03
1.867580145877102495e+03
2.183544778906515603e+03
2.535029916076102836e+03
2.421019646438523068e+03
1.994321918958231208e+03
1.708006143232357545e+03
1.388220732155956057e+03
6.180396143102441329e+02
-7.523880629992773947e+02
-1.114003827911822782e+03
-1.391178772036354303e+03
-2.194679611877709704e+03
-2.629659410689453580e+03
-2.897144358674837349e+03
-2.303178709346518644e+03
-2.032816660071090155e+03
-1.708979297005156468e+03
-9.627158940372588631e+02
-1.489567764872054454e+02
1.071366789713172238e+03
2.005228134868659254e+03
2.515694194605050143e+03
2.691773975146839348e+03
2.413461939227051062e+03
2.101773960432974036e+03
1.703688723932990342e+03
7.741676298632420412e+02
4.316435887628172452e+01
-6.153408687913450876e+02
-1.253286726062138086e+03
-1.844744752991090309e+03
-2.267685712319321283e+03
-2.040069464813889681e+03
-1.988905684036088360e+03
-1.853203643079360745e+03
-1.587006289055543675e+03
-1.514415570102733682e+03
-1.102357168163042388e+03
-6.217854454598943903e+02
1.053495467401742900e+02
1.172044399569108464e+03
1.971243092106888980e+03
2.548006800291225773e+03
2.760354101988247294e+03
2.703276879772655320e+03
1.457690301446786179e+03
3.825910039513440211e+02
3.339245442049128769e+02
-4.853248409784040973e+02
-1.497128619846657784e+03
-1.527507865778606174e+03
-1.507492470738554402e+03
-1.877100983594057652e+03
-2.152344159712091823e+03
-2.548179668637527357e+03
-2.295587714022944965e+03
-1.831577916264477608e+03
-1.043216554292745514e+03
-1.715165001612029130e+02
6.165780082501798915e+02
1.423045500815380592e+03
1.806777172085043730e+03
2.222810308406800232e+03
1.996159401555697741e+03
1.999892202416737518e+03
1.717983343127721128e+03
8.263706638282384347e+02
-8.494127629207903851e+01
-8.841474615319217492e+02
-1.131221706152456591e+03
-1.617159183848486009e+03
-2.081040240387252652e+03
-2.327887938449598551e+03
-2.224681958152810694e+03
-2.216475000533097045e+03
-2.140242861227292451e+03
-3.402987772435916668e+03
-4.200681513163072850e+03
-6.322179492686524327e+02
2.801877748579715899e+02
9.998024533298153074e+02
1.879667113930004462e+03
2.582655290960607545e+03
2.757203849649907625e+03
2.283165200294923579e+03
1.867405979406982169e+03
1.248540813251018335e+03
6.191308704280635311e+02
1.898465057901863373e+00
-5.210540123414510845e+02
-9.221153247546628791e+02
-1.692198207542269984e+03
-2.134046154294582266e+03
-2.222103213713450259e+03
-2.166090850816921829e+03
-1.598045022207887541e+03
-1.025927907408969077e+03
-5.369975028249608613e+02
-7.229703179567687243e+01
7.822952997539332500e+02
1.642829868335278206e+03
2.181311748972990699e+03
2.652622929811919221e+03
2.750849322585641403e+03
2.424823414199418494e+03
1.617796219253977370e+03
1.152604239178283478e+03
9.049674805385708396e+02
1.086608759779514344e+02
-4.409595952060768695e+02
-1.254795713692936715e+03
-1.351011989698332627e+03
-1.566619449866425157e+03
-1.945115727533576319e+03
-1.978791384267158264e+03
-1.602030357300475089e+03
-5.879371975938705646e+02
6.304921758128504052e+02
1.376360522071541482e+03
1.893765662751457967e+03
2.176650504234769414e+03
2.303934671125661225e+03
2.340620677714359772e+03
2.320792053268456129e+03
2.460437882403327421e+03
1.734492787261422791e+03
1.172001684128356601e+03
6.740718326084995624e+02
4.355956350664537808e+02
-1.555855457915765214e+02
-4.824611116735013638e+02
-9.320143215816837028e+02
-1.478359223098316988e+03
-1.822483698658916865e+03
-1.281398791823249667e+03
-8.812204506446870482e+02
-4.258738169268604565e+02
2.972336257659402747e+01
6.176853239157998132e+02
1.135994198053749415e+03
2.607046765233606607e+02
-2.547067267525710577e+03
-1.673242712660239704e+03
4.481570420780767563e+02
-2.678438693384213707e+02
1.428694063691023075e+03
-2.253692006320498535e+02
-8.130046030483998720e+02
-1.065149181344751014e+03
-2.544893365394719694e+03
-1.245293587128561967e+03
-3.204344845890252145e+03
-2.974028922435683398e+03
-3.332370235281880923e+03
-1.891329388335846261e+03
-9.998921623838241430e+02
-1.419357420901492901e+02
-9.704457816444166838e+02
-4.859481364518980627e+03
-1.984050303855675111e+03
1.855134959160780681e+03
1.082185087840686947e+03
-3.400493470497233943e+02
2.518364113571255984e+03
2.255562684920025731e+03
2.316446453046575868e+02
-8.283353160574378080e+02
5.956546154004214344e+01
8.661640258216723396e+02
2.223650419497835173e+02
-7.466771189990408857e+02
-6.388078033808563987e+02
-9.290920644973201661e+02
-1.061784043677230557e+03
-6.458546475751365961e+02
-4.132605836593845652e+02
-4.188819686273405409e+02
8.237928121869580878e+01
8.755382313665622860e+02
1.694741646637652821e+03
2.228990589110936071e+03
2.759250092619546194e+03
2.911544478353451268e+03
2.780953385464461917e+03
2.834639550640156358e+03
2.790565301384881877e+03
2.022658008182806270e+03
1.116816628809946224e+03
2.120843892527839785e+02
-7.405074755655209628e+02
-1.167046625336819488e+03
-1.656529047445616470e+03
-2.018861475080453829e+03
-2.257144785516100455e+03
-2.140420096329188254e+03
-1.745526191349196324e+03
-1.211320404269534038e+03
-7.235899605962006262e+02
-2.519380264439468320e+01
6.309088184523150176e+02
1.154650532255146345e+03
1.907148533971187362e+03
2.145525223429403468e+03
1.787761840315125482e+03
1.738001703189791897e+03
1.376088097056585639e+03
1.121784981274832717e+03
3.720800628966444492e+02
-4.788665301128167471e+02
-8.458879046846111578e+02
-1.184223533059997180e+03
-1.533883655277513299e+03
-1.986820158663000484e+03
-2.121120206698324182e+03
-1.984015433188901170e+03
-1.920257979929014027e+03
-1.685766805080492304e+03
-9.787145966765755247e+02
-3.591622496129153319e+02
1.769397157215603613e+02
8.556217930618886385e+02
1.381983516884394703e+03
1.802018898106102597e+03
2.024766935858692023e+03
1.731263342218433081e+03
1.084402973480748642e+03
6.632129470419495192e+02
5.567306709266388225e+02
-1.091307161960730099e+02
-6.853830356111577657e+02
-7.940989783481447830e+02
-1.168357098634038948e+03
-1.661969439711802352e+03
-1.624845343516164576e+03
-1.747052482033467641e+03
-1.829489031707184040e+03
-1.696096374670416026e+03
-1.309111887593946904e+03
-7.515986329697785777e+02
2.795942757283166884e+02
1.276561180685408999e+03
1.619222028640561803e+03
1.910612419337564234e+03
2.274740458175965614e+03
2.249436509271029536e+03
1.885650183685878119e+03
1.315324331465654041e+03
6.414069398497358634e+02
-3.508075239512857735e+01
-8.281644842107757540e+02
-1.537875664679760803e+03
-1.953246823600020207e+03
-1.612309876671507254e+03
-1.297150165804142262e+03
-1.061745122303427934e+03
-1.236947469686782597e+03
-1.141765449261747108e+03
-1.558296648551599901e+03
-2.597460670251735326e+00
1.368301661790609842e+03
-5.605679643033805633e+02
-4.059134531511164823e+03
-4.470409257759305547e+03
-3.697417683671621944e+03
-3.955170693694820784e+03
-4.344698565371143559e+03
-2.941044410210389742e+03
-1.602100826885550191e+02
4.288617137636985035e+02
2.100566990542131407e+02
-3.669797557460495341e+01
-4.885114304573359050e+02
-2.722038348785762878e+02
-7.098547911766333982e+02
-7.305534359142116045e+02
-2.383143800657236113e+02
-4.822848417590897157e+02
-8.346375803376827207e+01
6.701622724207036299e+02
1.641587078346169392e+03
2.579860861260840466e+03
3.076023208616750708e+03
2.995055406490551832e+03
2.810907200513528096e+03
2.344494495631151040e+03
1.859958682185474345e+03
8.452942020474738456e+02
5.846199957386190960e+01
-3.606582959128083985e+02
-1.130876255596139828e+02
4.342493644595817273e+02
6.253556925786059537e+02
2.220987198100771991e+02
7.140511681832448687e+01
1.581859033472335341e+02
7.333997293445823971e+02
1.379080627752171495e+03
1.505286454365933423e+03
2.009009560866037418e+03
2.728211566619123914e+03
3.376978882718698515e+03
3.399261482132724268e+03
3.576059548988492224e+03
3.027294352382381476e+03
2.196895076487165625e+03
1.663941264983531028e+03
1.009333037008512406e+03
2.719972119067125504e+02
-3.380559797479424446e+02
-1.282781735393624331e+03
-1.625045235315817308e+03
-1.284817645935611608e+03
-6.502584534286490907e+02
-2.533911310605794540e+02
5.128957734228247318e+02
1.863529673469212867e+03
2.590477781826664341e+03
2.567700960941630910e+03
2.679081992899737543e+03
2.845562512793875158e+03
3.508226035874071840e+03
4.019969258401602929e+03
4.623792650466662053e+03
5.376858279286230754e+03
5.018291352808727424e+03
4.357031944715155078e+03
3.892986854563555426e+03
2.967215117968191407e+03
1.920768551818824335e+03
9.626591652618648141e+02
-1.051577569306749922e+02
-7.798334371702877661e+02
-1.799407950485091533e+03
-3.093738777108746035e+03
-5.208965198139414497e+03
-8.314414908950608151e+03
-9.931894582859875300e+03
-1.024942057720252888e+04
-1.000488271455854192e+04
-5.412232788068927221e+03
-2.100406733897709273e+03
-2.805376546170399706e+03
-5.403174392476696994e+03
-5.611638787673766274e+03
-5.402616469411755133e+03
-5.300065474519906275e+03
-5.990998821978040723e+03
-5.794487822336597674e+03
-5.330635468553526152e+03
-6.329537662040153918e+03
-6.621204117046299871e+03
-5.723763845341935848e+03
-2.411218668274099855e+03
-3.347356868575498538e+03
-4.713074246437266993e+03
-3.685505381978373862e+03
-3.414796826814704673e+03
-2.418964226391018656e+03
-7.057474778613466242e+02
-4.070379958965940546e+02
6.425188110740907632e+01
4.117294809845958298e+03
5.247920617225280694e+03
2.303963392481536175e+03
-1.110446159324322707e+03
-3.227160731216300519e+03
-4.532346321363106654e+03
-5.759913674783185343e+03
-5.626793271694479699e+03
-1.022657790069641237e+03
2.406570085345246753e+03
3.603577891893158721e+03
2.749039056036338934e+03
1.534171177358524801e+03
1.532991249674237451e+03
2.541288744684826725e+03
3.712081105475124787e+03
3.820697545894928680e+03
3.469263940801788067e+03
3.555495992868674421e+03
3.719333214709216008e+03
3.316818851625229399e+03
3.688592938193846749e+03
5.332911524952586660e+03
6.509386177871609107e+03
6.301169264111606935e+03
6.105395037517923811e+03
6.353722890917634686e+03
5.601830725638928925e+03
4.831876066613001058e+03
3.346541920629450487e+03
1.080523083138354878e+03
-3.331304249801199262e+02
-1.022266839750290274e+03
-1.130847954477169424e+03
-1.409745946089066365e+03
-1.754906790095203860e+03
-2.377454525291945174e+03
-1.398939141394763965e+03
8.157339409545054423e+02
2.465426789796720641e+03
3.836286194648286710e+03
3.573238825142601399e+03
3.829512834186158670e+03
4.625078050617504232e+03
4.237693688112211021e+03
3.404535103575996800e+03
2.519214865600196845e+03
1.902177390575932350e+03
4.834249508167087015e+02
-1.150116021675177990e+03
-2.545813488425446849e+03
-2.300586413386037748e+03
-1.952482684822349711e+03
-2.919183237257479050e+03
-4.878634222121558196e+03
-3.983292269465373465e+03
-1.600309757698509657e+03
-6.121046345761467364e+02
-9.196615535336640050e+02
-4.445511270346294737e+02
5.898217065872950116e+02
2.612557384515075228e+03
4.445775229636607037e+03
4.094248850978912287e+03
2.291951423095845712e+03
1.889043542925955990e+03
3.274408433745177263e+03
4.137848280208045253e+03
2.985483797620925998e+03
1.107311783158615299e+03
-8.868457836970144399e+02
-1.450025546005786737e+03
-1.930175186436836157e+03
-2.193279930125565897e+03
-9.071931488666238010e+02
-1.639444727510004043e+02
-4.767482944087867622e+02
-6.765918494598588495e+02
4.125911563042676562e+02
2.428850037856329891e+03
3.923247350926162653e+03
4.880807240225574787e+03
4.450568657399755466e+03
4.664611555882164794e+03
5.131998426407662009e+03
3.771656235812587965e+03
2.263487785721925775e+03
1.879606702880373177e+03
1.529961844074095723e+02
-3.290373524269266454e+03
-5.761522244648535889e+03
-6.570468349545055389e+03
-7.114247775873785940e+03
-8.431912883521483309e+03
-9.294456121214363520e+03
-9.928827536551480080e+03
-9.047943316137801958e+03
-7.550886371420766409e+03
-7.534559476337077285e+03
-4.945866661047997695e+03
-2.801974070164409113e+03
-3.677614580260998991e+03
-3.860847937315465970e+03
-1.635654331472076365e+03
-1.171019030384512916e+03
-2.253998806491311370e+03
-2.688528126252998391e+03
-3.890671401801985212e+03
-4.726416920344760911e+03
-5.579806991452453076e+03
-3.086838011093165733e+03
-3.734718981404116676e+02
9.126234930787347821e+01
-2.436264944129458172e+02
-6.221139090005425487e+02
-9.512568372426106862e+02
-2.580636405592512119e+02
3.974843000569462106e+02
1.301402327996359190e+03
2.137776715264767518e+03
2.139693953427920405e+03
2.458173028239219093e+03
2.999237185892781781e+03
2.039865152152395240e+03
1.110098605731243879e+03
-6.540709401568061594e+02
-3.793664416126041033e+03
-5.158671893009180167e+03
-5.372055777551671781e+03
-5.643932694054809872e+03
-4.269286744916711541e+03
-1.738050554950957348e+03
-1.567286347274663967e+03
-3.127016262186275526e+03
-2.809158274805988185e+03
-7.227654951992856240e+02
7.651213520666597105e+02
3.125556129626299480e+03
5.616558378058068229e+03
6.635145059174727976e+03
7.126356396462193516e+03
7.409234091175777394e+03
6.808829212710407774e+03
6.284130776039080047e+03
5.773132443053769748e+03
5.134885468351284544e+03
4.137412153151583880e+03
3.051684567603064806e+03
1.104657473913837975e+03
-5.056339900814921862e+02
-5.225228337998945705e+01
1.045795815550090765e+03
1.404512023649744378e+03
1.075953641562998882e+03
6.129398619472143537e+02
2.463534252698712805e+02
6.673978236297956528e+02
1.392410654045868114e+03
2.130353270686258384e+03
2.561102050794009301e+03
1.983785700602695442e+03
1.827445814277462205e+03
1.939907810060696420e+03
2.516217796815180463e+03
2.173433579208155152e+03
1.099364440375760978e+03
-5.150944272193793267e+02
1.540448848294230402e+02
3.517083477477598308e+02
2.909066542991313895e+02
6.586711168873423503e+02
7.690132532868702242e+01
-3.393894628181837447e+02
-6.352579663217659345e+02
-1.085712705250921545e+03
-1.166730958485495648e+03
-5.123427882699623979e+02
1.634582729514444566e+02
-2.013159717940651774e+02
-1.633696846944704248e+03
-1.224661268261770829e+03
-6.321793980788154386e+02
-2.492080568830955372e+02
-1.167803887968585286e+03
-1.636010575600954553e+03
-9.768713079761608924e+02
