-3.219631433624685542e+03
-1.577279566130275953e+03
-2.128389915563397153e+03
3.720131385289535615e+02
-1.096122044908881662e+03
7.133093924017761083e+02
2.172573584864479471e+03
2.303516359020136406e+03
2.606967551881680265e+03
2.731995516361963837e+03
2.396626160060218353e+03
1.873970730866292342e+03
1.303046801150027477e+03
9.879388655890510336e+02
6.176548452666595495e+02
-1.385676039809547255e+01
-2.286549476422048031e+02
-5.636977069689635300e+02
-1.317065297379359208e+03
-1.101779668412917317e+03
-9.749125784919536954e+02
-6.326678954634514866e+02
-3.358287127686999156e+02
3.397785408899824233e+02
1.060080148167360903e+03
1.460090090930754059e+03
1.692161714964589919e+03
1.850299268258716893e+03
1.814293607057576310e+03
1.992313708814946722e+03
1.289388202782107328e+03
-7.775346757280930206e+02
7.545726005404645775e+01
5.302720971831810175e+02
5.898472906536536584e+02
1.502991852546363702e+02
-1.284775296162770815e+02
-7.306865672045541942e+02
-1.209372115140024789e+03
-8.996605301234674243e+02
-5.464990299263666884e+02
-1.658883835857103008e+02
6.114965853810693943e+02
1.093816356582053686e+03
1.583655663233416590e+03
1.755747268247072725e+03
2.728303177997232979e+03
3.362282060011042176e+03
3.242722440280934279e+03
3.168504160149889231e+03
3.179721665520075021e+03
2.586600418633147001e+03
1.737026279731508112e+03
9.508309450738738633e+02
7.068617993239994348e+02
2.568089924416638041e+02
-2.347358701326859887e+01
-1.701313335057616314e+02
-4.190401096411295612e+02
1.997973227442235782e+02
7.952834002680457388e+02
8.353155560420393613e+02
7.569079404320084450e+02
1.115002562030787658e+03
1.830518279439021853e+03
2.312425715051471798e+03
2.552808144962797542e+03
2.829756162805672375e+03
2.903187345978947178e+03
2.988000308544972540e+03
2.825136068506431002e+03
2.681619501381764621e+03
2.203321586408868370e+03
1.957200035516783146e+03
1.337196808444786257e+03
7.603289413108218469e+02
6.825369990553014077e+02
4.426825390655072283e+02
1.696759507054806875e+02
-1.334782243633849816e+02
-2.167372364254498223e+02
-1.331102169330968081e+02
4.784914723023484839e+02
1.339210851827366469e+02
-1.591942087567884528e+03
-4.665995378508941030e+03
-5.042019427512804214e+03
-4.623053326601242588e+03
-3.922348216544136903e+03
-3.619120642749239778e+03
-3.738442538616936417e+03
-3.392224501360634804e+03
-3.884457863435266063e+03
-5.116149854949457222e+03
-5.648236541252118514e+03
-6.194772614216862166e+03
-6.759864349631738150e+03
-7.029594208262637039e+03
-6.909789415332183125e+03
-5.309562754156027950e+03
-6.119013615774827485e+03
-6.626997300997403727e+03
-5.160658979513943450e+03
-4.646101307317810097e+03
-3.670281541141422167e+03
-2.107113043438117984e+03
-1.148523684295499606e+03
2.765155158418431256e+02
4.880975354700166463e+03
6.450859228456860365e+03
6.014088456441009839e+03
5.135662595579103254e+03
3.832587256933539265e+03
2.993870958933112433e+03
2.197442512006469769e+03
1.945374437709654785e+03
2.055682043015378440e+03
2.319306605279368796e+03
2.167243326270325269e+03
1.684487370902219709e+03
1.824065395127443253e+03
1.362058374284768206e+03
1.327496340744685767e+03
1.905380425521505231e+03
1.737825296696878695e+03
1.593888644195069674e+03
2.264609109715457635e+03
3.288996081331710229e+03
2.694040491240774372e+03
2.498743183062013486e+03
2.544200262699279392e+03
2.652358281510748839e+03
2.392229097303819799e+03
9.569861929952305672e+02
-6.583658097669524523e+02
-1.780853789754337868e+03
-1.643570091680381893e+03
-4.485895137731242244e+02
-7.367722483259700539e+02
-8.990117839192248539e+02
-2.193157285259914602e+02
2.553277668349442138e+02
-7.839950258742868527e+02
-1.204268413368634583e+03
-6.003995515043789055e+02
6.976947638681920125e+02
1.677103228993419179e+03
2.532933651001064391e+03
3.777237317551914657e+03
4.685993397708261000e+03
3.873302868897801090e+03
1.746449917018873748e+03
-4.253005858943677708e+02
-1.398993986485456617e+03
-2.380670229034424665e+03
-4.947094700729561737e+03
-7.560298158209568101e+03
-6.841560311376900245e+03
-6.276932000327398782e+03
-4.920292408628300109e+03
-3.955869246847358227e+03
-3.358220324689027166e+03
-2.734243104897666399e+03
-2.101995994904728377e+03
-3.032480683632573800e+03
-4.980676037783531683e+03
-4.599627198657707595e+03
-1.250228669258955733e+03
2.807676660365676526e+03
5.197220740042640500e+03
3.680446976542790253e+03
1.121279268878328821e+03
8.366619314198972006e+02
9.776771602279864055e+02
1.480354369356385860e+03
2.870744260731138183e+03
4.176901396933516480e+03
5.452840221399495022e+03
5.442582424629843445e+03
3.863174967845799529e+03
2.125629625256771760e+03
8.039462678453028275e+02
4.825060608459799738e+01
-2.816348088932331393e+03
-5.573781143716759289e+03
-5.871019324224456795e+03
-3.608102839076259443e+03
3.980351211890815080e+02
3.495467118886353546e+03
2.648246486945196466e+03
-7.765677932860720603e+02
-4.712917535485132248e+03
-6.164798469471839780e+03
-5.263301450807473884e+03
-5.637435486603628306e+03
-6.729111332487011168e+03
-5.071348352005838933e+03
-1.811165161273419017e+03
1.317407527123201589e+03
3.753386979394461832e+03
4.684818727989948457e+03
3.937682712708208783e+03
2.859003938752871818e+03
2.379814304200643619e+03
1.148146916559406918e+03
6.661084023385419641e+02
1.797697205865835940e+03
3.272921875456178441e+03
2.790754800578268714e+03
4.247236360592668461e+03
5.868448630683151350e+03
4.456364194635250897e+03
1.760850130618246340e+03
-4.930518334581548743e+02
-9.433076631083414441e+02
-2.699856004129968596e+02
-1.476164301718751858e+03
-2.704853922166738357e+03
-2.544145983662260733e+03
-1.217043149129494168e+03
-4.194948130153109673e+02
-1.192492221026016296e+03
-2.328148855591411120e+03
-2.287631226840193449e+03
6.815334459619120935e+02
3.108279149487572340e+03
3.940510765619670110e+03
4.873573197141182391e+03
4.951054357913654712e+03
4.118978972049576441e+03
3.482144245799758210e+03
3.667977225955318772e+03
2.725327383369638483e+03
1.617858286159688532e+03
1.454927717960935979e+03
-1.376750311467808615e+03
-5.197666012997122380e+03
-6.957389393540293895e+03
-3.729160768052038748e+03
-2.341377780461439500e+02
2.231942440761788930e+03
4.264979630674311920e+03
5.005056916978588561e+03
6.089818956779820837e+03
4.065265827652664029e+03
1.928833627733746653e+03
1.193198445753477472e+03
9.298070184251753290e+01
-1.888394340940364827e+03
-1.438174642130491975e+03
2.807541274425777829e+03
2.348695997732442265e+03
6.403892984659815966e+02
3.892529593491102332e+03
6.220106938744970648e+03
4.374919217301108802e+03
1.321192883963185295e+03
-1.600640963205909770e+02
-1.442016487170079699e+02
-3.311953116819601632e+02
-1.548088485935153130e+03
-1.472887764936928988e+03
1.368120916896510153e+03
2.805300229581693657e+03
2.012604994036212474e+03
5.888554408108726648e+02
-3.959948793402581373e+02
-2.799543809670018391e+02
-6.190871323649076885e+02
-3.253702257987677058e+02
5.421377078859772070e+01
2.176101719858546915e+02
8.687705018417698284e+02
1.334597699834643208e+03
9.050273395374931624e+02
4.421124771072596218e+02
-5.222782889958511987e+02
-4.218189839966041291e+03
-6.072667298814348214e+03
-6.517689796142396517e+03
-8.169315460135107060e+03
-9.604564606564761561e+03
-6.303392059867408534e+03
-3.250812366852298055e+03
-3.274823811813334942e+03
-3.123413574938236707e+03
-3.638595670611691276e+03
-3.040261661472629839e+03
-1.954292540343320297e+03
-1.390940972188474689e+03
-1.616204853167363581e+03
5.049594558593204283e+02
6.965505104093183490e+02
-2.286542525054623184e+03
-4.230295983324278495e+03
-7.604680199921783242e+03
-1.106877830422098123e+04
-1.185764022623734309e+04
-6.282319276868324778e+03
4.511795969164804205e+02
2.879069242707574858e+02
-4.602166431069351347e+03
-3.964012615302969607e+03
-2.171661169065781451e+03
-3.638029166262187573e+03
-5.711023663381595725e+03
-5.958631992096631620e+03
-2.978789413123548456e+03
5.895444437857199773e+02
2.465388548507761243e+03
3.161689804394472048e+03
4.030418454432975068e+03
5.522583162454134253e+03
3.842187286872862387e+03
4.008230747707227238e+03
4.464729657854328252e+03
4.080623515819753720e+03
3.164919695527050408e+03
2.997665999265660957e+03
2.113850401891729689e+03
1.176504272980244650e+03
4.696578680434833473e+02
6.234062976030785421e+02
1.759791144205216597e+03
2.709828955947575196e+03
3.115587218599728203e+03
3.392071678146336126e+03
3.816297311178062046e+03
3.487278857656014225e+03
3.724073302556622366e+03
3.497675608949735761e+03
3.507116965433918722e+03
3.540445004449426960e+03
2.433644574415549414e+03
5.797022360275739175e+02
-8.732758176844915852e+02
-1.722223445054802824e+03
-2.066111724690923893e+03
-1.146993017065422464e+03
-2.116944256138491255e+03
-3.910867182749907442e+03
-2.762630332203525541e+03
6.589272887792791380e+02
4.146588136846646194e+03
5.529458082940029271e+03
5.285772549721938958e+03
3.865539823104580591e+03
3.321869705481968140e+03
3.184844522245457483e+03
2.372452254268215256e+03
1.792956916725161591e+03
1.423259663213327258e+03
1.048030801050430455e+03
2.230821286865446780e+02
-1.155251789248106320e+02
-1.746425919876024864e+02
2.675793144350976149e+02
5.533775627071262306e+02
3.998609842901393563e+02
-3.851195715505322141e+02
-1.180459114462724983e+03
-1.300447403032483862e+03
-8.050604232993875939e+02
-4.231252118821919908e+02
7.749871159930260944e+01
1.103381307436737870e+03
2.090462954676912432e+03
2.699942148851248021e+03
2.841927373428913143e+03
3.130515257556497090e+03
2.302646675074945506e+03
1.766241625724408777e+03
2.082198870263933713e+03
1.723490734856031395e+03
1.073095484981571417e+03
-1.329723901719137302e+02
-1.203630012438016820e+03
-1.687939699487392090e+03
-2.110833139716993628e+03
-2.719395539691456179e+03
-2.454663972349372216e+03
-1.795602624134276766e+03
-1.027188750524968555e+03
1.205623750744134384e+02
1.134698281485789721e+03
1.208320379050923748e+03
1.908398056881607772e+03
1.978900649383869904e+03
1.498863190676972181e+03
1.424126750512556328e+03
1.669757399135546393e+03
3.057807752034563691e+03
3.386247293441522743e+03
1.749030567533738122e+03
1.064002493696758620e+03
1.247219657731897087e+03
8.356304255833123307e+02
-2.248774417228179061e+02
-7.653209134751067495e+02
-1.254588557981986014e+03
-1.595673268576801092e+03
-1.739590543308654787e+03
-1.457430910978217298e+03
-1.273250324449611981e+03
-1.871101090757361817e+03
-4.127111940830133790e+03
-6.725182462101397505e+03
-7.171135479553126970e+03
-6.574871647504568500e+03
-6.636440134556772136e+03
-7.310947562399068374e+03
-5.605409901105142126e+03
-3.632668522958641461e+03
-2.689725855813541330e+03
-1.166876003320966220e+03
-1.257115444486819342e+03
-4.891504564585520711e+03
-3.763134247174081338e+03
-1.505953711774164049e+03
4.669946756914102366e+02
1.563640477146388548e+03
1.588092415479177134e+03
8.523731574534118636e+02
1.763799130770120769e+02
4.319300812498482856e+02
2.074912719978983205e+03
3.286348654072434329e+03
3.725480356958252742e+03
4.019373108243686602e+03
4.112886452363984063e+03
3.442951805677908396e+03
2.863499442049401296e+03
2.553478988497415685e+03
2.026881554669994784e+03
1.338582224919937062e+03
5.535975066678777239e+02
-1.099888503782760694e+02
-1.078151910670837424e+03
-1.482852204971806941e+03
-1.501086748436890502e+03
-1.104668633891794798e+03
-5.975106825178839927e+02
-6.118067328665234754e+02
-5.698135896154160491e+02
-3.316704273226598616e+02
2.436837989375768245e+02
9.175803184120758260e+02
2.046248386559264645e+03
3.190739905731369163e+03
3.038908215262887552e+03
2.523625237056758124e+03
2.275964252914293411e+03
2.258928326976120843e+03
2.244331370702460845e+03
1.655991700908311259e+03
1.080847935396108369e+03
7.459423059814841963e+02
-1.963381037493974191e+01
-5.508571327005386138e+02
-1.126656578867570488e+03
-1.365929995001422412e+03
-1.334587459191608787e+03
-1.193640703387589610e+03
-9.452782028865851771e+02
-9.525597706190134204e+02
-6.033466635676791157e+02
2.741823617212264139e+02
1.422057189177981172e+03
1.476568184914221547e+03
1.692843481627111942e+03
2.333843371397791543e+03
2.223822729167074158e+03
1.535836371196570553e+03
1.117779637302684932e+03
5.226932966977944943e+02
-3.184809255996046318e+02
-8.389595842530695791e+02
-9.677983636150676148e+02
-2.340910468833263167e+03
-6.440283097891519901e+03
-6.585822155669756285e+03
-6.246714635578801790e+03
-6.400958949648676935e+03
-4.005454799273479239e+03
-4.213205629116519049e+03
-4.607112082415779696e+03
-5.125991807592760779e+03
-3.346781245694266090e+03
-2.461622919753394356e+01
2.955905487057345908e+02
2.469981974977410573e+03
5.392559589924767351e+03
2.407550158671700046e+03
2.013148993430659857e+03
2.826276955504540567e+01
-2.539576778641256169e+03
-2.565129932460295095e+02
-2.240507549728740287e+03
-7.025873257902111391e+02
-5.966731449236499429e+02
-3.030752339277359624e+03
-2.144482578299364377e+03
3.791726742520155540e+02
-1.493846977286755418e+03
6.845215857373004837e+02
2.214385710985586229e+03
1.781611773932579126e+03
4.379010688191322629e+02
1.123645931141501705e+03
1.216953603811787161e+03
1.825409894420658702e+03
-5.293126853855805791e+01
-5.797915951284693392e+02
7.320382993668808922e+02
4.375035277079626326e+02
-1.351578264902028877e+03
6.181395278531230275e+01
-2.045160191179936419e+03
-4.659614959492089838e+03
-2.088829559418568351e+03
-1.857391871796721432e+02
4.078577118953638205e+02
8.581214532152592938e+02
1.255024259059454380e+03
9.665210295310409947e+02
1.188673424546639353e+03
2.372389047329004825e+03
3.412649661413925060e+03
4.070465347256530094e+03
4.309794851661492430e+03
3.902633174136153229e+03
3.954009938981197593e+03
3.539918994465451306e+03
2.697422732056769291e+03
1.637838010995142668e+03
9.710485873699594777e+02
1.589171639663223914e+02
-6.315306870268706234e+02
-9.142599753844198176e+02
-1.343663865639503911e+03
-1.674857914260584039e+03
-1.913588764811432839e+03
-1.975939321488489895e+03
-1.374042752287079566e+03
-6.537683489734516797e+02
-1.141303626919272318e+02
5.118965675881468087e+02
1.733230187594403105e+03
2.797938595297187021e+03
2.738054750759532908e+03
2.607616933494672594e+03
2.944524512244702692e+03
3.112049190681471828e+03
2.800074989527784510e+03
1.780653895124180735e+03
1.014991928997753803e+03
5.911291584005009554e+02
-2.886437509117277500e+02
-1.368052300400481045e+03
-2.225587651809472391e+03
-2.398388734399181430e+03
-2.196085470377388447e+03
-1.895564653100545684e+03
-6.399961799823490765e+02
6.211287609947652300e+02
1.842959672367281428e+03
2.286277287618606351e+03
2.701254710011907719e+03
2.831141531862340344e+03
2.929473780767405970e+03
2.931695432638851344e+03
2.770543543669235532e+03
2.482796698465664122e+03
2.120773359974893083e+03
1.541360063326076215e+03
1.753990691923610257e+02
-9.049841642938803261e+02
-1.619822898907296576e+03
-1.577227886456254055e+03
-1.433313526418011861e+03
-1.247119916356362637e+03
-5.586746999214876723e+02
8.707620744744527030e+01
4.791084708021063534e+02
8.093696672372439025e+02
1.229887964258178499e+03
1.489636263474714269e+03
1.358681490076845876e+03
1.393989758084734149e+03
1.326574012688154426e+03
4.395112934752306728e+02
3.718456709092750430e+02
7.755600015751190313e+02
1.566565592365936936e+03
1.663785323440051570e+03
1.015034798319711854e+03
2.094953605073575318e+02
-1.154729195653379293e+03
-3.180927710328395278e+03
-6.805274339240755580e+03
-9.394811270732830963e+03
-9.153448354300697247e+03
-9.382088328995614575e+03
-8.864645869668262094e+03
-6.734104030068133397e+03
-5.431450467499085789e+03
-1.211624658372443491e+03
3.140387245827689640e+03
3.572601686478377360e+03
9.979612437305336243e+02
-1.401523735088708918e+03
-2.068861982765168705e+03
-3.366081230910008799e+03
-4.369178964352179719e+03
-4.076172128820609487e+03
-3.624055721897669628e+03
-2.402806675747814097e+03
-4.463367675530515953e+03
-5.856779106146486811e+03
-5.556083283869265870e+03
-2.304254260186790361e+03
4.369242158718037672e+01
-4.372830595831979963e+02
-3.701500558543795023e+02
5.221793001517252151e+02
2.229738869617036471e+03
3.757530966870739121e+03
4.363655728170864677e+03
4.143155822796468783e+03
3.875954962692580011e+03
3.482101534045086737e+03
2.770667870691312601e+03
2.650712429692281603e+03
2.305284561389846658e+03
2.204338271353324217e+03
1.317864653738196239e+03
4.969143419539360025e+02
-7.425910584766527336e+02
-1.943675935729208049e+03
-2.616271548099642587e+03
-2.019384358358342070e+03
-1.425078591871532126e+03
-6.312297462818648910e+02
3.561824345504622329e+02
2.431225169421979899e+03
2.529997309590952682e+03
2.235489057225811393e+03
2.186751199607154376e+03
2.070714266450512241e+03
2.814470319510772242e+03
3.188224077013210717e+03
3.227972189747863013e+03
2.882654076264921969e+03
2.113297270694707095e+03
1.088977128240983120e+03
-1.403144086489018321e+02
-8.595326096308497199e+02
-5.276721943321427943e+02
-5.273091759945850754e+01
9.299785830101708228e+00
-2.605282158197574063e+02
-1.474226220258864487e+03
-1.363616032446873078e+03
-3.016062284882088989e+02
8.699171428411531224e+02
1.263991045022928802e+03
1.421638482268281905e+03
1.417993377407557318e+03
1.742909842566188672e+03
1.654285240486465227e+03
1.114236543408782381e+03
8.587644499991611156e+02
1.206147695237864809e+03
5.735152326022756597e+02
6.604067622318319764e+02
6.966355219090937680e+02
2.252075356085638305e+02
-3.118275523829958615e+02
-1.979393369897122056e+03
-2.929404100056234256e+03
-2.598781476074809689e+03
-1.608572823019577982e+03
-7.218882593442242523e+02
-1.326595030047572834e+02
-7.858716024025872215e+00
4.815572650055137842e+02
7.916235303108770722e+02
8.884008358063181277e+02
1.776916470876313042e+03
3.301243699157604169e+03
3.967398686808338880e+03
3.945419443602732827e+03
3.247316585923252660e+03
2.150142810405709042e+03
1.440865141303703240e+03
1.011408233729218978e+03
3.487706959751145064e+02
1.569407372334696333e+02
-4.771283667376026756e+02
-1.755429990520959564e+03
-2.454931087169566126e+03
-2.408666746647949822e+03
-1.657646211308037437e+03
-9.198231557549535182e+02
-8.992577258699276399e+02
-9.859752777185909736e+02
-3.488893860275868519e+02
1.899984790763300282e+02
-1.062532783433982928e+02
1.330645725777062305e+00
1.875154259099451792e+01
-1.099219582720625255e+02
2.952885964719358753e+02
8.243475941421378366e+02
-1.996905094873419841e+02
-1.311892616139264874e+03
-9.772817924380537988e+02
-5.228837857517479506e+02
3.122658126392429949e+02
3.771464503056192257e+02
1.607515433470258301e+02
-3.999374664043144207e+02
-1.646970660352819323e+03
-2.450393797975389134e+03
-2.963227910015569250e+03
-4.148356938191303016e+03
-6.837893546708726717e+03
-5.215878242705254706e+03
-1.260187805600994352e+03
-1.797943258113401157e+02
1.170239032771480424e+03
3.254943638346629086e+03
4.093333963086623044e+03
3.825312234784204520e+03
2.692836821235518528e+03
4.230655162636315936e+02
-2.399341106850735059e+02
-3.415223351666936082e+02
-5.766628415471649305e+02
-1.085166773903625881e+03
-1.779315788715602594e+03
-2.422901377160796983e+03
-2.107931973384919729e+03
-1.131368693414425707e+03
-1.359372516288408633e+03
-2.146154958693545268e+03
-1.920558709822442324e+03
-1.060741284187335395e+03
-4.458267014878048826e+02
7.946188218192800150e+02
2.294401703180240929e+03
3.050807616697999038e+03
3.004759829602627633e+03
2.971616637399944921e+03
2.434780540397390268e+03
1.542013011945499102e+03
9.313541165169997385e+02
1.169991230619125645e+03
9.656374955741616759e+02
7.081407908420369495e+02
3.508077238037550956e+02
-2.514557352062255404e+02
-6.737085523565765470e+02
-7.861262239139080066e+02
-1.998353466840979138e+02
1.592285587839646155e+02
2.342024229048799100e+02
7.030097022202833159e+02
4.889118767088311870e+02
9.799452015725818228e+02
1.770556899171218447e+03
1.473908805883892683e+03
1.025258721337435190e+03
1.304327669198841932e+03
1.210369956315578747e+03
5.114744616957655126e+02
-4.866975333628012663e+02
-1.360346388324149984e+03
-1.264493596012076296e+03
-1.464184174405265594e+03
-1.287457939490718900e+03
-7.142703077637313527e+02
-6.066923171496537179e+02
-5.138038692429979619e+02
-3.756296023100211414e+02
-7.315874199541794098e+01
2.636588752608091681e+02
1.888380605389873779e+02
-8.562961130693481948e+01
-2.087299057432016696e+02
6.005454282525687404e+02
1.386249327610877799e+03
1.864366436705068281e+03
1.396877783664626804e+03
1.348742598621943444e+03
1.484917084525000291e+03
9.083748870839881420e+02
1.092150502781566274e+03
5.962331803666475025e+02
-2.572369633361577144e+03
-3.203733062559643713e+03
-3.150871994418308532e+03
-2.783799321152328503e+03
-4.101533611823720094e+03
-1.534087928097684653e+03
7.315634164031417868e+02
4.944423302425340125e+02
-5.084457438021041753e+02
1.258814718246472637e+02
-1.500546516239407993e+03
2.231760425624996458e+01
-1.240470563184675711e+03
1.338062061635097052e+03
2.459864422826656210e+03
2.182016659637086832e+03
6.975380750142342094e+02
-1.169561728735946417e+03
-1.416312429416136865e+03
-8.807756685309780096e+02
-5.119525218159285487e+02
-2.734911572113171133e+03
-1.332660491065303404e+03
-3.488227346999583915e+03
-4.345522540542458955e+03
-9.825656790371996294e+02
-2.042303123540696788e+03
-1.866651411057276562e+02
5.903098929067448353e+02
-8.903496239630966329e+02
1.287476117245142632e+03
1.992849811091788069e+03
1.635779549229356007e+03
2.404340504721364596e+03
2.940539813951320866e+03
2.383358301670353285e+03
1.231739459863565571e+03
8.106475933590146496e+02
2.811052690682436719e+02
2.780651080244303444e+02
1.615279983755408750e+02
-2.104950563776676518e+02
-8.669754785963062886e+02
-1.235863740062369516e+03
-1.019145877755905531e+03
-7.697421286284072721e+02
4.345683933657908504e+00
8.981315064548078908e+02
1.629740781008018985e+03
2.522187780849055343e+03
2.958453585830748580e+03
3.025499805104801453e+03
2.153363746307455585e+03
1.728054354979129130e+03
1.540612738160191157e+03
5.012582311011221918e+02
4.620620783677382093e+01
7.964421585364401324e+01
-1.425058768142854433e+02
-6.404217065891760967e+02
-1.602038628475047290e+03
-1.874390825902429242e+03
-1.673592130910755486e+03
-1.439532726015896969e+03
-8.815013242962078266e+02
1.746106531826281696e+02
5.658430169462853883e+02
5.063401263835257282e+02
6.522745721355576052e+02
6.527633710072036592e+02
1.273837264085651896e+03
1.697246676636068742e+03
1.758110944368052969e+03
1.216438322603002916e+03
1.002141604918754751e+03
6.484890352680916976e+02
1.964619755650532511e+02
-1.560409325599991917e+02
-7.462955120318434865e+02
-1.462089272127645472e+03
-1.899411469629905923e+03
-1.603467309306531661e+03
-1.400309738416202663e+03
-1.139977776409687976e+03
-9.694643071205432534e+02
-2.757377407191674479e+02
1.553316200677043355e+02
3.507525701649681196e+02
8.815513359748472340e+02
1.209821280926953477e+03
1.873545858618677130e+03
2.194748738434981988e+03
2.110365297984123572e+03
2.070508744410149575e+03
1.495190394684744660e+03
6.483922280222309382e+02
5.572030630293822924e+02
7.065924418823067299e+02
-2.575747305587021287e+02
-9.923810606711534774e+02
-1.230854943114890148e+03
-1.586982786866621154e+03
-1.725846260851472834e+03
-2.116306261262926910e+03
-1.930359918917586583e+03
-1.611021819354866011e+03
-1.258273054632426238e+03
-6.991610306520660743e+02
2.653980452278639177e+02
1.102352688971187263e+03
1.439741900772040253e+03
1.587602787610574978e+03
1.586996190961609273e+03
1.726879389678800408e+03
1.612284545979341601e+03
1.232151802648113062e+03
9.573179851630362691e+02
9.058454964894323211e+02
-7.142485103360710355e+02
-2.956931541508735336e+03
-6.084346220077435646e+03
-6.879528033469298862e+03
-6.560509247929431695e+03
-6.889264841775245259e+03
-6.552741502444106118e+03
-5.763978362673376068e+03
-5.773013328503881894e+03
-5.182782762517121228e+03
-3.743387081473067610e+03
2.542327094190940784e+02
2.398223502996260777e+03
3.194640803650722773e+03
3.008400294222956290e+03
2.888468176544568905e+03
2.632771873137552575e+03
2.069314159118433508e+03
1.327191500637754643e+03
1.086334563835905783e+03
8.046047811806505479e+02
4.218768443116543949e+02
5.971080794059807886e+02
3.242723931140230320e+02
2.804066793293756064e+02
3.064914309341990020e+02
1.854628924743020946e+01
-2.804305205207377867e+02
3.634397674481960507e+02
8.580893326620212065e+02
1.508619906981771010e+03
2.015040987050061858e+03
3.236384105419936986e+03
3.628719355631991675e+03
3.374020975492125672e+03
3.327237088656035667e+03
3.564324960845307942e+03
3.394254824082786854e+03
2.700080722919208256e+03
2.315764825701617610e+03
1.533221085263856367e+03
8.624195137730255283e+02
9.553100319543976866e+02
9.668785972930805883e+02
9.571097688915292565e+02
8.730866297401153133e+02
2.217299457667408831e+02
4.420536912853733611e+02
6.161535013386226183e+02
9.019481682728558098e+02
1.596439230100671239e+03
2.099632737766819901e+03
2.465472831915380539e+03
3.203926237538038094e+03
3.388169953809209346e+03
3.224181531738649483e+03
3.063744948688310160e+03
2.789851698564566959e+03
2.471492744028601010e+03
2.339613075025443322e+03
1.839289979680993383e+03
1.116539542161903455e+03
5.013651109540215316e+02
2.147865863424204065e+02
6.908806319544693224e+02
8.367353296130349349e+01
-4.727113736772736843e+02
5.940353748083096974e+01
6.067790221525514198e+02
7.706134398201498925e+02
1.347792867923423501e+03
2.086270737509274568e+03
2.054157376540922996e+03
2.050488609894329784e+03
3.035385162081088765e+03
1.682965309910397991e+03
-1.154802241891625954e+03
-3.382038317831854329e+03
-3.691752853846555354e+03
-4.655920107798194294e+03
-5.168540331192763006e+03
-5.948615859139176791e+03
-6.350175553124377075e+03
-6.093255347915974198e+03
-6.018747555713031943e+03
-6.192572080221984834e+03
-5.942775929740089850e+03
-5.534392516002881166e+03
-5.118416048537641473e+03
-4.685920692829226937e+03
-1.775903738793316052e+03
-1.382806729630210896e+02
-1.595982736395043958e+03
-2.046022997106464800e+03
-1.818301118439045695e+03
-1.972878904381690063e+03
-2.325789524637922568e+03
-3.086110452152840935e+03
-3.575752819458323756e+03
-4.305672458156630455e+03
-1.602880566254743826e+03
1.205654202322784613e+03
5.169579690422831391e+02
-3.242946656614362382e+03
-4.640089805803560921e+03
-4.701463953777179086e+03
-4.927020896735618408e+03
-4.120685372415536222e+03
-1.040396349500395218e+03
-2.660166738719361547e+03
-3.772110239541854753e+03
-3.152088960010809842e+03
-2.547954674793739741e+03
-1.857735362695608956e+03
-6.333152408189582729e+02
2.245379881859668330e+03
3.277334626445640424e+03
3.497452803124686397e+03
3.419532260940348806e+03
3.090558564334707171e+03
2.830515124943749925e+03
2.287351377037762177e+03
1.972173026470761670e+03
1.603988507473920890e+03
1.314755448695102814e+03
1.531537687460858933e+03
1.448317497826042199e+03
1.866147551365388608e+03
2.201283448394390689e+03
2.241847796951107284e+03
2.702598406579136736e+03
3.430341530050764959e+03
3.871950227153419746e+03
3.790595595724991654e+03
3.618311463078589441e+03
2.878193318465839184e+03
2.562265066833454057e+03
2.140322629323989531e+03
1.976443447114758783e+03
1.604151357369728203e+03
1.325500373805531126e+03
8.250943638047584727e+02
2.247258900633310645e+02
2.457016513091720071e+02
8.313877758396746458e+02
7.720915653881746721e+02
6.479940936539441054e+02
7.650805799604371487e+02
1.196384348837956168e+03
1.837104115071443857e+03
2.426874921175438885e+03
2.768169535348342833e+03
2.617800329619875811e+03
2.827809934306152627e+03
2.799242801739381775e+03
2.804166670319031709e+03
2.939744332619583929e+03
2.568912569354007246e+03
2.174648318033435771e+03
1.880675124019405530e+03
1.652474882175455605e+03
1.127455057446846467e+03
9.603820124914647067e+02
3.666888972804858327e+02
-5.860019935065568575e+01
2.053963738669035308e+02
-3.374581544492305625e+02
-1.072197372305575072e+03
-7.148434600378122923e+02
2.472867980584366876e+02
9.833029078484528327e+02
1.615502172562352825e+03
2.271686507589076882e+03
2.768787066468222747e+03
3.131855582975819743e+03
3.000989372045156870e+03
3.036226749472095435e+03
2.856572306072298034e+03
2.542003339604189932e+03
1.899638710808764245e+03
1.249630868462438912e+03
1.067051986135330253e+03
6.568297760478396867e+02
5.667092002641232966e+02
2.875313982724161406e+02
-3.107394607616435565e+02
-6.452505191210935891e+02
-3.940405392258001598e+02
-7.412187030092913176e+01
7.873885764528894526e+01
-1.622737003398149795e+02
-1.622210062697811509e+03
-3.662073089626341243e+03
-4.395970822632830277e+03
-3.781933129804701821e+03
-3.220008670908495787e+03
-3.681217030530063312e+03
-4.271540879103338739e+03
-4.879939080631386787e+03
-5.532394390700892473e+03
-6.068955439182297596e+03
-5.844652156300430761e+03
-5.910484809109373600e+03
-3.233378755365828511e+03
-3.255352693387726049e+03
-5.253309462618864018e+03
-6.165980062687690406e+03
-4.382642017501988448e+03
-2.887602686028024891e+03
-4.884808606577236787e+03
-4.567115455225451115e+03
-3.956497755066912305e+03
-3.525660681700213900e+03
-3.104303413491680658e+03
-2.771719102207002834e+03
-2.215095551439239898e+03
-1.786360950709682356e+03
1.577357555681708845e+03
3.004996835848163300e+03
2.267631307697882676e+03
1.493310359266126625e+03
1.109225329414224916e+03
8.583164465395146863e+02
1.123067099455035986e+02
1.400069835563950349e+01
-2.593296597285187772e+02
-6.133100269850971245e+02
-3.561366099183662755e+02
1.730984404693636804e+02
7.822699963975703668e+02
7.464059471822066598e+02
1.247671214192030675e+03
1.829149984277174553e+03
1.488934041097846375e+03
2.016980334753983925e+03
2.583152987600914912e+03
2.794454818498236364e+03
2.055011097700164100e+03
1.139785304884508150e+03
6.657272075146933048e+02
5.759404871554480678e+02
5.873577616735854008e+02
1.789624396365540804e+02
-3.151501745492225837e+02
-7.528833739306002144e+02
-9.064103835940966292e+02
-8.376787783240756369e+01
-4.888893679726422903e+01
1.401710386775192489e+02
3.464909613601551541e+02
1.035113501485598363e+03
8.260087610500401070e+02
1.444329531054559084e+03
2.658139826920834366e+03
2.266351310049258700e+03
2.444951445531811260e+03
2.683916548284877081e+03
2.340265757347357976e+03
1.323113575684950320e+03
9.315776694858076326e+02
5.895764371233336760e+02
3.105097521554642626e+01
7.605067563524733032e+01
-4.335748013807976804e+02
-1.057888986109825510e+03
-1.195879497353980469e+03
-3.305670695305168010e+03
-4.807998533887714984e+03
-3.715976500194204618e+03
-2.464456438117049402e+03
-1.139268601832591685e+03
2.614056306720548832e+02
5.885284089138008312e+02
1.065151174209242527e+03
1.729326753286778057e+03
2.267063295410291175e+03
2.581211147495851037e+03
2.382701587543821915e+03
1.938694330883152134e+03
1.125140146382686680e+03
4.438778674595017719e+02
3.182212105275389646e+01
-5.403977374174419879e+01
