1.179191125180045532e+02
-1.331670656040029826e+03
-5.843557485738592732e+03
-5.977635405591970994e+03
1.355295884881062420e+03
6.259247056044679994e+03
8.992140380754683065e+03
1.008796796705466295e+04
1.047078942825098420e+04
7.699594931019611067e+03
3.784407775793241854e+03
1.512279163824938905e+03
1.984205846025988421e+03
1.558108105794286075e+03
6.939425578351463173e+02
1.082668169377717959e+03
-7.395657163871243256e+02
-3.706567664294250335e+03
-2.730381971249421895e+03
-3.229940171880200523e+03
-9.613321565847883221e+02
2.059634633300152927e+03
1.602764765055848173e+01
8.157665172763432793e+02
3.569860546016087937e+03
6.442289319582089774e+03
7.384255283486944791e+03
6.246578388276855549e+03
3.914335447786867917e+03
-1.351460578095525989e+03
-5.161959488280414007e+03
-6.024153677309946943e+03
-6.342830169909977485e+03
-5.002992091338232058e+03
-6.878040218109499619e+02
2.546890146639528211e+03
2.580985453871239315e+03
4.773565737632366677e+02
2.243352459709929008e+03
7.476590554728510142e+03
1.059945277521709249e+04
9.347534279625648196e+03
4.346094848670819374e+03
1.895408555025796431e+03
3.390384032547942297e+03
5.041183193827349896e+03
3.878723441627921147e+03
9.407425557217013647e+02
1.043236135249046356e+03
2.201344311967074646e+03
5.338035637801716803e+03
5.955150519038729726e+03
3.696731986499311915e+03
-1.442207040621496390e+03
-4.048674925615916436e+03
-2.740786934204853424e+03
-7.215600651545831852e+02
-5.979157283162451222e+02
-9.528370975138961967e+02
-1.762283156397719495e+03
-9.991714977286492285e+02
-1.373497347250878420e+03
4.586950592779560338e+02
2.085421743264895667e+03
6.770845588060589648e+01
-8.203921656945063887e+02
1.053073496442215173e+03
1.866038533440608944e+03
3.564472263220558943e+03
2.185331797997430385e+03
-8.723426808746744427e+02
-2.725557860564500970e+03
-5.262337692664408678e+03
-5.168659193402424535e+03
-4.415038161869434248e+02
2.134103476123808832e+03
9.600924922417650578e+02
-3.695535112607515202e+02
-2.179775749574391284e+03
-3.490537949283479520e+03
-4.235798266020528899e+03
-6.015581762668255578e+03
-6.156941484052864325e+03
-5.997931623783989380e+03
-1.059862361083544965e+04
-1.428067619581221334e+04
-1.158419081430464030e+04
-7.367220173833433364e+03
-6.935832645571962530e+03
-7.867832997546938714e+03
-6.083483273535924127e+03
-7.758787435155710227e+03
-7.928661335287682959e+03
-4.524243469510119212e+03
5.324734601602694966e+02
4.841553096781005479e+03
4.471957849237484879e+03
1.967611063853223868e+03
1.716564883119310025e+03
1.087824730550527875e+03
5.320145810735388281e+00
2.208004862462845267e+03
6.083917888820245025e+03
7.368144944990368458e+03
6.250786843135111667e+03
5.306827090492591196e+03
4.539196734494144039e+03
3.272793337316023553e+03
2.208661837053776708e+03
2.194716214228380522e+03
2.055936244984006862e+03
2.781326152008434292e+03
2.619864930334027576e+03
2.838574590938475012e+03
9.664267217741486320e+02
-1.016601260673959246e+03
-1.585520518934394431e+03
-5.104290964337246805e+03
-6.699845862965836204e+03
-4.164231352232504833e+03
-8.624205362450674102e+02
8.006458017971408481e+02
1.525985252370484432e+03
2.020610015013839529e+03
2.378383870167018813e+03
2.604288605672997164e+03
2.536375615514060883e+03
4.403700690994262914e+03
4.413323730726600843e+03
3.874260125291420536e+03
3.347239874554086327e+03
1.731135727281947766e+03
2.880884729786644129e+02
-1.621851761930534849e+03
-1.639675671720080345e+03
-7.324981285225384227e+02
3.246272103883918021e+02
1.623732028377048664e+03
2.069842830729457091e+03
1.384037136491325782e+03
-1.146389486284969337e+02
-4.321115239973235589e+02
-2.203289636068506070e+02
4.383653854250507464e+01
6.724578100135495333e+02
7.244414457854903731e+02
1.168685671684760564e+03
3.126347875086536078e+03
4.229189207887982775e+03
3.326235769266542775e+03
6.996268076664221098e+02
-6.367065661696680081e+02
-1.281800050464701599e+03
-1.570747594272015704e+03
-2.774603523821393992e+03
-2.950464461474207837e+03
-3.450363174560483458e+03
-2.722379655588249079e+03
-2.323614406011530718e+03
-2.730855820443822267e+03
-1.814991080156605904e+03
-9.809756769483908556e+02
-8.277321832537422779e+02
-8.862114666524895483e+02
3.415653792708767469e+02
2.085571408549257740e+03
2.986728635221095374e+03
3.178118667789812662e+03
2.700658342710539728e+03
2.665058951341202373e+03
1.649555092247952416e+03
2.272717341718671662e+02
-1.178911991378042785e+03
-5.820192179768133656e+02
-1.197101682099334084e+03
-4.045257882989967584e+03
-3.818472649021422058e+03
-2.486752976336769734e+03
-1.832935734305401411e+03
-8.740418417006769687e+02
-1.871580917211176995e+02
-6.391089183532798188e+02
-3.929226406757599079e+02
-2.576464330539199636e+02
-1.667112053324815179e+03
-1.725307306172226845e+03
-7.254118242993857848e+02
1.907534037998759686e+03
5.517740942933535734e+03
4.955329017706973900e+03
2.525421425516438376e+03
2.478627989371868523e+01
-2.292779208188808752e+03
-4.431509484562469879e+03
-4.149316415381645129e+03
-3.130120209705886737e+03
-2.168875187343579000e+03
-2.713798647948210032e+02
3.246309859190495786e+02
1.210890080861749993e+03
2.634810244538823554e+03
2.387479452036424846e+03
4.620567125450443200e+02
2.524574878835005336e+02
3.386565556873819673e+02
6.386429963272588139e+01
2.067174082969634583e+03
4.024666727112811259e+03
4.257361132001945407e+03
2.637113806278602169e+03
5.998288555395220101e+02
-4.203436005451070514e+02
-8.040027297601401415e+02
-3.710918590411483819e+01
2.371714359493400366e+02
-6.697354711041186874e+02
-1.554652861664025295e+03
-2.283338943530368851e+03
-3.186766538549343295e+03
-1.427822888401006139e+03
4.552118570380264941e+02
1.284159051067612154e+03
2.386981932228329697e+03
2.480919300702884811e+03
2.194093408107811683e+03
2.013522322195986362e+03
2.356423046271493604e+03
1.639490453230748471e+03
1.552027632798641434e+02
7.508580479211228749e+02
1.133778260938994890e+03
1.395472167442048317e+02
-1.573724621770363456e+03
-2.876066575666344761e+03
-3.421689340426994477e+03
-3.603390298211508252e+03
-2.647805059828851881e+03
-1.284369784176477197e+03
-1.046350592348261671e+03
-1.056718525904015451e+03
-3.914082298412570822e+02
1.026692470910467819e+03
2.168648527467575605e+03
2.465552931246679236e+03
2.425403787983009352e+03
2.381989806199793293e+03
1.719481853364850622e+03
7.930539923324386109e+02
7.600147735173951560e+02
1.492482831262563820e+02
1.652438270340529414e+02
-1.527849182090578211e+02
-1.404033092718694206e+03
-2.280983015830530348e+03
-2.464516542237004160e+03
-2.377723478643959879e+03
-1.845407273734317414e+03
-1.206654090571374809e+03
-1.470353100489248391e+03
-1.947160508711245484e+03
-7.163611353790466865e+02
6.323511490032447000e+02
1.332048572638949054e+03
1.637847782775451833e+03
2.186834741320626108e+03
2.379076113419721878e+03
2.324855195248319433e+03
2.486345217364909786e+03
2.422441340662114726e+03
1.954918338971551293e+03
9.828200507380843192e+02
-1.379800821758293296e+03
-2.946018829371589618e+03
-2.241664450377435060e+03
-1.775650790854784873e+03
-1.304302836343419585e+03
-2.632486578684245615e+03
-3.544416357110101217e+03
-3.478216637690073185e+03
-9.384635284450836252e+02
2.164897226328764290e+01
-8.580278034460890240e+02
7.045238874642734572e+02
3.129422479360080160e+03
3.527807601602650720e+03
3.529827607199191789e+03
2.628771046726742952e+03
2.665986492402677754e+02
1.790088014961690078e+03
4.042510639720932204e+02
-1.690081055932581421e+03
-5.552275389932461849e+02
-1.983184667009975101e+03
-3.639734046877928449e+03
-1.205652723320161158e+03
-2.610288411499013819e+03
-1.560981026227958409e+03
-4.529571247712321565e+03
-4.103721916286061060e+03
-3.372070938303911134e+03
-7.206967305083193196e+02
6.801659209738359095e+02
2.504496301177862733e+03
2.026510225372919194e+03
1.297445290142071144e+03
1.739133430409159246e+03
2.377457867312816234e+03
1.637213053108750501e+03
1.117592027498447806e+03
1.466829754638639997e+03
1.794227145516028941e+03
1.169661431392245731e+03
2.448657276274454944e+02
-1.532407586134262090e+02
-8.075499252860143997e+02
-1.121977729610833876e+03
-7.314698776773967666e+02
-1.451210442658488944e+02
6.919808285395745884e+01
-3.069200119208822031e+01
-3.581578732576197410e+01
6.891587097597077900e+02
1.468226243837897073e+03
2.193206160950212507e+03
2.425162412824885905e+03
2.510062504357596026e+03
2.574180823105677518e+03
2.210637654819503950e+03
1.951341743393172692e+03
1.482344405003646216e+03
1.091400907755862363e+03
6.702178813579762391e+02
1.331017065138352677e+02
-6.456654167660755093e+02
-1.237024190060552201e+03
-1.968921435145314035e+03
-2.530359534259010161e+03
-2.853261367770768629e+03
-2.384355519207595080e+03
-2.215961284911467828e+03
-3.467346831953523179e+03
-1.365015676427582093e+03
2.143084863051979596e+02
1.731714970491895542e+02
-1.228602399188214349e+03
7.552870084151621768e+02
1.026048833120663176e+03
6.763551824407768436e+02
7.363045936578811279e+02
4.999546924801190926e+02
2.320206405427465199e+02
-4.147551271712383141e+02
-1.120418296747880049e+03
-1.731491020180013720e+03
-1.685920515927531369e+03
-1.371988207746718672e+03
-1.305626897896367609e+03
-1.002779873659144528e+03
-9.276789972548966716e+02
-9.524681585840788784e+02
-3.549485138019149417e+02
1.960519008711650031e+02
9.805230855978971931e+02
1.141468923693973238e+03
1.378909776243499209e+03
1.551854716325093250e+03
1.758232386413389122e+03
1.748064649409193180e+03
1.750285177656134920e+03
1.712946007691297382e+03
1.128962704192591900e+03
5.545558014409758698e+02
1.887427258438675892e+02
-2.356001846974680802e+02
-6.601866426328381294e+02
-1.196076409232991637e+03
-1.486629426235753272e+03
-1.589984313543169264e+03
-1.321100403959161440e+03
-9.119050589026811622e+02
-3.924357395915358779e+02
2.833817372490081539e+02
6.855539270789269040e+02
1.183092715435503351e+03
1.445855743663779776e+03
2.311970025661557429e+03
2.613489553244884974e+03
1.955371538533075636e+03
2.142699004520201015e+03
1.969476243798260839e+03
1.433738776490245527e+03
9.693166693415234931e+02
3.241404928536956618e+02
-4.328167470291039649e+02
-1.056654401118221585e+03
-1.652354549895657556e+03
-3.351803023459649921e+03
-5.916969649218714949e+03
-6.809931470116782293e+03
-6.722717166030573026e+03
-6.433316545022031278e+03
-5.270729842265008301e+03
-4.961967282030338538e+03
-2.068075378558407010e+03
-2.101659269526711284e+02
-1.022034076438314543e+02
1.736935915835606465e+03
2.021396927882500449e+03
2.222102049172072839e+03
1.678989120960040054e+03
1.213999639019273445e+03
7.131885371619736134e+02
1.074888809151808715e+02
-1.971127668895664726e+02
-6.277591135073704436e+02
-8.864419817173773026e+02
-1.254092108204531087e+03
-1.450919930450269476e+03
-4.389205285851501799e+02
7.009548117564854692e+02
1.740745289004739107e+03
2.281325264338855050e+03
1.747617066221625691e+03
1.638666327052198994e+03
2.055500538720682471e+03
2.230177513516735416e+03
2.676658634867881119e+03
2.762004553126650990e+03
2.466256974614771025e+03
2.521417729188059639e+03
2.357306646459662261e+03
2.007958383496316401e+03
1.588560691024737935e+03
7.378637365055343480e+02
3.197333764352561616e+02
-4.428171540855640842e+02
-7.268485191617622831e+02
-4.013516008121528671e+02
8.572473112156595221e+01
1.823541136190870020e+02
5.405756321643393676e+02
4.085061528700010740e+02
1.290517553064325682e+02
2.741583534230685473e+02
1.158638657486985494e+03
1.566342043748016749e+03
2.506586038978546185e+03
3.770512169122037903e+03
4.702168092548180539e+03
4.188568705952198798e+03
3.216699197296469265e+03
2.426370846115125914e+03
1.706523024350776950e+03
1.036106232179386097e+03
5.220021278183096456e+02
1.532595090482233218e+02
-4.401194409005076409e+02
-3.171492948158844456e+02
1.582026595326130405e+02
2.400555152966010724e+02
1.663128986997277821e+02
5.219955070855070289e+02
9.562069909677185251e+02
1.815720632901720592e+03
2.692515652100395982e+03
3.277714605126012884e+03
3.008443687546563979e+03
2.473800671020148911e+03
2.465721934087452610e+03
2.284186172394964615e+03
7.830959985272531867e+02
-1.841537146526204651e+03
-4.317619949534505395e+03
-5.187177193669068402e+03
-5.923222872669560275e+03
-5.865694390253845086e+03
-6.155802292725078587e+03
-6.404547601265438061e+03
-6.203890368587210105e+03
-5.965859932337096325e+03
-5.584413398716906158e+03
-4.918452616900068278e+03
-3.818944823190820443e+03
-3.260897993606515683e+03
-2.175180959791220175e+03
4.430692207762637480e+01
5.584075131004213972e+02
-1.811884627449072923e+03
-2.285457220024218259e+03
-2.468228520376897450e+03
-2.723216884743932496e+03
-2.549470687451366757e+03
5.039804204968370982e+02
2.151050577670446273e+03
-9.532888368400331274e+02
-4.369977345087235335e+03
-5.413979711366723677e+03
-5.507354056138339729e+03
-5.530138925396359809e+03
-5.233316624460980165e+03
-4.761817555560543951e+03
-4.461543183848680201e+03
-2.440445608872720186e+03
-5.314255808098963598e+02
-2.145438480274337962e+03
-2.231557276891059701e+03
1.852806677252518455e+02
3.694057198029347092e+03
5.028804850558861290e+03
4.760578014729315328e+03
4.322356230544231039e+03
3.664118472690414819e+03
3.158890908822254914e+03
2.421591251214259955e+03
1.619176881254589489e+03
1.374732128541611701e+03
1.335332515562944991e+03
8.558361528916743737e+02
4.632046771987136822e+02
3.854940841308127801e+02
2.647536237131955659e+02
4.879982747500308164e+02
9.612612302232759021e+02
1.806597320419023617e+03
2.331054296170009820e+03
2.604626142926827470e+03
2.619381195486204433e+03
2.750370376078020399e+03
3.218723725262444987e+03
3.604392973100935706e+03
3.383199239670168936e+03
2.564160893923529784e+03
1.886105056143154343e+03
1.302443978572360265e+03
3.581855206722586900e+02
-3.218444688969052550e+02
-1.048779701049507594e+03
-1.476475021131928088e+03
-8.778273046300996612e+02
-1.109155456594331497e+02
3.959094674404702801e+02
1.219038906751061177e+03
1.920451685271197903e+03
2.474073884756727239e+03
2.541195281678929405e+03
3.214522416762538342e+03
3.620265944553370446e+03
3.656808011413133954e+03
3.574776079379379553e+03
3.391094801490236932e+03
3.542945500897162219e+03
2.861127202440905421e+03
1.834729170822864035e+03
1.484735502342629388e+03
1.019335314163765929e+03
2.512631479123427880e+02
-3.435101785835435066e+02
-4.240497512491692760e+02
-4.173968257311848902e+02
-6.337911184284458841e+02
-3.187842120908463812e+02
4.356247699906512594e+02
8.633435367870631580e+02
1.063364835583505055e+03
1.585791129818833952e+03
1.911626430970632100e+03
2.092819842523805164e+03
2.024338988860934478e+03
2.087242669066640246e+03
2.085499688525323563e+03
1.598079189065836090e+03
1.382952336578873656e+03
9.660922283324226782e+02
5.834200364086489117e+02
5.019165128694542659e+02
2.486175532069788403e+02
-4.214783381195063612e+02
-9.163374374354124257e+02
-1.057078601473435583e+03
-8.577474920844985036e+02
-7.433160902710608298e+02
3.931877855333309668e+01
1.339169081970569550e+03
1.936209670978734039e+03
1.758540492820009831e+03
6.051465508742446673e+02
-2.085029822437531038e+03
-4.105976796945657952e+03
-3.846644283709589672e+03
-3.729028353233275539e+03
-3.544142238556205484e+03
-3.816998776075867227e+03
-4.361581959325159005e+03
-3.829949639002451477e+03
-9.081496656217357213e+02
-4.152880104890728035e+02
-3.568356598275994656e+03
-6.664185569623906304e+03
-6.974034772175317812e+03
-7.043901718759748292e+03
-7.074663837777514345e+03
-6.477206958946350824e+03
-4.395729891119371132e+03
-3.404149515815209270e+03
-4.735421413768378443e+03
-4.269557512268410392e+03
-3.366530306810373986e+03
-2.918373027062789333e+03
-2.579002901025240135e+03
2.696936508981626179e+00
1.124680523665981127e+03
4.927959955291772758e+02
2.944486764856904859e+00
-6.639049523966559718e+02
-1.092781539455449774e+03
-1.021715948387549474e+03
-2.927391309983264023e+02
3.541298388228797762e+02
8.418872070720935881e+02
1.403510153138122405e+03
1.497133289640464909e+03
1.593803088877337586e+03
1.686471247818016536e+03
1.953147415391581944e+03
2.401899346437005534e+03
2.828730097494424626e+03
2.596627638640643454e+03
2.925664369031035676e+03
2.944906319492854436e+03
2.447316588332140327e+03
2.104858122814880517e+03
2.324499854766402677e+03
2.316243396005873365e+03
2.152097483377333901e+03
1.518950610092730813e+03
1.150728735645218194e+03
1.284910573414720147e+02
-4.374682257317240186e+01
-1.430814005615732469e+02
-3.154914014459744749e+02
-4.687862536101403066e+01
4.288168500763021598e+02
1.242528120608934387e+03
1.643272797744875788e+03
1.953105864500147618e+03
2.313038861527836161e+03
2.441113225831451928e+03
2.177418073002851543e+03
2.213944588468864367e+03
2.541636348570001701e+03
2.340526303513321182e+03
1.826768816374546759e+03
1.705364798813344350e+03
9.293267287365282527e+02
7.280707862640124972e+01
-6.612691143603318551e+02
-1.122975890748804204e+03
-9.623401086580107631e+02
-1.254400419943262250e+03
-1.586003471625292377e+03
-1.358462268408475438e+03
-8.547342955244164386e+02
-4.464918409807821149e+02
-8.005975464352552251e+01
3.656338691951024202e+02
7.735004250786084867e+02
9.716417420871601962e+02
1.036265556380052431e+03
1.387306262943984621e+03
1.461676625436360609e+03
1.189353792722409480e+03
1.039413996659390477e+03
1.228791004885759094e+03
2.474450892157988449e+02
-5.117847588306884177e+02
-1.152019602662813895e+03
-1.381171543846261102e+03
-1.632199047012032452e+03
-1.826039399927228033e+03
-1.749597568097860403e+03
-1.682988854572445916e+03
-1.346300004494341010e+03
-8.383447457212791960e+02
-3.530126764975809124e+02
2.796536954056380182e+02
9.545781151427440818e+02
1.595710633239962362e+03
1.793082634570884011e+03
1.983709961577568038e+03
1.938600837437858672e+03
1.663901829493777541e+03
1.268562804696406829e+03
6.805553532776855263e+02
1.978378585873265081e+02
-7.546244368985034043e+02
-1.430856620180637719e+03
-1.631857428539024568e+03
-1.972790380870938407e+03
-2.313635700331376029e+03
-2.041255292668972743e+03
-1.884586711803949356e+03
-1.720650435958387334e+03
-1.059501507384765318e+03
-6.252687809280045030e+02
-8.895626466851194891e+01
4.225167227959642560e+02
5.282844961591514448e+02
5.163520871316820831e+02
7.836762262020123444e+02
7.543286574597595973e+02
5.794942387933010650e+02
3.414783695270863717e+01
-2.490762789717021164e+01
6.972310804179868455e+02
4.064438264037063959e+02
-4.533543526871809490e+02
-1.336086684274001982e+03
-1.854708163549371875e+03
-1.447306839253811177e+03
-1.402878784987300605e+03
-1.138434512418974691e+03
-6.879373232011670325e+02
-6.411231495872842743e+02
-2.291799344591727845e+02
2.089295647302440528e+01
5.039657558708140073e+02
1.028080488036469433e+03
1.418640616514088151e+03
1.793848123772602094e+03
1.608653805140776285e+03
1.031892480181026713e+03
6.905266549147459045e+02
2.494984486820702045e+02
2.627334163042012847e+02
-4.580381335904788642e+01
-4.080920243146103417e+02
-1.379162800318437803e+03
-1.829147406015692923e+03
-2.058050382404155243e+03
-2.032766229931494081e+03
-1.525552650375775556e+03
-7.785552104988988731e+02
-6.356406482959287274e+01
5.146151597163578799e+02
1.074195457210530321e+03
1.602959143151505032e+03
1.875805497856714055e+03
1.955782235194720670e+03
1.782082968723808563e+03
1.559086827183317610e+03
1.503542615563505478e+03
1.098130202347723070e+03
6.539557264020662615e+02
-1.032678809497841996e+02
-6.864377801114749218e+02
-1.340477083861598203e+03
-2.161499209741108189e+03
-2.377577856482868356e+03
-2.226006328656336336e+03
-1.636857404130099894e+03
-1.003168868456739460e+03
-6.126711799492937871e+02
-1.703248524085725251e+02
5.448166963743124143e+02
1.311561255252257752e+03
1.595859443259558930e+03
1.575649334328878240e+03
1.689001048658308264e+03
2.341072271494335382e+03
2.403776741194678380e+03
1.977136217056081250e+03
1.504100371894166301e+03
1.463555117648866144e+03
1.208394071998004847e+03
6.468061014534176820e+02
1.070088104620876237e+02
-3.782368680496518891e+02
-5.941358058999218201e+02
-9.004558206096129425e+02
-9.702179779384417770e+02
-3.056943778047998990e+02
1.706043765078202767e+01
7.032207160221205413e+02
1.363857663657179046e+03
1.872949023788539080e+03
1.996465349814593992e+03
1.864371522478169481e+03
1.742746613221455164e+03
-9.583437053219562358e+02
-7.169429769547638216e+02
-2.751438798304509987e+02
-1.394674982070674332e+03
-1.705378101404897279e+03
-1.374598004663865595e+03
-1.651510739283543217e+03
-3.860961484703412339e+02
-2.455241879294344017e+03
-1.404021047264640629e+03
-8.796071793310356952e+02
-2.599747306558728724e+03
-2.856174438138074947e+03
-3.302173833755062333e+03
-4.205992186427609340e+03
-1.165428778135148377e+03
7.966974862668192827e+02
-7.976109759246672866e+02
-9.541499201299642436e+02
6.789850649358213559e+02
-1.442675957039141394e+02
1.319109185428397723e+03
1.122057284090883968e+03
4.885745103344757467e+02
-2.054093135070731364e+02
6.830562681378735306e+02
4.299577766249466890e+02
-2.464634193229657740e+03
-2.056507055484521061e+03
-1.993591179680824325e+03
-1.973039251227480008e+03
-1.658165412766340069e+03
-1.323935346780561986e+03
-7.450745276832674335e+02
2.655745143139236575e+02
1.226858255136324942e+03
2.265810502145533519e+03
2.648697231305273817e+03
3.182384519205634206e+03
3.092746542910325843e+03
2.925828613634461817e+03
2.471824137579061244e+03
2.073611193055799504e+03
1.879057047212133511e+03
1.356241315186888642e+03
1.364403820200433074e+03
6.606109615450449155e+02
-5.562806265140151254e+02
-1.489212481283266698e+03
-1.538071561037651918e+03
-1.487275234961163505e+03
-1.737036684824051235e+03
-1.061138240948354223e+03
-3.092583678885462746e+02
-4.602286258877101659e+02
-4.428358400458713504e+02
2.489667005814660854e+02
1.023965986200063753e+03
1.464483029626771668e+03
1.970652784765711658e+03
2.628339296349226970e+03
2.761293926858108534e+03
2.503587254911258242e+03
1.666975267628466327e+03
5.713688744998690936e+02
-2.521960133347845101e+01
-5.474133765604375412e+02
-1.139306771341365447e+03
-1.652111870615326097e+03
-2.347823126347519974e+03
-2.144148331681874424e+03
-2.221255813940657845e+03
-2.341327850381870576e+03
-2.199052861308422507e+03
-1.927471638306062005e+03
-2.131487946344424017e+03
-1.698975804612050752e+03
3.790761989973473192e+02
2.390635739079089035e+03
3.524523156693967394e+03
3.998592190217361804e+03
4.024880821625947647e+03
4.043427243972124870e+03
3.489212163937236710e+03
2.270315745676638471e+03
1.256546954683613194e+03
3.577992977752109738e+01
-1.406915842834075875e+03
-1.873557244658296668e+03
-1.660928447595884336e+03
-2.133922228632812676e+03
-2.543597118008998223e+03
-2.334224489553922012e+03
-2.046931552638555559e+03
-1.947559266195657301e+03
-1.516857258367320128e+03
-1.848020914951316627e+02
1.070573160793105671e+03
1.948179056600564991e+03
2.485740922435080392e+03
2.923621040413319406e+03
3.773239838457509904e+03
3.379252362266490763e+03
2.209491214111984846e+03
1.798889472405130391e+03
1.724541823463585388e+03
5.095978817563511143e+02
-9.800023247474930486e+02
-1.308311634593006829e+03
-1.101376950545110049e+03
-1.060231879636644635e+03
-1.332074056901446284e+03
-2.153617725604116458e+03
-2.278499910314846602e+03
-2.371446650030513410e+03
-1.829655079487254397e+03
-1.450724605230467887e+03
-2.292873681482918983e+03
-3.370025617375043566e+03
-2.668988909077161225e+03
-2.009764936324537530e+03
-2.691595691512534813e+03
-3.062346497346256001e+03
-3.333799127380426398e+03
-3.847037839970057121e+03
-4.694321416102711737e+03
-5.221711406742018880e+03
-4.479940216872912060e+03
-4.768960657063730650e+03
-5.087769885918432010e+03
-2.476425957380326963e+03
-1.694115977817937164e+03
-1.177921785094789584e+03
-1.942841723615771343e+03
-2.446845238334020905e+03
-1.897463199966597358e+02
1.514697775262394089e+03
2.096172760018644567e+03
2.677554792660283965e+03
4.274186227663397403e+03
5.451491678327319278e+03
6.174055117945321399e+03
4.845559714684812207e+03
2.832109015474914031e+03
1.960913835277591033e+03
1.619059657693731879e+03
1.721206289379610325e+03
1.978106732937924562e+03
9.526965148596697190e+02
-1.065846749532775902e+03
-1.187162704117359681e+03
6.397713898708841498e+02
2.011803912092827659e+03
2.166465033709260297e+03
1.968587735374807380e+03
1.882369169440919222e+03
1.692799567105222877e+03
1.353894163288505752e+03
2.386145631892085476e+03
3.304746445022948592e+03
3.530361574907803060e+03
3.636731889764198968e+03
4.014004678106914980e+03
4.494102443458206835e+03
4.831845143213417032e+03
3.275284966953668572e+03
1.052471730849436881e+03
6.879654173707883125e-01
5.388481660578471377e+01
8.628777514776479620e+02
7.877662827384233424e+02
-3.655298651293788339e+02
-1.197539892080270420e+03
-1.124037777903631195e+03
-6.294829163854529952e+02
-6.449495677366661539e+02
-1.335752065407848022e+03
-1.284846826378213336e+03
1.418819537711287239e+03
4.656423299170565770e+03
6.107999825854710252e+03
6.297581932672207586e+03
5.661841968407414242e+03
4.210863197864332506e+03
3.216954853079641907e+03
2.531976958043578634e+03
9.887000495089681635e+02
-6.501421046839963083e+02
-2.165529355405366914e+03
-3.238395988468505038e+03
-7.696205813038760652e+02
-1.192213368969171597e+03
-2.080169045551159343e+03
-4.558519409292592172e+03
-7.333288171640874680e+03
-6.696125013321897313e+03
-4.719994861340416719e+03
-3.363118514361565758e+03
-2.549260070383221318e+03
-1.961347642419137173e+03
-1.052605585410103686e+03
-1.206220113382759109e+03
-1.759267735300581762e+03
-1.446572975211453240e+03
-1.183003351076355329e+03
-2.309530037977473967e+03
-3.151253285382555987e+03
-1.716220089631285191e+03
-3.835602490905846935e+03
-7.720388132077756381e+03
-7.721265771690336805e+03
-6.258159573461339278e+03
-4.657211047487026008e+03
-3.873493932396755554e+03
-3.925057001212824616e+03
-3.245934410668928649e+03
1.194026787035082407e+03
1.820029486257226381e+03
-1.781931591760649098e+03
-1.923960933938729795e+03
-1.698075776883252047e+03
-3.388250634225091744e+03
-2.928454375307298960e+03
-9.007464573523420768e+02
7.129272393081207611e+02
2.294663312089086048e+03
1.844400815113886836e+02
-1.076780927860360407e+03
-2.607727451193745310e+03
-4.447394911238508939e+03
-4.592201573029402425e+03
-2.167183411974408500e+03
4.715763855672249747e+02
1.568147389546804106e+03
5.400209609060833600e+02
6.738337877661405173e+01
1.495807360280448620e+03
2.216106284934863652e+03
3.164400072708916468e+03
3.495745961577013077e+03
2.872139429638353704e+03
8.164761751474771927e+02
4.717730803330975959e+02
3.336184364661748077e+03
3.956722016887303198e+03
1.784255509861871360e+03
2.921750134740305384e+03
4.604302679147667732e+03
3.510935454544966433e+03
1.208625869125127110e+03
6.864684318355635924e+02
8.573339483091406237e+02
9.501154758897415604e+02
1.150955149690752478e+03
9.539147962109486798e+02
1.210910933157932732e+03
1.685003029848550341e+03
1.607440555204014117e+03
5.990581243001214062e+01
1.418403290719808183e+03
5.608254235325189256e+03
5.737617324171887958e+03
3.508454004469116171e+03
2.130606667247207497e+03
2.401858138817375675e+03
1.554584882754365481e+03
-1.589439221070069834e+03
-1.916215769010367694e+03
1.556482282337980223e+03
1.321573094253963518e+03
-1.912377656917723698e+03
-3.415470471440644360e+03
-3.187820286974531882e+03
-3.142195011601869737e+03
-3.560328714735438780e+02
2.115387528013999145e+03
3.270480776635722123e+03
4.268641673451803399e+03
5.183850571032987318e+03
5.998211113361939169e+03
5.396899820578471008e+03
3.777964490729344561e+03
1.849123478024274846e+03
3.424137454293136784e+02
1.099293254031291553e+03
3.608246025746339456e+03
5.160179230582131822e+03
2.201984296798750165e+03
-1.475494960390992674e+03
-1.915249228920358064e+03
-4.573185933058055639e+02
-1.124870045900108607e+03
-1.977867005716490667e+03
7.849849368715780429e+02
2.135823330589577381e+03
1.202452620247839604e+03
6.618538591708097556e+02
2.290907742206320108e+03
2.332473778372934248e+03
5.016992292858319047e+02
-1.163347507024270726e+03
-6.196169682916761303e+02
8.877046651732081273e+02
8.426202541658393557e+02
1.857124747305433175e+03
4.620132593699772769e+03
2.770655064998205034e+03
-2.085215934473000289e+03
-5.957503029854329725e+03
-7.350355154182933802e+03
-8.286840716447059094e+03
-8.988938659796509455e+03
-9.424624939724106298e+03
-1.104189227640595709e+04
-8.749748197092052578e+03
-3.862226172603039231e+03
-2.272122697510155263e+02
2.411941507365785924e+02
3.004019005166061106e+03
6.158321282240659457e+03
6.567169665898471976e+03
2.568629757258940572e+03
1.942607257563432540e+03
2.330071109381722181e+03
-1.700009434002771798e+02
-3.413632212375913241e+03
-2.613844753494165616e+03
-2.055674421569020069e+03
-4.934088036952704897e+03
-6.937047095314172111e+03
-8.358669471635703303e+03
-8.223104021514938722e+03
-6.643192309242293049e+03
-4.548934806423072587e+03
6.244929725591204033e+02
3.510215588118256619e+03
3.095312212017267029e+03
3.051787074044867040e+03
3.130502657702836586e+03
3.013513012120415169e+03
4.539074095577892876e+03
4.558244099421311148e+03
2.810969600901362810e+03
1.515211987414672876e+03
-2.290648632421059574e+02
1.951020081751057660e+02
2.316666810210333551e+03
4.206682165194780282e+03
2.885224047194305058e+03
-4.347184383936059362e+02
-2.353090449741979683e+03
-1.939916091792313409e+03
-4.502583018852857890e+02
6.548817194288509427e+02
7.052048003769500895e+01
-4.745310191275424586e+03
-5.083527329571827067e+03
4.279738598476021139e+02
2.291185075281473473e+03
1.594172656789904067e+03
-1.339511242244997504e+02
-1.934144452808322058e+03
-1.250462725084398699e+03
-1.176756980210838265e+03
-1.954010128870391327e+03
-3.104417768748914114e+03
-4.721061530501726338e+03
-9.157854459704572946e+03
-1.101468846420908812e+04
-8.074408991171795606e+03
-7.017796160053913823e+00
7.479533596452525671e+03
8.024233118362287314e+03
5.955997107403659356e+03
4.922849870034438936e+03
5.954859937538624763e+03
6.952970754489278079e+03
5.175433544192717818e+03
4.107376625519002118e+03
5.754735757690893479e+03
6.720668624354199892e+03
4.456333636823833331e+03
1.429702936984338521e+03
1.055807738861061580e+03
1.275386608905335379e+03
2.388570019925748966e+03
3.575536774376093945e+03
2.549100162230703518e+03
2.262660543273349845e+02
-2.425927370484906078e+03
-5.232339232568880107e+03
-6.194136614658174040e+03
-3.878631563233025190e+03
-5.024710784003323170e+03
-8.520241486638869901e+03
-8.366211104582653206e+03
-1.714485190581189954e+03
1.320931843232217034e+03
-7.339937596064547733e+02
-1.741152945063854986e+03
1.435627778589537797e+02
4.382162146959836718e+03
4.972627326920175619e+03
2.286965911940037131e+03
-1.692891286287403091e+03
-4.086895387035188833e+03
-1.356917284514062885e+03
3.022959246495209754e+03
6.798580911485555589e+03
5.302005450368479615e+03
1.304279394176694268e+03
-6.825885388213000624e+02
