1.970482687782549192e+03
2.013716004121851483e+03
1.965032185761308028e+03
1.853439904450716085e+03
2.122953702416844862e+03
2.115614638370901957e+03
1.994385956674474983e+03
1.931311427625907072e+03
1.769387530427401089e+03
1.340588166046630022e+03
1.550944349436080984e+03
1.761474340334516228e+03
1.730203232075480173e+03
1.731089211837107314e+03
1.681135831009195499e+03
1.755325760799883938e+03
1.437724188780356371e+03
1.339603194904851080e+03
1.262085388046803928e+03
1.260271962075046076e+03
1.198044919172213667e+03
1.043319676782972920e+03
8.310688246261842096e+02
6.984099234488322736e+02
-4.967310273993010838e+01
4.887061572941686336e+02
8.926262217667514278e+02
2.920970839242863235e+02
5.281303191899118019e+02
6.897783219205196019e+02
7.958268478788905895e+02
7.500589832169182500e+02
5.313706160988278953e+02
3.148892172969815419e+02
6.173914965698305224e+01
-2.620494929685174839e+02
-2.424289767219725604e+02
1.878990238283387271e+02
3.736049455972881788e+02
3.806865980166529653e+02
2.343402348708690113e+02
4.743574639261265133e+02
4.906092917482317262e+02
5.310300666450157223e+02
7.826288300699732190e+02
6.913576713495388049e+02
5.602192926799771158e+02
5.611841391994881860e+02
7.082261159986493340e+02
9.783756132604576123e+02
8.465990624795730355e+02
6.438745287791903138e+02
3.591973808252079721e+02
3.505915157861236935e+02
2.150232925081518829e+02
3.174788951863239390e+02
4.459239700270157982e+02
2.523668927071355199e+02
2.598069215438777633e+02
3.512352201955986288e+02
4.776397051119762409e+02
7.249698022731788569e+02
6.322626377660151320e+02
5.265132743257775019e+02
5.787019377162331466e+02
6.218541604697102230e+02
7.629297602340117237e+02
4.539257447167448163e+02
1.798220224179734146e+02
2.975761043718368910e+02
3.792265574414331013e+02
2.577269786155174529e+02
1.360323338409488088e+02
3.919853029363324026e+01
2.120529424406768726e+01
-2.839350604711530650e+02
-4.122657075793653121e+02
-4.783299205053132397e+01
-1.081640276072407460e+03
-3.213672696329099381e+03
-6.034910291461901579e+03
-6.438400907753893989e+03
-6.233135656613992978e+03
-5.742095298452126372e+03
-5.563293355890199564e+03
-5.336712239363921981e+03
-5.185433191741838527e+03
-4.850439041535321849e+03
-4.485718983754472902e+03
-3.910253982171357620e+03
-4.322875974737184151e+03
-3.653814073793607804e+03
-3.703581679678839578e+01
1.057444974628590671e+03
1.880618724278931722e+03
1.731447452521625564e+03
1.606901985969292809e+03
1.771002309906315531e+03
1.676782047670198608e+03
1.509246473795522661e+03
1.350331399016137766e+03
1.452066797396324091e+03
1.311477684697161067e+03
1.517535802489668640e+03
1.552259885650390515e+03
1.348633802641205193e+03
1.203661173019869921e+03
1.251342897359354765e+03
1.252656847592456643e+03
1.152598332631884887e+03
1.182193859306353261e+03
1.044449638989960249e+03
1.177378282171926003e+03
1.312941721333539135e+03
9.831645297068311038e+02
9.171022910599381248e+02
1.040731288792837631e+03
8.770483752452462340e+02
8.170445390246029547e+02
9.227667930658167279e+02
6.821899975540192145e+02
7.892722695537848949e+02
1.053031183299475515e+03
1.158525166829771933e+03
1.043786843879150183e+03
8.677916902530176912e+02
5.815414650719520750e+02
7.410370875878537618e+02
8.022892719544013289e+02
8.913083735646941932e+02
7.381335136879108632e+02
6.007248889810216497e+02
4.731413109227406721e+02
4.663823253531036812e+02
6.464518355653228809e+02
7.323289640925237336e+02
6.420982989390765852e+02
5.777929131220016643e+02
8.143562926462001315e+02
6.258180073908938539e+02
7.102042553668045457e+02
5.713988200257913377e+02
6.014201723991626523e+02
5.144080885747587217e+02
4.676317531053597918e+02
7.901712958802685307e+02
5.357804032813234016e+02
-1.001551536749888214e+03
-2.512807585573517827e+03
-1.104972246029622056e+03
5.159672762868342488e+02
6.600153806627234871e+02
-3.638992017750788932e+02
-1.555999286251825140e+02
8.787300803908527769e+01
1.444800283541357260e+02
6.811645505530145783e+02
1.541199549996360645e+02
-2.763761836510315334e+03
-2.762253152605368996e+03
-2.210457756171897017e+03
8.064665790454971273e+01
-1.472955161260255181e+03
-2.971778321993604663e+02
-8.660115630512126472e+02
-1.491548314299704771e+03
-1.910818518117666144e+03
-3.007253249256267509e+02
-1.504256002312362398e+03
-2.741486369856456307e+01
-1.579175026739527539e+03
1.414356428737343379e+02
-1.655562328348398978e+03
-4.171360614819533339e+02
1.647363313286518007e+02
-2.211997008209417800e+03
-3.753160617297820068e+02
-1.015168504754824653e+03
-1.492509317353727283e+03
-1.061401781358200424e+03
-9.508186475740682226e+02
-1.606729621009473021e+03
-2.861588016237764123e+02
-1.810117552358749435e+03
-1.135606731514346990e+02
8.545092965645034155e+02
6.441101015939124181e+02
7.541912818388100277e+02
3.077760672387355498e+02
-3.150133405388831306e+03
-2.568500475895370982e+03
-6.103545226356903868e+02
6.933360278008244393e+01
-1.585438516536678890e+03
-1.427679097244588093e+03
-1.362394113334135682e+03
3.924507221306730571e+02
1.065783740554259793e+03
1.454620835923156847e+03
1.112972695489173248e+03
1.113821239948773382e+03
7.721551890047005600e+02
9.699613561712086494e+02
1.032252072338292237e+03
1.240993992599592957e+03
9.462221798580910672e+02
9.719406947607365055e+02
1.011139486727070221e+03
9.918014695281286777e+02
1.180916169434593257e+03
1.209363451554200992e+03
1.217115209259142375e+03
1.108240215374486297e+03
7.899314532319873479e+02
7.311912898785600419e+02
7.870127647919914580e+02
1.985195248049415397e+02
7.327299907452321577e+02
5.454690829838663149e+02
5.884766511737412884e+02
1.233894564305431231e+03
1.172805671645073289e+03
9.206498364782464705e+02
9.542874189254188195e+02
9.502818384205744451e+02
5.883558316471819580e+02
6.216795530452397998e+02
6.615004559277409726e+02
6.409102098833130867e+02
8.053574408306994883e+02
8.677111494116494441e+02
8.162562417391056897e+02
9.130219836869429173e+02
9.469660365800098134e+02
6.961434876823606146e+02
9.288825686274527698e+02
9.159502884466094201e+02
1.036258318180290871e+03
9.667576241963366783e+02
8.582710007589586212e+02
9.187044262692309076e+02
1.071347696817159658e+03
1.364109549621938413e+03
1.259985295928364167e+03
9.207241199976435837e+02
7.973955952198956538e+02
9.789523378213934848e+02
1.455425490725333475e+03
1.319720093741616438e+03
1.143693551939757981e+03
1.422285085988620040e+03
1.450445567694750480e+03
1.394176771594553657e+03
1.384447089717164772e+03
1.227293860746607606e+03
1.016711187401205166e+03
1.499653754216029483e+03
1.431064452376301006e+03
1.460912792385528519e+03
1.373213522641200825e+03
1.359934403306402601e+03
1.414031271115626168e+03
1.441549368590624681e+03
1.800471723078384684e+03
1.770735635754685745e+03
1.663369474306598931e+03
1.757390720856008784e+03
1.624708995143115317e+03
1.473340083955329874e+03
6.172745183506164039e+02
-1.036520014087422396e+03
-3.455002919807031049e+03
-5.406163029389176700e+03
-5.137989255636619419e+03
-4.857493388012073410e+03
-4.923732960961957360e+03
-4.584708593062951877e+03
-4.719423431595712827e+03
-5.220875580770312808e+03
-4.646057758827212638e+03
-4.046008866584796124e+03
-3.656691649240494826e+03
-3.851127900705353568e+03
-4.294093404376851140e+03
-4.222687315407953974e+03
-2.126011246346144162e+03
-1.893169233633933800e+03
-4.505966908038190013e+03
-4.489333186267185738e+03
-4.480380333247089766e+03
-4.345075416812069307e+03
-4.100415120101390130e+03
-3.754362900266706674e+03
-3.626915957814266221e+03
-3.693147855420073938e+03
-3.820019516539306551e+03
-3.947493981867927687e+03
-2.617507958235305068e+03
7.489390085982291794e+02
2.096845167587923697e+03
2.638227341550517849e+03
2.665109249270050441e+03
2.729538887487153715e+03
2.437493031978734507e+03
2.128999087977265390e+03
2.286054827721684433e+03
2.410666147535302571e+03
2.472883495160060647e+03
2.519702314361849858e+03
2.595169141877346647e+03
2.313272266114790000e+03
2.186044971009020173e+03
2.025513719508581062e+03
2.022703335434157452e+03
1.954680492718234291e+03
1.779506985054530105e+03
1.753152227278098280e+03
1.553600098083392822e+03
1.674906988463510515e+03
1.629154321884985620e+03
1.488380290511049907e+03
1.583582325988257253e+03
1.275729827195077178e+03
1.336783426075498937e+03
1.523845690110773830e+03
1.430964257207625906e+03
1.454145723813232735e+03
1.092508448246460148e+03
1.046139774748778336e+03
1.197936933790108014e+03
1.050877328221426978e+03
1.058028950485569339e+03
1.087469611080294044e+03
8.472236223506941997e+02
5.782750835897733168e+02
4.808232105340164821e+02
7.730552040041239934e+02
2.940491248297968809e+02
2.306619591066243515e+02
4.419050055573461009e+02
3.527574035608116105e+02
4.671540851786626263e+02
3.570456002424251665e+02
2.904359982495727763e+02
-2.894472381013814015e+02
-1.278429696835854656e+03
-3.275476314381873522e+02
2.551579668149018403e+02
2.936300222100726387e+02
1.977073173146436034e+02
2.575705189219112299e+02
3.540306897490007714e+02
9.212871511732899421e+01
-1.980898207252039356e+02
-1.895000634665860844e+02
1.402735790596036836e+01
-1.305529920151283250e+02
-2.663381652138435811e+02
-3.753768974762384119e+02
-3.165510113623747657e+02
-6.199852001887273190e+01
4.320736828577853572e+01
5.407019500096978959e+01
2.505994415428507409e+02
1.948692999165087372e+02
-1.084281519093631463e+00
-1.602486740342842495e+02
9.149326867764820292e+01
1.863278591089757299e+02
-1.566845447849226503e+02
-2.316736090133138362e+02
-8.280920659248334914e+01
-3.612192189512144864e+02
-3.370184925224515382e+02
-3.591293031343469124e+02
-1.685347334722411006e+02
-3.283121193948734344e+02
-3.244115909844542216e+02
-2.938812352400472605e+02
-2.668038830778654642e+02
-1.771934308429237035e+02
-8.404735066589276471e+01
-2.038053730160562438e+01
-1.961501260197098304e+02
-1.639615807826749005e+01
1.078951525922620647e+02
1.186999611749862140e+02
-1.289946018439196962e+02
-5.620939299296284020e+01
-1.999660202207395798e+02
-3.552962578511089191e+02
-8.732515776612367517e+02
-5.838284981108661214e+02
-3.902796805474926600e+01
-2.628607855295453533e+02
-1.203967590465825737e+02
-3.286174752102359093e+02
-2.144582492136964902e+03
-4.701237424010742870e+03
-5.920643286292031007e+03
-3.667796303041132433e+03
-7.406610097518131397e+02
-3.002467204240346064e+02
3.841617125334450833e+01
6.536027772263915381e+01
6.036865792501505439e+02
7.430810161201565052e+02
6.154408380615727765e+02
-3.671470512122722312e+02
4.343127273386713227e+02
7.948206129554806694e+02
3.213694304390630236e+02
-1.837058871632413457e+03
-1.785515100723841442e+03
-2.147011265154176272e+03
-3.013479992992644156e+02
2.442910798755819428e+02
6.407626121343276964e+02
9.357075392029934164e+02
5.759033049258025585e+02
4.399763991907857417e+02
9.679204917243354203e+02
8.437302519909214880e+02
8.002806289127157697e+02
9.274696513439449745e+02
7.876433549890635959e+02
1.004303302560066641e+03
8.379578348935040140e+02
8.081759912459373254e+02
9.664415201588354876e+02
1.220219388987227148e+03
1.222636177855166352e+03
1.009024903747878511e+03
7.679583283923126373e+02
9.227621382452234684e+02
6.291174713422334435e+02
7.330991898876569621e+02
1.157847276483287942e+03
1.150449971976418965e+03
9.876403326018331654e+02
9.455591135354159178e+02
1.256927480125781813e+03
1.509625409829501223e+03
1.376852401980306468e+03
1.203900054983194877e+03
9.065119929217862591e+02
1.047813189158561045e+03
1.114874991841836618e+03
1.352331632943478553e+03
1.406388407294539547e+03
1.231165906140585548e+03
1.275534823621171654e+03
1.531569246106717401e+03
1.394073298797209191e+03
1.202921552268579262e+03
1.530424870649092554e+03
1.512447179035683575e+03
1.380939854061463166e+03
1.479911403547589998e+03
1.413346618181305985e+03
1.112221791690692044e+03
1.245506052492131857e+03
1.235250909921763196e+03
1.125426625475254014e+03
1.017056830476742221e+03
1.233172307399380770e+03
-2.752650281807397619e+02
-2.755281167388674476e+03
-4.966908642680045887e+03
-4.950111084405382826e+03
-4.524858995434755343e+03
-4.574185629039770902e+03
-4.293120714854672769e+03
-4.171506424753194551e+03
-4.472496461765282220e+03
-4.204071590067393117e+03
-3.906211133659575353e+03
-4.076990503249429366e+03
-1.807390311394578930e+03
1.987631909753463560e+03
1.664047465066022369e+03
-2.353130064534947451e+03
-4.419856171173246366e+03
-3.665149477423057760e+03
-1.077001457872424226e+03
-3.120398708127524060e+03
-3.907372726504512684e+03
-3.856929108998953325e+03
-4.075042176688963991e+03
-3.780741355694829508e+03
-3.789012835830234962e+03
-3.635830780158288690e+03
-3.165235303190830109e+03
-2.769230315511730623e+03
-2.774765851168783684e+03
-2.771827399637126291e+03
-2.775395954369071205e+03
-2.693533222563593881e+03
-1.243249105929236293e+03
-2.522448518818936947e+00
-2.512341947951749717e+03
-3.482652464364215120e+03
-3.035473653464277959e+03
3.021524560385416862e+02
2.713200087155250458e+03
3.434752705582290673e+03
3.143793894543053284e+03
3.100307421500046985e+03
3.185318358519125013e+03
2.890797288012337049e+03
2.978772154819922434e+03
3.259257147961179271e+03
3.493253613890198267e+03
3.522692300805281775e+03
3.267620212214731509e+03
3.321031206423581807e+03
3.080945012564677654e+03
2.830368140673983362e+03
3.136267182367029818e+03
3.365663176103812475e+03
2.998528061670499937e+03
3.003907515422303277e+03
3.074820182100751936e+03
2.724195239863390725e+03
2.743994369907306918e+03
2.543187166967378744e+03
1.986007413001149644e+03
1.930632942567784994e+03
2.294176610447084840e+03
2.557670523995067470e+03
3.020988351491002049e+03
2.865099388478080073e+03
2.810016330298709363e+03
2.680725001047492697e+03
2.455236349284780317e+03
2.187568603858070674e+03
1.326682347603782546e+03
-8.054504656145118702e+01
-8.010527614390955478e+02
1.541361653418475953e+03
1.908477886275848050e+03
1.752192008439256597e+03
-7.350099551457188340e+01
3.237599639286246997e+02
1.640046046835652760e+03
1.358967318024287806e+03
1.310536878242420698e+03
1.064742367814798399e+03
9.865795247265307353e+02
1.135026608072244017e+03
6.271057433889285448e+02
1.846405385597090003e+02
-2.092966767607420877e+02
-1.854477254732702818e+02
9.908842699373063567e+01
2.260377743599064182e+00
-7.283147372511747619e+01
2.226949061865021520e+02
6.938426822998078478e+02
6.225901587325831770e+02
7.980059594683274327e+02
9.060658897618977790e+02
1.051740732199595868e+03
1.250020983413321801e+03
1.003926621792401988e+03
8.914804650104814527e+02
5.247344092347658489e+02
4.173559903872504862e+01
-2.665122119995471053e+02
-5.850029597248575328e+02
-7.517095847092548411e+02
-2.136170137774854254e+02
-2.187097569553286291e+02
-7.619638573705450426e+02
-8.183547482958298360e+02
-4.388808698635176597e+02
1.914846539520470969e+02
7.667867307813967273e+02
6.860146473296724707e+02
-2.477480570165661788e+02
-8.845293734610644378e+02
-1.457299951205125353e+03
-2.082010237149856039e+03
-1.560661391839970065e+03
-2.282168771810922578e+02
-4.426438079086445896e+02
-1.452926187616866173e+03
-2.084999325259284433e+03
-2.533872549711058582e+03
-3.017546509017640346e+03
-3.675996130810823615e+03
-3.691202928805954798e+03
-3.066099206376864004e+03
-2.996661882610158955e+03
-3.056834219188015140e+03
-2.607615640387811709e+03
-2.195965340861700042e+03
-3.174872479544288581e+03
-5.363347745171963652e+03
-8.493334439505861155e+03
-9.237847549478086876e+03
-7.798745263011279349e+03
-6.369901258984155902e+03
-6.506504827754091821e+03
-6.510467706084342353e+03
-5.114781978300881747e+03
-3.064418227334427684e+03
-3.458370633569396887e+03
-4.628628127905978545e+03
-5.735145550585770252e+03
-5.225912588543104903e+03
-3.150889555961026417e+03
-1.433098137577730085e+03
-8.345026217428288646e+02
-6.290941506617841696e+02
9.771831056428090960e+02
1.331330394364534641e+03
4.563370138406299930e+02
-1.018782173250104393e+03
-2.871998385552944001e+03
-4.066280751936264096e+03
-5.217601551043230756e+03
-6.739959506848838828e+03
-6.921351917671213414e+03
-4.659802173779642544e+03
-5.222681325137361910e+02
3.025319896062405405e+03
4.638980996919469362e+03
5.190663739565506148e+03
4.551400167913047881e+03
4.657170206943458652e+03
5.269990572522440743e+03
5.275862451098037127e+03
5.770824929219828846e+03
6.267842509071415407e+03
6.122907199677080825e+03
5.807050808087708901e+03
5.389258632284061605e+03
4.727472444608126352e+03
4.527739130729172757e+03
4.403070304177977960e+03
4.608432561072909266e+03
4.830820999535213559e+03
4.904266033826013881e+03
4.937764506362102111e+03
4.914312023161924117e+03
4.821889265907811023e+03
4.476494435857991448e+03
4.309158271122752922e+03
4.176806079174987644e+03
4.159432588860177930e+03
3.789022091476806509e+03
3.411572391441763557e+03
2.652090331419843551e+03
2.518590899540183273e+03
1.937126394633555492e+03
1.409687818810852605e+03
1.592166611377300114e+03
2.483523115637472074e+03
2.872927454225163274e+03
2.452254299900603201e+03
3.317370209375014838e+03
3.506188797758088185e+03
3.298686168774637281e+03
3.232864015520972771e+03
1.943820686504413061e+03
1.906411375275653427e+03
2.200546935924928675e+03
2.486289102529992761e+03
3.088770104021347379e+03
2.809770982776545679e+03
2.460352068850116666e+03
2.554266282600089198e+03
1.621589941323375569e+03
-2.148734855177941881e+03
4.342277368596097062e+02
1.664488114347169812e+03
1.569054618540074898e+03
1.427819269905630108e+03
-2.252181662124676222e+02
-1.082108465894211577e+03
2.214231554428570803e+01
-2.522466047962985158e+03
-1.559014264252204612e+03
-2.643499673466194054e+03
-7.169591369322032506e+02
-2.477473405420067138e+03
-3.154083148684562730e+03
-2.573799689645075432e+03
-3.160661067762877792e+03
-1.567690715186091893e+03
-3.995944819017175178e+03
-4.828395304009000938e+03
-3.955120271084345404e+03
-2.303167141768660713e+03
-1.547551559989558200e+03
-1.611283690410911731e+03
-1.919391461201049424e+03
-4.384969040356781989e+03
-5.770038012624204384e+03
-2.797606951017767642e+03
-3.300669337612854179e+03
-6.061260525073977988e+03
-4.280430029056326021e+03
-5.298209827961705741e+03
-4.568601572756691894e+03
-4.589625173727186848e+03
-4.591292087313969205e+03
-3.488657020456888404e+03
-2.650785623556083920e+03
-4.227623342479988423e+03
-1.795163604772422559e+03
-1.421502806917499584e+03
-1.259629782605542005e+03
-1.320535887594014412e+03
-9.812496914414722369e+02
-9.667774409317041773e+02
-1.162114521539028601e+03
-1.221305963129145312e+03
-1.390365744626634068e+03
-1.220310675388123400e+03
-5.951288015459654162e+02
-6.685063029292560088e+01
9.465824021053734327e+01
-1.894889516856445653e+02
-1.712701530284310536e+02
-2.086047535687729138e+01
-8.128514185725487096e+01
-4.785071207523159842e+02
5.054207460367261433e+02
7.874500973650630158e+02
6.505826608578167907e+02
1.007782005613863930e+03
1.139284265966526618e+03
8.511282519008583449e+02
8.090118661045912631e+02
5.948079512016389572e+02
4.448416094928304574e+02
4.051810959256059732e+02
4.470440926856981037e+02
6.090393516502819011e+02
9.139934251787150288e+02
1.043431356585919048e+03
1.008181185728224705e+03
1.173350491022226151e+03
1.089694643595431216e+03
1.090487607073522668e+03
1.069533262760618527e+03
9.577601203902441966e+02
4.575516170680731989e+02
6.647105421465196287e+02
8.883288888716010661e+02
1.341230168284604588e+03
1.159737801791247648e+03
8.676764756248064714e+02
9.789553788409651816e+02
8.107588136009152322e+02
1.018402771253592618e+03
1.127615465272192750e+03
9.604456584437307356e+02
7.506747994728431195e+02
1.007253330364629960e+03
9.533652452874227947e+02
1.132205305232354249e+03
1.445693621947511474e+03
1.268795690221057157e+03
1.447654653260532086e+03
1.649223006963330818e+03
1.770516864132448745e+03
1.700574676640015468e+03
1.688433357101094771e+03
1.643152390342658919e+03
1.685759691178766388e+03
1.862341110362762947e+03
1.635908584337434831e+03
1.586409222073154979e+03
1.496892557555500389e+03
1.606441672231072062e+03
1.862071375108669599e+03
1.322796689364673966e+03
-2.752860914222436008e+02
-2.949176832665005350e+03
-4.028820497629604688e+03
-4.196155586463973123e+03
-4.324166633442401690e+03
-4.203864820727981169e+03
-3.662215092852323323e+03
-3.350213562756360716e+03
-3.156782063525173726e+03
-2.637883006389950424e+03
-2.342499055150224649e+03
-2.231602530556578586e+03
-1.440186432689220283e+03
-2.037068269343581278e+03
-2.034195493684443136e+03
2.983521696522306570e+02
-3.245452160877064216e+02
-2.160785351418943719e+03
-2.001359806190142308e+03
1.720902659835494887e+03
3.965885091375175307e+03
3.753531728579200717e+03
3.670954483299884487e+03
3.547173575900355445e+03
3.499218033669759279e+03
3.306126678655729393e+03
3.177883073052936197e+03
1.455004042386684091e+02
-2.902006653837146587e+03
-3.180624160740173920e+03
-3.249343083181452585e+03
-1.154184281433681690e+03
1.330858423057300342e+03
2.051781737674312808e+03
2.396568766957458138e+03
2.439197866782450092e+03
2.916691999996675349e+03
2.917042603561202668e+03
2.838241766649809051e+03
2.430301145054732842e+03
1.968204744944529011e+03
1.506984957655723292e+03
1.518648545051566543e+03
1.573209967050353953e+03
1.593653208342161406e+03
1.398962263228813526e+03
1.466126074550350495e+03
1.447147816262307288e+03
1.239959553215436699e+03
1.206582764627348297e+03
1.027017765943492350e+03
9.002151969371590212e+02
6.701700155930286655e+02
6.077884593000375162e+02
3.360352373234100583e+02
4.189650396249818982e+02
1.916174356262362437e+02
1.979412637055075948e+02
3.109547663416304886e+02
2.386386972057371736e+02
-1.401331095019297948e+02
-1.814553318112937461e+02
-9.322580350936060256e+01
2.946036247021629606e+02
4.759749256118002450e+02
3.898753479042433128e+02
-4.171438143848850899e+01
-7.938118918236249328e+02
-9.875594706006030492e+02
-7.800677596664359044e+02
-9.473618561841084329e+02
-1.121268323375563568e+03
-7.647919717609892132e+02
-8.259936478066106247e+02
-1.184775544128551246e+03
-1.431093184241000699e+03
-2.312783037376756511e+03
-2.415009252108851342e+03
-1.743989578079988178e+03
-1.789627055808883142e+03
-1.076301313614658739e+03
-9.019008551107441463e+02
-7.374753677381175976e+02
-5.919419939380993583e+02
-4.953304570481424776e+02
-4.556746430887235988e+02
-6.780530157566594198e+02
-3.816613666984630413e+02
-3.546877515346004088e+02
-4.711435263471790336e+02
-8.059973894587457153e+02
-6.962994469033627638e+02
-6.141611454930338141e+02
-6.485413555451743832e+02
-8.393806760695290450e+02
-9.946414644061753734e+02
-7.272897215057386120e+02
-4.593969501551475219e+02
-5.009617149857630238e+02
-7.249317427884244580e+02
-1.064418252392714294e+03
-1.191657124383838664e+03
-1.037917137923784367e+03
-4.642288142228451306e+02
-3.465107035016677060e+02
-3.537186072405872324e+02
-4.597919759984978896e+02
-4.997824756363146435e+02
-3.467570123264892459e+02
-3.568993889113718154e+01
-4.365204951117187449e+01
-1.746487569047231432e+02
1.063815697126013617e+02
3.364193491022337525e+02
-1.885240710565784639e+02
-1.713848790806752334e+02
-2.392066686298856553e+02
-3.670090553478034963e+02
-5.658465658485567928e+02
-4.136959195714028965e+02
-5.095684586815017383e+02
-2.544571365871509840e+02
-3.493600835352733043e+02
-4.242488498326410422e+02
-4.361066730826677258e+02
-4.949349025435843146e+02
-4.669886449241937498e+01
-3.364126657011549923e+02
-1.280654792554963137e+02
5.536438070588280169e+01
-1.403047320808185532e+03
-3.792337989243036645e+03
-5.803472813025093274e+03
-5.594460023065110363e+03
-4.058252302501175109e+03
-1.592881338623182046e+03
8.461561358354457241e+01
3.323129356527644518e+02
4.051719333317943210e+02
1.532227234492788170e+02
-8.448138438868855360e+01
2.920723881663795964e+02
1.066975018529212775e+03
8.380490578598203228e+02
8.954214803837807040e+02
1.021275014034506285e+03
6.215580779791246187e+02
9.372413485570777993e+02
9.313394870555788430e+02
1.393844923590690996e+03
1.586889213570774245e+03
1.356781222422052906e+03
9.270035127797433461e+02
1.157696644479257884e+03
1.173967601208136102e+03
9.938289143266953261e+02
5.674375139716731837e+02
6.247724955678310153e+02
8.817289877402735101e+02
9.426112718663647456e+02
1.127175005455043674e+03
1.451609027543911225e+03
1.417657692354566962e+03
1.445655827258870659e+03
1.562564975172764207e+03
1.366335573205668879e+03
1.156085339017253773e+03
9.816254943442652348e+02
1.117304831888376157e+03
1.048060243392571920e+03
1.180764147392535051e+03
1.155340447139413982e+03
1.227872333442571971e+03
1.472460572554105283e+03
1.294134138422151636e+03
1.199066855187410283e+03
9.492367580150888671e+02
1.043326559732003034e+03
8.356046300311389814e+02
7.113054948142125795e+02
4.070774021751151963e+02
6.011254513660400107e+02
7.523434050258287016e+02
8.458106571592688852e+02
7.275338343952827245e+02
2.124244261891648762e+02
2.185070588085681607e+02
5.039939000158433373e+02
3.456521712347208677e+02
2.165848679519531572e+02
2.697724343402705927e+02
4.092313219036653322e+02
5.309695981627553465e+02
6.360221375769023098e+02
7.713953056052700958e+02
7.691226868261823029e+02
5.422177144227624694e+02
5.326256219489014256e+02
5.822915584728732483e+02
5.632058348939905272e+02
5.926866330452789953e+02
6.585835360774052560e+02
4.888426880216765653e+02
5.234661231281158962e+02
7.014436693393531641e+02
6.238912118001624094e+02
-2.793996421163056425e+02
-1.934153619864554003e+03
-3.998351850293592634e+03
-3.118133193162809675e+03
-1.975547595944254226e+03
-1.901483807135717598e+03
-1.109963722495812817e+03
3.869720863349342608e+02
-1.712803010279294085e+03
-5.002347911875176578e+01
-7.666418883173936365e+02
-1.812814823467087081e+03
-8.465873405555836371e+02
-1.317942771529016227e+03
3.080838390250729617e+02
-1.745476733714071543e+03
3.399005101579319010e+00
-1.171295794989818205e+03
-3.822555439755775296e+03
-1.432387255765047485e+03
-1.491754472656447206e+03
-9.217310153849471135e+02
-3.110341887133183263e+03
-1.526612257647070237e+03
-2.301473936568903810e+03
-3.217935310947110338e+03
-1.908039515952070587e+03
-4.327784242475588030e+02
-1.682188536366728613e+03
-1.430253013174940634e+03
-8.409627274932506680e+02
-1.434350657423539133e+03
-1.417436731349532238e+03
-9.017777134064424160e+01
2.123829555685355217e+02
-2.328354298405692475e+02
3.482150393696844048e+02
3.195194507652452671e+02
3.020585238514120192e+02
3.708306134036519666e+02
3.038233835147260606e+02
2.240296604705268066e+02
3.454404759512707983e+02
8.970550144643823387e+02
1.198820989811248864e+03
9.537847112039426065e+02
8.549137451310997449e+02
7.411960882240355204e+02
6.815954343140714400e+02
4.111130469107391718e+02
4.567971337417262703e+02
4.007175755547931431e+02
3.730209226978153083e+02
2.405947578136554910e+02
3.093525504725110977e+02
2.982931611900968392e+02
3.243652443249403632e+02
3.035303879526638866e+02
3.207837901656947679e+02
5.470907753797657733e+02
5.603749025028606638e+02
4.096027295680334532e+02
-2.092668420120718338e+02
4.429202997789586789e+02
7.313361454649074176e+02
5.184885121130872676e+01
8.372609343362568097e+02
1.193796105364330970e+03
9.035710737550703016e+02
5.434226146212261028e+02
4.120229332180112465e+02
4.754043194359135782e+02
2.837488139385436057e+02
3.160045337303570250e+02
2.981734293998688372e+02
7.953157766223237104e+02
1.294514003899567342e+03
1.172449556459427640e+03
1.024394152346887495e+03
8.495593541146573671e+02
1.082771656743886751e+03
1.347000181155991640e+03
1.312081664099045611e+03
1.174072870007723850e+03
1.178882320157336608e+03
1.173452511136915746e+03
9.467367075826946348e+02
8.436734301961920437e+02
5.922705436653079687e+02
5.685248305034039049e+02
4.784495538324334234e+02
4.020457879686712204e+02
6.002982709666591745e+02
8.251879542855288037e+02
7.567099544259373261e+02
6.698325626020061918e+02
4.625587425100261498e+02
5.348867091711792909e+02
7.028163484906716576e+02
9.213577619380529313e+02
7.495042301026408040e+02
5.222692038634501159e+02
9.756402049843414943e+02
9.066233921652317349e+02
7.082040998738264079e+02
8.813966963969054405e+02
8.721625358406887472e+02
5.385353608397402922e+02
6.124899550168134965e+02
5.469903980073017919e+02
2.760882566329296992e+02
1.207908764736121441e+02
2.050616575814794658e+02
3.198907267083760075e+02
2.062683952748822378e+02
3.401859103023098214e+02
4.846471975301413408e+02
4.866967393416881578e+02
-5.206206708372189951e+02
-2.185293830905322011e+03
-4.817386476539922114e+03
-5.395876868552565611e+03
-5.143752556288959568e+03
-5.194074088249988563e+03
-5.060803865105360273e+03
-5.653882801295825629e+03
-5.429349420659987118e+03
-4.913164883123174150e+03
-4.332230686282371607e+03
-1.196641086522022761e+03
-3.817381313198006410e+03
-4.943520878314317088e+03
-4.826043151948687409e+03
-1.673928671652076673e+03
-6.920205527866220052e+01
8.991650034392695261e+02
1.249178793856513721e+03
1.103889796816681155e+03
8.442620954504247948e+02
1.000322161227178071e+03
1.208100999361989579e+03
8.696421249015062358e+02
1.115917605692673305e+03
1.333934922653848162e+03
1.422702326163592488e+03
1.463257478813981152e+03
1.495578728277424034e+03
1.194644296242463724e+03
9.354706316681908902e+02
9.551004387550187857e+02
1.035546678013231030e+03
1.183851751047244761e+03
9.080043426039753740e+02
9.179950321971400626e+02
9.838295929190495599e+02
1.088549846529742808e+03
9.741449704561363205e+02
1.059671130566691772e+03
1.080155858654635267e+03
1.068568673742185638e+03
8.118977479712857530e+02
6.961898948164481453e+02
8.974780083221166933e+02
7.117286143107853604e+02
5.019846739683649730e+02
8.082883257910143584e+02
1.032607667047901941e+03
1.128965915337010983e+03
8.814291198227138011e+02
1.011976602656753244e+03
8.935805051413402680e+02
8.022636021668760122e+02
6.180364083316256938e+02
6.569447250160421845e+02
5.380114046275817827e+02
4.162421247853873183e+02
6.786626137310033755e+02
8.222220992403510991e+02
5.919621332183545519e+02
3.658062746833318784e+02
4.437392975543403395e+02
4.319902004868960148e+02
1.529053359852034077e+02
-6.054798433208593451e+02
-3.063236447436733556e+02
4.054091486362875116e+02
1.956140067224165762e+02
-1.319693094084138352e+02
1.867535782448528892e+02
1.868422178917059568e+02
2.622307529558472652e+02
4.080587682313704931e+02
6.024809157204182242e+01
-2.060286954564739972e+03
-2.820391768030158346e+03
-1.336108497197516272e+03
2.455890995324315185e+01
8.665514463264416634e+01
-1.078586357907982034e+02
-3.229437390506346901e+02
-2.916602110602020161e+02
1.899358359614831926e+01
-4.099024477401777062e+02
-1.853505692333533261e+02
3.583879793868343100e+00
8.964222948899134735e+00
-1.119628054378679138e+01
-1.418785491915282932e+02
1.048936237188051308e+02
1.850926392256918405e+02
1.537350363405924725e+02
2.168132220882594652e+02
-2.066926347374394766e+02
-3.437567219560038438e+02
