1.369450808568686568e+02
-3.390965791671316765e+03
-5.841757860226186494e+03
-6.480460285124631810e+03
-5.906161344431227917e+03
-6.243931016333592197e+03
-6.472782003602323130e+03
-6.496707905567274793e+03
-6.994767488132136350e+03
-8.106937848083807694e+03
-8.009297464814563682e+03
-6.429880838897840476e+03
-5.891784204230441901e+03
-5.486737232327654965e+03
-4.884683834849030063e+03
-3.501811821596731988e+03
2.118649193729490889e+02
2.500803172424402874e+03
3.456809452902152316e+03
3.816732281357282773e+03
3.538606913229834845e+03
2.801414868039656994e+03
1.700106214545224475e+03
7.155211523926684549e+02
2.046068217387673656e+02
-2.826417457620072469e+02
-1.010165339851065369e+03
-1.276011101311582706e+03
-1.718215707004404067e+03
-1.239708995411811429e+03
-8.824959953620494844e+02
-2.676176735864187890e+02
3.029726122099341410e+02
9.721904346979631555e+02
1.723043053030580722e+03
2.081570780218080017e+03
2.566853788257898486e+03
2.965915884611580623e+03
3.134784090844281764e+03
3.105533954843307129e+03
2.810098368149919679e+03
1.709466667171916242e+03
1.346670582183207671e+03
4.397643107531409328e+02
-2.993500292693714186e+02
-9.957816111883161057e+02
-1.537540889592431085e+03
-1.991554561825038718e+03
-2.310774473608621975e+03
-2.280237408235985640e+03
-1.776844843507631822e+03
-8.756003103652781192e+02
-2.874683210599773702e+02
1.215778027306630378e+02
6.785572613842842884e+02
1.808520454576761495e+03
2.332555153218929718e+03
2.853701964655724623e+03
3.150943985890045496e+03
3.060152757446482610e+03
2.488314057338232487e+03
1.450457681700003832e+03
3.846241593599515340e+02
-4.913746738059720798e+01
-8.807284562644507560e+02
-1.255188998625545082e+03
-1.640307606151352275e+03
-2.125494371758578836e+03
-1.955671804449530100e+03
-2.060562063087640581e+03
-2.181176316061678335e+03
-2.724673970041075336e+03
-4.502041513548845614e+03
-2.462275058426942905e+03
-1.241687162382549126e+01
8.946025115679981354e+02
-1.010109110277859713e+03
-5.222762929957179949e+02
1.612000716333283890e+03
2.543732189848070448e+03
2.357934242030814403e+03
1.911590119486048707e+03
9.197670977458714106e+02
-2.946065805055955025e+02
-1.164614998052990359e+03
-1.440269768820195850e+03
-1.582516988903241327e+03
-1.877270186569749740e+03
-1.859493840539882513e+03
-2.061282853181059181e+03
-2.182698228857353570e+03
-1.628716593036282575e+03
-8.562161102061207885e+02
-2.619058202057863483e+01
7.043892934322698238e+02
1.488521691062999025e+03
1.980232848165243013e+03
2.180690328611636687e+03
2.376953408823294012e+03
2.925032492785256636e+03
2.516865469258695612e+03
1.822383089401423376e+03
1.004530447302470634e+03
-1.917226362348236819e+02
-1.161307140667609247e+03
-1.983189737204535959e+03
-2.204460984056047437e+03
-2.382146353640328925e+03
-2.418155483055274090e+03
-2.083578605834713471e+03
-2.130480676770335322e+03
-1.629872808407630146e+03
-1.117674179691444806e+03
-1.417712639951183746e+02
9.398611368719940629e+02
1.992269409472598909e+03
2.406396726409259372e+03
2.597384587436743004e+03
2.510162018778982201e+03
2.434714619960221171e+03
1.764095536148040082e+03
1.408433941939869783e+03
6.526213133894445946e+02
4.451338231282616675e+01
-4.599798943080447202e+02
-1.515051620690975142e+03
-1.973666294016427855e+03
-1.967743279868792115e+03
-1.776365634966567768e+03
-2.013465374899388053e+03
-1.733104100696772321e+03
-1.229365781218145457e+03
-5.781933933362728339e+02
1.114740557864956969e+02
4.786241838121273418e+02
4.663285037405487969e+02
1.714617797749720467e+03
2.551398184824171040e+03
2.777805000457568894e+03
2.800243681508544796e+03
3.004414047353327533e+03
2.823015954486196733e+03
2.277153539508348331e+03
1.311771786834356135e+03
4.207961720849010590e+02
-4.248542948529339469e+02
-7.031876570662024051e+02
-1.173289862747445795e+03
-1.116072153008927216e+03
-1.382589788010533994e+03
-1.576838938246312409e+03
-1.314810999086272886e+03
-2.493878212097497169e+02
4.234773911465388210e+02
1.053455487823498515e+03
2.171149718151000343e+03
2.706790667103499345e+03
3.168595223004591389e+03
3.276604844406027041e+03
3.327740932427345342e+03
3.018034022933323740e+03
3.206477457429578863e+03
2.639927821197627964e+03
1.660270966548596107e+03
6.864632757405655639e+02
3.789654777412593489e+02
-2.841251437611550159e+02
-6.056317896634299132e+02
-8.345060286864433010e+02
-8.328215396940944402e+02
-6.716720875716349610e+02
-1.494555551305203380e+02
4.818651670396333202e+02
1.091278826611633804e+03
1.755592191236429244e+03
2.494848086614908880e+03
3.163148692760168615e+03
3.899486866223074685e+03
4.078816205503018864e+03
3.992104128445466358e+03
3.825379206848723697e+03
3.556624702233271364e+03
2.881855369730983966e+03
1.584919743197134721e+03
4.926913711236517770e+02
-2.446496302088293362e+02
-1.596076003825067573e+03
-1.776746331198264215e+03
-1.845842307308445015e+03
-5.056383021068959351e+03
-6.320374607447836752e+03
-4.876888089198553644e+03
-2.898821667631410037e+03
-4.278159657400721699e+03
-4.747913863225893692e+03
-3.654113226023265270e+03
-2.495715431660030845e+03
-2.069563607706396397e+03
-1.562611997395815479e+03
-1.637844246939983350e+03
-1.363182626058433470e+03
-2.141636628602455858e+03
-2.857322810499342268e+03
-2.983336843557471184e+03
-6.146830896446031147e+02
-1.329327441203213994e+03
-5.143481140020926432e+03
-5.400202265881427593e+03
-4.211524081125427983e+03
-4.783347955670602460e+03
-6.024529828441041900e+03
-5.699111678534992279e+03
-5.443112683491189273e+03
-2.705480726618581230e+03
-2.880650338959040369e+02
8.021632793784624482e+02
-2.367827199174212183e+03
-2.369893731883808414e+03
-2.169903814970941767e+03
-2.693956226988430899e+03
-3.064161294131207796e+03
-1.371466171856810433e+03
1.294191614132766517e+03
2.779056075873837131e+02
5.816325552995464250e+02
1.992832234085534537e+02
-7.851064185770189852e+02
1.084556244934114375e+03
1.086350070121143517e+03
1.080138347886161910e+03
1.506860405499801345e+03
2.146594175146977250e+03
2.490401387949028049e+03
3.081486644738156883e+03
4.023093626358670008e+03
4.786262176613692645e+03
5.029877751916063971e+03
5.210867357205451299e+03
5.339443379643965272e+03
5.080822574851837089e+03
4.427915850525393580e+03
3.653579134708701531e+03
2.665760593512024570e+03
1.243499734557000920e+03
-2.912068927764586874e+02
-1.409332614079666882e+03
-2.174759014939731060e+03
-2.474390555903248696e+03
-3.254140600250371790e+03
-3.791107839650590449e+03
-3.533284262469148416e+03
-2.962604578481422777e+03
-1.364023348583840516e+03
1.025816671997596075e+02
9.093764310741577219e+02
1.430411983572096233e+03
2.030976659507328350e+03
3.236078977190699334e+03
3.986824710085725201e+03
4.443319621963726604e+03
4.437416414318891839e+03
3.872169730346542565e+03
3.355696774908415591e+03
2.765109858908252136e+03
2.158197984414499842e+03
1.544285174549255089e+03
6.132985498858007531e+02
-4.161557765314455537e+02
-3.809952597386235539e+03
-3.147799807820948899e+03
-1.535688816678644343e+03
-2.729537175608274993e+03
-4.712373268850389650e+03
-1.028600995008401014e+03
8.998019307590901690e+02
1.128956489338519532e+03
1.650909648123475108e+03
2.484819823360925056e+03
3.513936288359730042e+03
3.941299934538345951e+03
3.549865450148359287e+03
2.624504586533422298e+03
1.902175773283125409e+03
7.919418908235530807e+02
-3.271758689089019754e+02
-7.041399199007566949e+02
-1.069069417186034570e+03
-1.456018604911677130e+03
-1.259953017390395189e+03
-1.436834887283102262e+03
-1.262660761081242072e+03
-1.056409884412140173e+03
-8.321080492123774093e+02
-6.405736553633189487e+02
-4.467524290170308063e+02
1.322791832835762591e+02
2.604784825057461148e+02
2.138114203285444432e+02
7.953111478477877654e+02
1.541996265386212826e+03
1.619975662508366895e+03
6.743148061239503477e+02
-1.129907346743734252e+03
-2.589809540256625951e+03
-3.376539339574744645e+03
-4.303090133004563540e+03
-4.230591056984462739e+03
-4.235004919948711176e+03
-3.925288797634957518e+03
-3.896556753228463549e+03
-3.840822115704738280e+03
-3.073145556646276873e+03
-1.331671278504308020e+03
9.456836922435747965e+02
2.756919557539497418e+03
2.675100051163892658e+03
1.920362972703385594e+03
1.193837314334691655e+03
5.365284667883652219e+02
-2.035323404974971595e+02
-3.363379960297875186e+02
-1.128087027634230708e+03
-2.736036485370257651e+03
-4.280055211899662936e+03
-4.283080132912927183e+03
-2.202354611510650102e+03
6.702631280934690494e+01
5.829714977125142923e+02
1.745011728727612308e+02
-3.582127464215832902e+02
-1.664587052749102440e+03
-3.180754158764373187e+03
-3.649604747555536051e+03
-8.439183438189857043e+02
-9.485508705266670404e+01
6.534298217440458529e+02
1.208937892667390315e+03
1.855916728485970680e+03
3.355394779335913881e+03
3.708206331682991276e+03
3.012327684921783657e+03
1.978695734045704057e+03
1.167065932439100152e+03
1.412406794023957900e+03
2.068900859011735974e+03
1.750847500052059559e+03
4.012901765617540946e+02
-4.080921940749444730e+02
-1.754469256609412469e+02
1.102455883902451177e+02
8.372820993039337623e+01
-2.252899654477489548e+02
-4.398795533384618466e+02
2.409832152367971503e+02
1.569402561446100663e+03
3.036409478046265122e+03
4.352866662138954780e+03
5.029756313892376056e+03
4.754135726243716817e+03
4.061025091743310895e+03
4.044348755963086205e+03
3.749936613909359039e+03
2.862783239391400912e+03
2.475894618891449227e+03
2.478279677615077617e+03
1.761847111116509268e+03
4.125623136704201670e+02
-1.366297774057805327e+03
-2.292769688187069278e+03
-2.419005456810782107e+03
-2.311143976813094014e+03
-1.681174971047515328e+03
-1.655233269003535725e+03
-2.604342908374758281e+02
3.571376644879542255e+02
2.645360191813520032e+02
8.279513803844881750e+02
2.965515039278729091e+03
4.566151121987806619e+03
5.097966097346840797e+03
4.934875983124214144e+03
3.991860586532553043e+03
3.063003468828153473e+03
2.455164093444433092e+03
6.011541523091157160e+02
-4.912881363971249726e+01
-7.256441831274112246e+02
-2.581331654991460255e+03
-3.638165650736231328e+03
-3.829171389874445595e+03
-3.869469446373327173e+03
-3.005073726698267365e+03
-2.266891405828019288e+03
-3.497857680607115981e+03
-4.458804854630162481e+03
-1.521562191356353651e+03
3.265545172713410125e+02
2.386789912362468840e+03
-3.498686720210714043e+02
-1.044401955863495232e+03
-1.644915653135808043e+03
-3.232475263348387671e+03
-4.582006378265141393e+03
-5.864497635158195408e+03
-7.331938656266382168e+03
-8.599340643070723672e+03
-9.694705224497540257e+03
-1.000405444882972188e+04
-8.019558519919389255e+03
-4.223114818909975838e+03
-3.132557541710456007e+03
-4.537881619388877880e+03
-5.883974970802097232e+03
-7.177694442729673938e+03
-6.061193330915719343e+03
-5.549541798759119047e+03
-4.666671015577830985e+03
-2.404615581108149854e+03
4.065564302910657943e+02
2.231014115097036665e+03
4.657941744746349286e+03
1.512479321822648444e+03
-1.890402131854165418e+03
-2.498829774310534049e+03
-2.307871916294003768e+03
-6.235116022707305774e+02
2.625323804176038720e+03
2.633651221753156733e+03
3.746385130788762126e+03
4.591634807604419620e+03
2.653447200542939754e+03
1.931851003299632339e+03
2.642882322142293106e+03
3.572550542588272037e+03
4.147898287967837859e+03
3.847935404667298826e+03
4.007735508209358613e+03
4.210416763030045331e+03
4.915018940426475638e+03
4.861605229811832942e+03
2.996270391439817558e+03
3.006999082149033256e+03
4.639804937815397352e+03
5.080767740494047757e+03
4.039841985138728887e+03
3.336023373070983325e+03
2.519567879283973070e+03
8.434107073115008006e+02
6.153367522074738645e+02
5.592963084422134443e+02
1.145815991141444101e+02
-1.239607487894006226e+03
-2.281354637838492181e+03
-1.567609181829759791e+03
-2.154905522487962344e+02
8.251827916444033235e+02
1.981364398935608051e+03
2.799074393013640019e+03
3.783515312283428557e+03
5.811706148406135071e+03
5.517643289809892849e+03
4.699106443418345407e+03
5.228338931723223141e+03
3.997573662143993715e+03
1.446592815620263309e+03
-6.655923589344794209e+02
-1.324076035019020310e+03
-2.001852892086498059e+03
-2.880919696432928049e+03
-3.651195997007171627e+03
-3.108888647283287355e+03
-2.560913458392235952e+03
-2.834226525166535794e+03
-1.850483673490087540e+03
4.339453743041833604e+02
1.838149363880695546e+03
1.671245986961969265e+03
1.495195389563571098e+03
1.864055199684816671e+03
2.859536599575793844e+03
2.633725633214467962e+03
1.781500193692030052e+03
4.588990176516682027e+02
-2.950691146330306083e+02
5.340057108720984758e+01
-4.415973827832748952e+02
-2.198112859250806196e+03
-3.845185477927117063e+03
-5.553811389295569825e+03
-6.291876718807077850e+03
-4.416531880208889561e+03
-1.654970286481363928e+03
2.696443469452249175e+01
-4.996863508923601103e+02
7.730564275366594984e+02
4.080196318014541703e+03
6.377725881516603295e+03
6.578751595564745912e+03
6.247282664875158844e+03
5.747274591703001533e+03
4.609763183970109822e+03
2.811721389400213411e+03
1.004140972566183109e+03
1.127998561351934086e+03
1.932168904135471394e+03
1.161735092474696330e+03
-5.893238261813754661e+02
-2.301108213829594206e+03
-4.289671818812224046e+03
-5.356029020639785813e+03
-5.190235118820994103e+03
-5.471350971416729408e+03
-2.793315677013779350e+03
-2.394154371524606631e+03
-3.255939678453196393e+03
-3.102647125723346562e+03
-4.061280930870429529e+03
-3.694893085509383127e+03
-3.064473737536557564e+03
-1.088044331281275390e+03
-1.964665582515592860e+03
5.578421183216404415e+02
1.336401143611942871e+03
-2.704057129155743496e+03
-4.626513346759083106e+03
-4.162740781512839931e+03
-3.911101663732989891e+03
-2.435733235035740563e+03
-1.624238951123752486e+02
-1.370718575373850285e+02
-9.281124787320542282e+02
-1.646470884206117262e+03
-2.813039497962660789e+03
-3.144858046951233973e+03
-9.839671082251261396e+02
1.362566550617626717e+03
3.234743441827853076e+03
3.799710635915388139e+03
3.528478577578483055e+03
3.398094755408591482e+03
3.698517444496273129e+03
4.135731550490323571e+03
3.828681552080155598e+03
2.446375343842171787e+03
1.438783258911669463e+03
6.587818183277978505e+02
-1.525438261747078172e+02
-7.332583589195452305e+02
-2.289377388467579749e+03
-1.478907823208340687e+03
3.142009861063568223e+02
1.267008441872046205e+03
1.621430454121195680e+03
1.196530419390373481e+03
-1.465221742800058813e+01
-6.811830583841168618e+02
-7.270913864314403554e+02
1.836876586959377278e+02
2.466266767513977356e+03
3.809742285503154108e+03
3.495106898929092495e+03
3.413309810223197474e+03
1.963347990201370294e+03
1.470146141264880953e+03
2.367727459599711437e+03
1.962058946055884917e+03
1.439162266111023882e+03
4.420198049453117619e+02
-1.810432807880192968e+03
-3.705254621858040537e+03
-5.763436949903183631e+03
-7.386053159625697845e+03
-7.621929354418847652e+03
-6.401933798497561838e+03
-5.211058219395943524e+03
-3.209303089816983629e+03
3.883356890995445951e+02
1.914941615467053907e+03
8.987517129513821601e+02
1.862894525722647131e+03
4.306390071715481099e+03
5.124238526197442297e+03
5.024477501913108426e+03
4.048625748095164909e+03
3.048794097866608809e+03
3.087070347969059185e+03
1.982517716085772463e+03
3.072354287415409431e+02
-9.767922098769472541e+02
-2.239587954042771344e+03
-3.178362256274647734e+03
-3.869970645000154036e+03
-5.147375481328595015e+03
-3.806603663614301240e+03
-1.506515130426794485e+03
-1.261137676021738798e+03
-1.321494030481747586e+03
-1.681431582631757919e+03
-4.687896904959691710e+03
-8.427893158663697250e+03
-1.030940372274884794e+04
-7.481489104986911116e+03
-2.878136702534517553e+03
-1.002278733181220105e+03
7.101277586193090201e+02
4.304138672491771104e+03
6.122653957770932720e+03
4.937649054154734586e+03
3.248214451534001910e+03
1.837404911471633113e+03
1.872184542330448949e+03
2.982488906298610345e+03
3.460317966374595471e+03
3.275756993915165822e+03
3.914819105647384276e+03
5.203604366398703860e+03
5.553209067070062702e+03
3.949603455367636343e+03
2.188827074458837615e+03
1.007938371172261100e+03
6.292546108247427838e+01
-1.940248486626745034e+03
-4.170554574671220507e+03
-2.975913800565654583e+03
-8.702254955237862077e+02
1.774094099763855752e+02
6.219330837977756801e+02
2.147336793091889376e+03
2.772596990418211135e+03
1.685765533994571115e+03
-8.582517197417753323e+02
-3.441414925472683535e+03
-3.784636720806799076e+03
-2.892948749520442107e+03
-2.462512250347949248e+03
-7.753278941319732667e+02
3.216771970562263618e+02
1.579614506994351814e+03
3.762535406005106324e+03
5.164442763885445856e+03
4.844325952812556352e+03
3.306252712019912451e+03
1.523190799557857872e+03
7.840915054785683651e+02
6.390380849075146443e+02
4.599273449316689835e+02
-1.302321421439432015e+03
-4.046776252922871208e+03
-6.706655779013349274e+03
-7.686839352011669689e+03
-6.779774309741474099e+03
-3.765701384567576952e+03
-4.872989850261921674e+03
-2.625523290631141208e+03
-5.026420023844227103e+02
1.845362802360445130e+03
2.456197699659573573e+03
1.909664493070286426e+03
1.901014935986729370e+03
2.345379492625083003e+03
2.539613961948658016e+03
2.957466241387634909e+03
2.848230271715223807e+03
2.152822836732683754e+03
-1.001814822239921000e+03
-2.767076787201690422e+03
-3.133084339590952823e+03
-3.741825148930763135e+03
-2.420094374147520284e+03
6.261729475207845326e+02
2.018746452060219553e+03
2.095703834189810550e+03
2.786983944305064597e+03
2.325692932017246676e+03
8.623583735544109459e+02
1.049352928668607774e+02
7.006013801343249270e+02
2.831968836590907813e+03
5.344537321407956370e+03
5.784576442776818112e+03
5.196675438333611055e+03
4.303508062541536674e+03
4.036147980423957506e+03
3.729546003471002678e+03
2.155587860829661622e+03
1.579080102520095352e+03
1.229232083734678781e+03
9.881637057437362728e+02
1.032641857340599017e+03
8.785859991338561485e+02
1.110954365968568482e+03
5.617375652809651001e+02
1.429457187127580937e+02
7.155971574314331747e+02
1.373652583209400518e+03
2.073039085777024411e+03
2.903817389784358056e+03
3.183136088621744875e+03
3.446859163749719755e+03
3.528755005501071082e+03
3.673887232596493050e+03
3.497326680397904966e+03
2.557989175344402611e+03
1.570850878320565698e+03
-1.109759102063795240e+02
-2.271621029153930522e+03
-4.924169586154604985e+03
-5.044592846765472132e+03
-4.922794128677539447e+03
-3.965749274247356880e+03
-5.453657768999826658e+03
-4.831698331245306690e+03
-5.666841922712686028e+03
-6.369827190013346808e+03
-5.911747390316390010e+03
-5.502652094351719825e+03
-4.761732065293784217e+03
-4.114767427295361813e+03
-3.227740480357460910e+03
-3.115790247162653031e+03
-2.913781589395194715e+03
-8.445924951763820445e+02
-1.623217126227347080e+03
-3.741774142684019353e+03
-4.917303822127371859e+03
-5.368757057866952891e+03
-5.820111971270458525e+03
-4.861548083567564390e+03
-4.069037229456670957e+03
-3.256524097229273593e+03
-4.570150165015130369e+03
-4.752993701055651400e+03
-4.163977684705672800e+03
-3.954943493326808948e+03
-2.348790845315736249e+02
2.165159759303180181e+03
2.639177335543408390e+03
2.940256587368433429e+03
3.200504602237607287e+03
2.880954729772651717e+03
3.121590055670116726e+03
3.100294184490637690e+03
2.462121985496080015e+03
1.750207165622603270e+03
1.433578074264869656e+03
2.669252446254000915e+03
2.644173667663241304e+03
5.491736375966230526e+02
3.441393374531013478e+02
4.001148398692897672e+02
3.173093349315379328e+02
4.166117926901865189e+02
1.448685694758626710e+02
9.601322757228296041e+02
2.006585530158655274e+03
2.423265512840667725e+03
2.875258240782368375e+03
2.750732381333876219e+03
2.827760483410791949e+03
3.003393627135389124e+03
2.064492080724357947e+03
1.671016372368665998e+03
1.251139233066124007e+03
4.189531721508803344e+02
-6.505554994883601694e+02
-4.263614263909687452e+02
-3.294346282401568260e+02
-1.219810725832359140e+03
-1.317537259332337499e+03
-1.272855594568581637e+03
-1.041650216640761073e+03
-3.315437663693372770e+02
6.465917446588956636e+02
9.588514310190788592e+02
1.052099074056725613e+03
1.020402545391739636e+03
9.754375712241058238e+01
1.625898070382619608e+03
2.556383054747975166e+03
2.442165314978323750e+03
2.461208901194930149e+03
2.748290144521159164e+03
2.327552811586090229e+03
1.492059303061505943e+03
6.537183574373115107e+02
-4.553971952165694148e+01
-3.454801705108341707e+02
-5.490543302174721703e+02
-6.303532713131173750e+02
-6.683713470481222885e+02
-5.621335752111509692e+02
-7.298070125032971873e+02
-1.257465136786048106e+03
-5.650849808957825644e+02
-1.875370828269614378e+02
1.128232855205249734e+03
1.641272240829617658e+03
1.880625702621534856e+03
2.140258842072665175e+03
2.635255572558921813e+03
2.834720848139256304e+03
2.031651680046536057e+03
1.926027980624056227e+03
1.325859320061635117e+03
4.801145023763883160e+02
-5.870884336987916186e+02
-1.173956097989607315e+03
-9.876244569047131563e+02
-1.434045292476602526e+03
-1.512072190982702750e+03
-1.256649837384378770e+03
-1.140714726161806993e+03
-1.097262917025633442e+03
-8.082947715562615940e+02
-1.678902195827323567e+02
5.918347658552204393e+02
1.285933058634447207e+03
1.789525514260212958e+03
1.896608300981465391e+03
1.854314095658328597e+03
1.966592702388100406e+03
1.922292912068653095e+03
1.789500934614544803e+03
1.261185448490422914e+03
4.083741558647234910e+02
-2.547972708119996526e+02
2.864739275241985439e+01
-8.432779988133763709e+02
-1.592569342914998515e+03
-1.810293664207857773e+03
-2.463611919130099523e+03
-3.762502937573979125e+03
-6.028051376769093622e+03
-7.522421792578632449e+03
-7.216472091119939250e+03
-6.573042350377534603e+03
-6.186301279200325553e+03
-4.469364122099816086e+03
7.298937052766598299e+02
9.574736550809183200e+02
9.845385375718446994e+02
9.450181050402220535e+02
1.213796272792863192e+03
1.536962131028635667e+03
7.354664879683602976e+02
-5.868556950881755796e+01
-4.074543657221680633e+02
-8.939066989724185532e+02
-1.102072505234583559e+03
-2.164909158350154939e+03
-1.567554125695136008e+03
-2.741038618332670467e+02
-3.474406359064622620e+02
1.724211920152223740e+02
6.135123702780100530e+02
7.540785656756910385e+02
1.964239155901999993e+03
2.915929332562429863e+03
2.936731415618514347e+03
2.195416212525545234e+03
1.837099451174395426e+03
2.999722039874662642e+03
2.873044921779825927e+03
1.726111781128284065e+03
8.961228538923353426e+02
3.580960792158619483e+02
-6.490673016662221073e+01
-8.129825689088390845e+02
-1.505304105578356257e+03
-1.202895869994154509e+03
-1.356687346471529054e+03
-1.416698642606026624e+03
-9.909973795072259009e+02
-4.815336937404194373e+02
1.429256230377838790e+02
7.214151645205206478e+02
1.465914522583047528e+03
2.086445043418937075e+03
2.211119816153912325e+03
2.344968329811435979e+03
2.909708387216552637e+03
2.620224828625289319e+03
2.067544093196584981e+03
1.416638159599863002e+03
8.734103739419693966e+02
2.848879536707193552e+02
-1.288578107529154408e+02
-7.086867942811418288e+02
-9.445069889446558591e+02
-9.174512027877555056e+02
-1.061647030395221464e+03
-1.325052195223315266e+03
-1.511788378625654786e+03
-8.547869786628911015e+02
-2.900308440890141242e+02
2.603625791414850141e+02
1.024436066395670196e+03
1.310343767404229084e+03
2.339230113884588718e+03
2.885128674463899188e+03
3.271987062133928703e+03
2.939712096706911780e+03
2.355290522239043185e+03
9.728393037394961311e+02
-2.652595552990313536e+03
-5.261923804736498823e+03
-2.589162190066630956e+03
-2.428559364532480686e+03
-2.612309946079619294e+03
-1.367117670757340647e+03
-3.662237574136862804e+03
-1.503662130273125968e+03
-8.914464899310983128e+02
-2.779457729910972375e+03
-2.632588592824071384e+03
-3.048489283813395332e+02
6.857837319375290690e+02
-1.947639763977022994e+03
-7.581420529952260949e+02
-1.197071863322462377e+02
1.042740316812497667e+03
1.434287582740858511e+02
6.582928895723072173e+02
-3.617933751891532097e+02
-1.090839163041627899e+03
-9.309701438131686473e+02
-3.966368505117239692e+03
-3.513973912599853065e+03
-3.768725302439526786e+03
-1.374620718147141588e+03
-2.664551210666390944e+03
-3.107454422437758240e+03
-1.002293661011138511e+03
-2.189119771925137684e+03
-2.407049311156608383e+03
4.858885567821087079e+02
1.298840148358802480e+03
-1.088059209259247382e+03
-5.888161115844379765e+02
2.390557221814198783e+03
1.841106680486097957e+03
1.829422892865494532e+02
1.574003819621615776e+03
2.250250246321835220e+03
1.140676401359175998e+03
6.082319491242956246e+02
2.399043843514550929e+02
-1.333673830370758822e+02
-1.027525655217009216e+03
-1.017535476073132941e+03
-1.096439757428132907e+03
-1.189215837274796286e+03
-8.238540567466841367e+02
-1.693604612417478563e+02
9.102944964292041732e+02
1.366142850558081818e+03
2.191204635883107585e+03
2.854445554309719682e+03
2.929823120733744418e+03
2.643596798353498343e+03
2.888872487454380462e+03
2.987782776262130483e+03
2.326464058105714230e+03
1.664872868741323828e+03
1.197673878134482266e+03
1.219941645924670183e+03
5.366005455547907559e+02
-1.706191214682083000e+03
-3.989575757087570764e+03
-2.456507547840168627e+03
-1.772906363389218313e+03
-1.008786276468071378e+03
-1.056167969490024461e+03
-1.749265633346184359e+02
5.496119144621800388e+02
1.024359632817460124e+03
1.581526861513532822e+03
2.088107554209921091e+03
2.707997524418210560e+03
3.095341395376110995e+03
2.858289767805666543e+03
2.878774939000451013e+03
3.167736444515310268e+03
2.417126073418141004e+03
2.061792205065655253e+03
1.525687927083089562e+03
2.777353873497922336e+02
-5.528387849806969143e+02
-1.024042810621368972e+03
-1.016240755309267797e+03
-1.012486831986447214e+03
-1.312734830626430721e+03
-8.639550366916272424e+02
-5.091813187568494641e+02
4.764887818625635987e+02
1.206066906696557908e+03
2.072555500442033917e+03
2.512917158747025496e+03
2.724174824980107132e+03
2.997367237140041652e+03
3.197453744144668690e+03
2.959378983719581811e+03
2.375976654594479896e+03
2.119307994549789782e+03
1.622503357142269579e+03
8.104158796328957806e+02
2.029828960063791499e+02
-3.437847795563582167e+02
-6.130064222156640881e+02
-8.506667306907651209e+02
-8.758253855887379586e+02
-1.392499576948412823e+03
-1.523662437079185793e+03
-5.933204857188939059e+02
8.160168829589395045e+01
7.670659225674390882e+02
1.180037997925028094e+03
1.679630028742346894e+03
2.698798689737936002e+03
3.510556107824703759e+03
3.524930575284665792e+03
2.688911641662282364e+03
2.299400872979303585e+03
2.209337283466481040e+03
5.147789351474805244e+02
-1.854306670212711424e+03
-5.783009214808165780e+03
-7.263377133041773050e+03
-6.666448452289722809e+03
-6.305281694137189334e+03
-6.828849863930946412e+03
-6.461099136855178585e+03
-7.679000308706020405e+03
-7.249449491489089269e+03
-4.158715388031720067e+03
4.373521397298193847e+02
-5.171373809462298823e+02
-3.888203168233675569e+03
-3.968878878843914208e+03
-3.622129272899450825e+03
-3.179991096729928358e+03
-2.476348216242589842e+03
-6.502084314471850348e+02
1.084367457889858997e+03
1.565349642574145946e+03
1.205695410090370387e+03
8.464149572184919634e+02
8.064755855231338728e+02
3.118793808699662691e+02
-1.653236727733675480e+02
-2.832118933582979139e+02
-8.296850150087874454e+02
-1.011806234489381154e+03
-3.295541085152783012e+02
6.817078882039001542e+01
7.513586069711982418e+02
1.477979580861987415e+03
2.251064762010566028e+03
2.778745826105062861e+03
3.179097569345175998e+03
3.161158738743514277e+03
3.323909574563460410e+03
2.993426099316798172e+03
1.984659456256107660e+03
7.315312171948980904e+02
6.680634294593928644e+02
3.932546442666761664e+02
-2.709270374627357683e+02
-8.144477506034115777e+02
-9.862895401519444931e+02
-1.215445267605284471e+03
-1.218855230069070785e+03
-1.027516870676015742e+03
-7.974254589334336742e+02
-3.905184205412070355e+02
2.692784032942266776e+02
1.189971438510183134e+03
1.832633028110450368e+03
2.552330115024443785e+03
2.797057572448703013e+03
2.811881492362515019e+03
2.982872990933579786e+03
2.743034202948430902e+03
1.978307771209448219e+03
1.136808041713941293e+03
5.305251718569355717e+02
-6.425658396590856682e+02
-1.356424340695540423e+03
-1.960970733826343576e+03
-2.350084433194682788e+03
-2.231720288104006613e+03
-2.439995848850117000e+03
-2.811923090936281369e+03
-2.658552617007931985e+03
-1.874821939270294479e+03
-1.663703695783439116e+03
-2.285791144761668292e+01
8.955566372202264347e+02
1.589542803814572380e+03
2.515080322575428909e+03
2.108186730174376407e+03
1.862928288366377956e+03
1.990340314227997169e+03
1.440431031574203871e+03
5.581916641175153018e+02
-6.914530670627995050e+02
-1.087416295366307622e+03
-1.138809852305378627e+03
-1.220709566733091151e+03
-1.648978495114422003e+03
-1.947631202476478620e+03
-2.040672572233038181e+03
-2.025036594031368622e+03
-1.408753291680568736e+03
-9.348191929815297954e+02
-2.601153040289058822e+02
4.264127792316058958e+02
1.034775920410690105e+03
1.475888084108956491e+03
1.664883439174250498e+03
1.683797919873038381e+03
1.123650007091981024e+03
1.330456458622118362e+03
1.797153790305327448e+03
1.435735157848932431e+03
2.722212810368261557e+02
-7.804928562935311902e+02
-1.310405167527793310e+03
-1.855550657567664302e+03
-2.574978168158070730e+03
-2.426670030119981675e+03
-2.337620197991424902e+03
-2.218820901478497035e+03
-1.708298044297765955e+03
-9.350078277372988396e+02
-2.799137525538374121e+02
3.109637763994988973e+02
1.050574373627140858e+03
1.775970058289860617e+03
1.935196461487073748e+03
2.340302141108375963e+03
2.631233397788719685e+03
2.080958007557155270e+03
1.260427091549532634e+03
7.856480368433922195e+02
3.985774390402191329e+02
-4.318767375841869693e+02
-1.177755820178846989e+03
-2.162064554570886685e+03
-2.689839480400920365e+03
-2.606125095776470516e+03
-2.692927623742825290e+03
-2.595273734531377613e+03
-2.089209611439999662e+03
-1.062734075824859701e+03
-8.991578723789503158e+01
1.161273998450688850e+03
1.911815887372797306e+03
2.557737022043362686e+03
2.967978990135154163e+03
2.330475953764736914e+03
2.087703950728763630e+03
2.895776670665140500e+03
2.426170139751828174e+03
1.937626785205330862e+03
1.190308119435783283e+03
4.199410250448690363e+02
-3.007985803971911665e+01
-6.021870966475070190e+02
-1.064177490650142090e+03
-1.551033554797781107e+03
-1.954111799953339869e+03
-1.722344200420666539e+03
-1.025734135806563927e+03
-2.698423626174601964e+02
2.227437368300200262e+02
1.019120654989916829e+03
1.866286228204501413e+03
2.727211888142186581e+03
3.160944600483623162e+03
3.062341730879030365e+03
3.304590165085846820e+03
3.462587650875637337e+03
3.201583822621503714e+03
2.324029340061048060e+03
1.872051700941261970e+03
1.433396636238069050e+03
1.652873148088346511e+02
-6.416160520963467206e+02
-1.085319683555834899e+03
-1.385576685158573582e+03
-1.259529703122193951e+03
-1.078411320796139989e+03
-2.581331105786368312e+02
-6.640027166750581955e+01
3.543805067464502372e+02
1.268258685960880030e+03
2.176154138933335616e+03
3.143286040121917267e+03
3.787596756093880231e+03
