1.841771031157727748e+03
4.066922867876928649e+03
4.812079436877088483e+03
5.586313027752196831e+03
6.805628100101270320e+03
7.293115999897325310e+03
7.053844595368223054e+03
6.934824237245069526e+03
6.247136237629417337e+03
5.506885811281036695e+03
4.246885033221578851e+03
2.837979141889345101e+03
1.506225356525710367e+03
6.864391552881680525e+01
-7.308691173429740502e+02
-1.153353602518778871e+03
-1.278738010700465793e+03
-1.267900367003457177e+03
-9.567877758194256330e+02
2.646630852275751344e+00
1.228546359664358761e+03
2.429049341243719482e+03
3.300154366369820764e+03
4.012840002323249792e+03
5.295102782977248353e+03
5.902040518947563214e+03
5.658617930960687772e+03
5.749833499906908401e+03
5.264777805799269117e+03
3.960376179151796350e+03
3.346364700716388143e+03
1.990116245319852396e+03
8.599419722640345753e+02
-4.795463499228665682e+02
-1.431420051522595941e+03
-2.036039737925432291e+03
-2.176967655951191318e+03
-2.687415806077484831e+03
-2.616873321741539257e+03
-1.300935834996635776e+03
3.315488691389174960e+02
1.456435726328566943e+03
2.539944977181584363e+03
3.715711016203435520e+03
4.436329059931737902e+03
4.778047403648351974e+03
4.897478180184441044e+03
5.174353604324724984e+03
4.696027167414187716e+03
3.919133710013343261e+03
2.794460707367861687e+03
1.723440688226640304e+03
5.545242476065882329e+02
-6.333862704222423190e+02
-2.009121762159305263e+03
-2.833569760534478519e+03
-2.890993546140150102e+03
-2.827441709112427816e+03
-2.616851521570895784e+03
-1.724176847346583600e+03
-2.983801710032501546e+02
1.009552846985316478e+03
1.766643707966574311e+03
2.317912637920401721e+03
2.924449472590074947e+03
3.335291547241866738e+03
3.606418681885719252e+03
4.048815750682502312e+03
3.882445461435399920e+03
3.071330948943276326e+03
1.939414464148211209e+03
9.516647013807383928e+02
6.026739325231663003e+00
-1.101566063943933841e+03
-2.513122135538275870e+03
-3.336748269183122829e+03
-3.215541163938491081e+03
-3.227489361348900729e+03
-3.065603819517960346e+03
-2.147879369515376766e+03
-1.271290689777681109e+03
-2.752312715931195086e+00
1.083693195574532410e+03
5.421885244659323462e+02
-1.315233081868383351e+03
-4.116618683923878052e+03
-4.200941557091630784e+03
-3.627213899129693345e+03
-3.370461722487649240e+03
-3.931685510112963129e+03
-4.664889942218776923e+03
-5.148207316909079054e+03
-5.939655927229675399e+03
-6.299240114573952269e+03
-8.643024576946250818e+03
-9.964050909292858705e+03
-1.052537907133802219e+04
-1.014112509688093269e+04
-8.496283096679293521e+03
-5.031755649258590893e+03
-5.967555402205016435e+03
-5.918611165652335330e+03
-4.856901912906067082e+03
-2.207391427774513431e+03
3.265957230745372271e+03
5.063246520828843131e+03
5.837406139742870437e+03
5.863420192185296401e+03
5.614336576457179035e+03
5.222157431700290545e+03
3.783872937844355420e+03
2.933403607866081074e+03
1.767728667726662025e+03
1.197645446281456145e+02
-1.050498457653875903e+03
-1.732120369832967526e+03
-2.079098367531200893e+03
-2.346493524181483281e+03
-2.167302197828906174e+03
-1.144502447463943327e+03
-1.002237159204689299e+01
1.210145804429840837e+03
2.374025025435765656e+03
3.400717297459445035e+03
4.356277146544678544e+03
4.934798148665528970e+03
5.033292324908482442e+03
4.947749199935081378e+03
4.386209777951279648e+03
3.836697843720432047e+03
3.192196875405053561e+03
1.990680564798536807e+03
7.170746624281779305e+02
-4.846435523983057010e+02
-1.677550480663521739e+03
-2.632690694275552232e+03
-3.352087097436315162e+03
-3.466732275445012874e+03
-3.208602714646082404e+03
-2.427706834364767474e+03
-7.800020609229748061e+02
4.665695396863974906e+02
1.792110825986505006e+03
2.794721601798294614e+03
3.325489941119129071e+03
3.674440097643593617e+03
4.525479844139568741e+03
4.946599414390154379e+03
4.182861607680667476e+03
3.355569395482880736e+03
2.199887711201451111e+03
1.279899777046611462e+03
6.687022768677803697e+02
-5.319583069084451381e+02
-2.135371805512845640e+03
-3.419593530702405133e+03
-3.862768150589917241e+03
-4.019883361251763290e+03
-3.484900922660975084e+03
-2.787811067108475527e+03
-1.697544960766025497e+03
2.219558645467657811e+02
1.147729233197386293e+03
1.694838409191633446e+03
2.558353933236071498e+03
3.106307411706337462e+03
3.169739916178192743e+03
2.926667138458598401e+03
2.964103541502648568e+03
2.664045553135962109e+03
2.385516175061105969e+03
1.562505556415138244e+03
8.049704029188214918e+02
-6.371523889153745586e+02
-2.179917165372298314e+03
-3.446382442944077866e+03
-4.173557364908599993e+03
-4.318405178402795173e+03
-4.321963928854423102e+03
-3.670181484597458166e+03
-2.279996181137903477e+03
-9.914137801608430891e+02
1.746126379491410603e+02
1.537148573417639682e+03
2.867269476872956602e+03
3.726063868018891299e+03
4.013517835630584614e+03
3.955680256637901039e+03
3.571492722397799753e+03
2.904975165174806079e+03
2.020158560844781277e+03
9.069733868348552051e+02
-1.786869454594108504e+02
-1.462823018521631866e+03
-2.789441300203138326e+03
-3.544613210497023829e+03
-3.981430553412870722e+03
-4.146004483746586629e+03
-4.200280423862770476e+03
-3.459204037456885089e+03
-2.136722998875323356e+03
-5.488422680527893363e+02
6.395209672528108058e+02
1.317414397948583655e+03
2.567859257255349803e+03
3.305885300523804744e+03
3.897516584052414601e+03
4.402760860893185964e+03
4.158577206740460497e+03
3.597012459149652841e+03
2.181999635294109794e+03
8.614313663375909300e+02
-6.066635379016123579e+02
-2.184357873827897947e+03
-3.041677562969500286e+03
-4.114752482454596247e+03
-5.029660515578603736e+03
-4.850404731998576608e+03
-3.986024484417935128e+03
-2.761537620009917646e+03
-1.581944252743550805e+03
-5.192050738133154937e+02
5.605035675535640394e+02
1.298684977136058023e+03
2.316377321669283901e+03
3.369984351920226345e+03
3.523247225500142576e+03
3.307819497782800227e+03
3.233769603314160577e+03
3.309471263464247386e+03
2.663612156024412798e+03
1.384933779139104445e+03
3.246592152421425226e+01
-1.306519921490390061e+03
-2.434283166996475302e+03
-3.252134018476274377e+03
-3.906835645059079525e+03
-4.234802505648454826e+03
-4.330923843396540178e+03
-3.227250312630514600e+03
-1.752962956955914933e+03
-3.265646279142915773e+02
9.317591599203676651e+02
1.958064563914988184e+03
2.946505445715532005e+03
3.787819645499026592e+03
3.756020327843549239e+03
3.624270994497868287e+03
3.922476088040235481e+03
3.646665343820490762e+03
2.701671815515646358e+03
2.082781913079888454e+03
9.777016257973141364e+02
-5.806905098973375061e+02
-2.152710982831887577e+03
-3.332222941624160285e+03
-3.222264679460348816e+03
-3.073293111511033658e+03
-2.920138812687624977e+03
-2.538834891776152290e+03
-1.790152109222333593e+03
-8.081628279417424210e+02
3.673957911834859260e+02
1.463469526934774194e+03
2.169027911265542571e+03
3.138131066621888749e+03
3.671788491414977216e+03
3.450027596173142683e+03
3.382772492425820019e+03
3.063029226109477804e+03
2.175839896072549891e+03
1.298134701274983627e+03
5.558654192373871865e+02
-3.920071554901084028e+02
-1.196557199058349852e+03
-2.520821650289940408e+03
-3.402820701878699310e+03
-3.590610281478318484e+03
-3.730201381299881177e+03
-3.573569036101706843e+03
-2.903662648115367119e+03
-1.698485035047927340e+03
-3.689807891001937037e+02
1.268954190442418849e+03
3.073359432988079789e+03
3.600259390427506332e+03
-7.342296294864231641e+02
-1.159121147629329926e+03
2.515568586248459724e+03
1.433863303112012773e+03
3.438776997114466667e+03
1.049229364973509291e+03
-7.874643888178789553e+01
-4.321849418191199987e+01
-4.680187330849149475e+03
-6.168699585350548659e+03
-5.457840521751960296e+03
-6.700668514031053746e+03
-5.167125387687064176e+03
-8.642210449750178668e+03
-6.157877792604194838e+03
-1.030056431575802890e+03
2.843223892499302110e+02
-1.264681457316193928e+03
1.658971354419833688e+03
2.824360379965173252e+03
1.240528869197838958e+03
4.038550639406624668e+03
4.408446410123656278e+03
2.827208683324059166e+03
1.491829161688380509e+03
2.682342416682392923e+03
1.864700561681976751e+03
4.948066478438480544e+02
-8.523309824661860148e+02
-1.830716321741950196e+03
-2.538411588290700820e+03
-2.822441607976892556e+03
-2.565829688602460465e+03
-2.052515361977759312e+03
-1.036413731690503482e+03
2.125383691566279651e+02
1.478394858682317590e+03
2.575196935139264042e+03
3.252992947249678309e+03
3.843864690385784797e+03
3.988891301286907492e+03
4.152115989974367949e+03
4.120502161932652598e+03
3.789040069759996186e+03
3.287748140890049854e+03
2.229666372820691322e+03
8.707172106258534541e+02
-1.421413086824738627e+02
-1.186889793193429796e+03
-2.288586791904746406e+03
-3.128308150140705493e+03
-3.351030527334993167e+03
-3.419773130603475693e+03
-2.635543002085452827e+03
-1.425156702587655445e+03
-5.284754694074778172e+02
4.536113842151183917e+02
1.434930418956038466e+03
2.382733149801567379e+03
3.229127493648874406e+03
3.703200027578451227e+03
3.519982176449525014e+03
3.437401360739361735e+03
3.049514018307583683e+03
2.094258939953107529e+03
1.852742907111679187e+03
1.060893856848738551e+03
-2.503639376080126908e+02
-1.800098899167953959e+03
-2.648454888502584708e+03
-3.408619561494910158e+03
-3.585150292218997947e+03
-3.537408924408563053e+03
-3.217462819503783976e+03
-2.516940027258429382e+03
-1.063397815551532631e+03
2.132704955324152252e+02
1.282104877292297033e+03
2.299206402675916706e+03
3.091602129430773857e+03
3.578277478021349907e+03
3.685329774677878959e+03
3.883682264612996732e+03
3.357335496553848316e+03
2.687366056953818315e+03
2.098699014759548845e+03
1.445225963497757220e+03
3.069393583680547408e+02
-8.221613263731650250e+02
-1.933157173969585301e+03
-2.460118775152649505e+03
-3.028090787571363308e+03
-3.650093296890956481e+03
-3.220155574520872051e+03
-2.198266041992796090e+03
-9.473723373817543916e+02
2.245971367585444796e+02
1.207643913271220754e+03
2.296797473220202392e+03
3.094148561960742427e+03
3.838706909863689816e+03
4.377437700620124815e+03
4.253348072955865973e+03
4.049447838094072267e+03
3.414722573275489140e+03
2.775161629797019486e+03
1.560679771982189095e+03
5.012790596614321998e+02
-9.070965125273561398e+02
-2.477518582144817174e+03
-3.273059976295566685e+03
-3.863829216531257771e+03
-4.353821440961115513e+03
-3.960083452589005901e+03
-2.807568452787792921e+03
-1.525233026211676133e+03
-2.117039939612079706e+03
-3.674040679498640657e+03
-5.877175063462222170e+03
-4.874330653602431994e+03
-4.000487041993055755e+03
-3.874591190689255654e+03
-3.437713475732571169e+03
-2.573883058511102263e+03
9.169376826179841373e+02
2.395770675685765582e+03
1.832535623240488576e+03
7.291582032544720278e+02
-1.209350642752038311e+03
-2.527134482221337294e+03
-2.784233191309238009e+03
-2.741651033962300517e+03
-2.686546769162573582e+03
-2.499875859311891872e+03
-1.610536317458333770e+03
-4.045287289443585905e+02
6.771737388068904693e+02
1.715591254888153571e+03
2.733829467524268239e+03
3.501898819930899208e+03
4.242809030785635514e+03
4.479566962678019081e+03
4.395205876326498583e+03
4.078662909146746642e+03
3.354958726710560313e+03
2.446138240291585589e+03
1.141161954322361908e+03
4.269758521539649792e+02
-8.415023862184211794e+02
-1.689317960256785227e+03
-2.256524319744841250e+03
-2.853188960536235754e+03
-2.960323872573769677e+03
-2.980958381644583824e+03
-2.333092468070292853e+03
-9.406702805381133885e+02
2.293903567365110518e+02
1.555180574037668976e+03
2.416748269944308049e+03
3.191147775381234624e+03
3.966419453084720772e+03
4.279565635732880764e+03
4.091609830339019027e+03
4.150530540823180672e+03
3.820347390076321062e+03
3.111065892943907784e+03
2.232598489505461202e+03
6.969341989900871113e+02
-8.689251042316852818e+02
-2.106020279255638343e+03
-2.851453735644441622e+03
-3.427251317112960805e+03
-3.364465292499133739e+03
-3.131054795989037757e+03
-2.299940907033579151e+03
-1.340128476693589619e+03
-1.545331267674082767e+02
1.054858432738945794e+03
1.862087855631285038e+03
2.740268264892668412e+03
3.295473453322725163e+03
3.370772347539768816e+03
3.721140492740065838e+03
3.916601943276120437e+03
3.975179835924323015e+03
3.486841580107093250e+03
2.286609610302505189e+03
1.042441375729486936e+03
-4.177351136122189246e+02
-1.678005130668324455e+03
-3.117433209878314301e+03
-4.338033275517443144e+03
-8.208831035252165748e+03
-6.702801508346280571e+03
-6.079608310247696863e+03
-2.355461749561830402e+03
-1.286305361077055522e+03
-2.675044964134522161e+03
-3.233613363095786553e+03
1.371032340495346489e+03
2.407917298070716697e+03
7.220752085518274725e+02
-7.744356342523774401e+02
2.456371187294250376e+03
3.245508517900451352e+03
1.989794317445901299e+02
1.866754657609765445e+03
-1.674183829137385146e+03
-3.386877605386213418e+03
-1.640373174936810074e+03
-4.682745827555108917e+03
-4.911027903544068977e+03
-5.020229149995522675e+03
-4.651384325881354926e+03
-1.923398636115707859e+03
-1.608286448109561888e+03
-1.994984554533885103e+03
-1.303884506805285071e+02
7.955349996525768574e+02
2.047811228530820927e+03
1.236542990163128025e+03
4.310750707427834641e+03
4.468383558116230233e+03
4.501497793048394669e+03
4.173129894538938970e+03
3.098272984846546478e+03
2.197898799188475550e+03
9.808859895386466405e+02
-4.958096531073771871e+02
-4.000232430738756648e+03
-4.786383268874715213e+03
-5.973307606567398580e+03
-4.139017425835796530e+03
-3.283548116701107119e+03
-2.470910023729993554e+03
-1.235061655206505066e+03
3.070264160181522470e+02
1.897446583747623663e+03
2.356244599605158783e+03
2.808472905372609603e+03
3.576169751673834071e+03
4.041346798929532724e+03
4.286010166694080908e+03
4.382141877838179425e+03
3.636719872199702422e+03
2.583719340160217598e+03
1.901096778641416677e+03
8.457621922224108175e+02
-3.593838199826083155e+02
-1.662177832859141745e+03
-2.618540212016275746e+03
-3.038569773631321823e+03
-3.370374803881056778e+03
-3.317001450580868550e+03
-2.439402261115249985e+03
-1.799577916722791770e+03
-5.994758976875461940e+02
1.138347879913166025e+03
1.888658780740352768e+03
2.989145549932232370e+03
3.914142753382719548e+03
3.936409802563370704e+03
4.531411608917864214e+03
4.630641114201975142e+03
4.134001538549978250e+03
3.297028215812347298e+03
2.471532431999801702e+03
1.202260926432446695e+03
7.331789808516163021e+01
-1.298556559304966186e+03
-2.181016244403230758e+03
-2.763496160473494001e+03
-3.044290914770237123e+03
-2.984195817287813043e+03
-2.360998257258336707e+03
-1.551045684324088370e+03
-6.630589276159843166e+02
6.362266271912263846e+02
2.118056382756722996e+03
3.257854997207800352e+03
4.030043864826179288e+03
4.746281295110908104e+03
5.088238678498877562e+03
4.672008828223751152e+03
4.215601031070556019e+03
3.588970094918643554e+03
2.611068349852390838e+03
1.726867429932853611e+03
2.803024359166550994e+02
-1.281723265709179714e+03
-2.369267243110227810e+03
-2.895421081240061994e+03
-3.145243075125106770e+03
-3.213791618312977334e+03
-2.577048210448463124e+03
-1.484953152964253377e+03
-5.750724815290983827e+01
1.522356164185027865e+03
2.651629202529744362e+03
3.523363168886369294e+03
4.242616727630333116e+03
4.867375061046438532e+03
4.716635098220874170e+03
4.737371497303933211e+03
4.777610675289614846e+03
4.051353104138403069e+03
2.877552601581978706e+03
1.769146639414363335e+03
6.550607868758149834e+02
-9.306964785347006455e+02
-2.265186842091484323e+03
-4.025520559592330301e+03
-6.666653083827551200e+03
-1.017457364306605086e+04
-1.038333915389749927e+04
-9.484952924106857608e+03
-8.192485250932622876e+03
-6.583813678439975774e+03
-5.576818988193014775e+03
-4.068485129192924887e+03
-2.749745100920298682e+03
-2.181521248114699119e+03
-1.892951380504935059e+03
-2.029986042881624371e+03
-2.124538682970290665e+03
-2.576560979379379660e+03
-3.038130696890030777e+03
-1.743285236207303114e+03
-4.383009775579449524e+03
-7.463327187950628286e+03
-3.563281306427533309e+03
-2.226923497829920507e+03
-2.031390328430692534e+03
-1.981731071040671395e+03
-1.168888115089070880e+03
-5.676297804047934648e+01
9.337184694385916828e+02
2.221645698804406948e+03
3.156118091337335954e+03
3.798204829445462110e+03
4.894036097864462135e+03
5.467657039578120020e+03
5.043002042625449576e+03
4.768001653882298342e+03
4.567696009661579410e+03
3.778165499865801849e+03
3.026392497266725968e+03
2.000312335222685306e+03
9.670487273753149111e+02
-3.862333068148564053e+02
-1.691678333800691917e+03
-2.301521215618641236e+03
-2.148832077403530548e+03
-2.290580052037391852e+03
-2.160661412200128780e+03
-1.199060691473672023e+03
1.533372342412999956e+02
1.237633531494075442e+03
1.979926601908786097e+03
2.797365155365005648e+03
3.538967337676938769e+03
4.195658086728967646e+03
3.953400763031893348e+03
3.911284308406057789e+03
3.829304161076901892e+03
3.346542726925132683e+03
2.627038760635876770e+03
1.664757798534299354e+03
6.556999030457334356e+02
-6.971518657526896732e+02
-1.633874093785430432e+03
-2.388438788104676860e+03
-2.774851170300812100e+03
-3.168106681689826019e+03
-2.988107308593805556e+03
-2.404729238103918306e+03
-1.549935501295099584e+03
-2.095144824140856770e+02
5.876372870498819339e+02
1.466545428937134830e+03
2.375208951821904066e+03
3.168494964523781164e+03
3.130563231532526515e+03
2.882519008060438409e+03
3.156300850611579790e+03
2.434900497235235889e+03
1.458233631777867686e+03
1.009244923109680371e+03
-3.730723395361043231e+02
-2.115773464615225748e+03
-3.004889646851777798e+03
-3.528477355034585798e+03
-3.913535872599035883e+03
-4.546978326279626344e+03
-4.162825152432860705e+03
-3.191117302754193588e+03
-2.181764352781983234e+03
-7.946316132377522763e+02
7.534201180102039643e+02
1.728447201675196766e+03
2.244481459195555544e+03
3.084532768096939890e+03
3.569537316974385249e+03
3.811480834401731499e+03
3.538337056934494740e+03
2.738223676870317377e+03
1.828124719970715660e+03
8.540625680208066797e+02
-2.778930401723876003e+02
-1.959750763060725603e+03
-3.576674576500436160e+03
-4.551719961210066685e+03
-4.907849609944210897e+03
-4.615005392536661930e+03
-4.003262363185521281e+03
-2.961808874371799902e+03
-1.603554011672456454e+03
-3.884099727265232218e+02
8.854956330619107803e+02
1.846196245779728315e+03
2.732744566391009357e+03
3.468247730076150674e+03
3.424761256723142196e+03
3.345247558673640924e+03
3.443695043057005023e+03
3.008195588984741335e+03
1.880630352629231766e+03
9.278507329474905418e+02
-4.491398881142528694e+02
-1.815313351807927802e+03
-2.896672898886326038e+03
-3.612309627148540585e+03
-3.789235789120971276e+03
-4.009443568093413433e+03
-3.842925773351659245e+03
-3.009784033785868814e+03
-1.550262106073299037e+03
-1.283720808158458340e+02
8.560453417268503244e+02
1.719030864770845255e+03
2.431580876209157395e+03
3.187712585320739436e+03
3.827397977519211054e+03
3.785620661753648619e+03
3.693324431945881770e+03
3.134522296315910353e+03
2.046095421923684626e+03
5.780155006523166321e+02
-1.691810483348881007e+03
-4.145220781879177594e+03
-2.709691673154698037e+03
-3.600086865173620481e+03
-3.815563613262186664e+03
-3.810916822694471193e+03
-3.499993536816845335e+03
-2.590846778215238828e+03
-1.100847339182211726e+03
1.972442798903235541e+02
1.524592904143921487e+03
2.384229830193381986e+03
3.137827465682927595e+03
3.891461858533676150e+03
4.378378004769777363e+03
4.601145189450812722e+03
4.405269865838036822e+03
3.570309213338625341e+03
2.805801965529120025e+03
2.044355138780319749e+03
1.173699412446692577e+03
-3.972483442728327532e+02
-1.113535975657393237e+03
-2.162448054817347838e+03
-2.659872884464192339e+03
-2.822751048500585057e+03
-2.861325403921845009e+03
-2.183523954301401773e+03
-5.923745605919160653e+02
6.922968679077390561e+02
1.639223281513552138e+03
2.794719365011811078e+03
3.849492930006360439e+03
4.594500772528475864e+03
5.170996296723243177e+03
5.458870228142243832e+03
5.286250634686523881e+03
4.482270058832428731e+03
3.790773572151073949e+03
2.834440530459072761e+03
1.959238546939053549e+03
8.529024149433560069e+02
-4.925695108092946271e+02
-1.824223782915032643e+03
-2.592147700879168497e+03
-2.528373462911063598e+03
-2.617953484321686119e+03
-1.841820333608029614e+03
-6.149596749696879670e+02
3.386368330185632658e+02
1.457001257069864096e+03
2.625142228034749223e+03
3.418086023887874944e+03
4.095932853141534906e+03
3.544706703563423162e+03
1.810379415275801648e+03
-1.143053989036253597e+03
-2.432593284855988259e+03
-2.456251620611483759e+03
-3.095063681795898901e+03
-4.494074738486808201e+03
-6.349311881048210125e+03
-7.150842864292232662e+03
-7.394845405628960179e+03
-7.964319453495657399e+03
-8.214953543551751864e+03
-8.115974700601046607e+03
-7.242368433817891855e+03
-6.094147284887116257e+03
-4.312380894908326809e+03
-4.761373735625141279e+01
-8.649915249991953488e+02
-1.959474459626513635e+03
-1.298041690913503544e+03
-2.575989968140181645e+02
7.084132923402276560e+01
3.029878636810371617e+01
-3.021617933106776377e+02
-1.342530845120808635e+03
-2.088865889007700389e+03
-2.898159663521022139e+03
-4.045421550250080600e+03
-5.457679962978022559e+03
-6.822983293206896633e+03
-5.626324787182256841e+03
-3.128718661279238859e+03
-5.556170496738173824e+03
-4.501649120329630932e+03
9.379103087790240352e+02
3.106637471432004531e+03
4.280568164200424690e+03
5.262769078265535427e+03
6.055398053004558278e+03
6.389484671692559459e+03
6.558073021671659262e+03
6.788244912672834289e+03
6.842985382775681501e+03
6.478352561558944217e+03
5.930392416290324036e+03
5.023116370115670179e+03
3.919500395377540826e+03
2.320545412958063025e+03
9.472395396313166884e+02
7.353716326683833415e+01
-7.615640365324711638e+02
-1.060074770200045123e+03
-1.307010442702164028e+03
-8.922970269281443052e+02
2.941733120972368738e+02
1.479504422743764508e+03
2.285765148733741171e+03
2.437067429378381803e+03
3.257466356919465852e+03
4.184010780775852254e+03
4.520838542755591334e+03
4.246003376356787157e+03
3.533497196823750528e+03
3.049365433435972591e+03
2.766661855374885818e+03
1.708419201677024830e+03
1.068679007540209341e+03
8.734458816218412949e+02
1.447936388756224630e+02
-5.553686990861544928e+02
-2.338840437050616401e+03
-3.095614633840535134e+03
-3.069713421051108526e+03
-2.776025122157992428e+03
-1.885628845215975161e+03
-4.955005376661462719e+02
-1.454323274047677330e+02
1.866580971284384987e+02
9.148759955766827261e+02
1.805240666854057736e+03
2.197820429247791708e+03
1.951545347062050951e+03
2.311305453742212649e+03
2.604376317720439602e+03
2.619514531705729041e+03
2.368573854396119714e+03
1.087737050043873751e+03
-1.262246464104278630e+03
-3.559431959780143188e+03
-5.081881590571684683e+03
-6.229621093118903445e+03
-6.862635954620955999e+03
-6.886975387452933319e+03
-6.077614990155576379e+03
-4.316491176497451306e+03
-2.028581610068504460e+03
-4.318050566148031066e+02
4.894006456877961853e+01
1.316822841275661915e+02
7.904200157466524388e+02
7.672315839834034250e+02
-9.889262469636780395e+01
8.299270643414011772e+01
2.215944003508488549e+03
3.743975667786154645e+03
2.865077752283430982e+03
9.731740886997275766e+02
-1.107855463846594375e+03
-2.556014498454393561e+03
-4.187376271008516596e+03
-5.094014160438979161e+03
-5.057984108923384156e+03
-4.058313053954751922e+03
-1.712925809826024079e+03
1.027197905368308966e+03
2.438039203015346175e+03
3.122590373174820343e+03
3.985960978849629100e+03
4.487171626577002826e+03
5.207208539551832473e+03
5.719087533939959940e+03
6.062830311456428717e+03
6.201392878792881675e+03
5.752751336022743089e+03
4.705907160323485186e+03
4.525787659710501430e+03
4.384345366668887436e+03
1.851499179229029778e+03
-1.815804241429108060e+03
-6.473620494791500278e+03
-8.898033459580672570e+03
-9.211089988061094118e+03
-9.222862274156985222e+03
-8.835350092069156744e+03
-8.066553894991639027e+03
-5.747444938183411978e+03
-2.315035547274678720e+03
1.132693233611721553e+03
3.504779647872048372e+03
4.749307537371900253e+03
5.073291212764116608e+03
5.411697565957189909e+03
5.834416384303638552e+03
5.374463718748112115e+03
4.283831071020646050e+03
2.778404628133567712e+03
1.280115877836094114e+03
5.779049568222797006e+02
-6.152558568954208340e+02
-2.745526548716027264e+03
-4.470956676266844624e+03
-4.805599237248130521e+03
-3.885521277911554080e+03
-2.453778131678612226e+03
-6.743518120170057273e+02
9.648179738360341844e+02
1.525745639011626963e+03
1.108430637471967657e+03
4.248567035015429951e+02
2.310771664552914615e+02
-1.798560533217158195e+02
-3.399808501991880689e+02
2.306799370581262849e+02
1.286103625186798354e+03
3.183202902898837579e+02
-8.857015495531569513e+02
-7.170399523554937105e+02
5.231807532303744210e+02
1.626844238554404910e+03
1.218775360569904365e+02
-2.977668488076673157e+02
7.458590096542776564e+02
-8.523245361356821093e+01
-1.160061065328380209e+03
-1.436650307842690836e+03
-6.059521690403842058e+02
8.230647217098801320e+02
1.842471935356362565e+03
2.055274243512536941e+03
3.398470177778501693e+03
3.588145030618476540e+03
2.170330829586643631e+03
6.489790817327154855e+02
3.109211750547399333e+01
-2.803525014057332783e+02
-8.763561466267915421e+02
-1.100993341879276386e+03
-3.733114935886468970e+02
1.402681272770006444e+03
2.399960499153888577e+03
7.784404363481213522e+02
-1.326023316769771554e+03
-1.832441424386594008e+03
-1.168675242380258851e+03
-9.970956980017609794e+01
1.800469658969207785e+03
3.561904800281049120e+03
4.959591509278287958e+03
5.975628953370915951e+03
7.309102560736180749e+03
7.607051697188984690e+03
7.482495611346354963e+03
6.327465251789621107e+03
3.937031552555980397e+03
1.503122255040933624e+02
-2.935019007428270015e+03
-4.556821964357609431e+03
-5.496156017543952657e+03
-6.884044531795158036e+03
-8.368546372990411328e+03
-8.789738988707715180e+03
-8.622645077699209651e+03
-8.786240128605635618e+03
-8.377526537429124801e+03
-6.548457073954399675e+03
-4.797934494470440768e+03
-3.197937452445138206e+03
-1.795381747035300350e+03
1.744784124326313759e+03
1.638653128800820923e+03
-8.016843631797778471e+02
-1.792021068329487719e+02
-7.589596474514559077e+01
-5.447384427959231061e+02
-7.376526461074830650e+02
-1.491718697589303474e+03
-2.638910896430320918e+03
-3.596266106867663439e+03
-5.162796293304929350e+03
-6.362539335042253697e+03
-7.225574585176676010e+03
-7.695917796704520697e+03
-7.070529039965752418e+03
-4.100391108468090351e+03
-4.308476107556220086e+03
-5.327719992746512617e+03
-3.631064872254689817e+03
-2.784447798787455213e+03
-1.068026809419314134e+02
5.027991210921509264e+03
6.760998678273865153e+03
7.202218646462742981e+03
6.992701726082253117e+03
6.817431384891587186e+03
6.269465131713235678e+03
5.464860846485707953e+03
4.286560038684201572e+03
3.378535408121034379e+03
2.242724932274311868e+03
1.023147906571160433e+03
-2.282726545564419673e+00
-4.745757004410790501e+02
-6.107351774233990227e+02
-6.637744476731820669e+02
-3.396569500577797953e+02
6.086993350077708556e+02
1.677343863253975087e+03
2.920439657286148758e+03
3.877137577476756178e+03
4.713637267210633581e+03
5.215876723268969727e+03
5.508714732699880187e+03
5.717175442188613488e+03
5.651325163649899878e+03
5.022197498092927162e+03
2.691660327557014170e+03
-4.015495803672707211e+02
1.051842454271494262e+03
5.720504766709638034e+02
-7.101743162056926622e+02
-2.031909135958828301e+03
-4.871041632460523033e+03
-2.948064483137308343e+03
-2.084857222901267050e+03
-1.084936719319561462e+03
-4.796349777890020505e+02
8.431807860153577394e+02
1.878519492724014981e+03
2.419425241154313881e+03
3.613854142360201422e+03
4.388037073748329931e+03
4.501999896509275459e+03
4.611403770559353688e+03
4.553382697696387368e+03
4.125163795307846158e+03
3.292405476387604267e+03
2.405394843425139243e+03
1.022694983012962894e+03
-4.531311816142615498e+02
-1.712337135377008508e+03
-2.854143264261347213e+03
-3.050122193275766676e+03
-3.128922245037776065e+03
-3.045740857270238394e+03
-2.025602524186806932e+03
-9.773844145431531842e+02
1.450305079470995793e+02
1.642619566415160534e+03
2.680363169529154675e+03
3.384286518046033962e+03
3.895415000087617045e+03
4.388825765175854031e+03
4.599458927908613077e+03
4.612256889983407746e+03
4.135276653012805582e+03
3.250480181724509293e+03
2.348796477885706736e+03
1.263186006564734726e+03
-2.924045508014908137e+02
-1.902996884400744875e+03
-2.993667343284586877e+03
-3.423510030350367742e+03
-3.490556904706626938e+03
-3.366811179357502624e+03
-2.834205779740013440e+03
-1.999777980825166196e+03
-4.604933797180951274e+02
9.556680007311080089e+02
1.852762426327584308e+03
2.815853168197039849e+03
3.401994311238125647e+03
4.008174901352757388e+03
3.987392831687062426e+03
1.898602224026721615e+03
-2.099260318729390747e+03
-5.855186964231847014e+03
-6.837181944165380628e+03
-7.669218374585010679e+03
-8.722415635870995175e+03
-9.187889029732366907e+03
-1.045977032201217480e+04
-1.200979419287594465e+04
-1.199306029333663537e+04
-1.139764309415038406e+04
-9.962562865724872609e+03
-8.195774829301559294e+03
-5.744283001355856868e+03
-4.064041054614925997e+03
-1.646933205402161093e+03
5.890266941183122071e+02
-1.697186754258812243e+03
1.132445284742812419e+03
5.204923166616285016e+03
5.581279012663818321e+03
4.999627301137455106e+03
4.217003570603202206e+03
3.341322567086688650e+03
2.481552067175668071e+03
1.205631193565677904e+03
-2.864842331744294484e+02
-1.512904316125868718e+03
-2.120742780795645103e+03
-2.181055642016452111e+03
-1.994833328098253787e+03
-1.355951710673561365e+03
-6.013147393597630526e+02
6.711200813435361852e+02
1.986456487193221392e+03
2.326756911449938343e+03
3.335944847590472364e+03
4.216881569629870683e+03
4.986582570956262316e+03
5.522223395650900784e+03
5.424874660564716578e+03
5.097543786260758679e+03
4.098216941894015690e+03
3.038893735596889201e+03
1.835493103229796361e+03
1.259563877789921378e+02
-9.167926849827384785e+02
-1.465892221906877239e+03
-2.124415011256618982e+03
-2.793323926889504492e+03
-2.821550532713833945e+03
-2.159047030919505687e+03
-1.338744354115845454e+03
-3.366162649459694194e+02
1.106398096925234313e+03
2.099347278622495196e+03
3.012326469413116683e+03
3.822426406443377800e+03
4.312671517399038748e+03
4.602993404514397298e+03
4.449397448074772910e+03
3.762055942917074844e+03
3.105074157724697670e+03
2.021519818023556354e+03
8.741979447148497684e+02
-3.808066383503829684e+02
-1.912378885414397018e+03
-3.179632004568788034e+03
-3.724519540400043752e+03
-4.124145951950073140e+03
-4.845564862635514146e+03
-5.145709068154668785e+03
-3.324833315690482777e+03
-1.571988558878848835e+03
7.426158031812356342e+01
1.404798659566545894e+03
2.467595102788839995e+03
3.300751190502925965e+03
3.767372752465255871e+03
4.062502370399751271e+03
4.083124695001868986e+03
3.761168506866643384e+03
2.605661275842653140e+03
1.734696887943370257e+03
6.262963266307139065e+02
-5.677100409340944225e+02
-1.894454018191316436e+03
-3.244985311391938012e+03
-4.050326024479174521e+03
