3.342974648035398332e+03
3.610421981499353478e+03
3.835563103648250035e+03
3.598468495673955204e+03
3.376214539832591072e+03
3.374874920195041796e+03
3.712452971645921934e+03
3.864921782804490704e+03
3.696268464498388312e+03
2.956539306583069902e+03
2.228753449787841873e+03
1.847969841240139203e+03
1.991217538728669751e+03
1.865533426374209739e+03
1.178876015132168732e+03
4.922786911598722668e+02
4.797162329549274773e+02
1.060255919665390593e+03
1.388861449497425838e+03
1.605595996277761287e+03
2.015640238631245438e+03
2.310861921040206198e+03
2.502042694948806911e+03
2.673429800531178444e+03
2.269574803700078064e+03
2.377597827970360868e+03
2.648391380893459427e+03
2.450907103425589412e+03
2.253132331398464885e+03
2.023078874973107986e+03
1.876673298101397677e+03
1.835950952570898153e+03
1.068858657908596570e+03
1.038382357269751537e+03
1.128571289152155487e+03
1.258476944754286251e+03
9.581093621654574690e+02
1.150090703917207293e+03
1.037529873117423904e+03
1.029681636599380226e+03
1.298277135622098740e+03
1.174276036508508469e+03
1.227935793241993906e+03
1.551505578581508416e+03
2.294894857565498569e+03
2.752457779336686599e+03
2.350805053038686310e+03
1.893449549261463289e+03
1.467365996979305692e+03
1.454641370783220964e+03
1.289425056642652635e+03
1.243376579743944376e+03
1.106553491908713340e+03
1.723024276059715021e+03
1.341788224544588047e+03
6.488291584853546965e+02
5.641319537613466082e+02
1.976577751415738362e+02
2.973156247083828134e+02
2.750630880503008484e+02
6.422932315410316733e+02
7.596538549131148557e+02
4.800588412126560911e+02
1.269898144032084474e+03
1.477006496431027017e+03
1.474374112734098844e+03
1.456953182600075934e+03
9.386868552018723904e+02
9.635567735611591615e+02
9.685537487150462539e+02
7.786356851535232408e+02
5.768193399918957311e+02
2.771070399237152628e+02
2.654397530500972380e+02
2.907658728633705891e+02
-3.889923087183105821e+01
-6.045924967135420047e+02
-1.464037824794916958e+02
2.216615187717194146e+02
-2.483760747285402886e+02
-3.695278856007175250e+02
-3.581399196200526092e+01
3.727561144138948066e+02
4.982201014922023319e+02
3.315414704718298822e+02
-1.416277824356109932e+03
-1.392032545087442372e+02
1.057727961973531364e+03
-2.210481857982539623e+03
-7.605836771834186948e+03
-7.815369032648672146e+03
-8.336037493070536584e+03
-8.365861140099565091e+03
-7.926015756355440317e+03
-8.221539024909530781e+03
-8.383254923862104988e+03
-8.597088314637989242e+03
-8.551138430974682706e+03
-8.039604951243386495e+03
-7.606445698838061617e+03
-5.831626933594296133e+03
-7.301608491703809705e+02
6.669651647432546042e+02
1.736701075233120946e+03
1.889981541708022860e+03
1.774774267240160498e+03
2.202135974562168940e+03
2.411150638932378570e+03
2.064789670754928920e+03
1.402046737236827539e+03
1.242966872750763741e+03
1.297497378855953457e+03
1.048658628447476985e+03
8.184481510045508230e+02
8.878492668416675997e+02
9.309186397008907079e+02
1.004651376764227962e+03
9.440702101758514573e+02
3.671371628247111403e+02
-2.131112248422041660e+02
8.239789941114729288e+01
1.024602408382627345e+03
2.060358739805593814e+03
1.693712764668117643e+03
1.025796160002716761e+03
1.177581494245509248e+03
1.094090065138678256e+03
9.473553845764154175e+02
6.983909425533502144e+02
1.031184030927261801e+03
1.221712641919421912e+03
1.161054738997331469e+03
8.522016966960413811e+02
8.851729141903216487e+02
9.580086442943884322e+02
6.347374639240248371e+02
-1.156867730584613696e+02
-5.682663876551152953e+02
-2.158944490621936723e+02
5.314147195650027697e+02
7.586853205311483634e+02
6.929554719002647971e+02
6.182773030929405422e+02
1.876572506943155076e+02
7.821139881277637187e+02
1.056652222282525145e+03
9.302918778307110870e+02
1.030079680588267138e+03
7.600271081839669023e+02
6.082326308453777983e+02
7.807659275563017900e+02
5.567068969793217548e+02
2.161008479121908579e+02
1.480599872238697117e+02
9.134485291752578462e+01
1.249386985298489066e+02
1.278482696807992767e+02
-1.294793946410775654e+01
-5.343581437046273095e+02
-1.376376296344161801e+03
-7.239553750650085249e+02
-5.161181040354605329e+02
-2.207390501900218283e+02
4.392663597021331725e+02
3.567580058948373676e+02
1.738099245700207121e+02
8.254675646734428938e+02
1.238747621464864096e+03
9.357307660400418854e+02
3.584993986128767460e+02
2.789121069609829533e+02
2.079138372869339548e+02
2.661626128445038475e+01
-3.369434884346038643e+02
-4.988138896026000566e+02
-6.929719166497138758e+02
-5.114381985609758772e+02
-6.711898742599232719e+02
-2.911890119646336075e+02
7.621053179768864538e+00
1.762486829386218119e+02
-5.783241065592122823e+02
-3.740934657320056544e+02
1.994363943996616229e+01
1.298147651835684258e+02
5.857014797684762186e+01
2.921508535277002849e+01
2.826822328869597527e+02
6.509919074330298372e+02
7.591750619057538643e+02
9.192522648930261084e+02
4.712018668337685199e+02
-3.139584615886990377e+02
-6.282375184552213341e+02
-7.296832020396293501e+02
-7.753308734065940371e+02
-5.241279532855693333e+02
-5.451594333717949894e+02
-4.594427876427953379e+02
-5.719608870046475886e+02
-9.096639107308984649e+02
-1.092579589838777565e+03
-6.287091755590173534e+02
1.849297656833896326e+02
3.129578571576791646e+01
-8.760375004016441380e+01
-5.576653985285340553e+01
5.197841155560557809e+02
4.840077307749788247e+02
2.199305803556883347e+02
-4.764919074657740339e+02
-4.971929044869364702e+02
-2.483074324057967601e+02
1.431167496395637784e+02
-8.490912625326333796e+01
-3.744739840145580274e+02
-6.775627666241080078e+02
-7.402240182004460394e+02
-9.975096110063489050e+02
-6.144063639785183568e+02
-3.879578096754449916e+02
-2.291267280893116265e+02
4.004856376915334693e+01
1.285483113448828760e+02
8.543332037339108638e+02
1.117458337736558860e+03
1.010895440183327764e+03
1.356766174732033733e+03
1.272934961548467072e+03
1.275594047427517353e+03
9.436490068092413139e+02
7.391117609967852786e+02
5.039106532985597937e+02
2.289659214609873743e+02
-1.157100255780990494e+02
-3.902096622931629781e+02
-5.285301447439728690e+02
-3.708053337894802439e+02
7.171097427777136772e+02
1.248158212209281146e+03
1.127197658421595406e+03
1.271909228614528729e+03
1.483415540899006828e+03
1.240732755907634782e+03
1.213804355585876010e+03
1.534530942843170124e+03
1.902157325548346307e+03
1.989581306366262197e+03
1.743547012546339374e+03
1.615713761588678381e+03
1.874278151110328054e+03
1.672505383659464769e+03
1.240361599475530056e+03
1.078672264954280081e+03
1.632184136987984857e+03
2.040015906094080492e+03
1.676957463539535183e+03
1.181917622495101796e+03
8.978588712727168968e+02
7.577349238030693641e+02
6.725639016354990645e+02
1.070344871697133840e+03
1.263048864663358700e+03
1.341627626410641597e+03
1.510026802524375626e+03
1.718245689323484612e+03
1.969318689274620965e+03
2.135263508601578451e+03
2.059038066498797889e+03
2.479562374287886087e+03
2.366853561621485824e+03
2.331977183093758413e+03
1.966932024381656674e+03
1.667616358418875734e+03
5.695199374218036326e+01
-6.400286866326692916e+02
9.936980224787215548e+02
7.750862508781700626e+02
-3.265988668695948490e+03
-7.130450346504861955e+03
-7.051248017896821693e+03
-7.428352917587171760e+03
-6.968843292235846093e+03
-6.225703247725789879e+03
-5.932889352410339598e+03
-5.314416358075447533e+03
-5.456281276725875614e+03
-4.974442062529437862e+03
-4.658946403563872991e+03
-5.064693924957965464e+03
-5.510743025261428556e+03
-5.424104196208873873e+03
-3.142755719617211980e+03
5.334263130189148683e+01
1.167178883920374801e+03
-1.433230580384405584e+03
-6.230886519202534146e+03
-7.294800941075584888e+03
-7.289903974807240047e+03
-6.888106213499149817e+03
-5.794443204832089577e+03
2.610631188352634808e+02
2.588442134016820546e+03
-1.181627849469047220e+02
2.661261371518351098e+03
3.166749960100602038e+03
3.419296574057626458e+03
3.263995101998402788e+03
2.951845414141305355e+03
2.925842841475510340e+03
2.901949527590560137e+03
2.846272300067176275e+03
2.939854672085160473e+03
2.785730231700997138e+03
1.176962550136107211e+03
-1.603451719394216980e+03
1.296537951344613020e+03
6.249756365391428972e+02
-1.790053926048253743e+03
3.544590585150801303e+02
1.044355363425132964e+03
2.210768576494103399e+03
2.449821673212312817e+03
2.444562096233322336e+03
2.554083666148489556e+03
2.529368132370224430e+03
2.339434256501912387e+03
2.421359398366832011e+03
2.296196579274648684e+03
2.085003586250979879e+03
1.997875122581152937e+03
1.925794918726030119e+03
1.821774297001983768e+03
1.339921514237447354e+03
1.029200375869206027e+03
5.326246144147577297e+02
3.852658212315373021e+02
5.071195416138119185e+02
5.121532852312172963e+02
6.164391141273544008e+02
5.671353217034734371e+02
7.813478859033230037e+02
9.271007891801781398e+02
6.721901942659553697e+02
4.026408374241934212e+02
4.392117587448959171e+02
5.231357617183391540e+02
1.074051478639345532e+03
1.644020252614345964e+03
1.061051013468832934e+03
-1.198193740080020149e+02
-6.054715576993856985e+02
-2.850080982961446239e+02
7.984897975762203259e+01
-2.950034475214550866e+02
-1.101618987318967982e+02
9.962233141061661001e+01
-1.834218255137674873e+02
-5.853119909776594341e+02
-2.500973957649833892e+02
-1.349623804327844709e+02
-4.709173136933263777e+02
-1.869298052068223228e+02
3.520281100115905701e+02
4.341277067229082149e+02
4.625425130850845790e+02
7.602380526818494673e+02
6.270549613206270578e+02
7.719830969170097887e+02
6.780213110317301926e+02
3.091608560134881714e+02
2.143937268027317771e+02
-1.272489281329957862e+02
-4.668685944076378860e+02
-7.664315659658470850e+02
-8.716775606735029669e+02
-1.096543127334749670e+03
-4.181322918281313150e+02
7.735514615048985831e+01
6.888048374239942007e+01
2.056012612852872223e+01
-3.759778429676632072e+01
1.803286838700962278e+02
5.052686202157437947e+02
6.842751296653399322e+02
6.963725897285009978e+02
3.045610949597383410e+02
2.157895245708295988e+02
6.605149851513574788e+01
-3.456353601636274675e+02
-3.782151461720718544e+02
-1.237042864271279683e+02
-2.271375145639156301e+02
-7.384444380586428451e+02
-6.526925479054679045e+02
-7.380143305515872498e+02
-9.635180754085324679e+02
-8.921866485325233498e+02
-8.070013103936715879e+02
-5.929541916644764115e+02
-5.640124264733857444e+02
-3.352496580315237793e+02
-1.777009887713584817e+02
-3.112314287240787394e+02
-4.988699577686010116e+02
-2.012666499057444071e+03
-4.736698974358119813e+03
-7.610035443400039185e+03
-3.614720586577758240e+03
3.514240003017591363e+01
4.205899071408797454e+02
4.976317088191623839e+02
6.281938711245169316e+02
1.292715626610054187e+02
5.897000647435011444e+01
-2.386821644399752174e+01
-5.992925617862098306e+02
-1.203097677646177999e+03
-6.945994809120434184e+02
5.315162759397657055e+01
-4.598636226914272811e+02
-6.017141078699514765e+02
-4.354609117431612049e+02
-3.561511957195484115e+02
4.012148734188756976e+02
1.750631357753218026e+03
1.336018188376978514e+03
4.673442200410612486e+02
4.076432007866843037e+02
7.739151274707376160e+02
1.006216128632937171e+03
1.059669959899378682e+03
6.960904369045463227e+02
2.693734189918731090e+02
-1.935207035091411569e+02
-3.178856547438313740e+01
2.855439114921562123e+02
2.654261588370362119e+02
2.549367776726734860e+02
1.630056302932749759e+02
3.546111074949603790e+02
5.907240375313011782e+02
1.059367152494840411e+03
7.085447466617666805e+02
7.101641183506687867e+02
1.141185919894556037e+03
1.467602270254090854e+03
1.337351929853057300e+03
1.493500098516003618e+03
1.787123950903261175e+03
1.675225454302576736e+03
1.264683169689432589e+03
1.353537772380731894e+03
1.195711928257838281e+03
9.351178921983009786e+02
6.366786554627308305e+02
7.474222380936154195e+02
7.614895987442337173e+02
7.289823143233155633e+02
8.827511680129887282e+02
1.332598922576413543e+03
1.429487184388470268e+03
1.472507966880773438e+03
1.559639167050489959e+03
1.343797774877747997e+03
1.284083387355820605e+03
1.462533092808075025e+03
1.831088982545156341e+03
1.584731833000580082e+03
1.488506072849514794e+03
1.737381445034919125e+03
2.251394712543319656e+03
2.229673491593865037e+03
1.811220591144179252e+03
1.192941836753045436e+03
1.049778264367397242e+03
7.648153520624417752e+02
9.580503346175926254e+02
1.147329949741152177e+03
1.149584384175134574e+03
1.116080848476504116e+03
1.130851400188942989e+03
-3.241965388496777223e+02
-2.708160655412618780e+03
-6.451087881402700987e+03
-6.386867026424222786e+03
-6.432331753718204709e+03
-6.274505715937183595e+03
-6.276483433412613522e+03
-6.667272182807654644e+03
-6.833829615249114795e+03
-7.229091570201221657e+03
-7.398032934294532424e+03
-6.617595690927671058e+03
-6.106771290715783834e+03
-6.413577363284030980e+03
-6.443957978296328292e+03
-4.501972086087122079e+03
-2.576702623795491718e+02
2.031190759633587049e+03
1.747675420376073134e+03
-1.963358916576911952e+03
-2.960169683488151691e+02
2.238768006860809237e+03
2.086188863552461953e+03
-2.772715808198369359e+03
-5.574998341341074592e+03
-5.379668985867791889e+03
-5.237752016567122155e+03
-5.219143418347066472e+03
-2.247813992382966717e+03
2.049218160260758395e+03
2.724047386762546921e+03
2.680718683511077415e+03
2.602224271847153432e+03
2.282475214563447025e+03
2.023520351982822149e+03
2.027479026046499257e+03
2.218301547704356381e+03
2.573977079593597409e+03
2.457583887615012372e+03
2.268142238330640794e+03
2.062628523044616031e+03
2.162077526185138140e+03
2.202500974519112333e+03
1.925938575853595239e+03
1.780364335628772778e+03
2.042845355725982017e+03
2.397417375053540127e+03
2.250168316279382907e+03
1.877112874205676235e+03
1.901247494360462269e+03
2.398487255377490328e+03
2.826905259078667314e+03
1.632725836823497502e+03
1.251343190795152623e+03
1.602913683073994207e+03
1.833013590491409786e+03
1.543772942986897988e+03
1.650240008385009332e+03
1.885274823337966836e+03
1.874864769206224082e+03
1.745959765022103966e+03
2.163588216297347572e+03
2.000706705718541116e+03
2.202360875748415310e+03
2.198889044802555418e+03
2.038897512663043926e+03
2.061334585918614721e+03
1.974368772956231169e+03
2.025083716312822389e+03
1.765166484465702524e+03
1.265492811280775641e+03
5.193733511328580335e+02
-1.491108787627193806e+02
1.749898204184744657e+02
9.868709765677596124e+01
-4.111431184423020113e+01
-3.209134500495391649e+02
5.049726782013815551e+01
1.144850099330129183e+02
1.936315933887212566e+02
1.701455386620987156e+02
8.743014451567879632e+02
1.433793432029782480e+03
1.490587266690003162e+03
1.460586034333069847e+03
1.390721963448049337e+03
9.098600335926349771e+02
8.410297184344977950e+02
7.683761642952059674e+02
5.799921806803693016e+02
4.029120240228300531e+02
7.636275958892404105e+02
1.706461646808061460e+03
2.027582710392689023e+03
8.175870203992909637e+02
1.014965638654197875e+02
1.672409646412324093e+02
3.179074742256720469e+02
6.254951120297226907e+02
6.869416612501144073e+02
4.042271714903001225e+02
3.025057155581181974e+02
2.537057310045352096e+02
2.287671569676301147e+02
1.258674127610551977e+03
1.787427169269268461e+03
1.575983759104190995e+03
1.886339992850515046e+03
2.315472555004450896e+03
2.501444007928181236e+03
2.226283589086599477e+03
1.518947344069343217e+03
7.540844740318442518e+01
-1.144408501413356817e+03
-1.244565818547390336e+03
-7.531146501659504793e+02
-2.465085442926002088e+03
-4.896408215280528566e+03
-8.025045632657506758e+03
-6.938059259960898999e+03
-6.421509125449797466e+03
-6.508375389910231206e+03
-6.683602850260032028e+03
-6.781205845457542637e+03
-6.224166568675621420e+03
-4.999452437204932721e+03
-5.257063912823121427e+03
-1.986113968486246677e+03
6.723390687883555756e+02
-4.404558681373559921e+03
-7.629841136294160606e+03
-6.914548692446423047e+03
-1.704696494128492759e+03
7.597026307143991062e+02
9.376273230541667090e+02
-1.468724995141198519e+02
-1.672796533467452491e+03
-2.859218753159081643e+03
-2.299138765932535989e+03
8.850866334928404910e+01
1.957692265537909179e+03
2.309357468169213007e+03
2.692595426081997175e+03
2.661454963758657414e+03
2.323976695174011184e+03
1.987271096915178305e+03
1.913433580014780318e+03
2.973615353532733820e+02
-1.527068246238359961e+03
-7.958026627391327565e+02
8.921859504762569486e+02
2.527939063645605529e+03
2.672368075927044174e+03
2.748471445888653307e+03
3.123271189314155436e+03
3.313755342691441001e+03
3.379969704252890551e+03
2.279972347465145504e+03
1.659841685017178406e+03
1.182588500333343973e+03
1.408244917839024311e+03
1.039822087585431973e+03
3.862159698440862599e+02
-3.444586420409960397e+02
1.000538890826639431e+02
7.347154567929560471e+02
8.093642968080033597e+02
1.571028932160143768e+03
2.026794426426278051e+03
1.893606413495624338e+03
1.071446501265618508e+03
1.384631824808927263e+02
-7.743673039542275092e+02
-1.535079596556485512e+03
-2.174571748639520138e+03
-2.531721125808554461e+03
-3.386599921649913540e+03
-2.567230383873079518e+03
-1.280545854099147164e+03
-3.826644305780779973e+02
1.365734349741528320e+02
6.283285385507770116e+02
6.010145330300202886e+02
-7.187216355929651854e+02
-1.181940817746842868e+03
-1.175404053903970407e+03
-1.684308479488650846e+03
-1.968681633631305203e+03
-4.794682065782562859e+02
-9.077018746799490145e+02
-2.268290022698390658e+03
1.207822660603018448e+03
1.212671800446563338e+03
1.187259406907659923e+03
1.971494865315215065e+03
1.744448399191815497e+03
9.231381868521808656e+02
7.165726602560846459e+02
8.558219736321998425e+02
6.598155071262924594e+02
-7.175073431786647689e+02
-1.996050142308015438e+03
-2.681734694720394145e+03
-3.255538768514151343e+03
-2.984439096458942458e+03
-1.594308108800550770e+02
1.175508757207937833e+03
2.313404959105264425e+03
3.332306094868177752e+03
2.913240701047700441e+03
2.490089213566861417e+03
1.591830928578096291e+03
8.975529234460507269e+02
4.271973555665884987e+02
2.427649984725041463e+02
-2.567410172874718342e+02
-3.652733140382299553e+02
-1.284715343790165321e+01
-1.794664199835081604e+02
-3.801413752100665420e+02
-6.298950177647889177e+02
-1.423708469937284008e+03
-1.917570549529044001e+03
-1.687494653900309459e+03
-6.814637451539551876e+02
-6.894907105658847968e+02
2.324932615645292913e+02
9.424544276707871404e+02
5.583995655073269972e+02
-7.007549490976539346e+02
-1.935053357923691692e+03
-1.580511737043692165e+03
6.818905635271096344e+02
2.407069950481781689e+03
2.522954443446697042e+03
1.261602176175084196e+03
1.125051502396956039e+03
9.082145777969993787e+02
2.230603471324731402e+02
2.686032001857246883e+02
6.378396887020742270e+02
-3.273137427210556893e+02
-1.163888230544117050e+03
-1.233890070340924694e+03
-1.513332235470494879e+03
-2.043282825522436724e+03
-1.029794780735018094e+03
1.861844354433194724e+02
5.526275975614108802e+02
-1.724679133107184725e+02
8.338937934376689327e+02
1.936632546446023071e+03
9.926392065274402512e+02
-1.196115040511220514e+03
-3.876285163651461971e+02
1.847969757637754810e+03
2.854514760288843263e+03
2.154173888631115005e+03
9.213227679931021612e+02
3.010580971448993637e+02
1.824105270687444317e+03
2.802452379776683301e+03
2.518018358851473295e+03
1.700828170601026159e+03
8.879785313515816370e+02
3.385614188749916593e+02
-2.968156373492469697e+02
-4.602988459110462145e+02
-5.000703539133101003e+02
1.416057670561704072e+02
1.096861542085558085e+03
4.590048655364076922e+02
-1.146174925713457924e+03
1.479510882909813461e+02
1.916462285329207134e+03
1.978753594003020226e+03
6.108337530639271336e+02
-3.849839051241307288e+02
5.490632967177116370e+02
1.562077524841877903e+03
1.825637211009013981e+03
2.122806552151263531e+03
1.266363971669036800e+03
9.612680618598670890e+02
8.494962400967351641e+02
9.518087116809613235e+02
2.094009936682562056e+03
3.008515800894020231e+03
3.453154545890223289e+03
2.496735502368942889e+03
1.730181318390679735e+03
2.183414679113540842e+03
2.303322206982672469e+03
1.815885488553440382e+03
1.913052917676950756e+03
2.148848775506002312e+03
1.882306076579342289e+03
1.844378620791921776e+03
1.611968303168081093e+03
1.313027905003418937e+03
8.476064588149274641e+02
3.537195932656146056e+02
-3.686875824237035193e+00
8.836024435381197861e+01
1.089027857557297381e+02
-2.000029045959048972e+03
-5.586477539416701802e+03
-6.640462177985211383e+03
-6.902945431955757158e+03
-6.734891738654300752e+03
-5.432384298714185206e+03
-6.229461281726952620e+03
-6.078142851188307759e+03
-4.333377255098863316e+03
-3.742157813678806178e+03
-3.623494349414454064e+03
-3.788423252980614507e+03
-4.467941820423324316e+03
-5.300000709227861989e+03
-5.845509326645620604e+03
-2.439471151514933808e+03
-4.024890824665500077e+03
-6.307777891756378267e+03
-3.905096100158079935e+03
2.369162646246703389e+03
4.217012471698780246e+03
3.394753380519921393e+02
-3.708398383284262309e+03
-4.296548982938699737e+03
-4.637934637790493070e+03
-4.276574500472035652e+03
-4.064404017014913734e+03
-4.249433440106483431e+03
-4.332628924309628019e+03
-4.765971225738319845e+03
-5.088439683231214985e+03
-4.433014876176120197e+03
4.353618611254830739e+02
1.955672888712962049e+03
3.363978040272284034e+03
4.248353963645621661e+03
4.612875909667647647e+03
3.266582955885076899e+03
2.350537108462723609e+03
3.237729593488697901e+03
4.065188224629311662e+03
3.896988793432763487e+03
2.992186550252208235e+03
3.088801945020635230e+03
3.509800590101919170e+03
3.582234905841697127e+03
3.047317716959983045e+03
2.417073009794440622e+03
2.301452210221622408e+03
2.154500646392982162e+03
1.451275987772659164e+03
3.528439148014028319e+02
1.231297714126782239e+03
1.869652866707912153e+03
1.826941234097265124e+03
1.645241986412810547e+03
1.771519460443371372e+03
1.555836580916405410e+03
1.406293504114395546e+03
5.898808867459271141e+02
7.726575527896950462e+02
1.351712680364226344e+03
2.008128075520026869e+03
3.023960463893059568e+03
3.368335609021336950e+03
3.273328008344439240e+03
2.461781872457386726e+03
1.505668663862969197e+03
1.481243086042404229e+03
1.724941723246855418e+03
1.227939591638527645e+03
1.889458144435569125e+02
-6.349344433424039380e+02
-1.076264818503709790e+02
6.988701528373812835e+02
8.146438751137304735e+02
6.156848351125881891e+02
1.017888193449388268e+03
8.883565530303295645e+02
1.119760857596635191e+02
4.950330644245709664e+02
1.184778103071360192e+03
1.642719229418150690e+03
1.494050692175363110e+03
9.136848829116848947e+02
7.095470000776326742e+02
1.012698059871002329e+03
8.612199900298596731e+02
2.621285094273109735e+02
-1.255019385553349451e+02
-1.478382811763965776e+02
-7.540364960508011336e+02
-2.082069467309840093e+03
-3.047838922775016727e+03
-3.395331686906002233e+03
-3.664511971857161370e+03
-2.928326131373093631e+03
-4.737472688971643038e+02
6.972000667547545163e+02
1.366886698628169086e+02
-3.123689136926469700e+01
1.373166252644474810e+02
5.892235462256571736e+02
7.724388606419112193e+02
7.390942364597256073e+02
2.811773236680919013e+02
-7.994103067305009063e+02
-1.828684604822539541e+03
-2.257680482561521785e+03
-1.753305201213699547e+03
-1.340571822300092663e+03
-8.105189326585596064e+02
-8.041599472559652213e+02
-2.397431615975405293e+03
-3.234349952991585724e+03
-1.287912840285850962e+03
7.008035894140955406e+02
9.147357510460550429e+02
8.749187251846885829e+02
1.162301344028561971e+03
9.948662967918470486e+02
-6.042150922277603797e+01
1.774421149279856706e+02
7.350905073116649646e+01
-9.221503626266494393e+02
-9.125521568078945620e+02
3.412165496430231997e+02
7.810532255915655924e+02
6.070003119875469793e+02
6.378903124163700795e+02
-1.585393222546434572e+03
-4.323861838994785103e+03
-7.978525900642186571e+03
-8.064444663497629335e+03
-5.728582441751257647e+03
-3.221878244279693718e+03
3.757437285353181267e+01
6.967446161748040367e+02
8.666135434995305786e+02
7.571350127208023650e+02
1.590978156332067499e+02
3.546572892210780310e+02
4.108380739118758811e+02
4.601730622300438540e+02
1.495896208198576005e+03
1.656963599909985987e+03
1.182245770264926932e+03
8.597422066519069404e+02
6.304695558176790655e+02
1.024333350525340393e+03
1.127256214467505288e+03
1.099266479471679077e+03
3.364333359977318310e+02
-4.762839646395925115e+02
-6.619137597553824435e+02
-2.545019156733184502e+02
6.684748891379234692e+01
4.548833022145721543e+02
6.216323481718814037e+02
1.194057864489647955e+03
2.042103513746294084e+03
1.929834332711548313e+03
1.623185327786056405e+03
2.077167667279848047e+03
1.742813150478766829e+03
1.147100166111668841e+03
7.089101624201159666e+02
9.192190340718721018e+02
1.321976447585851929e+03
8.591539717513231835e+02
4.677326868193751466e+02
2.026877934126190723e+02
1.699687006118078330e+02
-1.503676272552568776e+02
-3.643527600349826798e+02
-8.005747400592731822e+01
-2.385847764986785933e+02
2.711048194096803172e+02
1.106943649000101459e+03
2.172888490588810328e+03
2.337984729868065187e+03
1.986280719560103080e+03
1.966810454516814843e+03
2.406444328836354543e+03
1.954008059112082265e+03
8.124708963586959953e+02
9.089251005877541729e+02
1.584443794066981127e+03
1.445946449052802564e+03
1.213415714914031469e+03
1.105904662797094488e+03
1.419337744362725061e+03
1.265696266323777991e+03
1.302099046938844822e+03
9.735171423974126128e+02
8.929101681087970519e+02
6.313133718643402972e+02
3.677470803372248156e+02
7.080765657946335523e+02
6.852750343748980413e+02
7.044201323547709990e+02
1.592565125422502206e+03
1.844584475608918638e+03
1.616491147224505312e+03
1.476394558185724009e+03
1.669494128438096368e+03
5.065598929693811669e+02
-2.864566647348626248e+03
-6.171832485621774140e+03
-6.055116583403169898e+03
-6.424314576561942886e+03
-6.573456779516221104e+03
-6.479699702665047880e+03
-6.711045640448788618e+03
-6.200350508087079106e+03
-3.992519236223962707e+03
1.069483601503807222e+03
2.191667608655325694e+03
2.366096902759506065e+03
1.786742856794083309e+03
-2.305407397061903794e+03
-5.940374178837786530e+03
-5.218191330322398244e+03
-4.201720156748434420e+03
-4.158805124820211859e+03
-3.594664643733533467e+03
9.116762019229913676e+02
2.964325526983741383e+03
1.981432460034174710e+03
-5.709279316468425804e+02
-4.560897688530120831e+03
-6.855536994401174525e+03
-7.165777153743782947e+03
-7.257616155607755900e+03
-7.466930338693111480e+03
-7.668712944366159718e+03
-7.117942784941043101e+03
-6.180587382245579647e+03
-1.756679470797269914e+03
1.198791317302970583e+03
2.639839388384381891e+03
3.503590277751465237e+03
3.928109425868390190e+03
3.514365083128560855e+03
3.375427230587110898e+03
3.109366790551801387e+03
2.998113096910399690e+03
3.575641461792498376e+03
3.915033728340006746e+03
3.571270819326696255e+03
2.684398524635001650e+03
2.133482536245693154e+03
1.989559214043937345e+03
1.720707452761113927e+03
1.380926294617175245e+03
1.192168541149075054e+03
1.212459548022498439e+03
1.154947840676137048e+03
1.531811430560891495e+03
2.734906898729738259e+03
2.921517386285404882e+03
2.689721712739263239e+03
2.701406578766687744e+03
2.380632896661638824e+03
2.108381732722829838e+03
2.242527171479963272e+03
2.411198981915579679e+03
1.757403174871018564e+03
6.722078302834570422e+02
5.165813421913939010e+02
8.545005052610007397e+02
1.478023560740936546e+03
1.804924010498353027e+03
1.653609674090959970e+03
1.929801733676202502e+03
2.000307585617454151e+03
2.159872732759578412e+03
1.988777529077515283e+03
1.785468649553718478e+03
1.578061242232726727e+03
1.431334440522650539e+03
1.661230878567025911e+03
2.089736412154230493e+03
1.969856766589593690e+03
1.651630685232111091e+03
1.829330754616986269e+03
1.602736584291793179e+03
1.137273849657980918e+03
7.720437550947325462e+02
4.381748802586911324e+02
3.547653287731894238e+02
3.155535481534348037e+02
6.874564837711241125e+02
1.083433445810998592e+03
1.345690530600992133e+03
1.325218970335249196e+03
1.049850862688486814e+03
9.935626964733191926e+02
1.039457120712740789e+03
1.385600401338039319e+03
1.521863206062462268e+03
1.263219912947959074e+03
1.480700775615246357e+03
1.697290242517842671e+03
1.364002217695644504e+03
1.026825198658922318e+03
9.787097009940509906e+02
9.417236622619130912e+02
1.121872423916193611e+03
1.011994550613171214e+03
6.530884078388875196e+02
6.461584197794098827e+02
7.472276132827853417e+02
7.362191039847966749e+02
6.631541572071935207e+02
3.080534147179724300e+02
2.269623660074019540e+02
5.167598777886124708e+02
8.274171313631177327e+02
6.999102726328679864e+02
5.071980040521910951e+02
5.143689202133728031e+02
-1.379591390361506683e+03
-4.219647724775279130e+03
-7.575773670497293097e+03
-7.643057681542244609e+03
-7.456561228668676449e+03
-7.610245858463691548e+03
-7.283025222600016605e+03
-6.981939697099669502e+03
-7.308103477134157401e+03
-6.940558279567128011e+03
-6.326289515524948911e+03
-6.563226765413091016e+03
-7.427445599084495370e+03
-6.219942381258250862e+03
-6.945797153851613075e+02
4.965443473415219273e+02
-4.767634338528710941e+03
-4.976124268464921443e+03
-8.288760089231672055e+02
1.128212202972379828e+03
2.019082660747031696e+03
2.492645289091593440e+03
2.157975757378562321e+03
2.555082536886832258e+03
2.298949485805635959e+03
2.005571237919339410e+03
1.874984216074238475e+03
1.554259789279718007e+03
1.295395937562483368e+03
8.954052346413411669e+02
6.082545297120283294e+02
3.998307766931673086e+02
-1.049933785332713683e+02
-3.251511799851578530e+02
-7.724895330173482080e+02
-1.840148658560325430e+02
1.902858402219821130e+02
4.683756034660599425e+02
1.359271246621770615e+03
2.341988909884717486e+03
2.653581057924111519e+03
2.794174988177034720e+03
2.471787154949539854e+03
2.058385605709012452e+03
1.773886412814273854e+03
1.008295567086169058e+03
7.806321282425971049e+02
9.309416840238706072e+02
6.443918462810861456e+02
2.639365605337257534e+02
2.323883983934819355e+02
-6.929289110551735575e+01
-1.689873292485768843e+02
1.883797128431841372e+02
5.727817227349704581e+02
2.822782764551379842e+02
-6.009749963821154779e+02
-9.900772201145805411e+02
-3.019699890132004043e+02
7.184821469543911689e+02
1.154245268077524997e+03
8.692041219101211027e+02
8.784338135003190473e+02
8.599934607233536781e+02
5.047587280578781588e+02
2.908901141931482357e+02
1.755530366420707935e+02
-1.888665717250761418e+02
-1.175033373084563806e+02
-2.594917839786535865e+02
-5.449157256146879718e+02
-3.196274261461574611e+02
-3.847197473951698612e+02
-4.133300852267773280e+02
-7.454184624881420405e+02
-3.189211063161895936e+02
-1.298508985947827341e+02
-2.871243122937441399e+02
1.142124833127330135e+02
5.570813688002367599e+02
8.766010724616165817e+02
8.158169141081574480e+02
7.497631522232605903e+02
4.294216305552389485e+02
-1.352305117140598156e+02
-2.411619712266673901e+02
-3.503367840914494877e+02
-7.776939074238607645e+02
-7.572384621148707993e+02
-8.569880864369677056e+02
-9.869674275554477845e+02
