5.088204172342842213e+01
-1.370997348887236456e+02
1.122645469933652294e+02
-1.789844322708840707e+02
-1.285782666144706177e+01
4.516507137752174685e+02
9.146467760405557783e+02
8.171916790884974944e+02
8.273388288979682557e+02
1.719164867290317034e+03
2.655638416466503713e+03
2.693737562490056462e+03
2.389489503459251864e+03
2.255933502000205863e+03
2.104199665433758128e+03
1.953343459550429088e+03
1.709257694870624846e+03
1.287827303802599545e+03
7.720859050831872992e+02
2.709639872372496825e+02
5.353213313225243155e+02
7.777154827628714884e+02
2.425435733930257811e+02
1.949819612207880368e+02
3.737636853105796035e+02
6.839023301520986706e+02
1.131510974027150496e+03
8.345892034014175351e+02
-1.736058364847971234e+03
-1.625271621880563544e+03
1.023953306057023156e+03
1.692650912882559396e+03
1.963831141195488271e+03
1.877535064515010617e+03
2.049050852710048275e+03
1.745964334976089049e+03
1.447903941662590341e+03
5.751107316852153417e+02
1.870531583708330459e+02
-1.835394547760422768e+02
-1.426810778638725878e+02
-1.953737518057493787e+02
-1.016212720506684235e+02
3.063826577194373968e+01
3.703010312844036775e+02
5.700375871216398309e+02
6.408947686126406325e+02
2.568983013111612195e+02
4.331048865476118976e+02
9.254784209191481068e+02
9.699789903703958771e+02
1.348583720244015467e+03
1.574293106280697657e+03
1.687166544741556208e+03
1.249246251084009600e+03
1.014548998488367261e+03
1.118028408800806346e+03
1.113652328687936233e+03
5.434639223117954998e+02
2.764355765294166645e+02
9.255511236300009159e+01
6.757453601931675848e+02
1.035999233626698242e+03
1.156409436307385249e+03
1.071066076040360485e+03
1.359939595024668961e+03
1.578026581005666003e+03
1.746335784685048793e+03
1.700882211915360358e+03
1.905686764562708504e+03
1.860721569191341814e+03
1.333984786756112726e+03
1.071401872034859707e+03
1.002002643093870120e+03
1.117797126768160297e+03
1.033793124795749463e+03
6.289383341638335878e+02
9.320703014009193055e+01
-2.614035463236891701e+02
-5.859051091532020337e+02
-6.853451501043469989e+02
1.902937474745846202e+02
3.750035472430398045e+02
-9.311936030951841303e+02
-3.668285215191419411e+03
-6.874241722913779086e+03
-7.228084680350153576e+03
-8.530843440834609282e+03
-9.244499958504688038e+03
-8.244047531625885313e+03
-7.704493671598651417e+03
-7.701866515399796299e+03
-6.947280706511551216e+03
-7.020241022678038462e+03
-7.866901581894632727e+03
-5.893405551362473489e+03
-3.731873653211391229e+03
-2.062315563740197319e+02
1.664412467781733994e+03
1.430055858429788714e+03
1.161698825131342119e+03
6.973104945669888366e+02
1.118917530280104529e+03
1.672501145432817566e+03
1.410021278951043087e+03
1.594486095768897940e+03
2.345984192664347120e+03
2.163493120510426252e+03
1.856991071374589183e+03
1.803410530665000124e+03
1.999759037366899292e+03
2.523054884616693471e+03
2.193313596361379496e+03
1.891574807302997897e+03
1.686798132467694131e+03
1.745980250161637287e+03
1.919118759517695025e+03
1.104189004188351191e+03
4.841659954481498858e+02
4.020756517803778820e+02
2.009018214687443162e+02
7.506096397938041491e+02
5.081564674406669724e+02
5.655568856869723504e+02
1.425843367834712126e+03
1.452072982951064205e+03
1.135240363565029384e+03
1.414304255957789792e+03
1.634246351838040709e+03
2.143095057503120643e+03
1.933889790959573475e+03
1.806581698913062155e+03
1.788210590113016679e+03
2.084776341219007008e+03
2.251274712881772757e+03
1.823680395089083049e+03
1.786994396761097278e+03
1.579246037521591234e+03
7.954333801038173988e+02
1.985033651576139846e+02
-7.152501294421263367e+01
1.393674998728489527e+02
3.901538872545071399e+02
7.768689827318293055e+02
7.755466653924113416e+02
1.257138304509041973e+03
1.835695344634887306e+03
2.075277754787039157e+03
1.237902604708738636e+03
1.797431781139129953e+03
2.131915314332185517e+03
2.093350818381415593e+03
1.504769775352103125e+03
1.363192045851871171e+03
1.405629118216850884e+03
2.721406113349764837e+02
-1.154236623256307212e+03
-5.606560331711264553e+03
-6.332974039868414366e+03
-1.610416517708212041e+03
-1.172858444744424560e+03
-2.712275459406816935e+03
-4.052678653659793781e+03
-5.610734040701414642e+02
-3.166406025850277274e+03
-1.571660569185190752e+03
-4.378365529951587405e+02
-3.579882333728693993e+03
-7.108044994321163585e+02
-3.998581952688818546e+03
-3.029203143298470877e+03
-2.808639076434475555e+03
-3.110889435322164900e+03
2.290884728071568190e+02
4.883274050277107108e+02
-3.114205303144738537e+03
-3.415281035510979564e+02
-3.240638105580465890e+03
-4.804777250545795937e+02
-1.326077717110590811e+03
-4.088464180832526836e+03
-1.314636680005987500e+03
-4.162564881096424870e+03
-3.132638329749788113e+02
-2.154732753316698563e+03
-8.269229187350227903e+02
1.467174018671242720e+03
-2.098430447655721764e+03
1.206318899241834060e+03
3.403802169282842556e+02
-3.564205506796053214e+03
-2.405484297468145996e+03
-1.828502613283398887e+03
-1.999235446622870768e+03
1.743376625165243695e+03
8.023268253217958090e+02
-1.668330151598845077e+03
5.863340605800125331e+02
-2.847667296540344978e+03
-2.388384905801206969e+03
-1.558437075240926788e+02
5.409893406819237498e+02
7.350978432246403145e+02
4.564878965634771362e+02
1.464112437785347538e+03
1.882005745386965827e+03
1.759115228222850874e+03
1.787534479308910932e+03
2.077217297573896303e+03
1.901199376678566978e+03
1.945433692755994343e+03
1.978892820462110876e+03
2.006583003608935087e+03
2.409490357829580262e+03
2.227625006965320154e+03
1.932962985365150189e+03
1.586535516089955763e+03
9.533478310996450773e+02
5.443057712092802376e+02
-7.871994632191314167e+01
2.921630555741334661e+02
-2.100368026747141357e+03
-9.974421860747339679e+02
1.524446742977120721e+03
2.349699761838039194e+03
2.576912046145509066e+03
2.355673428249360313e+03
2.291553119180341128e+03
2.402562635517585022e+03
2.486591379979845442e+03
2.557511213547666557e+03
2.457247438147258435e+03
2.103359679134315229e+03
2.089516160111657427e+03
1.984034619101099224e+03
1.785608803085564659e+03
1.248808599954817282e+03
1.039146014439677629e+03
7.265266309934195306e+02
2.815027503064119969e+02
5.624222969896391078e+02
1.206910320268268606e+03
1.067339457470560319e+03
8.913637868115756646e+02
1.095668655150290533e+03
1.456438942928693905e+03
1.456998055799555004e+03
1.528587500321514881e+03
2.150782028070439083e+03
1.995614588942114324e+03
1.694468262887028686e+03
2.181176049860894636e+03
2.289322819238266220e+03
1.891716501378384237e+03
1.890824939748672250e+03
1.977696359782089758e+03
1.779109106743734401e+03
1.689035509350163466e+03
2.177437772145349300e+03
2.064316190873863434e+03
1.496694423401696895e+03
6.104798665157356936e+02
3.245964965990896189e+02
3.010626415990134319e+02
7.409088638664364908e+02
1.541163263330455038e+03
2.538707159993249661e+03
2.788545239351880355e+03
2.739752246686592116e+03
2.370371356501177161e+03
2.491349257202923127e+03
2.877623668170713245e+03
2.769239744389056341e+03
1.624181322440029817e+03
9.834762922920074288e+02
-1.219873862039278947e+03
-6.956845816764598567e+03
-9.328518387752194030e+03
-9.370869136031104063e+03
-9.323862892491459206e+03
-9.782520784584330613e+03
-9.350888695352599825e+03
-7.711987510812125947e+03
-6.132799005082796612e+03
-7.008258369684408535e+03
-6.635071872104312206e+03
-6.697420197242665381e+03
-6.522564817972469427e+03
-6.046326705975554432e+03
-6.240711766061577691e+03
-2.474664689452194125e+03
-3.051210471688184953e+03
-6.558287858261970541e+03
-6.703871933604975311e+03
-6.288916260870415499e+03
-6.463459110503129523e+03
-6.209492974014843639e+03
-6.536006771855369152e+03
-6.784984622756393946e+03
-5.837456792013170343e+03
7.062066077486261406e+01
2.825225491974395936e+03
3.477349914450035158e+03
3.485059239262912797e+03
4.265427943966778912e+03
4.644474343652443167e+03
4.520206383217028815e+03
4.397682214460640353e+03
4.353901221587543660e+03
4.425896436265603370e+03
4.411708428967004693e+03
4.649339233212633189e+03
4.026807835232907109e+03
3.413171456074177058e+03
3.203405119027913770e+03
2.842585431637079637e+03
2.830753883684801167e+03
2.454935972850022608e+03
1.386114914373268675e+03
8.902778600048218323e+02
1.180523008775078551e+03
1.101866510500516142e+03
7.762997224563445116e+02
8.478377883544742417e+02
1.285474149077981565e+03
2.034336366676460329e+03
2.354461386951759778e+03
2.792893215270413293e+03
2.904702616807169306e+03
2.893916179238121913e+03
2.943591036556903418e+03
2.664663178565380804e+03
2.184143094872204074e+03
2.263108692392414468e+03
2.263596836945558607e+03
1.807611656576355017e+03
1.575158215557558151e+03
1.367239842071547400e+03
1.116671433510175120e+03
6.154356534409491815e+02
2.419541861996867738e+02
3.146830319767839796e+02
2.756890651221904136e+02
4.417563269486222453e+02
6.659687361227084921e+02
6.164308488375851312e+02
4.060640824624705942e+02
-2.930559472399102674e+02
-2.772022079366179241e+03
-3.223878375262832833e+03
-1.020465529152337808e+03
2.452753399147562732e+02
3.102998521788534845e+02
7.436307256357224560e+02
8.487245477000381015e+02
7.084861304980889827e+02
5.799930316751988357e+02
2.486699061425411514e+02
-1.366700057031994753e+01
-2.753560624182521792e+02
-7.091153388841953529e+02
-1.004771730109458304e+03
-8.755044418272001394e+02
-5.973841195811493208e+02
-1.643656719824075765e+02
-3.774116378180161746e+02
-3.854714793845582221e+02
-3.355065860192095784e+02
-5.766520576351250327e+01
4.610701050512827806e+02
3.527553230913862308e+02
8.638822559524071210e+01
-3.403096026979214628e+01
-1.665904468351211847e+02
-3.701801689148292667e+02
-1.787780590049609657e+02
4.055355501110073391e+01
1.297984918030729204e+02
-2.541050950459162721e+02
-7.641015426714368459e+02
-1.016270612087918721e+03
-5.366624113156416342e+02
-2.272635187133221564e+02
-2.450541223713586589e+02
-3.180394909681132276e+02
-8.721032068161245832e+01
2.053710985719535813e+02
1.897682559908220412e+02
6.059731093681403991e+02
9.269400078812748234e+02
8.836175629319102427e+02
5.909929267125726255e+02
2.230554746641508075e+02
2.347575258847328712e+02
3.281394101200014575e+02
7.318810731109032020e+01
-2.981088355198193653e+02
-5.867741307808349802e+02
-1.057852934616107632e+03
-1.089401219592880807e+03
-9.524060353574685678e+02
-1.231920589393043883e+03
-1.320058844967745927e+03
-1.149870055212320494e+03
-6.733746436659620258e+02
-3.904576316920972658e+02
-5.722126914364941541e+01
-1.346533112821750251e+02
-2.777485611854449417e+02
-4.134954886380497783e+02
-6.499083008100071766e+02
-4.001166078950575411e+02
8.220085388390674552e+02
9.234537065881205535e+02
5.205150299049242903e+02
3.019183363301967802e+02
2.414847572655550323e+01
-3.952514640601295781e+01
-5.969550575348240500e+02
-1.172143865136531076e+03
-1.482562076950407345e+03
-1.358797700842432732e+03
-1.065237077453563870e+03
-6.679045333108128943e+02
-6.264430325444109258e+02
-3.653043540580940203e+02
-2.080605348783496140e+02
6.697928332983003941e+01
2.958821994923466150e+02
5.456628769116459807e+02
7.100041755147086633e+02
9.150457089553040078e+02
8.150818177756159457e+02
5.646547987659996579e+02
7.831808144452631950e+02
7.771575274087390426e+02
3.807886497325447408e+02
1.122527591642545843e+02
1.241321969867956341e+02
-2.761471706717381380e+02
-7.121768824612579465e+02
-8.615280878822363775e+02
-1.052466909649011086e+03
-9.421290701848955678e+02
-5.390469467403361250e+02
-2.227676773691732137e+02
6.940098475635771820e+02
1.017588625872697435e+03
7.806203858189406901e+02
5.300897152405607358e+02
6.040693393503634070e+02
6.261574908859032575e+02
1.309610502867055857e+03
1.191620860523050624e+03
1.021887585061681534e+03
7.208255156773377621e+02
3.891294070068537962e+02
2.736168620488895158e+02
2.503606353407409131e+02
3.224707043856110431e+02
-4.047915532977707898e+00
-1.063395389433992193e+02
-6.223523879213462351e+02
-4.850034567822702911e+02
-6.223434760437595514e+02
6.995877668596328931e+02
1.208886724163740837e+03
1.319543924223122076e+03
1.266610570338680191e+03
9.420727861625260857e+02
1.307902027679268940e+03
1.293179367656078512e+03
1.374927998590390644e+03
1.814170568507912549e+03
1.845910144436703604e+03
3.551180510199747573e+02
-3.964028634110326948e+03
-4.262610396982723614e+03
-3.106417208593866690e+03
-6.085689378277691503e+03
-1.363607549544186440e+03
-2.596086369106209986e+03
-5.280604688687191128e+02
-4.385131110236005156e+02
-2.320429463640097310e+03
6.362383362546482886e+02
-3.488423796005805343e+03
-3.941417396187956911e+03
-3.333702664840081525e+03
-2.775206501195101737e+03
-5.159514753733702719e+02
-1.959813534939763997e+02
-1.982286710288631639e+03
1.435168236777026550e+03
1.663424695591176032e+03
1.697537251615255627e+03
8.055176273169308843e+01
-2.879585727406733895e+03
-1.969893634076982380e+03
-3.251311481782845931e+03
-5.280788097856613916e+01
-3.629413268079942554e+03
-3.394121668355433940e+03
-4.022881001891084907e+03
-1.242713922231166862e+03
-3.321603474644696689e+03
-2.224376185185775796e+02
1.040806183110030588e+03
9.510828324385589667e+02
-2.231578271629960909e+03
-1.162106059714861431e+03
1.466416676049605712e+03
2.088978470311116780e+03
1.860657778027230961e+03
1.554446703719902189e+03
1.890311702636678092e+03
2.260331176886876165e+03
2.083555593379127004e+03
1.359026893369151821e+03
9.996965899739254837e+02
5.515700121660514696e+02
6.386121376631365365e+02
2.787514614802621509e+02
3.219639530579329971e+02
6.953376588745690015e+02
1.473931312484018463e+03
1.911769399772078486e+03
1.569821513117131644e+03
1.810142695271929824e+03
1.768492958868566348e+03
1.864105342679461728e+03
1.793305837702181407e+03
1.934172235217252137e+03
1.813065627242474875e+03
2.041815769168783390e+03
1.909237497569099332e+03
1.873384764744574341e+03
1.391152792537931646e+03
6.235376868413803777e+02
8.945636150945944109e+01
-5.792238072850178696e+02
-2.643842499148175307e+02
7.790829828798950984e+01
-1.211375935680163565e+02
3.514152320126783025e+02
4.020325310071426088e+02
7.270623613199491047e+02
9.021951343011178324e+02
1.272797141706422508e+03
1.834125039720493987e+03
2.202915326730365905e+03
2.268067845390846742e+03
2.146549219974850985e+03
2.344306536534623319e+03
2.486357287713068217e+03
2.145690065444516677e+03
2.165249371947591044e+03
1.892706687840110362e+03
1.048067231611409852e+03
4.943343792870763878e+02
-2.367832268239018845e+01
-1.531088023238488347e+02
-8.794584181515189414e+01
6.379752968186748774e+01
3.331438901770334269e+02
7.130740000578297213e+02
1.348542257984923481e+03
1.136565713375240648e+03
8.811160098297988270e+02
1.368202900231762214e+03
1.122801440683860847e+03
7.908869040523057947e+02
7.834566926887634963e+02
7.654882666495167314e+02
1.021963333469270424e+03
6.309048547429175642e+02
9.432369203947492906e+02
9.258719242066837296e+02
8.027784210048197338e+02
4.229626851575277442e+02
-6.145671347226051466e+02
-7.598629436730889211e+02
-5.460319319636500950e+02
-3.341032858889397517e+02
-1.030904772163926708e+02
3.319861569021803689e+02
1.483181259556036139e+03
1.832499833386701084e+03
1.800014814417185789e+03
2.054738379051592801e+03
2.234579742684225039e+03
2.208447658813948692e+03
1.793360520036125081e+03
1.113331474555463274e+03
-1.660639397105678199e+03
-6.578540413851463200e+03
-9.068344853645454350e+03
-8.256103281693791359e+03
-8.048851679821459584e+03
-8.595612019523623530e+03
-9.753415014465057538e+03
-9.668277089243701994e+03
-9.008193461586226476e+03
-7.611118725130270832e+03
-7.968867629395289441e+03
-8.361244767426660474e+03
-7.606410575546971813e+03
-7.003573484878588715e+03
-3.647731104152183434e+03
1.751209408417551913e+03
3.048100013024533837e+03
2.113874444221481099e+03
-2.724093679955302036e+02
2.653369406116515620e+03
3.300252038557691776e+03
5.219728351991827253e+01
1.961815473832614884e+02
1.965197538315935390e+03
2.056309276052981204e+03
1.874533593894838759e+03
1.273898443371141639e+03
7.953793760180608388e+02
1.137006144812087541e+03
2.462794344020536300e+03
2.499814888480711488e+03
1.883102311448047431e+03
1.885653622718106817e+03
1.947520242168171535e+03
2.386790832153702922e+03
1.907499776657189614e+03
1.776656497874464549e+03
2.056270760678663919e+03
2.147305683158862394e+03
1.998810188416271330e+03
1.972838417410112470e+03
2.074467479233434460e+03
1.531748960888270403e+03
1.343683956663767731e+03
6.732067481696201412e+02
-1.396529043862590527e+02
-3.818424991366118775e+02
-3.282999323069208231e+02
-5.050281977264933744e+02
-3.359934975202711485e+02
6.190668258409451141e+01
2.756874477437979181e+02
4.784052128230600829e+02
7.631879507386902333e+02
5.531297353107703429e+02
2.622436094011187038e+02
5.645107899271079077e+02
2.809670669770973745e+02
7.365216814090059927e+01
6.471545803573107492e+01
2.923236832757642674e+02
2.464517102444054615e+02
1.008077594088195383e+03
1.208151517776932451e+03
7.986356794746666310e+02
1.944307288984636841e+02
-7.808905046704502411e+02
-1.304261808710492915e+03
-1.556097463905992527e+03
-1.448367785174775236e+03
-1.236940474061639407e+03
-1.136721885939874255e+03
-4.226936358946397831e+02
-8.187493637146362744e+02
-5.479085159868994879e+02
-7.141489891293138044e+02
-5.013189687070063769e+02
-3.293903462310101418e+02
-3.933643225640236096e+02
-2.032769321908228051e+02
2.088902490154477221e+02
9.342131545534506358e+02
1.245733153254106128e+03
1.295473053427931973e+03
7.503961522041632861e+02
-2.245093483615383789e+01
-5.740507930744374789e+02
-7.044815094457667328e+02
-1.305778617715520568e+03
-1.732898256309363660e+03
-1.600867342513392032e+03
-1.458624877008663361e+03
-9.550933566540046513e+02
-8.962399679305160589e+02
-1.092131917758400959e+03
-5.807214292535053346e+02
1.806835201130875035e+01
1.751623742231453491e+02
-1.623592763276549533e+02
-4.213794732101251270e+02
-2.748725636871757274e+02
1.410933348420153877e+01
-2.344804174961768979e+02
-2.107270702448121256e+02
-3.166448016117026327e+02
-5.891675821841521383e+02
-7.732270037429735794e+02
-1.061804820302539383e+03
-1.253921785464915729e+03
-1.095660004095902877e+03
-4.779672901512944350e+02
-1.598145958192874616e+02
6.656450627913784501e+02
9.602822324492050257e+02
2.599671191390018521e+02
-1.232647281614472234e+01
6.514133188224553805e+02
9.841617439847376545e+02
9.849450943267610228e+02
7.797620564080498298e+02
2.805903724375374395e+02
8.053847152496948638e+02
9.831124339336817002e+02
6.327617565991548645e+02
4.223257382246155203e+02
7.227368192132951208e+02
4.329439453931902904e+02
-2.910082133590138938e+02
-4.504437170904798791e+02
-7.045612978674723763e+02
-4.297372370838631355e+02
-4.370730674775914508e+02
-5.468485898352937511e+02
-3.173761157617672666e+02
-7.344233832508597004e+01
2.211644492677606024e+02
-3.601241015958115810e+01
-9.105837122106794368e+02
-5.247773459463698487e+01
7.605255692557531120e+02
1.221157568618385767e+03
1.880199587125255903e+03
2.031061025609253875e+03
1.804767403039155397e+03
1.690847106174725468e+03
1.003852728835976336e+03
1.847953015464032660e+02
-2.561780117372517793e+02
1.415029690824379998e+02
3.455150635046053935e+02
6.972391683292795506e+02
1.576613850777095195e+03
2.430646291616121744e+03
2.482244467249600802e+03
2.246418381410432630e+03
1.677140674838142331e+03
1.517165874273264990e+03
1.629727158524882725e+03
1.903377300207965391e+03
1.993596192376155614e+03
2.121128921477865333e+03
2.079140056749186442e+03
2.124596492689492607e+03
1.902525634737481596e+03
1.698074252362438301e+03
1.572889641662231270e+03
8.974794070636810375e+02
7.388573506924442427e+02
1.100206968573431595e+03
1.408291112262508932e+03
1.828759728825699767e+03
2.227075921139296952e+03
2.943378519664507166e+03
2.830266215039757753e+03
2.417486302618261561e+03
2.492168723328137730e+03
2.359298716623367909e+03
2.229845087944089755e+03
2.406646380885254075e+03
2.588722083851575462e+03
2.706149281998853439e+03
2.517912766588936847e+03
2.482906542511377666e+03
2.402128051941723697e+03
1.733510412631380859e+03
8.980684602866510886e+02
3.308042480713114628e+02
4.062587372995492530e+01
-5.065177235937898672e+02
-1.232587842722091182e+03
-1.062534448042497388e+03
-5.002391102900960504e+03
-8.163115309122889812e+03
-7.234697399953645800e+03
-7.168114421734530879e+03
-7.035346713998065752e+03
-6.709411478665141658e+03
-6.636376976184379600e+03
-5.537179974111550109e+03
-6.176856940934600971e+03
-5.904347899550543843e+03
-4.914582918265185981e+03
-4.997640016853663838e+03
-5.894467720510067011e+03
-6.503871516380425419e+03
-4.461037960259073770e+03
-2.205646580040658591e+03
-6.482043907812936595e+03
-7.389806719314185102e+03
-7.814028913451417793e+03
-7.224824182414708957e+03
-6.399150765136228074e+03
-5.617005126727921379e+03
-5.075362475454400737e+03
-5.172159097337567800e+03
-5.230300389299783092e+03
-5.369772207421079656e+03
-5.349567837565294212e+03
-4.277631550270575644e+03
-5.958984813871919641e+02
2.358707377952336174e+03
4.753256173592527375e+03
4.878786696305893201e+03
4.419384863048690931e+03
4.105076311382615131e+03
3.359876564361999499e+03
3.081798571145502137e+03
2.892875976127857029e+03
2.500158197154779828e+03
2.538681206779482636e+03
2.880587810615314083e+03
2.808963017451701035e+03
2.556787951714748488e+03
2.591183903132473006e+03
2.726221652414940309e+03
3.303982140138798059e+03
3.699516921363556776e+03
3.930846238242586878e+03
3.927048178394149545e+03
3.894149936390291714e+03
3.380275549487917033e+03
2.834458626374992036e+03
3.030794334855527723e+03
3.378398777722673003e+03
3.133262252220956270e+03
2.383416582673225093e+03
1.771942952626409351e+03
6.749006547463328616e+02
2.023018712607250791e+02
-5.882556117832574039e+00
6.364570293620995471e+02
1.548478050937485250e+03
2.215239189417132366e+03
1.884799525013518178e+03
1.346199636700024939e+03
1.191495225997543457e+03
1.138747013665179111e+03
1.298211901903947364e+03
1.662165960209415744e+03
1.554579091058990571e+03
1.488322736422837579e+03
1.074373495191635357e+03
4.366760321926473125e+02
-4.337190399520231381e+02
-1.734701294606119973e+03
-2.957995884563461459e+03
-2.506716003826970791e+03
-1.559740955043897657e+03
-8.089622326211864447e+02
4.056024305005563519e+02
1.449963205746042377e+03
2.964928482088413148e+03
3.193595905650066015e+03
2.139957653530703737e+03
1.235019227506146080e+03
1.692926436213805573e+03
2.457278935154727151e+03
2.680193734888116069e+03
2.375975072212240320e+03
1.380432617549763108e+03
8.694215470833498784e+02
6.870337314907931159e+02
8.473567895358301030e+02
7.114246997629961697e+02
-2.776544640970582023e+01
-8.732508581888992012e+02
-1.190162702829240743e+03
-1.137404797727265304e+03
-1.090913809794187728e+03
-1.324757027983649095e+03
-9.679788565913436287e+02
-3.075809583390403077e+02
2.085196648707238296e+02
4.513629182724406519e+02
2.208684796444635197e+02
2.700073694567503821e+02
5.487979137943382284e+02
9.691648744888303781e+02
1.498100692989544314e+03
1.878638428052606059e+03
1.764718333229897780e+03
1.452333829514265517e+03
9.455008223347418834e+02
5.682018226175789550e+02
-1.665952730099545249e+02
-1.061969655251183212e+03
-1.628995380833020590e+03
-2.204732086947157768e+03
-2.749226283060379501e+03
-2.583510226217436411e+03
-1.957618269308805111e+03
-1.778563048973558352e+03
-2.082351246293265376e+03
-2.484059306920707513e+03
-3.496668636513843012e+03
-3.489208307393806535e+03
-1.663722791388057885e+03
-6.142563385930880031e+02
2.411355036351197612e+02
2.203482641788306751e+02
-1.475663060852427407e+03
-5.612898722271615952e+03
-2.841379987931529740e+03
1.598860101431683688e+03
5.667626493791136681e+02
-7.626993866803528590e+02
-1.549661531018433152e+03
-1.874198530541896162e+03
-2.628377880488507799e+03
-2.770328317594337477e+03
-3.232091097566276403e+03
-2.704578750440877229e+03
-1.387646171062966687e+03
-3.904839164622451335e+02
5.257702656081506802e+02
5.830832343732553227e+02
6.844211494047971200e+02
8.556866184240647044e+02
1.098739806080310700e+03
1.548576307967978209e+03
1.711207550894348515e+03
2.542586987023510574e+03
3.802720317044105286e+03
3.662540742852125732e+03
2.986956442813482681e+03
2.446941541844341373e+03
1.305483019610764359e+03
5.144660655342056543e+02
5.117921808976976763e+02
7.623354939481298516e+02
2.015484395158394193e+01
-7.357441841181425843e+02
-9.514538894357284562e+02
-1.931020537399825344e+03
-2.352419577997354281e+03
-1.759698762521204344e+03
-6.108511857020422440e+02
3.850610565338130300e+02
4.770207281773926411e+02
-7.889970984945222199e+02
-2.345056118913569662e+03
-3.416189929382087485e+03
-3.365419006834648371e+03
-2.488761858557704272e+03
-1.488255640307105750e+03
-3.349219258669078840e+02
1.663201332256597652e+03
4.321041801346640568e+03
5.728608579075716989e+03
6.327816507095307315e+03
5.501675074193831279e+03
5.282269707066233423e+03
4.725597225362987047e+03
3.936549926706871702e+03
3.497134040507056852e+03
3.215435481785390493e+03
3.162491638102855632e+03
2.990282588553798178e+03
2.900775046123707853e+03
2.630965106780573933e+03
2.907858856545604340e+03
2.255421843863309277e+03
1.917634329073607205e+03
2.412542958946181898e+03
7.222367806390232090e+02
-4.490356806699031040e+03
-1.833206303062156394e+03
5.526612234002213881e+02
-2.177460583717356712e+02
-4.408437398158291217e+03
-6.474391235256015534e+03
-5.288598380399152120e+03
-9.387030496517749270e+03
-8.742637960212839971e+03
-8.182228660010358908e+03
-7.669953023155542724e+03
-6.344804048819147283e+03
-5.313736891218123674e+03
-2.186751191723241845e+03
-2.616816084536582366e+03
-8.918872662220404663e+02
-5.449459215219720818e+02
-1.084920508186663938e+03
-1.358726275137996481e+03
-1.546349749147515013e+03
6.981786355671142701e+02
-1.190125301193179212e+03
-2.494245318146999580e+03
-3.159174034300294352e+03
-2.204938554465423294e+03
-1.868449497678250736e+03
-3.706619955157408185e+03
-2.727385407226634015e+03
-3.587185952085785630e+02
-3.329576982511032384e+03
-1.502947840183460130e+03
-4.402745243530506741e+03
-8.589585373658551362e+02
1.444426256122220821e+03
-3.758522668129031445e+03
-7.067099688703283391e+02
2.656893958212879170e+03
-5.727771121437735928e+02
3.824020446178076895e+02
-4.635663584334594702e+02
1.707312265377580843e+03
-1.459923077096809266e+03
4.887572637381841218e+02
1.615368984286894829e+03
2.310942579377863694e+03
2.408568530658742020e+03
3.184305397752749741e+03
3.570159054025159548e+03
3.933195335338270979e+03
3.229462759460046527e+03
3.187000693107656843e+03
4.084831829695741362e+03
4.653997907511740777e+03
4.454586816108916537e+03
4.279553709437394900e+03
3.942953321428016807e+03
3.457854601677845494e+03
3.532308664955023232e+03
2.941352945600509429e+03
2.248909205385332825e+03
1.864004899271708609e+03
1.334580926476055993e+03
8.838763725257626902e+02
6.794115632912984211e+02
7.382187378352498399e+02
9.519631285246917969e+02
1.733759127815749935e+03
2.130700583046644169e+03
1.959712002310643129e+03
2.143806169465688527e+03
1.770935002179746107e+03
1.390457494310830270e+03
1.192436744560005536e+03
-3.987307897997360442e+02
-2.333326632029677512e+03
-1.212762192329891377e+03
-2.729162275663035871e+03
-9.389733814823312059e+02
-3.324738744343391318e+03
-1.007011622603278738e+03
5.465269687341827876e+02
3.241830595459578035e+02
4.668957188603909003e+02
5.446357536578433383e+02
3.823892031530060081e+02
2.521126228581136957e+02
6.568779743013832331e+02
1.150684511032456157e+03
1.238484600387213732e+03
9.273278627183913159e+02
1.163099926659027005e+03
1.518613595830161785e+03
1.475114322797978502e+03
1.385197244755803013e+03
1.676879748038305934e+03
2.034076394917841981e+03
2.180797731138492054e+03
1.919041223116924129e+03
1.480718301251558159e+03
1.053850139262032826e+03
6.463751252366834024e+02
4.682503156811106919e+02
5.124409286212038523e+02
3.109399900756660031e+02
1.567430765281432343e+02
-7.218706580935378270e+01
2.570898665381682804e+02
5.385187060879906085e+02
6.601292366591738983e+02
3.079433443575119327e+02
1.459073291184072900e+02
5.309943275434783345e+02
4.832216204721977419e+02
5.565838407400176493e+02
5.029991015970007879e+02
2.503818340113164425e+02
-6.525796321268367706e+01
-9.087409008238168440e+01
-3.152361777304816570e+01
-3.072221480201264967e+02
-9.009446687315233930e+02
-1.617768993303099705e+03
-1.481742318656362613e+03
-9.289373030484401852e+02
-1.963864358263738268e+02
3.199500567881642041e+02
4.950672786459046506e+02
3.619374283694922383e+02
2.905811824895572499e+02
-8.003370886990668964e+01
-1.495186894474011474e+01
1.081891580579784204e+03
1.018428732178286737e+03
-1.393288734378261097e+03
-5.334252258535701912e+03
-8.149502234086115095e+03
-7.546026349516079790e+03
-7.826779298984233719e+03
-8.804784254127480381e+03
-9.142226403673845198e+03
-8.956125544194101167e+03
-8.993553336638125984e+03
-8.548520186114032185e+03
-3.262113561164338989e+03
-5.922619241505759646e+02
8.815904379783286515e+01
6.301304092946884339e+02
1.321582150904953096e+03
1.608467067062014848e+03
1.364879960872266793e+03
1.462857283865056161e+03
1.438470631493962173e+03
9.646693922910602623e+02
1.185423342273645403e+03
1.273734560683015388e+03
1.253623316095879090e+03
1.563123352404129264e+03
1.400295188088881105e+03
1.344109106802640326e+03
1.401534518519060839e+03
1.163592208518101188e+03
3.632966511322226779e+02
-8.338012468518964226e+01
-3.684657966647590115e+02
3.200402516284640910e+02
7.161859563316298818e+02
8.640053677598100421e+02
1.292515288539942503e+03
1.128728886251410358e+03
1.264665218717285825e+03
1.451322697182771208e+03
1.464769085243415930e+03
1.083033423535835709e+03
8.421630007418496007e+02
1.205174177231214571e+03
1.983086475715654387e+03
2.036005708381903560e+03
1.923941265361616388e+03
1.781950424860710200e+03
1.342036630297256806e+03
9.082128168934888208e+02
5.824876865365351932e+02
4.829873343341210656e+00
-4.097594070603929026e+02
-7.762218922500662757e+02
-1.016496676927554859e+03
-1.098474040905033235e+03
-1.004206237619823014e+03
-5.519409374149933001e+02
-3.785998013279079828e+02
4.583881999598040835e+01
1.487895530887827533e+02
2.715200289976481827e+02
4.772841560307771260e+02
3.406294530470046880e+02
3.485226526841810823e+02
9.325168300703285240e+02
8.681438009370640430e+02
6.384288307333791863e+02
5.128538386741627875e+01
-1.002233053062924228e+03
-3.442052380716518201e+03
-3.816129718561247500e+03
-1.880577607568637177e+03
-9.634110531534830670e+02
-1.019616153108233561e+03
-1.065202877683205998e+03
-5.430870388883480473e+02
-1.892413195141089375e+02
-5.046299226154202984e+02
-5.522765837711141330e+02
4.586557749536794404e+01
1.078607779188180729e+02
5.386223278989810979e+02
8.910850096812793026e+02
1.095356710729417955e+03
1.040506835405847141e+03
1.528570707694529801e+03
1.764636758576265947e+03
1.354704837960224495e+03
1.367100469815013071e+02
