-2.537768451151006275e+02
-3.568673158097776650e+02
-6.283270146506717992e+02
-5.131113870095704215e+02
-1.731945246412343806e+02
-2.375197180090983977e+02
7.389508593259427016e+02
1.193110897768801351e+03
1.371006939306556205e+03
1.557722868063677652e+03
1.200212464542486032e+03
3.073805814579591811e+02
-2.648449570024928335e+02
-2.814066376913339695e+02
1.970915145459699147e+01
2.554633004667937541e+02
3.739655178435179437e+02
2.743638030105058760e+02
4.415364469242160794e+02
5.162612709906800319e+02
7.007698005556228509e+02
1.232715455248987837e+03
1.324136581165565076e+03
1.089299251270795367e+03
1.074279676809155717e+03
1.156179311799846346e+03
1.204156007663173341e+03
1.021082694107487100e+03
4.119345393361338665e+02
3.277007555787499200e+02
3.871891743851662113e+02
3.094649368078709131e+02
1.737460661685685466e+02
2.380447984516980142e+00
-1.341075356597539212e+02
-2.053368630315811743e+02
-2.184953652025607880e+03
-1.626654197606800381e+03
-1.083304789354545164e+03
-1.769564297152662220e+03
-2.610738231933315546e+03
-2.137289835901936385e+03
-1.251224440539356465e+03
-4.850567348604582207e+01
3.386977104366539493e+02
5.115610885095753702e+02
9.553637317428330107e+02
1.569121105170859437e+03
1.302660325218490243e+03
1.422079595061677992e+03
1.439392324125376035e+03
1.299686985685823856e+03
1.350814504002807780e+03
1.184869008325449613e+03
9.319744359426450728e+02
5.863605801552272396e+02
9.250084443750084517e+01
-5.895048455163689596e+02
-9.426705700432288495e+02
-3.190891750281717805e+02
3.713394843891374535e+02
3.047384000365178167e+02
-1.108229874502235823e+01
-3.293393831359684896e+02
-4.839616475370960416e+02
-9.578472298875690285e+02
-9.689568635484154129e+02
-5.672849367066829700e+02
-1.868251421849677172e+02
2.205506041082317950e+02
4.568309592041499627e+02
3.970202736513028867e+02
1.130645934965504011e+02
2.589665622172142534e+01
-4.934916363223060785e+02
-1.248145333420440465e+03
-2.317099039580616136e+03
-2.507385134061416920e+03
-2.316991019712361322e+03
-2.524897084053616709e+03
-2.417074831736000306e+03
-1.649505678191347215e+03
-3.892034112989566097e+02
7.978030031255055974e+02
8.774918427344466636e+02
9.210401989279901613e-01
-5.768742950640855724e+02
-1.065940981100184672e+03
-1.012308160579239370e+03
-2.339662659332973078e+02
6.021097105397021778e+02
-1.528067313906317622e+03
5.315586673921121701e+02
2.737951414987187036e+03
2.290873709117171529e+03
2.295687569029858878e+03
2.410242452610545115e+03
-1.076455334941881119e+03
-2.064066297511413381e+02
9.823903237716141348e+02
1.359752218967624060e+02
-1.576552213260900317e+03
-2.584387145095849519e+03
-1.852513595920264379e+03
3.609209260591646995e+01
1.137435211098086484e+03
2.025769684867022420e+02
-6.794994782496560219e+02
1.398191147390512697e+03
2.345622246101904693e+03
1.829863366798790821e+03
8.779079740950289761e+02
-3.962905439424965266e+02
-8.077694008068675657e+02
1.294805566755715063e+02
1.266471343771548163e+03
1.178257262841497777e+03
1.800857704791963442e+03
3.366313640298410974e+03
3.644624186646863564e+03
2.773739111131979826e+03
1.528681857358073557e+03
5.104625250738429827e+02
-3.919771895707222029e+02
-5.756069571988094822e+02
5.415811383557278305e+02
1.898633792970254717e+03
2.703554672249839314e+03
3.592304119812479257e+03
3.712889820918973328e+03
3.121291892299430401e+03
2.565571886881430146e+03
1.870800991937583603e+03
1.808908957974457735e+03
1.588941109440647779e+03
1.061896148090643464e+03
2.367285330091151536e+02
-4.005816433686085247e+02
-9.930123887067752548e+02
-2.542562175949965422e+03
-4.034142125675716215e+03
-4.315756815476235715e+03
-5.009406962243976523e+03
-5.182102996283140783e+03
-3.935790942861893654e+03
-1.860496358211202278e+03
3.683440943586330896e+00
8.457876510649905413e+02
1.671714624373053312e+03
1.945722018151161592e+03
2.008107184098002563e+03
3.014606195737886992e+03
2.863298103688969604e+03
1.887161637284238168e+03
2.824616607221775055e+01
-1.726361543576409986e+03
-2.016690612367068979e+03
-1.738538190784391190e+03
-2.088949881079848183e+03
-1.686261406280511210e+03
-1.837300259515975085e+03
-2.336846167574387891e+03
-2.626993670844450207e+03
-3.522653415527446668e+03
-4.696899486823822372e+03
-5.886047166745546747e+03
-6.639958761545721245e+03
-5.697571528655382281e+03
-4.485437792992185678e+03
-3.111136658279160656e+03
-9.803695480058449903e+02
1.619659788134371865e+03
2.662880309270173711e+03
2.269188445860134379e+03
1.352344257564855297e+03
8.387127506490913902e+02
2.749636154896686335e+01
-1.411399496891619037e+03
-2.496927021230206265e+03
-3.995070262209005250e+03
-5.574845015730121304e+03
-4.974207929688241165e+03
-2.367088481589430558e+03
7.292797637642553354e+02
4.370141853838197676e+03
6.475630732338330745e+03
6.018181435624899677e+03
2.978949986328628256e+03
-1.789151728425279657e+02
-1.423462904620924519e+03
-1.189779277270351486e+03
-1.020737057442323930e+03
-6.023785235836010088e+01
1.279699796420971552e+03
1.593820756837255658e+03
1.298937513654185750e+03
2.396355645061048563e+03
3.965852696959666446e+03
4.170385279162116603e+03
3.720948762469533449e+03
3.933498868549610961e+03
3.584011365636199116e+03
3.641479874966704301e+03
3.733900134217691630e+03
2.908272680822327857e+03
2.206581735182149259e+03
1.516836203666548045e+03
1.242972937801945136e+03
1.439989778124403983e+03
1.078900338740548250e+03
2.116667378579739136e+02
-1.004690381277326537e+03
-1.830189948469698265e+03
-3.382893532542003413e+03
-2.975746331359189753e+03
-2.061725644295458551e+03
-8.300091148321643004e+02
1.583741863152456517e+02
1.213519000317269047e+03
1.726446573773273258e+03
1.814145279785520643e+03
8.935792575731950365e+02
-2.383130963157842785e+00
2.411232281935874653e+03
2.568500024654747449e+03
1.487414939552267469e+03
1.591968960173726828e+03
1.832136506814948234e+03
1.095751436382523934e+03
8.741852677741927664e+02
1.005118345036134770e+03
1.146802780339027095e+03
1.810203631855773892e+03
1.850177920972136008e+03
1.368757685772716513e+03
9.778954918551927449e+02
8.535804335939067187e+02
6.647965908730830051e+02
6.458441964271135305e+01
-2.417301783397081749e+01
-4.284774686674992381e+02
-9.150283187539524761e+02
-5.308039789341133883e+02
-4.030815359119127379e+02
-1.172503561603333310e+03
-1.272498319931248489e+03
-3.078008208368294731e+02
5.048493117652124056e+02
6.511829011988609182e+02
3.861656169072317084e+02
2.245830926045570379e+02
-6.682552884717349571e+02
-1.523093734844010896e+03
-1.395391632030602523e+03
-5.250952518704635850e+02
-4.687078348606480915e+01
8.272248203331229206e+02
1.011058274082960452e+03
2.546177128569920001e+02
-4.210460296325222771e+02
-8.319721689491943835e+02
-5.161891988759713286e+02
3.822113352054560664e+02
1.944836180560751018e+02
4.917320929488022330e+02
1.964911890889764891e+03
3.077910163827387350e+03
3.460824358614916946e+03
3.150625608367010500e+03
2.972242515021910549e+03
3.014119867818959847e+03
2.870071519939509926e+03
2.571030198538836430e+03
1.458011921344702159e+03
1.032045282698207075e+03
6.491241550747122346e+02
-1.092713802307999003e+03
-2.763421561506384478e+03
-6.408029749064964562e+03
-8.283471586728444890e+03
-9.275692583934889626e+03
-8.748697139320185670e+03
-6.145598707647218362e+03
-5.528319513166632532e+03
-4.375486590488883849e+03
-2.593133023779911127e+03
-4.069356747593152249e+03
-5.349165944530478555e+03
-4.582495266442509092e+03
1.614679142472017929e+03
3.779390457336757663e+03
-2.365302814727451278e+03
-5.322366778823809909e+03
-4.912675523891198281e+03
-2.882389105761392329e+03
2.938504571585459871e+03
5.012139975912805312e+03
3.946581990203706937e+03
1.974762834444741202e+03
-9.553437839319217346e+02
-3.246771922586231995e+03
-4.964473340582399032e+03
-4.238384076522767828e+03
-3.622475567386254625e+03
-4.728761573529402085e+03
-4.694147715312825312e+03
-5.094638322933827112e+03
-4.035207909612092408e+03
-4.968816935210456904e+03
-5.427459195207302400e+03
-3.747101929920984730e+03
2.071277947483908520e+03
1.817743578628326532e+03
2.560331190859393246e+03
3.668062444598029288e+03
3.552918236737340067e+03
2.978828684738204174e+03
2.970792332599675319e+03
2.827906807796266548e+03
2.233211409667033877e+03
1.666709448542129167e+03
1.153427335766831902e+03
6.154271279414934952e+02
-1.413516673459849358e+02
-9.849250389803103189e+02
-7.473417913782776623e+02
-1.455653363296454756e+02
1.223419293744855850e+03
2.767607516891122486e+03
3.113017767100688616e+03
2.371687536677628941e+03
2.153641892654930416e+03
2.365858869914312436e+03
2.900351793138937410e+03
2.743111803694914670e+03
2.306145936909591455e+03
2.159429994066332711e+03
2.001903975448862639e+03
1.703520127936071049e+03
1.508198045485896046e+03
1.553813376251702266e+03
1.541397326329421958e+03
1.703101393679229886e+03
1.888678962151006317e+03
1.850419283306628813e+03
1.747455485800587212e+03
1.856691686584582612e+03
1.869048567551194537e+03
2.115734321834853290e+03
9.304408427944960067e+02
-7.099556309899280677e+02
1.224678722632108247e+03
1.354280210383321901e+03
1.518833886759690586e+03
1.580603618485846482e+03
1.586280271788385562e+03
1.395880533580167139e+03
1.606635515555809434e+03
1.701108130151559408e+03
1.464192608935598400e+03
1.375012604502690465e+03
1.202385746600157745e+03
1.357427990130422813e+03
1.499473760281676050e+03
1.730150192101672246e+03
1.519067364390107059e+03
1.751145079963672515e+03
1.997435002177927345e+03
1.947000385486736150e+03
1.761809465354076792e+03
1.689710065747697172e+03
1.251525314554669421e+03
1.178205894031553498e+03
1.036802066255373575e+03
9.961871965225983558e+02
1.047199351449196001e+03
1.213897425463643003e+03
1.205309362408698462e+03
1.257456852783118620e+03
1.190251943763315694e+03
1.239639237764268955e+03
1.331527683199028615e+03
1.625775879995684136e+03
1.823271200677871093e+03
1.660000539535759344e+03
1.523867809292472884e+03
1.601905722580896281e+03
1.395115873399389784e+03
1.493449805727441117e+03
1.114877004040342399e+03
1.056293267178130236e+03
1.703698393048837033e+03
1.877075993696354317e+03
1.275381016417118644e+03
1.077584383553110911e+03
9.846470420873444027e+02
1.135609665734217970e+03
1.044485016071881091e+03
1.502156669783896632e+03
1.828618429403605205e+03
2.455817208931062851e+03
2.304621538146650437e+03
4.988931750487006980e+02
-1.139503455700373706e+03
-4.983544024258196259e+03
-6.484279152597748180e+03
-3.662693092604174126e+03
-4.451760612521354233e+03
-5.063502875133205634e+03
-6.060955238394187290e+03
-6.864152951941536230e+03
-7.003196222728546672e+03
-7.401780754261916627e+03
-6.617957909102829035e+03
-4.198741129567798453e+03
-5.928282157060462850e+03
-7.107707641730264186e+03
-6.077968593345668523e+03
-5.214026466821510439e+03
-2.006908338320628900e+03
-9.515617579467344740e+02
-3.726986949224915406e+03
-4.189138078405004308e+03
-4.101968575872612746e+03
1.582317624587185264e+03
3.306756802189853488e+02
3.204083274438159151e+03
3.628476093697130636e+03
3.425717309827554345e+03
2.490926812715929827e+03
-3.270790300840966211e+03
-5.339387461270595850e+03
-4.869876289781616833e+03
-5.386161873301705782e+03
-5.349176464082347593e+03
-5.676891080566669189e+03
-6.301190946664587500e+03
-5.909030735931756681e+03
-4.117526716901731561e+03
-5.180845444931061138e+03
-3.528132119336418327e+03
7.165583958281675905e+02
-1.990635271735026208e+03
-3.018498912153259880e+03
-2.309707131263107385e+03
-2.226178867329958848e+03
-3.565022813524475623e+03
-2.952237526295529733e+03
-4.547592776987737011e+02
2.746337860794561948e+03
3.245082161606834688e+03
1.776558771655867304e+03
4.718815856954382980e+03
4.819818777785596467e+03
4.821607253509082511e+03
4.852293069503960396e+03
4.519959441005942608e+03
4.363561540789638457e+03
4.259160884559434635e+03
4.336816512256722490e+03
4.336617372469778275e+03
4.291688143969165139e+03
4.447086916820992883e+03
4.168889880197634739e+03
3.770119945707427178e+03
3.604791796675708611e+03
3.442011745758517009e+03
3.291920758918884530e+03
3.133740577965506418e+03
3.046493671908265242e+03
3.173249761102627417e+03
3.036928213043661799e+03
2.702474644272037040e+03
2.800874031045595075e+03
2.562107585371526056e+03
1.260203237681136443e+03
1.461668504731043413e+03
2.565436951646234775e+03
2.249546825061311665e+03
1.866079578939004250e+03
1.941772678517218310e+03
1.885896591112737497e+03
1.847552670242893782e+03
1.678722241981847219e+03
-1.454520525203974557e+03
2.359147591068364989e+02
-1.208937008772539230e+03
2.479123329950550101e+02
1.721498628016374823e+03
1.634839082771326275e+03
1.631087260662009612e+03
1.591307747041106268e+03
1.379541722926645207e+03
1.021832328581717434e+03
8.432190370966691262e+02
-8.122224835697963954e+02
-3.057512838904427099e+03
-2.102587017573585854e+03
-3.832698048875795962e+02
-2.340626078981813862e+03
2.103137321432179476e+02
-2.960371436717328834e+03
-3.247737455528777446e+03
4.931672758893028004e+02
1.147442861087802839e+03
7.161766482281491335e+02
-3.422602047292469251e+03
-3.677893842976469841e+03
1.137390132559439060e+01
-2.121704236285952447e+03
-3.759213603895650522e+03
-1.295356760457078735e+03
8.079067215387932492e+02
7.625826514753454148e+02
5.436870178862872081e+02
5.552989345394078100e+02
1.944801285726898925e+02
-6.027481171029796769e+02
-3.679505890117566651e+03
-2.873886658913708288e+03
-9.578009662263449400e+02
3.548179760592312846e+02
1.567836965107979097e+02
3.750571400582505248e+02
-8.983014769343953958e+02
-3.809212845578942961e+03
-8.196887775676182173e+02
3.822502622861323403e+02
6.116182275779621023e+02
7.114627112660712100e+02
6.526984131975227683e+02
4.301916520445034280e+02
2.459630660421744892e+02
4.771545133143897033e+02
4.357447693156739206e+02
5.509025964708474703e+02
6.965756309948288845e+02
6.186866228302239961e+02
-1.469041129395929147e+03
-3.505904185406287525e+03
-1.382714402369913842e+03
-1.643067518859906784e+02
3.531385815827713515e+01
-9.882672917820730163e+01
9.712010668545964620e+01
1.709372152052201841e+02
2.359077605889122822e+02
7.506210607361769007e+02
1.545581496590365077e+03
1.524468314101566875e+03
1.433375300545560776e+03
1.245696865690883214e+03
1.155081860246187489e+03
1.195874822255391564e+03
1.323426950343435237e+03
1.406399213892853368e+03
1.315964926115026856e+03
8.353441824055732923e+02
6.132470162725308001e+02
7.742698413112971139e+02
7.636583910575377558e+02
8.183226890995587155e+02
8.884489170537980272e+02
9.108021718922991568e+02
9.861038857770204231e+02
1.054758554862709161e+03
1.045185506986554401e+03
9.065729533922924475e+02
1.172605823110752453e+03
1.485572677674914530e+03
1.566223823668834484e+03
1.376582129894994750e+03
1.042776020365585964e+03
6.536893014664818793e+02
6.141114972415077773e+02
6.129872767534467357e+02
3.933217331809189545e+02
4.651805242182849156e+02
8.855593504425804667e+02
8.904323942224602888e+02
1.107802546743153016e+03
6.916667351759592748e+02
7.838836775679778839e+02
9.844023272009337688e+02
8.391417318499158000e+02
6.059982152897788410e+02
1.041995303564827054e+03
1.430239376185750871e+03
1.210716953956435646e+03
5.713458848846163391e+02
5.400447214429671021e+02
1.178877471163998962e+03
1.352831949989501254e+03
1.222905876542363103e+03
1.442100379529251995e+03
1.631413608702951478e+03
5.518207976218993736e+02
-1.246701868944625630e+03
-2.335151402530382256e+03
-7.041558990550583076e+03
-8.712904661295031474e+03
-8.108180840232790615e+03
-7.501515158783951847e+03
-7.274610498563852161e+03
-7.188502267995304464e+03
-6.474293008511780499e+03
-6.191900588384527509e+03
-6.255232783579202987e+03
-6.435546321101811373e+03
-6.334702984325716898e+03
-6.518698612272069113e+03
-6.243549580069466174e+03
-4.458254170746651653e+03
-4.697540182323290878e+02
-2.560052539284565682e+03
-5.866107307347131609e+03
-5.788891849570375598e+03
-6.055422189492495818e+03
-4.527656981569854906e+03
7.343762934078444005e+02
2.544711152390475036e+03
3.443374627153734764e+03
3.316425868946223545e+03
3.029865747288178682e+03
3.612701635370769054e+03
3.957985663675887736e+03
3.676739873213352894e+03
3.117957410837325824e+03
2.996718603856618756e+03
3.121077029682578996e+03
3.100104841236802258e+03
2.883816653710861829e+03
3.055180768478641767e+03
3.061200649753374364e+03
3.427935270652700183e+03
3.322399761250984284e+03
3.015663867716111326e+03
2.743725402951401520e+03
2.746639869767251184e+03
2.535430087416657898e+03
2.544136430241587277e+03
2.257779177245279243e+03
2.395386180961050741e+03
2.455999578174740691e+03
2.429721187186601583e+03
2.334593424832000437e+03
2.016611177610056302e+03
2.099786019970735197e+03
2.215107048171370479e+03
1.858592713758684340e+03
1.658354394184348848e+03
1.375395764451508057e+03
8.627837562487144396e+02
6.635025043728895753e+02
4.735167104042011488e+02
1.697704579753806797e+02
1.012295984043435197e+02
4.921245545399218031e+02
1.020654953282958218e+03
6.320349054425669237e+02
2.573085279890551078e+02
-2.422965854128761123e+02
-6.579128554874566817e+02
-5.768462916571829737e+02
8.852602684043838508e+02
1.463406717844943159e+03
9.516018332805450655e+02
-2.296101069633310090e+03
-2.128777455681899482e+03
-9.843460706266898796e+02
1.263448895654470107e+03
1.500079966887834416e+03
1.074720397787424190e+03
8.824167172507093255e+02
9.098987482883406983e+02
8.491669917854978848e+02
8.279995808592800586e+02
2.985176853088660778e+02
2.705324219408673514e+01
6.664554604750476301e+02
5.396776493785229150e+02
3.921698925645661689e+02
4.554425381631704681e+02
9.551988435255658487e+02
7.615856791721997752e+02
9.186054564226745924e+02
9.573528871988409037e+02
7.012699219640957153e+02
2.211135636512151166e+02
2.087057848209550173e+02
-1.399033026823834689e+02
-4.328079553646774116e+02
-2.919552188438732401e+02
-3.223177287764085577e+02
-5.998521892251092424e+01
2.478761701138149363e+02
-4.805844771112962235e+02
-1.058581174015606848e+03
-1.179377163538110835e+03
-1.435461256348790130e+03
-1.048955895857593987e+03
-1.019017134478962589e+03
-1.650649819939502095e+03
-1.510752020073383846e+03
-1.023447554326551654e+03
-1.047946508123841795e+03
-5.454156437488588836e+02
-2.547000399976882932e+02
-5.766177004614670523e+02
-5.195628602050818472e+02
3.345874719254655361e+02
1.022813171864234505e+03
1.570136826956557798e+03
1.544566699328292088e+03
9.380487180765798030e+02
6.145909500503302070e+02
7.281432258547605443e+02
6.986400629759401681e+02
5.711398959245955211e+02
4.726495948592797163e+02
1.501421967898961896e+02
-3.944049977631692627e+02
-1.079006562151177150e+03
-1.540674260092505619e+03
-4.604839847463134106e+02
5.525430915722782856e+02
8.554205915365771489e+02
1.302099374834520177e+03
1.030591103422073729e+03
3.068693184880481795e+02
-1.711099195069481766e+03
-4.415312943418447503e+03
-1.696751370818593387e+03
-4.064879183127506508e+02
-2.995163877984335841e+02
-3.782724525017761863e+01
-3.654283034658574252e+02
1.816479932231244163e+02
1.436631985160432201e+01
-6.131320606143271590e+01
3.636194060107531527e+02
2.884586805127124194e+02
4.047931677224656255e+02
4.184877318504605626e+01
-5.656069315711356467e+02
-1.087631810771557639e+03
-8.011128794757788683e+02
-8.160696460006610096e+02
-9.085262927159055835e+02
-7.924716391465984771e+02
-7.859348928282136058e+02
-8.339491054847447913e+02
-1.275354638086960904e+03
-1.862032487827219029e+03
-7.722563682469516380e+02
1.988918319316317422e+02
3.517175610608828720e+02
1.698094733300829944e+02
-6.474009634114278242e+02
-1.443069445631757389e+03
-1.258489370683777224e+03
-6.795192343266529633e+02
-2.871305177862504365e+02
-2.955828346859126210e+00
1.997418115268338568e+02
1.438613404327408716e+03
2.650081245302262232e+03
2.109169213389567176e+03
1.647620248970786861e+03
1.703394582712583770e+03
1.308610756032553127e+03
7.473020218864486424e+02
7.844333590292528697e+02
1.300039625026975727e+03
1.060171541454467388e+03
2.849285370937778339e+02
-4.627925306915703345e+02
2.290898087882927427e+02
1.194768652044010366e+02
-4.825874165470233947e+02
-8.370812377564332110e+02
-7.418815158640247773e+02
-5.198356338500269658e+02
-7.938535194338689394e+01
7.205465945199952102e+02
2.503037326644296172e+03
2.727123753706809111e+03
1.941874115204566124e+03
1.516311553324946999e+03
1.562389814988955550e+03
1.290124028166272410e+03
8.065939624783760564e+02
1.094787738452912890e+03
1.442726822702692971e+03
3.839873993213844727e+01
-2.754868229070269990e+03
-4.863074949100358026e+03
-3.742727676395834806e+03
-6.287125475048478620e+02
6.874044101239774136e+02
5.775402914839534105e+02
1.265689171967962920e+02
-3.144495081408399983e+03
-1.473656568183598438e+03
-1.422912179002809808e+03
-3.204270767509942289e+03
1.328787602425961278e+00
-1.885069797341000822e+03
-3.341439235726827064e+03
-2.649776609355267283e+03
5.849485115147846273e+02
-1.112254482387330427e+03
-1.983374673165720196e+03
7.286115418410917073e+02
6.997487442230333272e+02
-1.962960387837748840e+03
-1.042492058401800023e+03
-2.564812391972197929e+03
2.909233740876583951e+01
5.523878891405238534e+01
-1.578367971097273539e+03
6.712863861544155952e+02
-3.999788965656615346e+03
-4.016578064152022762e+03
-2.188016613357608549e+03
-1.097128009262532032e+03
-1.585944680729871607e+03
-6.324529462648167737e+02
1.795370613870324632e+03
3.148584037658182751e+03
2.899227831086134756e+03
2.101271880893398702e+03
1.007729838612391973e+03
8.956332410860718483e+02
1.054980095077838541e+03
1.152733804522530136e+03
1.323901348848891530e+03
1.598473325684690735e+03
1.446517312038205546e+03
1.449993229254596372e+03
1.825910183260729127e+03
1.784293662758780783e+03
1.312138702158913247e+03
1.260416088157486683e+03
1.733148570520462044e+03
1.894370550778936149e+03
1.628126461225459707e+03
1.709383177227039369e+03
1.420059348334352762e+03
1.432171824099350943e+03
1.563734667706519531e+03
1.614749733744982677e+03
1.477239630232062382e+03
1.298306988987783825e+03
1.122946257208323004e+03
7.069907884312551687e+02
5.678324182476175110e+02
2.653672397227915667e+02
-2.141528976218541629e+03
-6.887201326534942609e+02
5.187773975273919405e+02
8.019575784898573829e+02
4.968233126082139393e+02
3.994250560177027296e+02
5.087739828870580823e+02
7.848879953540021006e+02
1.121629299270276306e+03
1.045935685891885214e+03
7.107787130194583369e+02
6.570069968920099654e+02
7.565326226972021004e+02
1.166639615980766166e+03
1.415033757985719831e+03
1.333680228095985285e+03
1.401786817557285985e+03
1.141193796415411498e+03
9.938583888795448047e+02
1.010808005428359024e+03
1.038793277362276058e+03
1.225951385149483031e+03
1.280255639468647587e+03
1.410425603143605258e+03
1.304370595489958987e+03
7.341090570115560467e+02
2.476473974106758931e+02
3.069103287117884520e+02
8.938260592815403243e+02
1.514409334027147906e+03
1.509673695317687134e+03
1.263595743095560692e+03
1.173179340065626093e+03
8.843802940400040598e+02
9.242223984721964598e+02
5.946647291531962765e+02
5.727022051783866345e+02
6.862598886110685044e+02
9.063217814407436208e+02
5.928308634127771484e+02
9.077635338183925739e+01
-1.949009829759657180e+02
1.008033712183184747e+02
9.639040720235313984e+02
9.443867988558517936e+02
9.222756701859801751e+02
1.169534215461588474e+03
8.811315572750642104e+02
7.371214983353547723e+02
4.954754665828978091e+02
8.051575275009421375e+02
8.302271716979114444e+02
-3.573647551231859438e+02
-2.475637289595343645e+03
-6.217552555128087079e+03
-7.651116702800491112e+03
-7.850426836762820130e+03
-7.591539733676710966e+03
-7.352293189062085730e+03
-7.429643690288717153e+03
-7.950676720149745051e+03
-8.302379553425043923e+03
-7.632829766676247345e+03
-7.060208534992492787e+03
-7.133443324440404467e+03
-6.721533600379570998e+03
-6.883950247398514875e+03
-6.452966731430679829e+03
-8.257280341353040285e+02
9.706583301076843782e+02
1.131305013066770698e+03
2.177181643353049367e+03
2.048266927935280819e+03
1.986621728870692095e+03
1.946241599082300127e+03
1.863139548433251321e+03
2.011375661166919144e+03
2.187979224771293502e+03
2.372936218877228839e+03
1.873304259926092755e+03
1.531051241409586510e+03
1.757135370749047297e+03
1.980502857554634829e+03
1.699179171729827885e+03
1.814245921393051731e+03
2.055895330634206857e+03
2.009139660608908571e+03
2.202970719104792352e+03
2.285399097111428546e+03
1.807446252703660093e+03
1.764068955032311806e+03
1.902168738228627035e+03
2.182745895891084274e+03
2.337758162418509983e+03
1.881298104183767464e+03
1.654559105822043875e+03
1.659554481843435497e+03
1.770266827439965482e+03
1.790750361995069852e+03
1.799954167577386443e+03
1.488875044550286248e+03
1.118600352591046885e+03
1.306075645303807050e+03
1.453308202253257832e+03
1.211394327535840375e+03
9.813338997375192321e+02
1.301134914468257648e+03
1.528871832786184314e+03
1.174560767629922111e+03
6.462177105536950421e+02
6.588928656980913274e+02
6.635506817830598720e+02
3.293125859640154545e+02
3.661690914565940602e+02
2.101271089275101360e+02
-7.106719161885445146e+02
-7.791391544621660614e+02
-1.952324883382186727e+02
-2.592847479516868958e+01
-5.623781159117897488e+01
1.998975003730465971e+02
6.427259655373044325e+02
3.932948391560934169e+02
2.462747045512109523e+01
1.115727042131308906e+02
6.706955693302148802e+01
1.899693102538522851e+02
-3.258476257158800138e+01
-4.750277899737618981e+01
-1.554872222711419454e+02
-1.157565412487376761e+03
-1.701188966569425247e+03
-8.021539934551072975e+02
-7.345260856578742050e+02
-6.823630050599684864e+02
-3.524937342018072286e+02
-3.398900155547704571e+02
-6.625123468312856403e+02
-8.813749786973821756e+02
-4.894486548508572810e+02
-4.976373019835785385e+02
-5.070482688361572627e+02
-3.956232942457926356e+02
-4.362994309439297922e+02
-2.160588198238469033e+02
3.793804944371710519e+01
1.277931191876824073e+02
3.296726270498215854e+02
5.155089884878599094e+01
-5.416499999388832975e+02
-8.079957745202074193e+02
-5.433344269895361549e+02
-6.375723736309473679e+02
-5.759369207946294864e+02
-1.505486178494469414e+02
-3.204699218701389896e+02
-7.686573582021995890e+02
-7.989334068259734067e+02
3.778744752121157546e+01
3.674314797085340274e+02
1.194767999839802286e+01
2.634532031685451159e+01
-3.444584137550004499e+01
-2.144612872624401803e+02
-6.906390550612211428e+02
-9.959236114712185781e+02
-3.903330705233943831e+02
3.005936396114543641e+01
8.816694829086890195e+01
3.179635398168634879e+02
2.243553333686791973e+02
1.629875582023859693e+01
-3.131803030054631449e+02
-2.624041831768255179e+03
-3.184266001577191219e+03
-1.172869997902653949e+03
-3.859486762115556076e+02
-4.624546600097697251e+02
5.061715627696101194e+01
4.662244523287379252e+02
5.523399809979214297e+02
7.418887418623089616e+02
5.047519295820180787e+02
2.059165278253422287e+02
2.032396234719954720e+01
3.600179732881155132e+02
6.570471452583865357e+02
7.942236868652317128e+01
-2.349739672224035019e+02
-2.818170842880386573e+01
-2.821133288657877358e+01
7.387445305471743495e+01
-5.219618004050254285e+02
6.213344727290061655e+02
1.249804521404803381e+03
-8.966314722102939641e+02
-2.839985604011552368e+03
-2.204127780472205700e+02
1.285201379205717330e+03
1.471887479631502856e+03
1.536658818247710769e+03
1.263830982528542108e+03
1.264237110913745255e+03
1.350532861628284309e+03
1.236845458513253561e+03
1.327791356653846833e+03
1.389663702471660145e+03
1.279001615288892481e+03
1.427959693895446890e+03
1.588551928923215883e+03
1.646206965378121595e+03
1.579049987797321592e+03
1.327769859516795577e+03
9.477309884901242185e+02
9.592120922653369917e+02
1.028274668680433706e+03
1.137240674967572204e+03
1.302278825177061208e+03
1.298347320942487841e+03
1.335840909268380983e+03
1.295578443107431440e+03
1.167054981138808898e+03
1.556913218929556479e+03
1.991961896094524718e+03
2.018436574027972483e+03
1.852478012737969266e+03
1.465605462115945556e+03
1.393528172252426430e+03
1.556303104719224393e+03
1.503992566230614102e+03
1.531614338527216887e+03
1.616243645622595068e+03
1.889854924772430650e+03
2.072403136216681560e+03
1.900843544192760646e+03
1.726120360968403702e+03
1.658101713446889335e+03
1.442740048426799831e+03
1.407015565841071293e+03
1.298887013406849064e+03
8.873934855648533357e+02
6.916086499776168921e+02
8.234766593829547219e+02
8.199469468392501312e+02
8.620340361023223750e+02
1.043766821940472937e+03
9.720989507896118766e+02
7.560989516754367514e+02
3.867491665068588418e+02
4.050488404147337178e+02
8.589800347382604286e+02
1.456553831443428862e+03
9.918231987952178770e+02
-1.582174233844453283e+03
-4.052444495536539762e+03
-6.134005849580703398e+03
-8.062844455717715391e+03
-8.207861043935374255e+03
-8.777065555063707507e+03
-9.542531254239866030e+03
-9.463184391913520813e+03
-8.758063255426406613e+03
-7.821169293148112047e+03
-6.266503591412580136e+03
-5.705051724035669395e+03
-5.954769782566902904e+03
-5.866617351835669069e+03
-5.640546733211844185e+03
-2.929566489285778516e+03
-1.593670168204223273e+03
-6.106876598159188688e+03
-8.774128106151234533e+03
-9.276385123259389729e+03
-9.714661355554313559e+03
-5.260856897428493539e+03
-1.618962954627640329e+03
-8.629665699646001258e+02
1.439156318349915637e+03
4.167425584169237482e+03
5.006887787125355317e+03
5.020588879754837762e+03
4.992591010687415292e+03
4.996933121200783717e+03
4.682688676760532871e+03
3.883861115114172662e+03
3.291444601058225544e+03
2.833434557999296430e+03
2.698941332255441921e+03
2.782074071430310596e+03
3.068893541921886936e+03
3.648434738136038050e+03
3.859696203131371021e+03
4.367782931109168203e+03
4.550704222838583519e+03
4.624458531224238868e+03
4.443090628721628491e+03
4.000687032743101099e+03
3.337336374545753642e+03
2.792054794892288101e+03
2.500855887419249029e+03
2.096750750166220314e+03
1.881810183151810634e+03
1.752081740496488010e+03
1.445612415326424070e+03
1.503467626235511943e+03
1.482657903894963738e+03
9.762790811666857280e+02
1.022408552496561583e+03
8.091197791689163523e+02
3.915043245733371009e+02
3.805490943081937871e+02
6.584253699757888398e+02
3.180163236004609075e+02
-5.294088943920544352e+02
-1.477966953354082875e+02
1.004909783111232969e+03
1.071829371861244681e+03
1.404991254639774979e+03
1.302430926016317926e+03
3.830908418991076587e+02
-4.058551922243090644e+02
-2.658703030936862433e+03
-1.486306582451411714e+03
-5.385819613723665498e+02
-1.237300596297311301e+02
5.939961900439009241e+02
1.219937879503533622e+03
7.384500504781112795e+02
-1.038291855568869835e+02
-1.638868413970837139e+02
-5.228320067829804429e+02
-8.896579407619710764e+02
-1.288330290860038758e+03
-1.353874526304358824e+03
-7.082780776108387499e+02
4.473194180378527562e+00
2.064082497328017496e+02
-1.174681421014461336e+02
-9.631614225706211982e+02
-2.679663575846887397e+03
-3.573929550760299207e+03
-2.279011105515354757e+03
