-1.793067456582227123e+03
-1.121206183337191305e+03
-6.943648734631769912e+02
-4.206961841750176632e+02
1.350454568973217704e+02
7.327873655886860433e+02
1.800470318683308506e+03
2.244133056336748268e+03
2.012825137647869497e+03
1.792474924291626621e+03
1.602083912740651158e+03
1.253767308382855163e+03
5.963066132907522388e+02
-1.044500764971624847e+02
-4.695127704602606400e+02
-1.147793630459587575e+03
-1.536379057997091195e+03
-1.535246456659878731e+03
-1.617372221129126956e+03
-1.514954555128670336e+03
-9.120550356785728354e+02
-4.264894329854477064e+02
2.284538117977762894e+01
2.067643290756429622e+02
1.035968907571540285e+03
1.744603871609711632e+03
2.083898440690625648e+03
2.910118742572887641e+03
3.168329787007749019e+03
2.507893460635006704e+03
1.811952417217054517e+03
1.404730561383650638e+03
1.208051444837324198e+03
8.915857906484388877e+02
4.165749914336854545e+02
-1.559804992742807315e+02
-5.413993692575946852e+02
-7.505798713652170591e+02
-6.297114989884237275e+02
-5.587907884583722762e+02
-4.561215069011756214e+02
2.625968788687135813e+01
7.066092101182464376e+02
1.234249567927923181e+03
1.536846225072428979e+03
2.459301922962682511e+03
3.043290366831924530e+03
3.068801044898453711e+03
3.112296647933737404e+03
3.033652547601979677e+03
2.680077639572600219e+03
2.138476247699674786e+03
1.421310399384249877e+03
1.276695145063741620e+03
7.746710997655554820e+02
2.431122154670086104e+02
-1.428322602037085858e+02
-4.073308811522687165e+02
-5.378072271318580988e+02
-3.741600630716470732e+02
2.483515524008545015e+02
9.860831766332927373e+02
1.167989117276172010e+03
1.617002759675299558e+03
2.353117559312933281e+03
2.655346477608194618e+03
3.118719441749678026e+03
3.796214449789218179e+03
3.680824801321336963e+03
3.394562270509426071e+03
3.347405949343771226e+03
3.059238384801668872e+03
2.340065482987146424e+03
1.618898278889920903e+03
-2.452655509969373213e+02
-2.634500112122267637e+03
-6.043847738054611000e+03
-7.055330803745214325e+03
-7.215973990169268291e+03
-7.030818289725936665e+03
-6.445866314870123460e+03
-5.382050417948243194e+03
-5.216320088008276798e+03
-4.210667296175250158e+03
-3.392103501598177445e+03
-3.405555509338824322e+03
-2.929042470381837120e+03
-1.947589025264468091e+03
-1.701128174438750875e+03
-1.827638890628621994e+03
-3.190823162104678659e+02
-1.837513046496196466e+03
-4.225841408020508425e+03
-4.267118461544660931e+03
-4.834418008265306526e+03
-4.982743989287562727e+03
-4.947124178791643317e+03
-2.194534059379597693e+03
5.760407800776544036e+02
-1.494421477546507276e+03
-5.052868138893083596e+03
-5.311234175975492690e+03
-4.685559570381799858e+03
-4.083787950938791255e+03
-4.057858681256191176e+03
-3.183704435291297614e+03
-1.781304529230992785e+03
1.395385451476467779e+03
3.383962439044956909e+02
-1.225244035400823577e+03
1.995523094278715917e+03
3.321745570458228030e+03
3.367429849177207871e+03
2.831545605364174207e+03
2.465125562628883927e+03
2.283170740256354293e+03
1.767691535341073177e+03
9.937038290531594384e+02
1.002275950572582815e+03
1.041333031112368872e+03
1.195907885592104321e+03
1.409110649097466876e+03
1.537984525317441921e+03
2.086566146099352864e+03
2.541906627175929316e+03
3.102024232612006017e+03
3.470020893747425362e+03
3.972930425555787224e+03
4.377801441677953335e+03
4.188724660356188906e+03
3.630779447940831233e+03
2.846959044295339936e+03
2.350220840013026645e+03
2.014558220260930284e+03
1.243003167474736756e+03
2.886001618234897137e+02
-1.956364425812675165e+02
-4.807285981671212198e+02
-6.396469868710805713e+02
-1.003429459390128045e+03
-7.510767261840397850e+02
-5.686295101121315838e+02
2.341873112403394259e+02
8.004637325231643672e+02
1.069384929815102851e+03
1.627213772339124489e+03
2.110057457223110760e+03
3.083105471195022346e+03
3.393940784141139375e+03
3.074240375533107454e+03
2.237311191120453714e+03
1.641334668081093014e+03
1.754307693755162063e+03
1.148209296054592642e+03
5.101453548707580694e+02
1.971050952459606833e+02
-3.459589181677973215e+02
-8.199453673685061403e+02
-1.424934673867260017e+03
-1.286260819679975384e+03
-1.027110780964089599e+03
-5.094343561371869100e+02
-6.271560176498377359e+01
5.559342690995817975e+02
8.274200310714363695e+02
1.215761513891995946e+03
1.883920913077274690e+03
2.519980167797951253e+03
2.588976001835282659e+03
2.133877984370604736e+03
1.671614672560214331e+03
1.425180613934032863e+03
7.755747609879223319e+02
4.607573994363053203e+02
2.547760521651100873e+02
-2.753525605549036754e+02
-1.300723118982884671e+03
-1.592369429186512889e+03
-1.845305286303542289e+03
-2.166536267877756472e+03
-1.705013470644241579e+03
-1.155664590752284084e+03
-6.645322623044067996e+02
-1.405815161601583725e+02
1.742328387317334943e+02
4.758770980453092534e+02
8.933662472879509551e+02
1.428598637241718734e+03
1.405433131296621468e+03
1.392869233211622486e+03
1.381016705874315221e+03
9.759485967652716454e+02
5.495924145928817097e+02
1.729561510255589667e+02
-2.920167921167221721e+02
-8.103920179632812051e+02
-1.237271628677895706e+03
-1.785650820946353406e+03
-2.318549358441861841e+03
-2.194987703785641770e+03
-1.884997557138395450e+03
-1.831623964074495461e+03
-1.329822383858782814e+03
-6.095704672288361508e+02
-7.259084006636409185e+02
-1.370875605135987826e+03
-3.308450172236957769e+03
-4.652597086522705467e+03
-4.580324715096490763e+03
-4.592717307860943038e+03
-4.921709042898133703e+03
-5.110306815640173227e+03
-2.140640804251469035e+03
1.772781122334939710e+02
-2.506225967288436323e+02
-7.853910679487412381e+02
-7.951577900948719844e+02
-6.587401620604891832e+02
-9.082220695149152334e+02
-1.198689370306347428e+03
-1.148177068257137762e+03
-4.707163022065001883e+02
1.986821250894385003e+02
9.810918752793201065e+02
1.224553095954679293e+03
1.709919699934310302e+03
1.990232639405472810e+03
2.239558898314308863e+03
2.488861313901223184e+03
2.610106647875320959e+03
2.289285698883170880e+03
1.915322799306630714e+03
1.629214701404922607e+03
1.295923669132929490e+03
8.093781548777500348e+02
2.804968395484028179e+02
-2.356994422937915772e+02
-8.141832171755997933e+02
-1.350026691552760894e+03
-1.437272033317476826e+03
-1.402916180283804806e+03
-9.499655627388818857e+02
-1.423670939839751384e+02
6.388104131500861058e+02
1.367582690397134456e+03
1.668031970637147424e+03
1.882097438512843610e+03
2.129723531207303949e+03
2.465905761377304771e+03
2.448727781058672008e+03
2.202201313447496432e+03
2.045230851543931749e+03
1.534769625147482202e+03
1.065837623546475925e+03
5.944344919281151078e+02
4.956771963504930767e+01
-8.317216944744106968e+02
-1.322541105199644335e+03
-1.728022880196519736e+03
-1.871077207895915762e+03
-1.712665120180859503e+03
-1.574857412000907971e+03
-9.046380815814528660e+02
-5.590604578148218025e+02
4.469210836617567679e+02
1.190427963828311476e+03
1.705599929900160078e+03
2.446530423381541368e+03
2.088119661301824181e+03
2.437215700414660205e+03
1.932871188943634252e+03
1.583193727207619077e+03
1.184198168269559119e+03
4.967546122282120677e+02
1.788514005394201831e+02
-3.134904015356494256e+02
-9.103082039134171737e+02
-1.183636775294167137e+03
-1.562541963909003925e+03
-2.073059780739888538e+03
-4.398984295430216662e+03
-4.828360144406260588e+03
-4.364151299669341824e+03
-3.307280754528634134e+03
4.631394643929657491e+02
-5.668646018828906108e+02
-1.533164300027476656e+03
7.052572123557292798e+02
1.790415204605604686e+03
-1.375503664650642577e+02
6.063647789825968175e+02
1.349085454790883432e+03
-9.144528871381239696e+02
-8.552493609762707365e+02
-1.220283991208483712e+03
-3.646526622755060743e+01
-2.387723976513814705e+03
-3.021245339594536290e+03
-3.244025960633997329e+03
-8.330089374873547285e+02
-6.392119569246677884e+02
-9.405888799344052131e+02
-2.090082647158116743e+03
-1.717631910353065678e+03
4.980778399546736068e+01
-2.421723937948456751e+03
-1.981039695214059009e+02
2.520550891925145606e+03
9.381791645798895161e+02
1.078915668230100437e+03
4.075965542203512655e+02
-1.119695713131925459e+03
3.882019417202803311e+02
2.732565260139823522e+02
-1.058518248429517826e+03
6.410548317375287297e+02
-1.974181582691661788e+03
-1.332527421191992062e+03
-3.957004476759269096e+02
-4.805631936564251987e+02
-7.654763535619280219e+02
-7.674818899600835493e+02
-2.512484643987981769e+02
4.162336671351078508e+02
8.787171261093295698e+02
1.301259115749973262e+03
2.072028002468827708e+03
2.246931368728562120e+03
2.342931449607434843e+03
2.520186694692173205e+03
2.669817112638728304e+03
2.556789548733055199e+03
2.342908755077097794e+03
1.920414900642384055e+03
1.400358930419524768e+03
4.427691362102129347e+02
-4.795234212853275153e+02
-7.895160845577959208e+02
-1.261284786011959113e+03
-1.459778596884043964e+03
-1.623807684627326580e+03
-1.040226421285857214e+03
-7.150885511803145391e+02
-6.006183093902384371e+02
1.851259073617939634e+02
9.285516705576901586e+02
1.679794200424759083e+03
1.597199682676106704e+03
1.917892576629923951e+03
2.552255529678422590e+03
2.843098378211117506e+03
2.863291687903841648e+03
2.235796593265959928e+03
1.630900379370493965e+03
1.200920352840592159e+03
3.446045245190635455e+02
-1.832650983800941447e+02
-2.815017612960328393e+02
-4.484152824223473317e+02
-4.392796813326615393e+02
-6.592749142219513487e+02
-6.142829869272969745e+02
-5.351404538420873678e+02
2.225766464274893863e+01
7.493298416840970049e+02
1.514249862218899352e+03
2.153215714233806921e+03
2.576951032656618281e+03
2.917718704538202473e+03
2.913377590883470475e+03
2.837876602004527740e+03
2.465235248507934102e+03
2.122469554413909464e+03
1.600644850120143701e+03
1.404868803055604076e+03
7.839465867982344207e+02
2.026455978883868738e+02
-2.430589892816316535e+02
-6.680681196693188895e+02
-6.254801485782002146e+02
-7.203258387251986505e+02
-8.247441901351128308e+02
-2.098170444569819608e+02
1.975697034418201383e+02
4.563716451436419561e+02
1.012650921693435976e+03
1.921658108401293475e+03
2.659287919099890587e+03
2.983387417332040513e+03
2.989109511511374876e+03
2.368443974469827936e+03
2.039351350093997780e+03
2.005773498231962321e+03
1.469529898114308025e+03
9.216638018963401464e+02
-4.568023451605952090e+01
-2.161690713936465727e+03
-5.942431799314774253e+03
-7.488024659312228323e+03
-8.011516441664348349e+03
-8.053740530148502330e+03
-6.394600198492717936e+03
-5.325199912605738064e+03
-4.575008242029574035e+02
6.985739632492559394e+02
-3.219773665321549743e+03
-4.122468504758233394e+03
-3.258809700893101308e+03
-2.632977232360926337e+03
-3.093835750225994616e+03
-3.371306450682814102e+03
-3.311452058653036602e+03
-3.586161832986995250e+03
-2.118365156151534848e+03
-1.529185133254589118e+03
-4.181596502660546321e+03
-5.765583656070676625e+03
-5.723250770825712607e+03
-2.205713613011081634e+03
-5.491039637038508090e+02
-4.641848465615744885e+02
-2.077042673182393742e+02
-2.756479336857110525e+02
1.727210258778276284e+02
1.073354136097397259e+03
1.998410082097465420e+03
2.782060486640632462e+03
3.419355808825626355e+03
3.564252223998721547e+03
3.460680858594279471e+03
3.253731380595017981e+03
2.959483179375491090e+03
2.762949095764319281e+03
2.369180707212319248e+03
1.660173114360262389e+03
8.728982192718241322e+02
4.223945990169267475e+02
1.068514771179502709e+01
-6.372769668330649893e+02
-9.795909299028134001e+02
-7.112874567860044408e+02
-7.492839085998467681e+02
-1.064520951543353391e+02
5.411637506172615986e+02
1.200635925496800610e+03
1.572112240325850735e+03
2.066626169260694496e+03
2.350274597703828931e+03
2.288904742216741397e+03
2.326436688382352713e+03
2.425842229854827565e+03
1.881373413208496913e+03
1.018332909715539586e+03
8.148212172215050941e+02
4.977077767165639557e+02
6.227275959042542581e+02
3.488278457352193413e+02
-6.368455106978717595e+02
-9.523048607409609758e+02
-1.206521068377519441e+03
-1.299540272741019862e+03
-1.574328612006368303e+03
-1.319868547628298302e+03
-3.857989669583644741e+02
5.680862211620222979e+02
8.697350494158631591e+02
1.407140475502548952e+03
1.933416639834738589e+03
2.184645988952471271e+03
2.370626049003954449e+03
2.113484128335097466e+03
1.366081671629016228e+03
-9.698028050895076149e+02
-3.981142712448130965e+02
6.510994396535521389e+01
-7.010638043310774492e+02
-1.402382591877118784e+03
-2.016849858975533834e+03
-2.905640306985701045e+03
-2.567726088682988120e+03
-1.358042153349086675e+03
-1.558697071154988180e+03
-1.721539036266130324e+03
-8.412304584170374255e+02
-1.161074178933344854e+02
2.467228564523061607e+01
7.693728667028660766e+02
1.601228808176163284e+03
1.717139195431435155e+03
1.814100302192393883e+03
1.415083666154746879e+03
1.599421757755120268e+02
-1.092162161219204393e+02
-2.234534353711904586e+01
-4.897207371356377053e+02
-1.154411184918909385e+03
-1.786348562098495449e+03
-2.116406273941366635e+03
-1.599263535111270357e+03
-1.809217798718278118e+03
-2.006523585845606931e+03
-8.239188024410190110e+02
1.083655414271974990e+02
4.314523710669876095e+02
3.443832632542454775e+01
7.470114797527558039e+02
1.951069676798005048e+03
1.841690689488545104e+03
1.362994474055944238e+03
7.131772294603692899e+02
4.753324870215087685e+02
5.534085162358830985e+02
1.391181951092166855e+03
1.475632825265194924e+03
9.283963378299544900e+01
-4.632777702633397894e+02
-6.698094956111789315e+02
-1.543729597883553197e+03
-2.251035178343674943e+03
-3.220763860525134533e+03
-4.377037955838209200e+03
-4.932940390396037401e+03
-3.756411008263534313e+03
-9.753885341464529120e+02
8.111096334701576325e+02
2.880888229201553372e+02
3.148868375653520246e+01
1.414345851591180235e+03
2.821611114244535202e+03
2.812199507620738586e+03
2.922089493189687801e+03
3.167367167300262736e+03
3.040077190599318783e+03
2.924137307566030358e+03
1.693326163407650029e+03
-5.023505486165959155e+02
-7.061000216087147692e+02
-9.307001186731417874e+02
-8.027577001746033147e+02
2.075437329036492429e+01
-5.171207486736922476e+01
-4.863342368780031961e+02
-5.117181256203555222e+02
-7.897890650633785299e+02
-1.009922600225222027e+03
6.807638087773156030e+02
2.498375012755127955e+03
3.229971048198858625e+03
2.740289220753445534e+03
1.968758496794185930e+03
1.150070762761396509e+03
1.580447554462753260e+03
2.916408592232638057e+03
1.760126545523076629e+03
6.035318072759901042e+02
1.057134543335310610e+02
-1.046583763394079369e+03
-2.259560482969761324e+03
-2.365882181826078977e+03
-2.031625601551335194e+03
-1.762905611868291089e+03
-1.064849220504859659e+03
1.264813824512708152e+03
1.949848994518944892e+03
1.350840550050973889e+03
1.953380859781900881e+03
6.296322352724847633e+02
-5.966156032795785222e+02
-1.803053722321470218e+02
-2.971268933413666105e+02
-3.935825607341760133e+02
2.026776404879886059e+03
3.044116477913245035e+03
4.337117260846596309e+02
1.400346798541150065e+03
4.056007568943292881e+03
2.454801259369146464e+03
1.258423546765180845e+02
1.516076506006573254e+03
3.648242828915851533e+03
3.072344808119704794e+03
2.230382106996554285e+03
3.262174353653706476e+03
3.370661807924223467e+03
2.541059546878699166e+03
3.081557037100335037e+03
5.287224794611178368e+03
5.935979664091109953e+03
2.633764909161926880e+03
-1.673609844405084743e+02
-9.574817741250232075e+02
-7.326529601344819866e+02
-2.494795350623463037e+03
-4.131819126467064052e+03
-6.553744597316036561e+03
-9.785559023618794527e+03
-1.003439439695592773e+04
-8.127329531677838531e+03
-7.242360290830506528e+03
-8.730394734996953048e+03
-1.068942593783203483e+04
-7.823439755446179333e+03
-2.419401964905292061e+03
-2.849377729208218170e+03
-4.934323407524181675e+03
-3.450165381014965078e+03
-1.832911431724835893e+03
-2.149622685919902779e+03
-2.561225368873082516e+03
1.573352591030899475e+03
6.500192934703889023e+02
-3.199013777860952359e+03
-1.904492242000876786e+03
2.023081989268554537e+02
1.849243108604351164e+03
1.304426850026463626e+03
-1.624149671192241158e+03
-3.993548582919078399e+03
-3.289678562919625620e+03
4.035034802600155217e+02
-3.800207016472290320e+02
-3.126266448464625682e+03
-4.514258404271959989e+03
-4.413850627778186208e+03
-1.647039922231382434e+03
-1.159830234993832846e+03
-1.785035905247573965e+03
-2.011680050414118341e+03
-1.696701378275516618e+03
-5.580547258260126000e+02
2.294314551114757251e+03
4.203374367751455793e+03
3.592184607831126868e+03
2.887786691870494906e+03
3.851184692301079394e+03
3.895309628990126839e+03
4.370202780258363418e+03
3.253925383325316943e+03
1.120434303746558498e+03
1.836750250970244167e+02
-1.192338369479389939e+03
-1.844350099346459274e+03
5.537192964381576985e+02
1.778619783657640937e+03
8.473031607550821036e+02
2.233900569670156074e+03
4.156493666508366914e+03
5.626196735242782779e+03
6.434995843130485810e+03
5.366884997748905334e+03
4.946058605285822523e+03
6.828529603759762722e+03
6.387316676091731097e+03
5.756473644764638266e+03
3.306323850018030498e+03
4.257838240992389274e+02
-8.151974708601510429e+02
-1.131571190885680835e+03
-2.569394044807585033e+03
-3.758711865790143747e+03
-3.369829861092782266e+03
-4.355576827949072936e+02
3.791563829677689228e+03
4.130556525895284722e+03
1.991012610692672524e+03
1.954760729557606282e+03
2.163139554084357769e+03
1.261374299481590242e+03
1.926443113199798290e+03
3.411381464286560458e+03
3.414784212252901852e+03
3.437684089422730722e+03
4.437518874055206652e+03
4.342228232660622780e+03
2.845727836977038805e+03
-1.100101413918644539e+03
-2.524287313273865493e+03
-1.088963055838894434e+03
1.047808279784939941e+03
2.330545172047729920e+02
-1.595255336145626416e+03
-2.413184968086395202e+03
-1.856738116597413864e+03
-7.929218986110124661e+02
-1.757186844397128596e+02
-1.259056118024623629e+03
-1.382884484708340551e+03
-6.082207447283556121e+02
-1.820564408231237508e+02
4.057629963116506389e+01
6.137074040035049620e+02
6.153882841600926668e+02
7.266321863948081727e+02
1.833461778880357770e+03
2.533810668860297483e+03
1.755673750276651390e+03
1.459906776792429923e+02
-1.198366891500983229e+03
-1.349325835294859189e+03
-2.347950305925275643e+03
-2.703263283740268889e+03
-1.957251424632197313e+03
-8.969348774263983159e+02
1.509651874363463548e+03
1.469466100019623127e+03
-3.184253442936815759e+02
-3.549033905672074980e+03
-4.694353992322770864e+03
-2.354222494809014279e+03
1.731449142820401676e+03
4.453508319429434778e+03
3.568856006715799140e+03
1.963426337839878670e+03
1.940249478010306120e+03
1.108320867478217679e+03
6.725937907658010317e+02
-5.329339739734120940e+02
-2.880303990891211015e+03
-6.829542603461262843e+03
-8.951682389780617086e+03
-8.917787334057633416e+03
-8.624913684229970386e+03
-8.842999846097087357e+03
-8.250102000815311840e+03
-6.551217515713186003e+03
-3.629354905489532939e+03
1.784470861049428322e+03
3.607341291107386496e+03
2.145300230727341841e+03
1.292508132044073818e+03
-4.692807784883472095e+02
-2.535046520277791842e+03
-1.900724184160399091e+03
-1.042348468761468666e+03
-1.937946616003013332e+03
-2.755529987960948347e+03
-2.764178254589775406e+03
-5.105037659807911041e+03
-5.779035992520141917e+03
-2.025124719407264820e+03
-2.283398522692304141e+03
-5.091890961819402037e+03
-5.143614107605815661e+03
-2.473600694575641683e+03
-8.157952361706674083e+02
1.163836249665920150e+03
3.081294091027789818e+03
3.037599236446396844e+03
4.336788198481640393e+03
6.560863148432960770e+03
5.160841117650049455e+03
2.224699043661466021e+03
-1.465651404862659604e+02
-1.205924623984964001e+03
2.761527699535003649e+03
4.203741837455872883e+03
2.618832465494401276e+03
4.703783915136831638e+03
3.778398869507639120e+03
4.496661050787133718e+03
7.118609791884668994e+03
6.276322885462279373e+03
3.478752559168198786e+03
8.428324706977675760e+02
-6.163413822067411729e+02
4.429769331103395302e+01
2.379786647311093020e+03
4.738168189033186536e+03
4.522465028023367267e+03
3.615632000933032032e+03
4.126636765337742872e+03
3.875566086463079955e+03
2.752352924100017390e+03
2.348041201965752407e+03
2.218738318940961562e+03
2.571429431696106349e+03
1.348144820976513529e+03
-1.640414553492206551e+02
-9.440846561613676613e+02
-7.910872521156031780e+02
-5.937049576014246810e+01
1.130561573157791173e+02
6.163866205280264694e+02
1.178621272320213166e+03
1.614686658239166945e+03
1.149566040225339975e+03
1.283423321403148805e+02
7.530859394953940864e+02
2.327904711989684984e+03
3.319810109758129784e+03
2.030765172707469674e+03
6.688986818217116479e+02
-4.018707588492300602e+03
-8.944151219912744637e+03
-7.367418626440190565e+03
-3.443603726450951399e+03
-5.081733894228229474e+03
-5.542725407191939667e+03
-5.001567760139784696e+03
-2.993289763635779309e+03
-1.606852105691522183e+03
-1.918211348512398899e+03
-3.938492017770334314e+03
-2.355731699826660133e+03
-3.527863301985366888e+03
-1.969738000866250104e+03
-1.720219518159531845e+03
1.805683193180387889e+03
1.665901941224820575e+03
2.543865730994007492e+02
-6.326673730734482888e+02
3.317121780019444941e+02
1.633461938765609830e+03
-1.357297353249718981e+03
-4.705276340204542294e+02
-1.236328059561536065e+03
-1.894724867336582975e+03
-2.310741010706745783e+03
-3.468391293946285714e+03
-2.716791910316199846e+03
-6.232843257934593566e+03
-6.526508548877790417e+03
-2.445901806941457835e+03
-9.448247645784697397e+02
8.637821050282032047e+02
-3.181165031832822024e+03
-2.452570589586341157e+03
3.812549420401094267e+03
3.495966737334008940e+03
2.335778298080072091e+03
1.375319784933695928e+03
7.633190179796290522e+02
7.515845743719364691e+02
2.379435945867896407e+03
4.212942702152577112e+03
3.642797943535470040e+03
3.513904113258560301e+03
3.463461000483610405e+03
9.754871182204301476e+02
-2.450186459131864012e+03
-4.197521347392711505e+03
-3.672457027254017703e+03
-1.773107452705941796e+03
-4.785769189450734871e+02
9.819624397670415306e+01
1.570506308925110943e+03
1.927362363492343093e+03
1.319770882011751837e+03
9.628355437228567553e+02
1.564703638384473606e+03
2.545435821768550340e+03
3.684082381378583705e+03
3.397716923259601117e+03
1.796140030298975717e+03
6.231025423915634747e+02
1.986715589117924310e+02
-5.470665055393995999e+02
-5.390960004545153197e+02
3.212071265358813932e+00
-1.954631828976741588e+02
-8.626039819505435844e+02
-3.541457055180379143e+02
4.743292118231121322e+02
1.559979820296019568e+02
3.160131150866292842e+02
4.893768961579767165e+02
-1.082294218830986665e+03
-2.404184787503461109e+02
3.658114400647775710e+03
4.561509330060614957e+03
3.737706691432655589e+03
3.965908954312151309e+03
4.027284745037654830e+03
2.600039565471367951e+03
2.063136077593816481e+03
1.738312832314265506e+03
1.358248675295546946e+03
6.783205855846654231e+02
-6.704116572450117246e+02
-5.872932919409500983e+02
-9.192494912376592993e+02
-1.804313658367687367e+03
-9.795486855162757820e+02
-7.670188025723771261e+02
-4.187616432204123385e+02
2.061125568686825034e+02
1.074522256396683133e+03
1.587350205599679839e+03
2.124621025907867079e+03
2.905450437758131102e+03
3.597854164497516194e+03
2.990643713182671945e+03
2.911863834688163479e+03
3.171498786723681405e+03
2.452603038305837799e+03
1.232205697800492771e+03
-6.287302029677298378e+02
2.588209167561739150e+02
2.661781332497529547e+03
2.332880014418296469e+03
8.501108677990771412e+02
1.396220732768882442e+02
-3.047990308471151479e+02
-4.162198272532658052e+02
-9.796603470052773446e+02
-1.917072778935232691e+03
-1.320323738334646578e+03
-9.104478539887611532e+02
-1.179585840017657119e+03
-2.878591099540238702e+03
-3.454464436298973851e+03
-3.982030162245829160e+03
-4.845186957619119312e+03
-5.048042089660161764e+03
-4.204747966967944194e+03
-4.299199294586119322e+03
-3.917374206463293831e+03
-4.227399195535224862e+03
-4.363536821006798164e+03
-1.709048633725225500e+03
-2.455568800030599959e+03
-6.208868195825675684e+03
-7.521132497148425500e+03
-5.998317680100279176e+03
-4.155381405748193174e+03
-1.788423975231104578e+03
-2.632495640003472090e+03
-4.063461814289374161e+03
-3.604274452920371459e+03
-3.395014182089672886e+03
-2.783584703281335351e+03
7.661097517432605173e+02
3.616319522519170278e+03
3.819878315993239539e+03
3.416563452763870828e+03
2.980318865906293468e+03
2.634359681196858674e+03
1.998815039839609653e+03
1.451611560299934808e+03
7.576572690695755909e+02
1.869304011031656501e+02
9.247148625667547606e+01
4.594207484098661212e+02
5.657059125926314209e+02
7.102800290007473905e+02
5.302164016131675908e+02
5.016269322864178548e+02
7.875093897577313555e+02
1.147919676616924107e+03
2.281874666359213279e+03
2.839308261157801098e+03
3.223233557174513862e+03
3.212781218954751239e+03
2.180091562378767776e+03
1.789130998687403917e+03
1.396808036625315026e+03
9.372105601543858029e+02
9.363543758917364812e+02
6.491723743152695079e+02
2.236153792077109870e+02
-9.064336538365579372e+02
-1.575776850890809101e+03
-2.332184265604157190e+03
-2.969413886314855517e+03
-2.017603987387664347e+03
1.460196867791229636e+02
1.520312089921548022e+03
1.868365778813040151e+03
2.068476532403577949e+03
2.540769041400101742e+03
2.330142727670620388e+03
2.196715694581554544e+03
2.236448374897672238e+03
2.070381766807914573e+03
1.462682100209733107e+03
1.055513652301329785e+03
7.950228396573824057e+02
1.750902040014096315e+02
-5.132187826337676029e+01
-5.590442380630058778e+02
-8.231291005249530599e+02
-1.292758526827456535e+03
-1.946014538949486223e+03
-1.930979666093431661e+03
-1.800464074291193810e+03
-1.367336189336653433e+03
-1.165643995039850097e+03
-3.772483731915132807e+02
3.459640551180627881e+02
8.267897830264754475e+02
1.155215579371670174e+03
1.078411903643292817e+03
1.335378632951895725e+03
9.440523494916164964e+02
2.166613385118626525e+02
1.471116803494238070e+02
1.269933912920133992e+02
-1.814166176454799313e+02
-1.170876354377230882e+03
-2.001573318122679893e+03
-1.827723476483698732e+03
-1.697283287525302057e+03
-1.440306531562545388e+03
-1.347802292851735729e+03
-1.864616082191125770e+03
-1.545832824506317593e+03
-4.405193189248835210e+02
1.761508246774969422e+01
2.387098102562564179e+02
8.177938299253977448e+02
4.498144977804773248e+02
2.763780383105336682e+02
9.906453308013494734e+02
1.671796624162873513e+03
1.399509414974926131e+03
8.420215179987244483e+02
1.701953124539040516e+02
-4.291868185059598773e+02
-6.398912693357754051e+02
-1.103733986187592336e+03
-1.717683756175867984e+03
-2.144795380956179997e+03
-2.632233820914004809e+03
-2.411155019340832951e+03
-1.565569073731423032e+03
-2.373161281545986299e+02
1.646898791406430291e+02
-4.165396998438376386e+01
-7.762807622811167221e+02
-9.321318650772707315e+02
-6.172384835372394036e+02
-6.136103818699010617e+02
-8.553846454730402229e+02
-7.474648543257557094e+02
3.580756984289951106e+02
2.251346417141402526e+03
2.288299187544370852e+03
1.598711697393047416e+03
9.325801405716191539e+02
7.482189186016098859e+01
-2.655795502387878742e+02
-7.156459223742382392e+02
-1.723357332115194140e+03
-2.084653764926368240e+03
-9.966357173460745571e+02
-6.543682692442978066e+01
3.359290947402123493e+02
1.041579336147629647e+03
1.316490111296884834e+03
1.952182576163558451e+03
2.695723146375886245e+03
2.471590125471765532e+03
2.523572734847278298e+03
2.713891088755218789e+03
2.423617906729765309e+03
1.819336333932530579e+03
1.073036107514057676e+03
5.286676466788658217e+02
1.900880275677960469e+02
-3.492715375578762291e+02
-1.159916692658773172e+03
-1.629643454826010611e+03
-9.846770623634835147e+02
-8.039230522929331073e+02
-4.186096468372875847e+02
4.393829880549454288e+02
1.403065860930345252e+03
1.702497310094596287e+03
1.487573885500885581e+03
1.828320062064057993e+03
2.261887523049519132e+03
2.305168526944583846e+03
2.398057574665748234e+03
2.083538992258919734e+03
1.986440926648162304e+03
2.368843488077280654e+03
2.792691596089749510e+03
2.312318608154244885e+03
1.272245333924781107e+03
4.142293045134092608e+02
-1.996171822061165528e+02
-5.623012345633394489e+02
-2.686261376151848026e+02
-2.027088408213464845e+02
-3.102079004039253505e+02
-1.754774536297181271e+02
4.883231589690043961e+02
1.154475779318495597e+03
1.656881751907065564e+03
2.274392392749916326e+03
2.666853506375569395e+03
2.792207572509889360e+03
2.924616359526702581e+03
3.195022763614002997e+03
3.331418402545022218e+03
3.239994578325583916e+03
2.848790093838840676e+03
2.097751089905052595e+03
1.022714605034321380e+03
4.665261448932357666e+02
-6.608219584821989656e+02
-2.687304152648580384e+03
-5.494982482681872170e+03
-7.225766856953924616e+03
-6.789588137138318416e+03
-6.471445486287687345e+03
-5.412418223893869254e+03
-4.653495088842466430e+03
-4.171671233052099524e+03
-3.354788948596050886e+03
-2.984772021999227945e+03
-1.993675314887027071e+03
-1.967473153501269962e+03
-2.468099786545981715e+03
-2.602613992154424977e+03
-3.042065311614751863e+03
-1.623397437308126655e+03
-8.076063858545443281e+02
-4.036805101068960994e+03
-4.696996731425671896e+03
-5.039066858378339020e+03
-5.378013631320775858e+03
-5.402800692193562099e+03
-1.865272694352855069e+03
6.064414599389048135e+02
-2.053931787788199472e+03
-4.607123213918500369e+03
-4.576988586500111523e+03
-4.087566749859143783e+03
-3.357773697816138338e+03
-2.769440074485426976e+03
-2.210619758118992195e+03
-1.745278497983556917e+03
1.036241317041841796e+02
9.891121240852991150e+02
-1.626704098103912429e+03
-2.001905072850281158e+03
9.305385974819445210e+02
2.102715528326540607e+03
1.789517733663027002e+03
1.566021437609872464e+03
6.882292209442193780e+02
-9.682701073074444764e+01
1.028368821205359751e+02
7.222944469072759830e+02
8.796008988456442239e+02
1.348769705203085323e+03
1.467850549464493497e+03
1.710965974887050152e+03
2.694163141807424836e+03
3.174486391788188939e+03
2.891027004361237232e+03
3.216880318168331087e+03
3.499172339374809326e+03
3.580682292021824651e+03
3.785281448737032406e+03
3.474154188550055551e+03
3.115420265915170148e+03
2.514083515162504227e+03
2.106160652965738336e+03
1.494678017910934159e+03
1.184711933335443973e+03
7.273231558457883921e+02
2.973858035833690678e+02
6.749370230311789101e+02
1.009266671856115863e+03
1.168491631486682309e+03
1.526459986127614911e+03
2.308078581407195088e+03
3.135659547018387457e+03
2.925306306657174900e+03
2.784985149520474351e+03
2.941777697212183284e+03
3.094857421104728473e+03
2.952217828984700645e+03
1.539492418289967645e+03
1.350315967563389677e+03
1.363169484185718375e+03
7.104203658646456461e+02
7.939506439051895086e+02
1.035819158794865018e+02
-5.717398983404203818e+02
-1.007136277983216928e+03
-1.169357929896250198e+03
-7.681037929802162125e+02
-2.977496023651156065e+02
4.636457511200338217e+02
8.562349191635476018e+02
1.267950944805318159e+03
1.284898370655087547e+03
1.159982256868373270e+03
1.353152840789773109e+03
1.403423447097891085e+03
1.613790275275443037e+03
1.364247620515393692e+03
1.014759738286458287e+03
8.453487141393043203e+02
7.229919789634045628e+02
3.506389466265069927e+02
-5.547595686232376693e+02
