-1.225035556345342911e+03
-1.083420069090969264e+03
-9.914578154106952752e+02
-1.243184491503058325e+03
-1.373647434213226688e+03
-8.269047712819000253e+02
-5.270105374763900272e+02
1.240003639425223128e+02
1.240433105935576634e+02
-1.989760929029709402e+01
-1.791340931006890003e+01
-3.218778219137054464e+01
3.442045323263120622e+02
2.271809252243035928e+02
7.537483189525619309e+02
8.018432498642446262e+02
7.054290987518115799e+02
9.014588388042192264e+02
9.248385486050381132e+02
1.009532428091802103e+03
1.098439040219862136e+03
1.616568276529297464e+03
1.681813745394649004e+03
1.886974138511752017e+03
2.230481393547659536e+03
1.879498212026080182e+03
1.941949411725127220e+03
2.150278591996685464e+03
2.332519535248939064e+03
2.564683369505077280e+03
2.416489559759840631e+03
2.388072641218524041e+03
2.471091073400769346e+03
1.851804129473739749e+03
1.446491179938571804e+03
1.442016797584960614e+03
1.682380118488045582e+03
2.017489104967157800e+03
1.536354532236382283e+03
1.839318405728983180e+03
1.624885519852471816e+03
7.790885532278432493e+02
1.178935008103096607e+03
2.600301418306376945e+03
3.545408460926998487e+03
3.336845341783189269e+03
2.832539725449003072e+03
2.053201156916384662e+03
1.665510266258928141e+03
1.649025712285542568e+03
2.164961436235934798e+03
2.569265261327519966e+03
2.533881834315262495e+03
1.820817033400566288e+03
1.675067070843138481e+03
1.696674507525500985e+03
2.079615041276075772e+03
2.704892366025198498e+03
2.645472489988895177e+03
2.333257430523940457e+03
2.278276762036208765e+03
1.636526309103099948e+03
1.485020738550353144e+03
1.607729264872703197e+03
1.543639174122426766e+03
1.282779191181007491e+03
1.201178532963108864e+03
8.038650968068276370e+02
6.928647962143551240e+02
7.691700529478300723e+02
1.239751007408585338e+03
1.852661135887958835e+03
1.700870634383434208e+03
1.207407115391303705e+03
7.842725546224381787e+02
2.491574303380334143e+00
-5.509631565066166559e+02
-1.415095796667462992e+03
-2.848825575158038646e+03
-4.993085999100627305e+03
-8.818898078414351403e+03
-9.070284214033385069e+03
-6.676186550713921861e+03
-2.170580761341014750e+03
-1.394446003498135951e+03
-2.280788762353294260e+03
-5.883601613266881031e+03
-3.464813836716514288e+03
-3.270477284860385680e+03
-6.539535867455228072e+03
-1.018288709870655839e+04
-1.114256253459289110e+04
-1.145453929662207702e+04
-1.032779234171351163e+04
-1.017133905934467475e+04
-9.173153517586255475e+03
-7.775195919921532550e+03
-8.331464258257832626e+03
-9.010874082169464600e+03
-7.920391552178875827e+03
-5.223073268266594823e+03
-5.270936975352644367e+03
-2.414930360562398619e+03
-2.619052089029481067e+03
-7.014215184668756592e+03
-3.762367847470276502e+03
-2.648496876256246196e+03
-1.702595207534200654e+03
-1.564620311952460952e+03
-6.855858968688925188e+02
-7.145488331676624227e+01
5.837924036357297837e+02
1.325122060850224671e+03
1.692588213585677295e+03
1.838254950671283495e+03
1.909122154285651959e+03
2.427114584955384544e+03
2.513250576947352783e+03
2.013556013741549805e+03
1.884037026277572977e+03
2.782632707729675076e+03
3.596311426879004102e+03
3.617117623589022514e+03
3.251104665446110175e+03
3.026210866717077806e+03
2.959394803614821740e+03
2.989722436909611588e+03
2.645259308429587236e+03
1.532949936174276672e+03
1.791764424888150188e+03
2.905717661513047005e+03
2.580803790583144746e+03
1.675064701090856488e+03
5.172938544144403750e+02
-6.741533031607395969e+02
-1.936362523144417310e+03
-2.942416786308858718e+03
-4.061363889453318734e+03
-2.621192307439339402e+03
-1.154010953452024296e+03
4.430329127130063966e+02
2.215357183096035897e+03
3.703744270931622395e+03
4.584109270024121543e+03
5.656646191413134147e+03
6.659533900390992130e+03
7.145392580164922947e+03
7.189265048979772473e+03
6.576145810015222196e+03
5.488845730665589144e+03
3.441308033312160205e+03
1.473509820853355677e+03
2.800421815773239814e+03
5.125981602426602876e+03
6.580909842872474655e+03
6.490024483251558195e+03
6.246526415865308081e+03
6.432436815254108296e+03
6.362949212195238943e+03
5.347538492826482070e+03
4.327110786786142853e+03
3.674904655546424692e+03
3.211972481776915174e+03
3.449070075311150958e+03
3.617264238884456972e+03
2.526462111172839286e+03
1.493655428395758236e+03
1.871264644168249092e+01
-9.454482531268786261e+02
-7.658767335942071668e+02
-1.055919230874728072e+02
9.383610065683777748e+02
2.768925777908079908e+03
5.321070251660599752e+03
7.134705261721390343e+03
7.001754314110628002e+03
6.079203685550266528e+03
5.396070197019847001e+03
6.063264247311414692e+03
6.860726466953215095e+03
6.340361589566238763e+03
5.383169825495473560e+03
3.620113670666977669e+03
2.889224346640503882e+03
2.315408136022399503e+03
9.924926643077341168e+02
-2.855430271928755133e+02
-2.141753178904398737e+03
-3.637118526429946542e+03
-5.065697991472615286e+03
-6.518567483162423741e+03
-7.769702038576846462e+03
-7.746092821822742735e+03
-6.059824857339196569e+03
-3.865992778510850712e+03
-3.743643006640293606e+03
-4.518835314349425062e+03
-5.237545015947843240e+03
-5.901729879116757729e+03
-6.956456521756028451e+03
-7.817711295304090527e+03
-6.201507735998336102e+03
-1.363927101809442320e+03
-3.060122086779970232e+02
-1.105750211712991359e+03
1.057998542304296592e+02
1.513673155069383483e+03
2.218963622290766125e+03
2.554581748324623277e+03
2.103518985922355114e+03
1.646786540852752296e+03
1.686381319784832385e+03
1.747299687090211592e+03
1.983576454004754396e+03
2.757149362442813526e+03
2.203993898843741135e+03
-1.421436666285790579e+03
-1.086334592987064070e+03
-3.147798293906503659e+03
-2.866761621098250544e+03
-1.394203648068998518e+03
-1.070149887246928529e+03
-2.404463320665813626e+03
-3.039087020746216695e+03
-1.568063988177567353e+03
-1.337355845578789285e+03
-2.264875214444400626e+03
-3.817537136107091555e+03
-4.552338480272553170e+03
-4.997314342365855737e+03
-4.926300135661227614e+03
-4.747214534316699428e+03
-4.902041673411049487e+03
-5.896766531232897250e+03
-5.686401928744137876e+03
-5.296811940904978655e+03
-5.873900710001234074e+03
-5.950608503002938050e+03
-5.768846710114709822e+03
-5.696500934104107728e+03
-6.052478416095121247e+03
-6.233665101052563841e+03
-6.223984791955361288e+03
-5.477409703394910139e+03
-5.555873945868111150e+03
-5.852300501116424130e+03
-6.743606339211036357e+03
-7.106639794878537032e+03
-6.543319226875213644e+03
-5.809604174063298160e+03
-5.794439310712798033e+03
-5.684668175690356293e+03
-5.399086596056481540e+03
-5.338650495537450297e+03
-4.469233201953928983e+03
-3.747765815543991721e+03
-2.982193358725353391e+03
-2.593305186380488067e+03
-2.002008762124697114e+03
-1.003211745791018188e+03
3.692154587527170406e+02
1.773365072860652162e+03
3.038301540568864766e+03
4.261107574079485858e+03
5.567856919689490496e+03
7.452779028503653535e+03
9.118990968565880394e+03
9.428562133866844306e+03
9.615633439824234301e+03
9.899283635864781900e+03
1.035072190017375578e+04
1.021491312710096645e+04
1.008401980302277479e+04
9.902207746564123227e+03
9.746530800514779912e+03
1.015813923815285307e+04
9.466094584804781334e+03
8.941493205100048726e+03
7.919427807757947448e+03
3.955025545667785082e+03
1.572436373660333629e+03
3.307682550962874302e+03
6.586857234230511494e+03
6.600965932175002308e+03
3.582309912707370586e+03
4.567032616148362649e+03
2.883106274739403034e+03
3.626557443064988320e+02
3.321758973590621281e+03
4.703906895980554737e+02
7.847179357998284104e+02
1.191940265275077081e+03
4.850720118485961052e+02
8.951281031476124781e+02
-2.478830682336857535e+03
-5.316644092748011872e+02
-2.873620945275574172e+02
-4.981792294501865115e+01
-2.429313938931430528e+02
1.222786799029608460e+02
1.229726022304477965e+03
-1.859659329007987935e+03
-4.818350024791137912e+03
7.476123842850563506e+02
2.554180995867068305e+03
3.993608355462850454e+02
-8.768202996927540198e+02
1.208635552192508385e+03
8.527073836806073359e+02
7.674719618746096330e+02
7.260458040267994875e+02
-2.295591681529715515e+03
-2.049390520023342106e+03
-4.444076472775188904e+02
5.173376732364512236e+02
2.199266708021841339e+02
1.243497951421506684e+02
5.749904186561862929e+01
3.084161132430218686e+02
1.981056049404773205e+02
-2.265081245211401892e+02
-7.504295946632896630e+02
-8.776949775347713967e+02
-6.373606047883131396e+02
-2.443771742379669547e+02
-1.179025385655705804e+01
-2.646839590038130723e+02
-3.021373563407548204e+02
-2.102331887294858745e+02
1.930641771917112237e+02
6.276963998525433226e+02
4.866326520301647633e+02
6.786012074648023429e+01
-5.147310857304172487e+02
-5.181310745596396146e+02
-2.773241814904174021e+02
-2.373157320126194065e+02
-4.609946955946399498e+02
-5.246591662895369836e+02
-4.336382708072445666e+02
-1.302664624218052438e+02
-2.914267246173827175e+02
-5.481221875156618353e+02
-6.343679192084530314e+02
-2.046371504895112821e+03
-1.669980510458154868e+03
-8.249444776612756414e+02
-1.191670157357647213e+03
-1.284200460241240307e+03
-1.338649626211414898e+03
-1.169001419174895318e+03
-9.537579000693476701e+02
-1.169086957698749984e+03
-1.621091361022006822e+03
-1.432531974847582433e+03
-7.257849346327509465e+02
-1.749677568690497935e+02
-3.123545970091112736e+02
-7.640851067268894212e+02
-1.605171985496041316e+03
-1.951757579491475553e+03
-1.455620968500444178e+03
-8.464860328060664187e+02
-7.805633156806698025e+02
-9.037329123452661861e+02
-1.139942846352243123e+03
-9.364512090945511318e+02
-1.238454012805174216e+03
-1.866115048908785411e+03
-1.757636174681995954e+03
-1.151064772220148143e+03
-7.614763836036510156e+02
-8.799452797396669439e+02
-1.065627664994067118e+03
-3.576365954629503108e+02
1.159608359145728684e+02
1.450737118318737089e+02
-9.471822555160764878e+00
-1.888026714450710699e+02
-9.900813145902908730e+01
-2.331413140202009515e+02
-9.272885942530019747e+02
-1.244572233365777493e+03
-4.860324269068834724e+02
-2.617396394928001087e+02
-6.846680186069394267e+02
-1.013999783329532079e+03
-1.159012609051726031e+03
-1.086713848340498316e+03
-3.616102141116172788e+03
-1.442185291667876299e+03
-5.039770908612917992e+02
-3.395187140754816255e+02
-2.599184993423143624e+02
2.687855665717307261e+02
-4.326769169556262113e+02
-3.047397597917291023e+03
-1.653569828335301040e+01
1.196823560424116295e+03
9.116077312681105695e+02
9.557882802365990074e+02
1.198268511513767862e+03
-1.055976053605502102e+03
-3.219984748130087837e+02
1.304190679306326501e+03
4.465889409157217074e+02
3.882596586699727368e+02
4.912467426934279047e+02
4.804712013755706153e+02
6.788275059796848154e+02
5.721915913606477488e+02
4.374722827142526285e+02
5.647231571370497250e+02
7.789961167658800605e+02
8.922593916294619021e+02
7.135204748732973030e+02
-1.285136557654830767e+03
-1.540680207772553103e+03
-3.831846610781786353e+02
-8.464769021175321768e+02
7.532035440729860909e+01
2.142360709955167408e+02
8.884294065786914416e+02
6.159178942025345123e+02
3.477755265122756896e+02
9.896191057284849535e+01
2.683840714860960475e+02
2.360469296926296181e+02
1.479730920114327546e+02
2.120936074151584023e+02
2.842880275713748119e+02
-6.840674319836814732e+01
-4.247775721577599484e+02
3.072707300265787467e+02
5.107791234042101678e+02
5.477022818670170636e+02
2.660726241339149851e+02
3.901941778756891210e+01
-1.033584436945067608e+02
-6.891332184778885050e+01
6.423545373086250265e+02
1.231483518558120068e+03
9.616112804147187489e+02
3.028533283572672872e+02
3.513126120128042089e+02
3.569736590384285364e+02
4.797189756132905814e+01
-2.054685244349519024e+01
3.884480621367248432e+02
6.469262579482801812e+02
1.005798308699381209e+03
9.480778267435032376e+02
1.518899311515527302e+02
-1.156408084961852296e+02
-8.635561172691549814e+01
-2.882035704568835399e+02
2.629265538256170771e+02
8.421335837727823446e+02
4.382544765657758035e+02
-2.339280868682492667e+02
-5.741629675092711977e+02
-8.452883735097408362e+02
-5.483566984915585181e+02
5.268095776751498249e+01
-4.714979967807249750e+01
-4.657885363240032461e+02
-6.711066949408075288e+02
-6.210267046048962811e+02
-5.025101877769322414e+02
-7.654988821927166782e+02
-1.652901980657176864e+03
-4.419704159468105900e+03
-2.377745247865435886e+03
-8.237447662878960273e+02
-1.116812698645569299e+03
-1.099805496256172319e+03
-6.138309715544224900e+02
-9.109165048896983308e+02
-4.759355597848702359e+02
7.126441694403574445e+01
9.768731794990092965e+01
-6.627735915541287568e+02
-9.480036435749791508e+02
-1.101898997389495435e+03
-1.150338927046645267e+03
-1.408294974109336408e+03
-1.237773784755503357e+03
-9.327935782168132164e+02
-9.232001036405500827e+01
-3.291193715344845616e-01
-6.937276598505876564e+02
-1.181559249051078268e+03
-9.787663565842152593e+02
-5.992540373925035055e+02
-3.100731412241249814e+02
-4.572560565114870883e+02
-1.017779085834089074e+03
-6.615685455993468622e+02
2.933973738951304995e+02
1.011133600172847878e+03
7.735583814659435120e+02
2.917090997305938913e+02
3.095978036039330163e+02
5.942691908497860140e+02
6.807017666560619773e+02
2.328346813944481255e+02
-1.384003238190807963e+02
-1.159149981816253074e+02
1.202388390437355952e+02
2.950136608116563366e+02
6.174286767455367908e+02
3.004300009414016017e+02
-3.520556087954262807e+02
2.091608045887239697e+01
4.383282934205237211e+02
6.821484058244091102e+02
8.443096759986498228e+02
8.417248755090985242e+02
9.683852168339032005e+02
5.262407157717055952e+02
-9.686491363155141698e+01
1.409928838562887279e+02
2.986924327678020177e+02
-1.777457122965167713e+01
-5.838585417485064966e+01
-1.311416437654385732e+02
6.579371365207949793e+02
2.947762010197108680e+02
9.440574073155360679e+01
4.548237369290694687e+02
4.279902070458583694e+02
8.218056332172366183e+02
7.192021866559913406e+02
4.461708022885903802e+02
4.688061922960879429e+02
3.851131755783071071e+02
1.158313835224925469e+03
1.223097168072999239e+03
3.932154330538222666e+02
-1.648526250455087620e+03
-1.092958662683124430e+03
3.643136067291994777e+02
5.906840977334047693e+02
9.634955219803044884e+02
1.406552820723524519e+03
4.736514238797493590e+02
-3.986177242970888415e+02
3.081289284771264647e+02
6.858360649430854892e+02
6.065452401126294717e+02
5.300691656332716093e+02
5.126828838849469321e+02
5.459112936598403394e+02
6.377085910013238390e+02
4.701616624495611632e+02
5.044460062302756000e+02
-6.576004019704836878e+01
-2.793583582532421133e+03
-4.807575112119494065e+02
8.077258242998868809e+02
6.821156830410062639e+02
3.266152025757778574e+02
1.564420036915554135e+02
1.615244103178122828e+02
-5.144246396475178926e+02
-1.044331366273081585e+03
-1.187298023210649490e+03
-1.381366353050879752e+03
-8.874490337700344753e+02
-7.175091298643631035e+02
-4.017162278656201693e+02
5.137607871362920378e+02
1.283985142302526810e+03
1.056885166338096269e+03
7.814219804385745647e+02
1.177516290993494067e+03
1.187079750595432188e+03
1.284065988197479328e+03
1.011858508822707108e+03
4.431914796515588364e+02
5.139683632997390532e+02
7.581687383235631614e+02
6.707699742944874970e+02
6.037303790373642869e+02
3.471112337033442827e+02
5.028899055715339728e+02
1.729663023211868165e+02
1.012571922921987380e+02
1.468541335542308843e+02
-3.842480082037793636e+02
-4.770455943780310690e+02
-2.925512096810954290e+02
-3.567800068522386709e+02
-4.407314772473914104e+02
-2.003709564026652288e+02
-7.172306112480423224e+01
-3.576337043994625731e+01
-3.985176889966063527e+02
-1.479072874448494531e+03
-5.523131890848037074e+03
-5.685649497236157003e+03
-4.350551787590403364e+03
-1.859941299319961672e+03
-4.561910322219760928e+03
-4.725357394296603161e+03
-4.436200548395997430e+03
-3.564563891708216374e+02
-1.677069274343057486e+03
-3.006999692118444273e+03
-3.701240176675535622e+03
-1.439692012364424500e+03
-2.618346335060919046e+03
-2.004177681826662820e+03
-1.038136614154409699e+03
-2.810097300338279183e+03
2.580343004817499377e+02
8.293003498992566165e+02
1.133758249663769675e+03
1.280432533774340300e+03
-1.622623269851227178e+03
-1.718322844368893811e+03
-5.660029800476316808e+01
1.079608930971944119e+03
1.359324830707836554e+03
1.305685708345789635e+03
3.057991328999910365e+02
-2.383084638932891721e+02
-5.435919012569353299e+02
-4.139465803953486898e+02
-2.912130689223810691e+02
-5.703231984668448149e+02
-1.048289748485016162e+03
-1.092029292805788828e+03
-8.504115233117345269e+02
-7.083101415105295473e+02
-1.119632166838007834e+03
-1.459324162737068718e+03
-1.656240622206291164e+03
-2.163202653442198425e+03
-1.922183414279501676e+03
-1.770218910185250024e+03
-9.601737832955483327e+02
1.611043382508186141e+02
-1.030922031006364037e+01
-6.363205277189961180e+02
-1.084835250698198024e+03
-1.218453655688077788e+03
-8.514771866914022667e+02
-3.207464426583627528e+02
-1.911581758339352746e+02
2.636337624289342685e+01
3.338747715893973691e+02
8.384816220882029256e+02
6.905513587108647471e+02
8.295273984616279677e+02
9.298988214418544658e+02
1.065991625505412003e+03
1.043869917801825522e+03
1.548546272328481564e+03
1.661323204708930461e+03
1.783070313152445351e+03
1.574818869220087436e+03
1.907871808148887567e+03
1.845170258085011483e+03
4.767754535100108910e+02
1.190783605280731308e+03
2.306315451418463454e+03
2.243664522423428025e+03
1.585963837268939187e+03
1.421895071669322988e+03
1.328440008366726488e+03
1.099706952730609373e+03
8.069350239972294503e+02
5.522430094700614518e+02
-7.724884182390069327e+02
6.673494135162546748e+00
-1.630428509904150189e+02
-1.537266865717384690e+02
4.066871310501672951e+02
8.942303202174542776e+02
1.465014777324824536e+03
1.536070786009737503e+03
1.129434464518052664e+03
9.961262742947715196e+02
1.461225124531922575e+03
1.952754369207734044e+03
1.824727956728597064e+03
1.482174245337692128e+03
1.622150470875799328e+03
1.527696605159939963e+03
1.400759340583972516e+03
1.449383549700227604e+03
1.667601848450718535e+03
1.662454254370490844e+03
1.640963416327316054e+03
1.690158449974804171e+03
1.782072597961552901e+03
1.661601618772907386e+03
1.586763206274266850e+03
2.042651323371616400e+03
2.203257195254688668e+03
1.271539133566482178e+03
8.714931100740917600e+02
1.218122559727002454e+03
1.122416098887938233e+03
1.006337084609659087e+03
8.739303136484695642e+02
1.227186300692887926e+03
6.360564857004331998e+02
-3.074012155584165953e+02
-2.372352307440537516e+02
-4.264991031135510866e+02
-6.202015334688949224e+02
-3.534276145330730969e+02
-3.212223232561004806e+02
3.154667865273711982e+02
5.066437903173831501e+02
1.402655710231683486e+02
3.573037697219029951e+02
1.080658366139493410e+03
1.005276711573647958e+03
6.241893037352870124e+02
1.993069653306768600e+02
-2.513646019298255112e+02
-6.538834341037664899e+02
-1.159314042292012573e+03
-1.100682483827222541e+03
-8.880243171027364042e+02
-5.830862144002717287e+02
-1.033220298681209442e+03
2.140894752006274260e+01
-2.600645995410263254e+02
-5.277730999973323378e+02
-3.548391225877075499e+02
-2.221792061267904739e+00
-2.297327719667421775e+01
-1.321168918681408115e+02
7.828837824044126137e+01
2.812048208618617195e+02
6.653729967059491912e+01
-6.876814079543636637e+01
2.612632217520589393e+02
2.745889938517488531e+02
1.181719524802992822e+02
1.718612777423111311e+02
-1.704986501983152323e+02
-7.359133080956942194e+02
-1.177346921687756094e+03
-9.018007745266569373e+02
-5.464288632073124745e+02
-5.923050081957849216e+02
-1.019445961926254768e+03
-1.486901037119742796e+03
-1.687735555456892826e+03
-1.621103366901026675e+03
-1.199086805986056106e+03
-9.417394744815806007e+02
-9.170421442434198980e+02
-9.989951979938003888e+02
-1.260743997109899510e+03
-1.418369730567100532e+03
-1.309883471206730746e+03
-1.640316828699518737e+03
-1.306709638739580441e+03
-1.310161064593041374e+03
-1.525743354143103261e+03
-1.471538952160599138e+03
-8.395948395220551674e+02
-7.159026214898921125e+02
-7.674822634218772919e+02
-9.844748951922294964e+02
-9.899193885118692151e+02
-8.748436012271641857e+02
-8.083215450032931813e+02
4.063270376214929058e+01
1.104953967850225808e+03
9.776560689568674434e+02
6.566890512191295102e+02
7.398300212402845943e+01
-3.253666083044532797e+01
-6.118627513538721132e+02
-9.350582745166799441e+02
-9.691203083473004654e+02
-1.281151675448637434e+03
-1.329155480827952488e+03
-9.001735109776755053e+02
-4.632377358697683576e+02
-7.944163026222415738e+02
-9.307381427507435774e+02
-1.939198961871624761e+03
-1.212910123465919014e+03
-3.499713178910454872e+02
6.017134600403932154e+02
-1.182864636720601538e+03
-1.789792180103368992e+03
-2.186012037113111091e+03
-2.729411465921730723e+03
-7.972018229774988640e+02
-2.196509921403089265e+03
-1.354321021000105020e+03
-3.963699826086402027e+03
-3.224656970576524145e+03
6.168745555447370634e+02
5.899204870443091977e+02
7.983229191055407910e+02
1.205048948618590202e+03
1.056117233821177933e+03
9.835212862151535091e+02
6.322467169666739437e+02
-1.275751401760784802e+03
-1.573490003576514937e+03
9.820484903363194462e+02
1.059831509999614809e+03
1.192852611884001590e+03
1.013314687115698916e+03
9.568386291894505575e+02
8.154591535392669357e+02
1.231255978562003065e+03
1.153214716935755177e+03
1.248289937251841138e+03
1.878488076728592659e+03
1.986900545289304773e+03
1.582516929761606207e+03
1.172263353649052306e+03
-1.285939220851240179e+03
6.587716418155658005e+01
1.820741161767629364e+03
1.893597231092983293e+03
2.185401276838887952e+03
2.264117640206053693e+03
2.363778054192369837e+03
2.252370070441511416e+03
9.118575699745960037e+02
-1.496732211805102452e+03
1.221543553138409607e+03
1.609712485337382532e+03
1.527879807355926232e+03
1.760940765713553674e+03
1.977886943684684866e+03
1.385697608346370771e+03
1.997321237546870407e+03
2.860805257566648379e+03
3.153118902293106657e+03
2.644244673951602635e+03
2.858156508691673480e+03
2.760852057075869652e+03
2.418374825422952199e+03
2.400670361083121861e+03
2.471702671517424278e+03
2.346501133400865001e+03
2.290051622865742047e+03
1.880319841990012719e+03
1.739272580911166187e+03
1.286889571075821777e+03
-1.340792407639650719e+03
-8.277912906237710331e+02
3.353207420963598793e+02
8.454149951180637572e+02
1.523386939411195272e+03
1.360802871107377769e+03
8.822230795828409100e+02
1.233619361733252617e+03
9.475427896089494197e+02
1.117917202775215856e+03
1.444964511645519451e+03
8.587332632745966521e+02
5.182555789643018898e+02
2.033093652809661478e+02
1.661998640124802478e+02
8.556511477529608101e+01
3.013995790499503755e+02
6.812413468222474648e+02
2.853927241032303641e+02
1.112703117621942539e+02
3.146843460481397869e+02
7.146132965997529709e+02
1.005169629354114477e+03
1.119323319163875794e+03
9.990899256948503080e+02
5.722766369631600583e+02
3.709137338799371264e+02
6.396322476263569712e+01
-3.193054302685369521e+02
-6.370017242551743948e+02
-7.981977297418914077e+02
-4.128892702015156146e+02
-2.640750920762549754e+02
-4.077061184613830278e+02
-7.297934256784500349e+02
-9.583378119802920310e+02
-9.373187765954245378e+02
-9.467236267491529134e+02
-1.218527869672815768e+03
-1.042746187122936817e+03
-3.022875388218502621e+02
-2.715146652349226741e+01
-2.684063734374522028e+02
-4.290004658857213826e+02
-5.520716024601678100e+02
-1.002742659149716133e+03
-1.461864206998047393e+03
-1.831346761701867536e+03
-1.168214916755791819e+03
-7.964738000771329780e+02
-2.941741171890032547e+02
-2.303165359915525130e+02
-4.808464591877069552e+02
-7.537135033796911330e+02
-2.382913085575758942e+03
-3.163436564286039356e+03
-7.244299605198836616e+03
-8.178489980012827800e+03
-7.569939504007875257e+03
-6.884616916788023445e+03
-6.913528085007479604e+03
-7.013704504390393595e+03
-7.199083596518802551e+03
-6.907650138544126094e+03
-6.086431521240001530e+03
-6.381447574740499476e+03
-6.918500268103105554e+03
-7.543515938482242746e+03
-7.512670499669950004e+03
-4.643019587966313338e+03
-1.294781686879517508e+02
2.670650816757971597e+02
-3.743923704929114820e+02
-6.908465449919731327e+02
1.103704804667929920e+03
1.830315420178956401e+03
1.777017638230728608e+03
1.612947125967379861e+03
2.183980719313467034e+03
2.469191846354166046e+03
2.292532664957298039e+03
2.527959587125477356e+03
2.749523872745422068e+03
2.731242032577069949e+03
2.543157261373449273e+03
2.462359782611341416e+03
2.739839146313741821e+03
2.826564805125045950e+03
2.815447357710689630e+03
2.783589042834614702e+03
2.625071891613139542e+03
2.501826037560714212e+03
2.501918948845006980e+03
2.371408333974101879e+03
2.232299553514817035e+03
1.976591079781232111e+03
1.736325599268619953e+03
1.703628036073365820e+03
2.185462571715816921e+03
2.043742856181357638e+03
2.089499666100961804e+03
2.542806149072702283e+03
2.394719763779034110e+03
2.323262045288644003e+03
2.180555148884621758e+03
1.719586297462632501e+03
1.283260524464022865e+03
9.166186410463371885e+02
1.201708480990686894e+03
1.845575024021213039e+03
1.767193455340082664e+03
1.809625064721054741e+03
1.896945801343371159e+03
1.858139468894899210e+03
1.750275756523787322e+03
1.661363582109386471e+03
1.498371350814391917e+03
1.394199528238224502e+03
1.310756023484851312e+03
1.286115303752840873e+03
1.343634164584923838e+03
1.144372036371611330e+03
1.161437368524659860e+03
1.493885556902142525e+03
7.713042813894629717e+02
6.957468160265030974e+02
6.605172532884375869e+02
4.343544210869968651e+02
-2.071650937197266984e+01
-1.332669062801116070e+03
-1.289550181206362822e+03
-2.673836391815760294e+02
-6.200787929901474627e+02
-2.627326410387506144e+02
-6.562582886706742329e+02
-1.575631858667989263e+03
-2.245809039106719865e+03
-2.224782876746058264e+03
-1.451567986684430934e+03
-1.006166819848369187e+03
-1.166601223457355673e+03
-1.549840763740245848e+03
-1.909818921998215046e+03
-1.802516980495064900e+03
-1.710939255135055191e+03
-7.860506962255400367e+02
-7.018348208906792252e+02
-1.220314308022853311e+03
-1.818465884669488787e+03
-2.189304418183887265e+03
-1.755829401965883108e+03
-1.835064413238418865e+03
-1.855950084336830969e+03
-1.252427415872705069e+03
-7.954562675047442326e+02
-8.679604285993862050e+02
-1.334944541548062716e+03
-1.401463098694872997e+03
-1.440557686147245249e+03
-1.384204791906098080e+03
-8.613663081852195091e+02
-9.830621885584624806e+02
-1.153241202189701426e+03
-8.829326697995086306e+02
-8.482292839530791753e+02
-6.131065192452417705e+02
-5.636075994212829983e+02
-4.807692997284272565e+02
-8.105359382200084610e+02
-9.129105047769827479e+02
-8.930246988624483038e+02
-9.408553686145636448e+02
-1.207391624260172875e+03
-1.225661988100684539e+03
-1.042646055960188733e+03
-1.227406258905650247e+03
-1.150976946836271736e+03
-1.170367447246146185e+03
-1.027722051086106148e+03
-1.295047460876804962e+03
-1.098364306933641501e+03
-1.343704330289562904e+03
-1.507163811483558220e+03
-1.782748495748267715e+03
-1.558508171017394716e+03
-1.104463992613129449e+03
-1.251611176017567914e+03
-1.403978331569891225e+03
-8.605826224809529776e+02
-1.023437398966359865e+03
-6.035128185747809084e+02
-1.085590841618952851e+01
-6.424537565414125311e+02
-2.158618488705953041e+03
-2.384013310052737324e+03
-1.269572510448972025e+03
-1.350026878659308522e+03
-1.329652370919759051e+03
-1.043268925353316718e+03
-6.098290906259491067e+02
-1.628364214399946093e+02
-1.238396254440773419e+02
-3.880030643780565924e+02
-3.156859451399878367e+02
-5.322693330927970692e+02
-2.889286399133494569e+02
-1.707281985851803654e+02
-3.834914230754575328e+02
-5.452186664943438927e+02
-5.629339960610834623e+02
-4.445738974760853353e+02
-6.020952844619164352e+02
-6.887400158209718484e+02
-5.772937115709811451e+02
-4.348491954022679806e+02
-8.611526933658388998e+02
-1.140584980409853415e+03
-1.115941074730270429e+03
-9.552369765106799377e+02
-7.855247077340577562e+02
-8.906445611436527088e+02
-1.347950528765357603e+03
-1.459221726028217063e+03
-9.272687479162922273e+02
-1.901709725553530745e+02
2.379834637530447594e+02
-2.668128860859936253e+02
-3.495395252106489465e+02
-1.002633080820138787e+02
-1.559153959825715958e+02
1.904965050357770338e+02
3.888692906026396940e+02
2.292009483014576006e+02
-1.225121431138064167e+02
-1.552235096391133027e+02
-1.381049770081477135e+01
-3.991599943747061729e+02
-7.906950051738881484e+02
-5.926212243185550221e+01
1.611385523827074451e+02
7.304847506937834396e+02
9.667566725360010196e+02
6.699641410322701631e+02
8.740285249580881555e+02
1.300973242797784451e+03
1.169840619286236688e+03
1.005663821621275929e+03
1.042373623285964641e+03
1.149958020039741541e+03
1.048445720421101896e+03
8.698549064795173535e+02
9.542210352907608240e+02
9.585485682682362949e+02
1.000789406269986898e+03
6.350031040479033209e+02
-8.682166546909495253e+01
-8.626899532261497825e+02
-3.064337328409047132e+03
-3.671900449797175042e+03
-2.400490218918910159e+03
-2.320303582584768947e+02
-1.761596854289253770e+03
-1.332068741540340397e+03
1.450661942874902707e+03
-8.644690112987160546e+02
1.705963701199072489e+02
-8.651897416910194352e+02
-1.789816740366147997e+03
-1.973153374131271448e+03
-1.738213884810326135e+03
-5.959921226795875100e+02
-2.376459181416321371e+03
-4.038596663768886629e+03
-1.428413064316327564e+03
-2.495968315328471817e+03
3.784391761491450268e+01
4.320100607660270384e+02
5.864891630755601000e+02
-1.411704611319223204e+03
-1.618541837104619162e+03
6.699585915160857894e+02
6.788213152506201595e+02
4.150757793203120514e+02
-8.082774891765257053e+02
3.607897217497811084e+02
5.803040047685656191e+02
-2.880359981525382906e+01
-2.685198535579471582e+02
-5.238410638724791397e+02
-6.177823219665126544e+02
-1.257362038026029268e+03
-1.699578469929540915e+03
-1.640389058798770066e+03
-1.466785638230071754e+03
-1.598817966632825573e+03
-2.069527911179236526e+03
-1.306926005495461823e+03
-8.260778042950025792e+02
-4.480047594659092738e+02
7.093271040757051651e+02
1.016871307162383118e+03
1.726252569613769197e+02
-1.574415827274961543e+02
-1.730598689041008598e+01
-2.730589056106007320e+02
-5.308147270274442917e+02
-1.138589689499043516e+03
-1.764456806179499154e+03
-2.299452176434914236e+03
-2.276595307838534609e+03
-2.185910887245011509e+03
-1.789287338448001265e+03
-2.412808419008137662e+03
-2.938233631834846619e+03
-2.856853259977673133e+03
-2.454777271129822111e+03
-2.433058642156663154e+03
-2.449728138940749432e+03
-2.170837708847903741e+03
-1.811404455696035484e+03
-2.424583030090411739e+03
-3.169557024317458399e+03
-1.926266798207114334e+03
-1.237672046838295728e+03
-9.428716567465264689e+02
-9.449682837308995431e+02
-1.202282317509181894e+03
-1.009044941624620719e+03
-6.760685842550172993e+02
-4.663773160746368944e+02
-6.930244032353998591e+02
-6.782965744249950149e+02
-5.542277196388960192e+02
-1.888302165355074180e+02
4.768584033481954521e+02
1.105838302376741694e+03
1.073018565399686395e+03
7.763152560997577893e+02
8.866124919949454579e+02
1.187830748900347771e+03
1.393904383438954028e+03
2.048780948516937769e+03
2.636420101856440851e+03
3.349688723018251039e+03
2.789524774399835223e+03
2.565908039777806152e+03
