4.095954182290930021e+03
3.917731063314429321e+03
1.923195274066715001e+03
1.606590978687046800e+03
4.494665877093974814e+03
6.139114709649699762e+03
6.012050656280953262e+03
5.000582169379068546e+03
2.112050214028034588e+03
-4.032007093021445598e+02
-9.231338807110437301e+02
-2.244609292092655323e+03
-3.205565417589305525e+03
-1.046953145034819727e+03
1.985151699464830472e+03
5.155588222113169650e+03
5.600126868539125098e+03
4.715912627899604558e+03
5.248275334886087876e+03
5.141379435937475137e+03
3.903212194081995676e+03
2.297723486437603242e+03
6.083218616584589427e+02
2.420875609829480254e+03
6.799314529617598964e+03
1.010172286931433337e+04
1.046899015186324505e+04
9.031150945954124836e+03
7.336207064487781281e+03
6.676309754680694823e+03
4.912768664895230359e+03
4.015818761724291107e+03
2.861797019325409110e+03
1.951518575233539423e+03
1.194035643562873474e+03
6.069339484547201664e+02
8.767863948799117679e+02
1.216818779703439532e+03
9.129407149222215594e+02
8.306286361824363951e+01
-1.175715101727213778e+03
-1.736605515739249540e+03
-2.109652746889307764e+03
-1.717906189546420819e+03
-6.893192755353667280e+02
-9.564983581788249012e+01
1.239042918110054416e+03
2.486851565574962478e+03
2.956891625820381250e+03
4.673126132129293183e+03
4.458145642993746151e+03
3.372748199600968292e+03
2.432849764737009536e+03
2.202837485527270019e+03
1.006487481606509505e+03
-7.583454384919355107e+02
-1.426383964527317175e+03
-2.002608351922068323e+03
-3.715489478326576773e+03
-5.539352602168662997e+03
-4.821132524932377237e+03
-1.779730742664117543e+03
-5.202520312416975230e+02
-2.359818668159281060e+03
-1.152491461772792263e+03
1.402670016777959518e+03
2.692625373699025204e+03
2.303326460683009373e+03
-5.072973266308761140e+02
-3.019151172573647727e+03
-3.689194361957441743e+03
-3.561612194708896368e+03
-6.836448821398899781e+03
-1.186968976292154912e+04
-1.301352971154370061e+04
-5.166080967994588718e+03
7.558601794603114286e+03
1.184339034150762927e+04
8.557138820449885316e+03
5.927721595446963875e+03
5.031091123376454561e+03
3.974245459872728588e+03
3.186079344082087573e+03
3.977599868913223418e+03
3.656848455973095952e+03
2.842758771534588050e+03
2.271167628996451185e+03
5.530376775675736098e+02
-9.517283711260555492e+02
-2.689129005865771887e+03
-5.244134407769549398e+03
-7.946754163344503468e+03
-8.384060168324687766e+03
-6.708164174386747618e+03
-2.193392806821320846e+03
3.489288715108575161e+03
2.194902387900136091e+03
-3.076919339241948137e+02
-5.414507389757118290e+02
-5.462780911321920030e+02
-3.082049414970445014e+02
7.775090520289644473e+02
5.546180422736356377e+02
-4.308626796982118776e+02
-9.829295761857850948e+02
-1.937466975239206931e+03
-2.054513512305184577e+03
-1.367127195094912167e+03
1.100691589738178436e+03
3.508831930895494679e+03
8.077236074747765088e+03
1.211389440904960247e+04
1.116882895965351781e+04
9.476043885481169127e+03
8.654401688630508943e+03
6.059757082196120791e+03
3.461120999165562807e+03
2.978458276180735993e+03
2.185816829063617661e+03
2.040447071257598054e+03
1.903298221179981510e+03
1.321741861653334524e+02
-1.326154820683640082e+03
6.873533406375622690e+02
3.063818736792443360e+03
4.426244878812864954e+03
3.842670616744397648e+03
3.841158097897054631e+03
3.112777299180881982e+03
1.277551939267359330e+03
-2.520446006410511927e+03
-7.535142695941708553e+03
-1.029344219835739204e+04
-1.224533795681805168e+04
-9.753774352179278139e+03
-6.276899080930296805e+03
-7.808573753972926170e+03
-1.219773725941857629e+04
-6.793532113162804308e+03
4.001059668207392860e+03
1.150720259556330529e+04
9.405806594235189550e+03
6.785874264561697601e+03
6.544770282205373405e+03
4.256542531489324574e+03
2.359093938466116924e+03
2.183500753902233100e+03
-4.661311367092549176e+02
-9.526383800089562328e+02
-3.958879443168174816e+02
-7.388116433538324372e+02
-1.774344601921123740e+03
-9.159441400197529219e+03
-1.948799427096047293e+04
-1.768982229507534430e+04
-2.452940294603933580e+03
9.109752102638569340e+03
1.555940959221647972e+04
1.670734131696181066e+04
1.173046803475180968e+04
6.402723469507243863e+03
6.613064719415257969e+03
7.424597325169085707e+03
5.046518840492191885e+03
3.679965462032888809e+03
2.846947000551900601e+03
1.354888746108169357e+02
-2.987166743776081148e+03
-4.828815524133279723e+03
-7.618281793584998013e+03
-1.370540046216594783e+04
-1.685207439889950183e+04
-2.103718741851042796e+04
-2.514362032163364347e+04
-3.012032963877696238e+04
-1.937927763962680910e+04
-3.629444116551520892e+03
2.522497756324992579e+01
8.057702700385893877e+03
1.889390448127581112e+04
1.878804494119366427e+04
1.576832597453544804e+04
9.792834517860972483e+03
6.660780335476723849e+03
1.288315825845229938e+03
-7.934246271215362185e+02
1.317736455471166892e+03
1.053934787574207576e+03
-6.237066438577844565e+02
-2.592043424830553249e+03
-7.886953413203746095e+03
-6.348479857584404272e+03
-3.665590002166780778e+03
-7.748116792025643917e+03
-1.168487225917097749e+04
-1.014779282483016868e+04
-9.567865771921146006e+03
-4.754997082281481198e+03
3.122817919960216841e+03
1.015267815070810320e+04
9.506587066487296397e+03
1.045137389529797110e+04
1.088811305592426470e+04
9.402029734442599874e+03
9.557256190157449964e+03
1.023089508590350124e+04
8.808916509040616802e+03
6.993374997772544702e+03
5.915348698020364282e+03
5.424968238064982870e+03
5.646395587691526089e+03
7.336759484959100519e+03
8.270934721946414356e+03
6.100795350741169386e+03
2.477703966158114781e+03
1.823292284709303885e+03
2.491573990064746340e+03
5.073840637326205183e+01
-6.844323653661247590e+03
-1.442767263627499779e+04
-2.220662351848948674e+04
-2.054033321024356337e+04
-1.157930488043223340e+04
-3.349099368071355457e+03
1.083869237444177543e+03
9.632343372456292855e+03
1.309652406309207981e+04
1.098741147881075085e+04
7.113102354474817730e+03
2.230659013021632745e+03
4.981901963025360601e+03
8.859935275399568127e+03
8.826771658412069883e+03
7.317232444815233066e+03
2.981448451969264170e+03
-1.395707265670014976e+03
-4.020532779638947886e+03
-6.074346092595280425e+03
-3.891357280851696487e+03
-1.422790047049907116e+02
6.335862254809193473e+03
9.032973909438429473e+03
8.355532270625515594e+03
5.964260666086732272e+03
4.226086267069947098e+03
1.272090050077322303e+03
-9.912227370767571983e+02
-1.067636932702343529e+03
1.650584879443507134e+03
7.148291964811081016e+03
1.005525178735692134e+04
9.299757836968652555e+03
8.551604765030378985e+03
7.275621673876601562e+03
5.608624341438654483e+03
1.857491599357569157e+03
-1.587516017587428678e+03
-2.126584043211639255e+03
-7.795384340320312333e+01
4.987387283640040550e+03
6.773207460379911936e+03
3.610087234411746522e+03
2.339975482093750827e+02
-3.669048562182509158e+03
-6.329028126321893978e+03
-5.900826683991722348e+03
-4.990555257210299715e+03
-2.973421037829407851e+03
-4.184859277686055066e+02
2.799141333109912011e+03
5.433150898770987624e+03
5.834259708415099340e+03
2.511275561681644376e+03
-5.276621994262292219e+02
-2.385575697164811118e+03
-4.086718879667146666e+03
-6.086138487943420841e+03
-8.365813444161309235e+03
-6.339751651656589274e+03
-5.906965010521224031e+03
-6.310774046474824900e+03
-5.804516705006452867e+03
-8.068285655426256199e+03
-1.084195011920707111e+04
-1.422451866721673105e+04
-1.817182658882889882e+04
-2.092193446505964312e+04
-2.077883453677435318e+04
-1.509972282858517792e+04
-8.134568725249997442e+03
-3.864495939726835445e+02
3.895725374766578284e+02
-1.822635751979332326e+03
-6.912291471329734804e+02
-1.413266721101295616e+03
-2.973761490985536966e+03
-2.296695753658965259e+03
-4.297077512196106909e+03
-6.613011455740473139e+03
-9.956587647101800030e+03
-1.289786443939516175e+04
-1.092988326278173736e+04
-8.474556592817420096e+03
-8.990951645411105346e+03
-4.152225151596327123e+03
1.390622322674979614e+03
2.042453982131512021e+03
2.953327159445140637e+02
-3.505635960492364575e+03
-2.276413746926463318e+03
-2.361042127640469971e+03
-3.371480634475693478e+03
-4.437120544829709843e+02
4.647096616044103030e+03
5.171958467309192201e+03
2.338897998764059594e+03
1.200929449811311770e+03
1.997006706836448075e+03
2.958945966576413412e+03
3.165768779947578878e+03
2.933636303307428079e+03
2.774308918514364905e+03
2.838639685846249904e+03
2.457700503796222620e+03
8.136520995015199560e+02
4.997115498931441948e+02
1.488902412339269176e+03
1.775122077472453157e+03
2.132279504923881632e+03
3.414657167808245504e+03
3.529461916361524800e+03
3.530456454417270379e+03
3.959777596542982337e+03
3.908765396720200442e+03
2.938885230230127036e+03
1.440737871770624224e+03
-3.864154440324909956e+01
-8.623096954635529983e+02
-1.733228694113613528e+03
-1.522491192735220011e+03
-2.711902495229210786e+02
1.176434659324143468e+03
9.135603591648479096e+02
-1.345467204942970056e+02
-7.677506657684076572e+02
-6.449361431626521153e+02
5.212139893887238884e+01
1.415425969328391147e+03
2.179806853813703128e+03
1.616031587499634270e+03
-8.651120683948370242e+02
-2.446946798398428200e+03
-3.307714883243867462e+03
-5.154783469796178906e+03
-5.940112914628442013e+03
-4.026394206420086903e+03
-9.687410290425842732e+02
4.573256524073993887e+02
-8.115751624386231242e+02
-2.105550433446426268e+03
-3.398659966049031937e+03
-2.165030676398678679e+03
-4.416434401995510370e+02
6.284078342805745478e+02
1.980995328209352465e+03
2.125879375803025596e+03
2.166947945378622990e+03
2.186976631592511694e+03
2.743827086925269214e+03
3.832725856974557246e+03
3.725643535473258908e+03
2.106427949069306578e+03
8.811799880661729958e+02
-6.461644392552410636e+02
-1.922844822372227100e+03
1.760907562480250874e+02
2.634464588703364370e+03
3.701184368705594807e+03
2.563284565361513160e+03
1.828691304461880463e+03
1.652004427517125123e+03
1.502028119239071657e+03
1.494694121660653764e+03
1.531087586500918178e+03
9.960632548720017212e+02
-1.264003772758370303e+02
-6.402631999028941436e+02
-5.914791963732576505e+02
1.990205337044849330e+02
1.395043036853681315e+03
2.453416208117731458e+03
1.666662569748962824e+03
2.039513597645979416e+03
3.391174024646850739e+03
3.013766851737215802e+03
1.416379189328969233e+03
1.560277081227213102e+03
7.703850807142221129e+02
-5.087068200235833615e+02
1.949946434756802319e+03
3.966089930661266408e+03
3.765827797809786716e+03
3.033073420475914645e+03
2.262602813170103673e+03
2.762548568280181371e+03
3.356659345663045315e+03
4.437740908925226904e+03
5.731815780715848632e+03
5.866821777906254283e+03
5.783249099200932505e+03
6.529471130464955422e+03
6.079463558450582241e+03
5.868822534480902505e+03
4.971410565471593145e+03
4.226553852477338296e+03
3.427507560982332052e+03
2.135619332881582977e+03
9.249353994138427879e+02
-1.250215910062029820e+02
-3.953535860994196582e+02
-3.798790173031135851e+02
-1.757116290544525441e+02
2.591245375184169006e+02
3.257860495611818124e+02
1.083291898324078915e+02
1.767014986588788616e+01
5.489403080356297551e+02
1.102421301129301128e+03
1.231943210663013815e+03
1.968651177828543950e+03
2.468613953442597449e+03
2.731987089405431107e+03
1.836416509347739975e+03
7.392017711898731704e+02
8.512226679203985213e+01
-8.912412921400083405e+02
-1.224314964265590788e+03
-1.586339851340256018e+03
-2.876034085450481598e+03
-3.500996296246020847e+03
-3.636308763567014921e+03
-3.695596905155081458e+03
-3.606899299739510298e+03
-3.529482908888764086e+03
-3.857110098015326002e+03
-3.610548248546564082e+03
-2.830568548234633909e+03
-2.222662664162707642e+03
-2.329227821416210645e+03
-2.486367408944917315e+03
-2.213389839205034150e+03
-2.163099732546605992e+03
-2.459837072886950864e+03
-2.947477377342743694e+03
-3.839248782950270652e+03
-4.352360510538591370e+03
-4.797717831333799040e+03
-5.266635168614503527e+03
-5.894071102840404819e+03
-6.212744443107641018e+03
-5.971276025330823359e+03
-5.787620285726594375e+03
-6.275578489364205780e+03
-6.072725703173412512e+03
-5.889767302248630585e+03
-5.398496194362721326e+03
-4.823693433596624345e+03
-4.398160759470100857e+03
-3.951779862202244203e+03
-3.666261170399931871e+03
-3.172086254581340199e+03
-3.394803444156422302e+03
-3.909371586865058816e+03
-3.782711869377221319e+03
-4.059322546101986973e+03
-4.367506043397689609e+03
-5.511693725858654034e+03
-7.110459766605496043e+03
-6.692389785998243497e+03
-5.809698458577846395e+03
-8.052099056986163305e+03
-1.211915124167294016e+04
-1.173005580143030056e+04
-1.138128765362553349e+04
-1.059208503661811665e+04
-9.845942417236490655e+03
-8.691355744861804851e+03
-7.981695395353145614e+03
-7.787740674549083451e+03
-7.091642750868869371e+03
-3.007029118784579623e+03
5.305785782005515330e+02
8.855588141377555758e+02
-4.294047155326978071e+01
-3.660647029039190784e+03
-3.343555318832991361e+03
-2.019561200307566878e+03
1.643271732825903655e+03
1.856453459261120770e+03
-9.223987513408088716e+02
-3.661812488138799381e+03
-3.975543918553458752e+03
-3.439146022831426762e+03
-7.832333981327662968e+02
5.923519688821048703e+02
6.406519115061189495e+02
1.756641849925592396e+03
4.830677209069631317e+03
6.927332101184671956e+03
7.915930622292865337e+03
7.821788635747492663e+03
6.652237613146164222e+03
8.908777661936046570e+03
1.068367356789187761e+04
1.111177238185709575e+04
1.108112380162092268e+04
1.084475761163894094e+04
1.006114643764520588e+04
9.496846806885017941e+03
8.751070645099151079e+03
8.521195587891186733e+03
8.755404920922852398e+03
8.629666357191250427e+03
8.848139609012225264e+03
8.625952352596337732e+03
8.402220521362927684e+03
8.894962649365830657e+03
8.711280970729427281e+03
8.255497696165375601e+03
8.619129936057643135e+03
8.624346214392340698e+03
7.882210796610906982e+03
6.953811628141793335e+03
5.919281589326057656e+03
4.943756545062199621e+03
4.222001537027770610e+03
3.887127381407550274e+03
3.600276980391826783e+03
2.977485539996413991e+03
2.414029093173958245e+03
3.990692804787511250e+02
4.947531505738011788e+02
1.593236522490588413e+03
2.522426936000967089e+03
2.431124638701253389e+03
3.144124397101977593e+03
3.863051564327954111e+03
4.754940991234006106e+03
4.864978667719778059e+03
4.561343270420910812e+03
4.333784120435245313e+03
3.941404482252596154e+03
3.714215089525137046e+03
3.259906389002374908e+03
2.389610459148379505e+03
7.073264038579641237e+02
-7.948980945173318560e+02
-1.790065642541760099e+03
-1.460673552788877942e+03
-3.279519584461263548e+02
-3.599231536492354167e+02
-5.621813335935845544e+02
-6.377470350955831009e+02
-1.392436994613621209e+03
-1.636326280299748760e+03
-1.168317476623595667e+03
-1.868977917286536865e+02
6.979189490659917965e+02
1.332028722714006562e+03
9.038567987969333899e+02
7.680468493407838650e+02
-4.052382288573608662e+02
-2.103935186383175733e+03
-1.968345904374575866e+03
-1.009916598503037221e+03
-6.078321386159367421e+02
-1.141236401229030434e+03
-1.767327315218621379e+03
-2.450283271499828061e+03
-2.993333651776945771e+03
-2.983691263671518300e+03
-2.898437047595769855e+03
-2.753804003967522476e+03
-2.277132240534468110e+03
-1.984525944606770963e+03
-1.622194432644104381e+03
-1.148462143283096566e+03
-2.324985085726640932e+02
-1.565077376622296583e+02
-8.427818851633355735e+02
-1.820478879851036709e+03
-2.648788336788444212e+03
-3.219901684573358125e+03
-3.184000872331556366e+03
-2.872419914214162418e+03
-3.600412040201124910e+03
-3.880315371924536066e+03
-8.770470964410891611e+03
-1.304816807960669939e+04
-1.439151588151832220e+04
-1.556059165578575085e+04
-1.534857550558361618e+04
-1.218378595395994853e+04
-9.198565988752616249e+03
-8.335284276511116332e+03
-7.987932318818346175e+03
-7.477538679639185830e+03
-6.774076568539605432e+03
-5.935960794657643419e+03
-2.212442599955218157e+03
1.950435751765679470e+03
1.034312441069647974e+02
-2.966953176328875998e+03
1.262905724435556976e+03
3.190859934318606520e+03
3.670916267233855251e+03
3.316896456557404235e+03
2.248567265807748299e+03
1.489548939082334755e+03
9.916073381739422530e+02
5.786085541380743962e+02
1.643985005509089774e+02
-2.020937157264020243e+02
7.179862102447297048e+02
1.744514203171234158e+03
2.363269752358043661e+03
2.702143956886446176e+03
2.788129473075922760e+03
3.155151113700080714e+03
3.265016137878893460e+03
3.256733748134399320e+03
3.450168237426614724e+03
3.175947992744859221e+03
2.950838854500948401e+03
2.558715116808177754e+03
2.422661606127602681e+03
2.034551299357899779e+03
1.357302436892872265e+03
5.068296512351754473e+02
1.839657114226146177e+02
-1.423432146587269642e+02
-1.510550058169932868e+02
4.748202027012301301e+02
5.982685561472857216e+02
8.282617266632822748e+02
1.530663208665987440e+03
1.997387054082650820e+03
2.648436434393471700e+03
3.476845164390863374e+03
4.020454164506343204e+03
4.277193398746883759e+03
4.463187575934095548e+03
4.407505346041954908e+03
4.026967171368986783e+03
3.767593175887184316e+03
3.023442595995242300e+03
2.299190425017529833e+03
1.855762101773648055e+03
1.499259107926857041e+03
1.064010670567058469e+03
8.400295546757389502e+02
4.830854384011932439e+02
-2.961625851590215319e+01
2.129633314324259175e+02
1.497473326723262801e+02
2.628700452237131913e+02
1.405416365058976226e+03
1.975273840426694051e+03
1.526566601132212554e+03
1.305400758684405957e+02
1.217355804844632303e+03
2.578919150467481813e+03
2.919128357932210292e+03
3.101289785215014490e+03
2.867580511424624092e+03
2.839930516497919598e+03
2.449233638930316829e+03
1.657505704526397494e+03
1.291812402097574477e+03
1.108221959224383454e+03
9.618285553117170821e+02
8.167859578542625059e+02
1.286154660142880175e+03
1.379934928013146418e+03
1.389214216252754568e+03
1.615168590400671746e+03
2.086821900166431078e+03
2.909206256313509130e+03
3.132475977330009300e+03
2.918855128942093415e+03
3.075401677246994041e+03
3.604126968666146240e+03
3.635166360691948285e+03
3.322541944122172026e+03
2.510271257645546029e+03
1.787505644919041515e+03
6.082831412179662038e+02
-2.414231526890395116e+02
-3.235318851715648520e+02
-6.979546985346842121e+02
-1.381648089734199175e+03
-2.121464175028887439e+03
-2.052334592092979165e+03
-9.152376680867757841e+02
3.729278991418607347e+02
7.763061369895204962e+02
1.727974846359855519e+03
2.925953894197913996e+03
3.440328324981360765e+03
3.124133443365335097e+03
2.863490738526823407e+03
2.579514190567896549e+03
2.433238851170840007e+03
1.901672078642125598e+03
9.568262168008409390e+02
6.607047873030344363e+02
5.583682987048125597e+02
-2.632208570845916711e+02
-8.180296790691288606e+02
-1.023950309064299631e+03
-1.206957510404999766e+03
-1.377026824242381736e+03
-1.402135235907080869e+03
-1.282241232852979465e+03
-1.035283320214751257e+03
-6.262376403462419603e+02
1.594045920272700378e+01
1.130275935799776562e+03
2.066855064854471493e+03
2.035761108886751344e+03
1.568906124981534731e+03
6.923203013663827505e+02
9.189256102703408260e+02
9.159530160006023607e+02
-1.854483039062183252e+03
-2.734442898704137860e+03
-2.077281839818663684e+03
-1.461529927327786709e+03
-1.317031894131957642e+03
-1.873368652573356712e+03
-2.089160281347375530e+03
-2.408643559475136499e+03
-2.430916917918537365e+03
-4.050732559399652928e+03
-5.198279888771917285e+03
-2.692244272929771341e+03
-4.909977934819357870e+02
6.974027191572615720e+02
1.899733084956932998e+03
2.079388439722824387e+03
1.795279632273866355e+03
1.934748220724952944e+03
1.896462915644808163e+03
1.119417149285330424e+03
1.871548294565212416e+02
1.594921299745444720e+01
-1.409197688931205903e+02
-1.053736582857539815e+03
-2.132365893280932596e+03
-2.167050888397431663e+03
-1.985106515106800316e+03
-1.730223492718860143e+03
-1.499443478684075444e+03
-1.808607284585195657e+03
-1.734164890404737434e+03
-1.128134095346664026e+03
-5.685609901794726966e+02
2.659204152739725942e+02
1.728456311476462588e+03
3.122636909073678453e+03
1.836381317329805597e+03
6.097899766943079385e+02
5.748553510639296746e+02
1.417526893557082076e+03
1.554800961158101472e+03
4.496293372133195021e+02
-1.749736522727031911e+02
-7.780806302819784150e+02
-1.642784545952828694e+03
-2.361053084851476797e+03
-2.304873194538168718e+03
-1.722229727803877267e+03
-1.475082549695309581e+03
-1.759472407297408836e+03
-1.713343358153514146e+03
-8.576198175929677063e+02
1.286801267579981527e+02
1.149516116306981303e+03
1.736922331129650956e+03
2.021982233687423104e+03
2.032697303609897517e+03
2.226108006326369377e+03
1.515209990853581985e+03
7.179588424943856353e+02
3.573240556651357451e+02
-2.648032800179427113e+02
-6.803782811502240975e+02
-1.179070704294476627e+03
-1.631158965771526027e+03
-3.420808722113004023e+03
-5.830958152511112530e+03
-4.690535127658723468e+03
-5.197628041841519916e+03
-1.978321236859300598e+03
-1.450546088115245539e+03
-1.354005059031476776e+03
-7.015660411325677615e+02
2.817073415470273972e+02
1.213699539318823099e+03
1.220216924991840415e+03
9.502285243756199407e+02
7.388072007540782806e+02
4.289909593590111285e+02
9.337642509517868348e+02
1.303041691288136462e+03
1.281586792754358157e+03
-4.476273760686378864e+02
-2.841516412051250427e+03
-1.986026683473178764e+03
-8.961847392908890697e+02
-1.478884791476075407e+03
-1.866145720541088849e+03
-1.938979176061194494e+03
-1.244360897135033611e+03
-6.913047159303274611e+02
-1.149845150297948521e+03
-7.527761722016729209e+02
3.790033903974842815e+02
1.248576480944773039e+03
2.025196783932280368e+03
1.447789793983356049e+03
1.314210916340985705e+03
1.265435383035211544e+03
7.595794636114272862e+02
5.305415231131172504e+02
1.731843952094161239e+02
-8.685811446080145970e+02
-2.012772982587087199e+03
-2.504391081744418898e+03
-3.327497003096576918e+03
-3.283236743163278788e+03
-2.842606159548959113e+03
-2.428591923144314478e+03
-2.181130144193621618e+03
-1.626220671017888662e+03
-1.277821409324216802e+03
-2.487636575904017491e+02
4.990758144507840939e+02
1.103673282622113220e+03
2.236930420265156954e+03
2.663944793080666386e+03
2.659767002381573093e+03
2.294365846096925907e+03
1.677800024752562877e+03
6.914362358670471167e+02
-5.686810094690122241e+02
-1.053667804941282157e+03
-7.416231333764571900e+02
-8.865909753353150791e+02
-2.025744408158923534e+03
-4.592035513715849447e+03
-4.934297427493046598e+03
-4.100576943052149545e+03
-2.107869096196687224e+03
-2.065072546122403764e+03
-2.123295244019558140e+03
-1.255928952138488285e+03
1.907807276986118552e+02
1.058562946920286777e+03
1.692551675738149925e+03
2.069090785979959037e+03
2.458257547723055723e+03
2.736059231770676888e+03
2.033521624894298384e+03
1.118694615557280486e+03
1.206157776546657061e+02
-9.275793644823000932e+02
-1.401842070302373259e+03
-1.833264648151887741e+03
-2.319713839323793309e+03
-2.554186168266928235e+03
-3.241799512426880938e+03
-2.788645998389382839e+03
-1.509716237962555169e+03
-9.990022713566173707e+02
-1.265585013050450243e+03
-4.033731329163958321e+02
3.567350553467253462e+02
1.579757671383168827e+03
2.457723338471653278e+03
2.228659894489691396e+03
2.104663243867938036e+03
1.634739794716833558e+03
1.634912858992476004e+03
1.596211520437567060e+03
3.747224499772424906e+02
-8.805216024083781576e+02
-1.632664866284573463e+03
-2.776854099795511047e+03
-3.181147947276645937e+03
-2.781421556315314774e+03
-2.602464071710304324e+03
-2.251241792906566388e+03
-1.016865997331410654e+03
-5.154759643310306956e+02
-5.348454021103183322e+02
1.320869179267125730e+02
1.274151135971183749e+03
2.286294031411332526e+03
2.893506781221296023e+03
2.913958287620705505e+03
2.985733515942811664e+03
2.736785433774875401e+03
1.386139574172011180e+03
-1.330283278053894264e+03
-1.008623262089382933e+03
-9.838507077588070615e+02
-3.307886049797056330e+03
-3.454846299906555032e+03
-2.748703474630903202e+03
-2.909556290251635346e+03
-2.854351823703644641e+03
-2.424962470824384582e+03
-3.176498963173545690e+03
-4.403849788426537089e+03
-2.988930612110361380e+03
-5.306045184629962250e+02
3.641206789485304967e+02
-1.132778915014300537e+03
-3.222374842978128981e+02
2.166672641615940393e+03
3.309842619236419068e+03
3.008140391680162793e+03
2.198691220274477018e+03
1.396717932556253800e+03
7.242731980666609388e+02
-1.345975760685034857e+02
-3.811150435037617967e+02
-7.795884113111441138e+02
-1.602151113996678760e+03
-2.300700048393680845e+03
-2.118266743837967624e+03
-1.836860619151556875e+03
-2.230269007801620319e+03
-1.775387279618222692e+03
-4.541868184921378315e+02
4.464891942948329415e+02
9.026675650528611641e+02
1.767389431911211659e+03
2.665600650502411099e+03
2.873027002916417587e+03
2.993668437328164146e+03
3.133459328437225395e+03
2.324347046026017324e+03
1.497332620980591400e+03
8.733983564881917800e+02
-3.064255354569131669e+02
-1.176083065920179024e+03
-1.655548835045374062e+03
-2.185850631672000418e+03
-2.352041783880711137e+03
-2.156130120276299749e+03
-1.799256907756404189e+03
-1.455548614330623650e+03
-8.598944285365756741e+02
-8.762482760490987630e+02
-2.884730063879520117e+02
6.734612333706845675e+02
1.891527466723923226e+03
2.782734746852036551e+03
3.259120505824736483e+03
2.913691510123568150e+03
2.931498254082538551e+03
2.418418608609020339e+03
1.645313354528097079e+03
8.441504920478250824e+02
3.778826510293858973e+02
-3.575110545693618178e+02
-1.023011327007120940e+03
-1.503616196963332641e+03
-1.705372208153064321e+03
-1.902260942098979058e+03
-1.992184957314350868e+03
-1.777084119242650331e+03
-1.373091717926333786e+03
-3.982090842600849214e+02
-5.036227359596348663e+01
9.327102099005729485e+01
-1.244262077428558996e+03
-9.711848590821304015e+02
-4.446338059646288343e+01
2.277394549966766135e+03
6.742328267119984275e+02
1.656881758950767562e+03
2.139509779014557353e+03
-1.252903294451536112e+03
4.256543618764192871e+01
-1.050339294125391234e+03
-3.696752029415888956e+03
-2.661579039937704692e+03
-4.277633511807246578e+03
-2.099015425533297275e+03
-3.953062674631000846e+03
-2.472578217140402558e+03
-3.230645941746672179e+03
-1.345519416783214410e+03
-1.663086060795818867e+03
-6.692708997064562482e+02
-7.198476003418869595e+01
2.223906117477054067e+03
2.131401073737731167e+03
2.884368949312765835e+03
4.397800662171786826e+03
1.614640828636352580e+03
2.590123979297237838e+03
1.556346026199937569e+03
-1.254961489790033738e+03
-9.511106212505874282e+02
-2.245095519886600414e+03
7.222434582318284413e+01
-4.359487156980104032e+02
-1.478722887432441439e+03
-4.133203067659361295e+03
-3.109390505317860516e+03
-8.570555396246029431e+02
3.226654271890766950e+02
9.195142117451418926e+02
2.159559014610248141e+03
3.388774735372671785e+03
4.163277379313239180e+03
4.536018732925079348e+03
4.560873579622855686e+03
4.603869099440303216e+03
4.236097141064881725e+03
3.113440468290315948e+03
1.913815164148202257e+03
1.122184960483820532e+03
-3.937407319922192528e+01
-8.876295337256165112e+02
-1.601593543305757521e+03
-2.320547678740061201e+03
-2.443542686212548233e+03
-1.840243941008348656e+03
-1.910919629110213009e+03
-2.378520496986520357e+03
-2.131969272460960383e+03
-2.118240824847626754e+03
-1.642782017624801711e+03
-9.502949517834107382e+02
-3.119223044634425719e+02
1.398179643810682649e+02
-1.302647428843475382e+03
-2.534175000125714632e+03
-1.219402022883623431e+03
-1.386166243820648788e+03
-2.622642128038543433e+03
-3.127754118010810998e+03
-3.705510080534551889e+03
-4.700020707628878881e+03
-6.994342755530796239e+03
-8.525408021960531187e+03
-6.880803457800909200e+03
-3.296788073467391769e+03
4.544983712917757543e+02
3.389904795475455103e+03
4.503355512646171519e+03
5.196245146914189718e+03
6.567701798317122666e+03
7.674461958998085720e+03
8.703472796686248330e+03
9.089822273708707144e+03
7.620145338737103884e+03
6.539322969344530975e+03
5.268826371071676476e+03
4.218706588307031780e+03
2.586587329454089740e+03
1.125127145238674530e+03
-6.305376934689837753e+02
-2.263361032729661019e+03
-3.267288214017356950e+03
-4.677105276462441907e+03
-7.178841138393377150e+03
-8.701371841527417928e+03
-9.070913151334872964e+03
-9.857752152325103452e+03
-8.301473158978937136e+03
-5.611851538151372552e+03
-3.223150518496181576e+03
-9.876485180341539944e+02
2.489917884853327450e+03
5.200120549348552231e+03
6.424088422416404683e+03
6.670825338411406847e+03
7.284340559145087354e+03
8.188689431688873810e+03
8.561635852993265871e+03
7.357927321079657304e+03
5.732457687448908473e+03
3.946102604827455252e+03
2.752879330915511673e+03
1.834894187949307479e+03
3.402458111909007243e+02
-2.002271597361972510e+02
2.098739334076936416e+02
1.755719983623070277e+02
-1.356036976180206693e+03
-1.410998623183687187e+03
-4.855188283566413929e+02
-1.122904133571426883e+03
-8.417715243906116029e+02
-1.252104601155055889e+03
-1.899939262414884297e+03
-1.992444969713121054e+03
-3.801270180344321489e+03
-5.408716181915088782e+03
-6.208525645534802607e+03
-5.891415352894353418e+03
-4.961284658764515370e+03
-4.952326619263406428e+03
-4.650410713601587304e+03
-2.447679518531966551e+03
-8.740451183272464277e+02
-6.960374356118309151e+02
-2.513200418704596814e+03
-8.030228830944656693e+02
1.118364080760544084e+03
2.381224309178140629e+03
3.338367392652230137e+03
3.257662419921146466e+03
2.448351920820339728e+03
9.406747560817648264e+02
-5.494649628363009697e+02
-5.390329543258842477e+02
-4.975663556139250154e+00
-9.602434386931411154e+02
-4.526645921247975934e+02
1.676775051679416492e+03
2.984022595753789574e+03
2.963109234002895391e+03
2.751121317304337481e+03
2.212042245003300650e+03
5.399356649046525263e+02
-6.888095667969157603e+02
-1.094379459299662358e+03
-1.287861933094536653e+03
-1.863389683920843254e+03
-2.419341858303650497e+03
-2.207332315323340481e+03
-1.813126399501837795e+03
-1.508842802857716606e+03
-1.353556477826968148e+03
-4.647493255205362175e+02
1.460617384522168095e+03
1.601046181721137827e+03
-2.013960611278839679e+02
-2.733531160162819560e+03
-4.808412734139257736e+03
-4.382659206587740300e+03
-2.806109693244385653e+03
-2.648140983160865289e+03
-4.279850101976801852e+03
-2.788596034330675138e+03
-2.099004540309900904e+02
2.886038108582856694e+02
2.392882799379832282e+00
-8.946889679206644814e+02
-1.365696739395791610e+02
2.032862310321349923e+03
3.355598632952117441e+03
5.182749107230922164e+03
6.485397670880352052e+03
6.049829626364468822e+03
5.678366565266041107e+03
6.489206545829086281e+03
5.552412279958953150e+03
4.414132248871758748e+03
2.270850311112107192e+03
-1.048994865840440411e+02
-1.155033678598093957e+03
-2.850514155180383568e+03
-3.885143759884128031e+03
-5.225651662733229387e+03
-6.405289209790043060e+03
-5.327324080776194933e+03
-3.658883233168483912e+03
-1.486852124065998851e+03
1.278466273052766837e+02
1.051156670437760710e+02
-1.708070226189001232e+03
-2.728486188265790133e+03
-1.426089917305465406e+03
1.362996540517687663e+03
5.828756000219960697e+03
8.444292155595496297e+03
7.321478654800086588e+03
4.723254368503047772e+03
2.582761665421598536e+03
-7.091191056023664032e+02
-4.832700176077523793e+03
-6.672909935861274789e+03
